Data from glass_V78500241_744.txt Node
Date: Wed Sep 01 19:19:39 CST 2021
User: usil
Spectrometer: V785-0024
Trigger mode: 0
Integration Time (sec): 4.000000E-1
Scans to average: 1
Nonlinearity correction enabled: false
Boxcar width: 0
Storing dark spectrum: false
XAxis mode: Wavelengths
Number of Pixels in Spectrum: 1024
>>>>>Begin Spectral Data<<<<<
801.071	3743
801.214	3762
801.356	3724
801.499	3736
801.641	3732
801.783	3816
801.926	3884
802.068	3842
802.211	3884
802.353	3888
802.496	3892
802.638	3892
802.78	3926
802.923	3922
803.065	3926
803.208	3907
803.35	3857
803.492	3949
803.635	3899
803.777	3823
803.919	3896
804.061	4131
804.204	4002
804.346	3987
804.488	3899
804.63	3998
804.773	4006
804.915	4040
805.057	4147
805.199	4044
805.341	4124
805.483	4181
805.626	4135
805.768	4109
805.91	4257
806.052	4276
806.194	4207
806.336	4383
806.478	4246
806.62	4227
806.762	4207
806.904	4280
807.046	4386
807.188	4246
807.33	4207
807.472	4261
807.614	4230
807.756	4280
807.898	4227
808.04	4207
808.182	4280
808.324	4344
808.465	4398
808.607	4474
808.749	4421
808.891	4470
809.033	4470
809.174	4394
809.316	4272
809.458	4257
809.6	4154
809.741	4162
809.883	4131
810.025	4242
810.166	4185
810.308	4200
810.45	4265
810.591	4253
810.733	4253
810.875	4527
811.016	4816
811.158	5109
811.299	5315
811.441	5322
811.582	5086
811.724	4660
811.865	4504
812.007	4466
812.148	4462
812.29	4421
812.431	4417
812.573	4424
812.714	4413
812.855	4451
812.997	4436
813.138	4481
813.279	4409
813.421	4356
813.562	4348
813.703	4390
813.845	4337
813.986	4261
814.127	4246
814.268	4322
814.41	4310
814.551	4246
814.692	4348
814.833	4238
814.974	4310
815.115	4325
815.256	4257
815.397	4253
815.539	4299
815.68	4246
815.821	4242
815.962	4325
816.103	4242
816.244	4223
816.385	4246
816.526	4306
816.666	4219
816.807	4109
816.948	4154
817.089	4204
817.23	4143
817.371	4059
817.512	4116
817.653	4071
817.793	4044
817.934	4074
818.075	4109
818.216	4097
818.356	4112
818.497	4021
818.638	3930
818.778	3911
818.919	3899
819.06	3857
819.2	3930
819.341	3865
819.481	3854
819.622	3880
819.762	4048
819.903	3949
820.043	3869
820.184	3823
820.324	3857
820.465	3854
820.605	3896
820.746	3926
820.886	3797
821.026	3987
821.167	3926
821.307	3998
821.447	3983
821.588	3960
821.728	3960
821.868	3953
822.008	3884
822.149	3964
822.289	3937
822.429	3797
822.569	3770
822.709	3816
822.849	3679
822.99	3728
823.13	3774
823.27	3766
823.41	3717
823.55	3743
823.69	3751
823.83	3762
823.97	3728
824.11	3610
824.25	3603
824.389	3614
824.529	3675
824.669	3652
824.809	3728
824.949	3751
825.089	3755
825.228	3705
825.368	3580
825.508	3568
825.648	3591
825.787	3584
825.927	3648
826.067	3675
826.206	3694
826.346	3778
826.485	3842
826.625	3880
826.765	3956
826.904	3838
827.044	3625
827.183	3530
827.323	3424
827.462	3504
827.601	3466
827.741	3439
827.88	3511
828.02	3363
828.159	3428
828.298	3523
828.437	3534
828.577	3523
828.716	3644
828.855	3538
828.994	3340
829.134	3405
829.273	3378
829.412	3355
829.551	3355
829.69	3370
829.829	3386
829.968	3500
830.107	3443
830.246	3435
830.385	3348
830.524	3374
830.663	3306
830.802	3253
830.941	3207
831.08	3226
831.219	3294
831.357	3279
831.496	3389
831.635	3249
831.774	3214
831.913	3214
832.051	3165
832.19	3150
832.329	3176
832.467	3150
832.606	3104
832.744	3154
832.883	3218
833.022	3199
833.16	3233
833.299	3306
833.437	3401
833.576	3397
833.714	3409
833.852	3450
833.991	3469
834.129	3492
834.267	3443
834.406	3420
834.544	3485
834.682	3420
834.821	3458
834.959	3587
835.097	3458
835.235	3534
835.373	3504
835.511	3530
835.65	3431
835.788	3492
835.926	3420
836.064	3431
836.202	3397
836.34	3561
836.478	3614
836.615	3549
836.753	3614
836.891	3686
837.029	3618
837.167	3595
837.305	3599
837.443	3542
837.58	3542
837.718	3587
837.856	3568
837.993	3534
838.131	3603
838.269	3603
838.406	3656
838.544	3603
838.681	3496
838.819	3481
838.956	3382
839.094	3412
839.231	3454
839.369	3542
839.506	3724
839.643	3625
839.781	3561
839.918	3523
840.055	3538
840.193	3538
840.33	3545
840.467	3587
840.604	3614
840.742	3846
840.879	3584
841.016	3568
841.153	3587
841.29	3762
841.427	3717
841.564	3698
841.701	3770
841.838	3694
841.975	3686
842.112	3690
842.249	3675
842.385	3641
842.522	3854
842.659	3686
842.796	3679
842.933	3755
843.069	3732
843.206	3743
843.343	3846
843.479	3781
843.616	3854
843.752	3698
843.889	3701
844.025	3835
844.162	3759
844.298	3869
844.435	3793
844.571	3804
844.708	3911
844.844	4002
844.98	4025
845.117	4010
845.253	3945
845.389	3937
845.525	3964
845.661	3941
845.798	3960
845.934	4040
846.07	3994
846.206	4067
846.342	4105
846.478	4071
846.614	3983
846.75	3975
846.886	3930
847.022	3998
847.158	3983
847.294	3968
847.429	4044
847.565	4021
847.701	4261
847.837	3896
847.972	3869
848.108	3949
848.244	4013
848.379	3899
848.515	3854
848.65	3857
848.786	3827
848.921	3865
849.057	3934
849.192	3937
849.328	3876
849.463	3911
849.598	3888
849.734	3888
849.869	3865
850.004	3766
850.14	3835
850.275	3812
850.41	3759
850.545	3762
850.68	3785
850.815	3835
850.95	3812
851.085	3979
851.22	3873
851.355	3865
851.49	3800
851.625	3812
851.76	3808
851.895	3759
852.03	3698
852.165	3800
852.299	3861
852.434	3926
852.569	3922
852.703	3880
852.838	3896
852.973	4036
853.107	4013
853.242	3884
853.376	3896
853.511	3827
853.645	3861
853.78	4002
853.914	3899
854.048	3876
854.183	3899
854.317	3964
854.451	4093
854.585	3987
854.72	3987
854.854	4063
854.988	3953
855.122	4040
855.256	3915
855.39	4059
855.524	4109
855.658	4059
855.792	4101
855.926	4124
856.06	4158
856.194	4227
856.327	4135
856.461	4147
856.595	4173
856.729	4215
856.862	4284
856.996	4234
857.13	4295
857.263	4322
857.397	4371
857.53	4325
857.664	4341
857.797	4398
857.931	4386
858.064	4394
858.197	4413
858.331	4398
858.464	4383
858.597	4383
858.731	4455
858.864	4470
858.997	4478
859.13	4493
859.263	4565
859.396	4554
859.529	4542
859.662	4550
859.795	4519
859.928	4634
860.061	4683
860.194	4778
860.327	4675
860.46	4672
860.592	4683
860.725	4729
860.858	4759
860.99	4740
861.123	4675
861.256	4645
861.388	4782
861.521	5444
861.653	4748
861.786	4687
861.918	4767
862.05	4805
862.183	4820
862.315	4915
862.447	4968
862.58	4885
862.712	4786
862.844	4759
862.976	4881
863.108	4850
863.24	5250
863.372	4854
863.504	4915
863.636	4900
863.768	4957
863.9	4972
864.032	4915
864.164	5041
864.296	5018
864.428	5098
864.559	5143
864.691	5124
864.823	5136
864.954	5094
865.086	5140
865.217	5064
865.349	5086
865.48	5155
865.612	5231
865.743	5280
865.875	5189
866.006	5246
866.137	5265
866.269	5242
866.4	5280
866.531	5227
866.662	5299
866.793	5315
866.924	5318
867.055	5368
867.186	5337
867.317	5322
867.448	5303
867.579	5376
867.71	5372
867.841	5398
867.972	5452
868.103	5497
868.233	5497
868.364	5482
868.495	5558
868.625	5688
868.756	5802
868.886	5668
869.017	5737
869.147	5859
869.278	5931
869.408	5783
869.539	5809
869.669	5931
869.799	5950
869.929	5984
870.06	5999
870.19	6159
870.32	6167
870.45	6251
870.58	6346
870.71	6403
870.84	6441
870.97	6407
871.1	6422
871.23	6646
871.36	6673
871.489	6608
871.619	6783
871.749	6787
871.879	6859
872.008	7008
872.138	7023
872.267	7027
872.397	7015
872.526	6973
872.656	7107
872.785	7236
872.915	7403
873.044	7571
873.173	7662
873.303	7666
873.432	7746
873.561	7860
873.69	7928
873.819	8046
873.948	8225
874.077	8218
874.206	8309
874.335	8434
874.464	8663
874.593	8921
874.722	8956
874.851	9135
874.979	9272
875.108	9435
875.237	9428
875.365	9477
875.494	9720
875.623	9808
875.751	9884
875.88	10078
876.008	10162
876.136	10268
876.265	10485
876.393	10759
876.521	10729
876.65	10805
876.778	10866
876.906	10900
877.034	10991
877.162	11105
877.29	11147
877.418	11318
877.546	11387
877.674	11532
877.802	11353
877.93	11520
878.058	11570
878.185	11547
878.313	11676
878.441	11794
878.568	11703
878.696	11821
878.824	11882
878.951	11939
879.079	12083
879.206	12095
879.333	12041
879.461	12015
879.588	12057
879.715	12148
879.842	12228
879.97	12106
880.097	11813
880.224	11958
880.351	11969
880.478	11977
880.605	11920
880.732	11756
880.859	11984
880.986	11805
881.112	11851
881.239	11714
881.366	11657
881.493	11672
881.619	11562
881.746	11611
881.872	11501
881.999	11573
882.125	11547
882.252	11516
882.378	11516
882.505	11512
882.631	11391
882.757	11258
882.883	11273
883.01	11372
883.136	11189
883.262	11105
883.388	11124
883.514	11239
883.64	11201
883.766	11170
883.892	11003
884.018	11033
884.143	11140
884.269	11056
884.395	10900
884.52	10725
884.646	10809
884.772	10790
884.897	10698
885.023	10725
885.148	10664
885.274	10835
885.399	10687
885.524	10660
885.65	10599
885.775	10550
885.9	10691
886.025	10618
886.15	10508
886.275	10489
886.4	10417
886.525	10413
886.65	10363
886.775	10310
886.9	10474
887.025	10550
887.149	10341
887.274	10215
887.399	10246
887.523	10207
887.648	10227
887.773	10166
887.897	10272
888.021	10234
888.146	10109
888.27	10215
888.395	10253
888.519	10154
888.643	10124
888.767	10314
888.891	10139
889.015	9994
889.139	10090
889.263	9964
889.387	10036
889.511	10173
889.635	10071
889.759	9994
889.883	9953
890.006	10116
890.13	10063
890.254	10059
890.377	9949
890.501	9808
890.624	9903
890.748	9911
890.871	9819
890.995	9797
891.118	9770
891.241	9781
891.364	9804
891.488	9907
891.611	9747
891.734	9812
891.857	9751
891.98	9736
892.103	9835
892.226	9770
892.349	9660
892.471	9523
892.594	9618
892.717	9686
892.839	9595
892.962	9595
893.085	9709
893.207	9572
893.33	9435
893.452	9515
893.575	9648
893.697	9523
893.819	9660
893.941	9618
894.064	9599
894.186	9458
894.308	9386
894.43	9507
894.552	9488
894.674	9564
894.796	9367
894.918	9389
895.04	9325
895.161	9393
895.283	9336
895.405	9260
895.526	9264
895.648	9253
895.769	9233
895.891	9226
896.012	9260
896.134	9245
896.255	9264
896.376	9154
896.498	9180
896.619	9211
896.74	9100
896.861	9176
896.982	9245
897.103	9302
897.224	9188
897.345	9074
897.466	9017
897.587	9036
897.708	9108
897.828	8986
897.949	8967
898.07	8853
898.19	8929
898.311	9070
898.431	8967
898.552	8929
898.672	8979
898.792	8921
898.913	8994
899.033	8823
899.153	8735
899.273	8689
899.393	8716
899.513	8807
899.633	8739
899.753	8655
899.873	8644
899.993	8758
900.113	8727
900.232	8727
900.352	8686
900.472	8674
900.591	8530
900.711	8594
900.83	8575
900.95	8610
901.069	8727
901.189	8587
901.308	8533
901.427	8366
901.546	8480
901.665	8427
901.784	8465
901.904	8347
902.023	8358
902.141	8221
902.26	8248
902.379	8282
902.498	8221
902.617	8298
902.735	8336
902.854	8259
902.973	8240
903.091	8153
903.21	8187
903.328	8123
903.446	8138
903.565	8103
903.683	8103
903.801	7997
903.919	8199
904.038	8130
904.156	8046
904.274	8153
904.392	7986
904.51	8054
904.627	8039
904.745	8050
904.863	8153
904.981	7913
905.098	7928
905.216	7906
905.334	7898
905.451	7849
905.569	7871
905.686	7879
905.803	7963
905.921	7837
906.038	7860
906.155	7807
906.272	7723
906.389	7723
906.506	7731
906.623	7651
906.74	7578
906.857	7590
906.974	7605
907.091	7708
907.208	7746
907.324	7700
907.441	7548
907.557	7373
907.674	7483
907.79	7396
907.907	7441
908.023	7445
908.139	7468
908.256	7358
908.372	7449
908.488	7407
908.604	7278
908.72	7255
908.836	7225
908.952	7297
909.068	7236
909.184	7343
909.3	7209
909.415	7327
909.531	7346
909.647	7122
909.762	7088
909.878	7114
909.993	7126
910.108	7042
910.224	7065
910.339	7129
910.454	7103
910.57	7061
910.685	7019
910.8	7232
910.915	7088
911.03	7008
911.145	6897
911.259	6947
911.374	6859
911.489	6795
911.604	6825
911.718	6738
911.833	6768
911.947	6639
912.062	6623
912.176	6719
912.291	6719
912.405	6749
912.519	6909
912.633	6901
912.748	6764
912.862	6757
912.976	6642
913.09	6506
913.204	6521
913.318	6582
913.431	6627
913.545	6677
913.659	6715
913.772	6665
913.886	6570
914	6604
914.113	6642
914.226	6604
914.34	6642
914.453	6509
914.566	6677
914.68	6574
914.793	6544
914.906	6456
915.019	6414
915.132	6410
915.245	6429
915.358	6479
915.47	6532
915.583	6448
915.696	6502
915.809	6483
915.921	6502
916.034	6464
916.146	6403
916.259	6433
916.371	6475
916.483	6445
916.595	6380
916.708	6361
916.82	6395
916.932	6395
917.044	6407
917.156	6456
917.268	6361
917.38	6262
917.491	6277
917.603	6342
917.715	6365
917.826	6429
917.938	6308
918.049	6327
918.161	6353
918.272	6437
918.384	6418
918.495	6384
918.606	6308
918.717	6224
918.828	6247
918.939	6304
919.05	6220
919.161	6262
919.272	6144
919.383	6159
919.494	6254
919.604	6448
919.715	6243
919.826	6197
919.936	6292
920.047	6353
920.157	6311
920.267	6388
920.378	6311
920.488	6311
920.598	6410
920.708	6597
920.818	6483
920.928	6460
921.038	6597
921.148	6570
921.258	6342
921.368	6308
921.477	6152
921.587	6155
921.697	6144
921.806	6243
921.916	6140
922.025	5939
922.134	5912
922.244	5931
922.353	5973
922.462	5832
922.571	5855
922.68	5726
922.789	5676
922.898	5752
923.007	5608
923.116	5703
923.224	5695
923.333	5691
923.442	5589
923.55	5600
923.659	5596
923.767	5684
923.876	5634
923.984	5634
924.092	5501
924.201	5566
924.309	5562
924.417	5520
924.525	5512
924.633	5478
924.741	6117
924.849	5357
924.956	5433
925.064	5368
925.172	5322
925.279	5277
925.387	5383
925.494	5357
925.602	5448
925.709	5372
925.816	5322
925.924	5299
926.031	5410
926.138	5299
926.245	5341
926.352	5231
926.459	5376
926.566	5334
926.673	5212
926.779	5166
926.886	5102
926.993	5048
927.099	4999
927.206	4984
927.312	4999
927.419	5022
927.525	5003
927.631	5006
927.737	4892
927.843	4892
927.95	4831
928.056	4797
928.162	4889
928.267	4873
928.373	5349
928.479	4889
928.585	4698
928.69	4752
928.796	4850
928.901	4710
929.007	4630
929.112	4668
929.218	4645
929.323	4607
929.428	4611
929.533	4729
929.638	4512
929.743	4535
929.848	4527
929.953	4512
930.058	4455
930.163	4341
930.267	4371
930.372	4462
930.477	4383
930.581	4474
930.685	4398
930.79	4249
930.894	4341
930.998	4257
931.103	4436
931.207	4173
931.311	4082
931.415	4067
931.519	3956
931.623	3949
