Data from glass_V78500241_2832.txt Node
Date: Wed Sep 01 19:34:07 CST 2021
User: usil
Spectrometer: V785-0024
Trigger mode: 0
Integration Time (sec): 4.000000E-1
Scans to average: 1
Nonlinearity correction enabled: false
Boxcar width: 0
Storing dark spectrum: false
XAxis mode: Wavelengths
Number of Pixels in Spectrum: 1024
>>>>>Begin Spectral Data<<<<<
801.071	3709
801.214	3724
801.356	3698
801.499	3709
801.641	3713
801.783	3770
801.926	3865
802.068	3827
802.211	3819
802.353	3880
802.496	3884
802.638	3854
802.78	3842
802.923	3922
803.065	3865
803.208	3854
803.35	3823
803.492	3846
803.635	3918
803.777	3789
803.919	3888
804.061	4109
804.204	3956
804.346	3915
804.488	3911
804.63	4067
804.773	3949
804.915	3972
805.057	4124
805.199	4002
805.341	4059
805.483	4105
805.626	4120
805.768	4112
805.91	4192
806.052	4204
806.194	4162
806.336	4310
806.478	4177
806.62	4147
806.762	4200
806.904	4246
807.046	4299
807.188	4211
807.33	4158
807.472	4166
807.614	4162
807.756	4173
807.898	4173
808.04	4200
808.182	4284
808.324	4341
808.465	4379
808.607	4451
808.749	4428
808.891	4424
809.033	4451
809.174	4375
809.316	4284
809.458	4185
809.6	4112
809.741	4139
809.883	4109
810.025	4223
810.166	4154
810.308	4238
810.45	4242
810.591	4268
810.733	4287
810.875	4447
811.016	4801
811.158	5102
811.299	5265
811.441	5315
811.582	5060
811.724	4683
811.865	4459
812.007	4481
812.148	4421
812.29	4394
812.431	4443
812.573	4367
812.714	4405
812.855	4424
812.997	4375
813.138	4447
813.279	4386
813.421	4363
813.562	4394
813.703	4303
813.845	4329
813.986	4227
814.127	4200
814.268	4219
814.41	4253
814.551	4223
814.692	4318
814.833	4276
814.974	4253
815.115	4383
815.256	4246
815.397	4204
815.539	4223
815.68	4147
815.821	4177
815.962	4303
816.103	4257
816.244	4227
816.385	4181
816.526	4265
816.666	4177
816.807	4071
816.948	4154
817.089	4204
817.23	4086
817.371	4013
817.512	4013
817.653	4025
817.793	4032
817.934	4006
818.075	4013
818.216	4040
818.356	4051
818.497	3979
818.638	3907
818.778	3892
818.919	3884
819.06	3884
819.2	3892
819.341	3838
819.481	3793
819.622	3823
819.762	4013
819.903	3953
820.043	3819
820.184	3789
820.324	3751
820.465	3819
820.605	3876
820.746	3785
820.886	3755
821.026	3911
821.167	3922
821.307	3972
821.447	3960
821.588	3911
821.728	3892
821.868	3922
822.008	3846
822.149	3884
822.289	3899
822.429	3743
822.569	3736
822.709	3785
822.849	3701
822.99	3705
823.13	3701
823.27	3778
823.41	3736
823.55	3694
823.69	3690
823.83	3755
823.97	3625
824.11	3603
824.25	3561
824.389	3606
824.529	3610
824.669	3618
824.809	3701
824.949	3766
825.089	3694
825.228	3686
825.368	3549
825.508	3507
825.648	3530
825.787	3584
825.927	3622
826.067	3629
826.206	3671
826.346	3762
826.485	3838
826.625	3850
826.765	3949
826.904	3793
827.044	3618
827.183	3534
827.323	3412
827.462	3507
827.601	3435
827.741	3401
827.88	3450
828.02	3386
828.159	3416
828.298	3450
828.437	3504
828.577	3466
828.716	3561
828.855	3504
828.994	3382
829.134	3359
829.273	3367
829.412	3325
829.551	3317
829.69	3329
829.829	3412
829.968	3473
830.107	3420
830.246	3435
830.385	3382
830.524	3348
830.663	3237
830.802	3233
830.941	3184
831.08	3176
831.219	3268
831.357	3249
831.496	3382
831.635	3203
831.774	3180
831.913	3214
832.051	3070
832.19	3104
832.329	3180
832.467	3100
832.606	3066
832.744	3188
832.883	3169
833.022	3192
833.16	3256
833.299	3302
833.437	3321
833.576	3344
833.714	3401
833.852	3462
833.991	3416
834.129	3405
834.267	3416
834.406	3405
834.544	3405
834.682	3393
834.821	3389
834.959	3587
835.097	3412
835.235	3473
835.373	3511
835.511	3458
835.65	3428
835.788	3496
835.926	3382
836.064	3389
836.202	3382
836.34	3580
836.478	3576
836.615	3511
836.753	3584
836.891	3656
837.029	3622
837.167	3580
837.305	3553
837.443	3488
837.58	3496
837.718	3568
837.856	3564
837.993	3530
838.131	3572
838.269	3549
838.406	3553
838.544	3564
838.681	3450
838.819	3469
838.956	3367
839.094	3351
839.231	3439
839.369	3454
839.506	3705
839.643	3580
839.781	3523
839.918	3469
840.055	3523
840.193	3515
840.33	3500
840.467	3564
840.604	3564
840.742	3778
840.879	3530
841.016	3553
841.153	3561
841.29	3660
841.427	3705
841.564	3701
841.701	3698
841.838	3663
841.975	3656
842.112	3713
842.249	3614
842.385	3622
842.522	3804
842.659	3686
842.796	3637
842.933	3675
843.069	3679
843.206	3660
843.343	3800
843.479	3717
843.616	3808
843.752	3622
843.889	3660
844.025	3854
844.162	3740
844.298	3823
844.435	3781
844.571	3789
844.708	3880
844.844	3968
844.98	4002
845.117	3964
845.253	3926
845.389	3926
845.525	3926
845.661	3934
845.798	3896
845.934	3983
846.07	3964
846.206	4010
846.342	4044
846.478	4086
846.614	3979
846.75	3926
846.886	3934
847.022	4040
847.158	3960
847.294	3953
847.429	4002
847.565	3918
847.701	4196
847.837	3880
847.972	3869
848.108	3918
848.244	3953
848.379	3846
848.515	3823
848.65	3800
848.786	3838
848.921	3854
849.057	3899
849.192	3949
849.328	3865
849.463	3869
849.598	3861
849.734	3861
849.869	3793
850.004	3781
850.14	3846
850.275	3770
850.41	3720
850.545	3732
850.68	3789
850.815	3842
850.95	3755
851.085	3911
851.22	3873
851.355	3827
851.49	3751
851.625	3785
851.76	3778
851.895	3724
852.03	3709
852.165	3755
852.299	3854
852.434	3918
852.569	3808
852.703	3873
852.838	3972
852.973	3964
853.107	3934
853.242	3857
853.376	3816
853.511	3762
853.645	3816
853.78	3930
853.914	3888
854.048	3873
854.183	3831
854.317	3918
854.451	4055
854.585	3964
854.72	3934
854.854	3991
854.988	3899
855.122	3991
855.256	3915
855.39	3953
855.524	4101
855.658	4051
855.792	4086
855.926	4124
856.06	4078
856.194	4196
856.327	4120
856.461	4139
856.595	4120
856.729	4169
856.862	4261
856.996	4223
857.13	4268
857.263	4322
857.397	4367
857.53	4249
857.664	4325
857.797	4363
857.931	4409
858.064	4344
858.197	4447
858.331	4352
858.464	4383
858.597	4299
858.731	4402
858.864	4436
858.997	4428
859.13	4516
859.263	4500
859.396	4569
859.529	4542
859.662	4508
859.795	4516
859.928	4558
860.061	4706
860.194	4733
860.327	4596
860.46	4679
860.592	4694
860.725	4740
860.858	4767
860.99	4687
861.123	4649
861.256	4717
861.388	4774
861.521	5246
861.653	4691
861.786	4736
861.918	4744
862.05	4759
862.183	4812
862.315	4881
862.447	4930
862.58	4862
862.712	4759
862.844	4767
862.976	4831
863.108	4870
863.24	5132
863.372	4812
863.504	4949
863.636	4885
863.768	4976
863.9	4972
864.032	4877
864.164	4961
864.296	5029
864.428	5037
864.559	5033
864.691	5090
864.823	5143
864.954	5098
865.086	5083
865.217	5105
865.349	5121
865.48	5159
865.612	5189
865.743	5258
865.875	5189
866.006	5204
866.137	5227
866.269	5227
866.4	5261
866.531	5216
866.662	5189
866.793	5231
866.924	5288
867.055	5326
867.186	5311
867.317	5250
867.448	5311
867.579	5372
867.71	5345
867.841	5353
867.972	5448
868.103	5467
868.233	5524
868.364	5455
868.495	5516
868.625	5642
868.756	5703
868.886	5653
869.017	5729
869.147	5786
869.278	5824
869.408	5790
869.539	5851
869.669	5882
869.799	5904
869.929	5946
870.06	6041
870.19	6163
870.32	6152
870.45	6273
870.58	6311
870.71	6426
870.84	6486
870.97	6418
871.1	6456
871.23	6578
871.36	6707
871.489	6642
871.619	6779
871.749	6768
871.879	6802
872.008	6939
872.138	6920
872.267	6973
872.397	6943
872.526	7046
872.656	7057
872.785	7206
872.915	7331
873.044	7518
873.173	7582
873.303	7597
873.432	7685
873.561	7822
873.69	7951
873.819	7978
873.948	8142
874.077	8290
874.206	8336
874.335	8450
874.464	8629
874.593	8796
874.722	8918
874.851	9081
874.979	9226
875.108	9344
875.237	9351
875.365	9473
875.494	9671
875.623	9781
875.751	9778
875.88	9968
876.008	10131
876.136	10261
876.265	10455
876.393	10725
876.521	10729
876.65	10767
876.778	10831
876.906	10976
877.034	10953
877.162	10984
877.29	11121
877.418	11315
877.546	11334
877.674	11383
877.802	11520
877.93	11478
878.058	11600
878.185	11573
878.313	11623
878.441	11691
878.568	11661
878.696	11691
878.824	11790
878.951	11920
879.079	11992
879.206	12155
879.333	12034
879.461	11889
879.588	12079
879.715	12098
879.842	12079
879.97	12045
880.097	11961
880.224	11809
880.351	11840
880.478	11927
880.605	11817
880.732	11809
880.859	11992
880.986	11790
881.112	11794
881.239	11794
881.366	11649
881.493	11627
881.619	11558
881.746	11532
881.872	11497
881.999	11463
882.125	11433
882.252	11581
882.378	11486
882.505	11535
882.631	11341
882.757	11254
882.883	11258
883.01	11231
883.136	11242
883.262	11079
883.388	11079
883.514	11102
883.64	11181
883.766	11064
883.892	10953
884.018	10991
884.143	10949
884.269	11064
884.395	10812
884.52	10740
884.646	10793
884.772	10603
884.897	10660
885.023	10615
885.148	10702
885.274	10618
885.399	10733
885.524	10573
885.65	10561
885.775	10580
885.9	10531
886.025	10523
886.15	10618
886.275	10382
886.4	10371
886.525	10344
886.65	10246
886.775	10299
886.9	10459
887.025	10478
887.149	10360
887.274	10276
887.399	10192
887.523	10090
887.648	10147
887.773	10059
887.897	10200
888.021	10200
888.146	10055
888.27	10211
888.395	10128
888.519	10090
888.643	10181
888.767	10139
888.891	10044
889.015	10010
889.139	9972
889.263	9884
889.387	10097
889.511	10128
889.635	9994
889.759	9888
889.883	9937
890.006	10082
890.13	10105
890.254	9918
890.377	9915
890.501	9804
890.624	9907
890.748	9876
890.871	9808
890.995	9728
891.118	9724
891.241	9728
891.364	9766
891.488	9785
891.611	9743
891.734	9762
891.857	9766
891.98	9648
892.103	9724
892.226	9717
892.349	9663
892.471	9591
892.594	9584
892.717	9610
892.839	9622
892.962	9675
893.085	9648
893.207	9595
893.33	9507
893.452	9458
893.575	9568
893.697	9466
893.819	9580
893.941	9580
894.064	9637
894.186	9428
894.308	9405
894.43	9488
894.552	9542
894.674	9523
894.796	9405
894.918	9393
895.04	9408
895.161	9412
895.283	9332
895.405	9264
895.526	9272
895.648	9199
895.769	9180
895.891	9332
896.012	9237
896.134	9233
896.255	9173
896.376	9176
896.498	9112
896.619	9138
896.74	9055
896.861	9070
896.982	9233
897.103	9245
897.224	9119
897.345	9066
897.466	9043
897.587	8982
897.708	9085
897.828	8998
897.949	8925
898.07	8933
898.19	8910
898.311	9043
898.431	8929
898.552	8944
898.672	8963
898.792	8906
898.913	8918
899.033	8724
899.153	8788
899.273	8655
899.393	8720
899.513	8804
899.633	8720
899.753	8720
899.873	8667
899.993	8693
900.113	8655
900.232	8735
900.352	8670
900.472	8648
900.591	8556
900.711	8598
900.83	8484
900.95	8651
901.069	8697
901.189	8514
901.308	8465
901.427	8362
901.546	8415
901.665	8389
901.784	8492
901.904	8400
902.023	8339
902.141	8252
902.26	8199
902.379	8305
902.498	8172
902.617	8176
902.735	8309
902.854	8286
902.973	8256
903.091	8138
903.21	8092
903.328	8088
903.446	8111
903.565	8062
903.683	8065
903.801	8077
903.919	8119
904.038	8142
904.156	8016
904.274	8050
904.392	8054
904.51	8016
904.627	8005
904.745	8043
904.863	8092
904.981	8039
905.098	7871
905.216	7830
905.334	7925
905.451	7898
905.569	7928
905.686	7868
905.803	7871
905.921	7795
906.038	7879
906.155	7715
906.272	7685
906.389	7658
906.506	7628
906.623	7636
906.74	7590
906.857	7575
906.974	7525
907.091	7670
907.208	7658
907.324	7533
907.441	7613
907.557	7400
907.674	7388
907.79	7335
907.907	7384
908.023	7472
908.139	7381
908.256	7346
908.372	7430
908.488	7331
908.604	7289
908.72	7240
908.836	7266
908.952	7270
909.068	7247
909.184	7289
909.3	7263
909.415	7285
909.531	7259
909.647	7118
909.762	7084
909.878	7034
909.993	7122
910.108	7053
910.224	7023
910.339	7080
910.454	6996
910.57	6966
910.685	6897
910.8	7206
910.915	7042
911.03	7027
911.145	6913
911.259	6837
911.374	6848
911.489	6844
911.604	6749
911.718	6783
911.833	6760
911.947	6654
912.062	6574
912.176	6684
912.291	6753
912.405	6650
912.519	6802
912.633	6837
912.748	6669
912.862	6627
912.976	6585
913.09	6506
913.204	6646
913.318	6597
913.431	6669
913.545	6665
913.659	6700
913.772	6589
913.886	6574
914	6509
914.113	6582
914.226	6665
914.34	6608
914.453	6471
914.566	6582
914.68	6563
914.793	6547
914.906	6395
915.019	6338
915.132	6350
915.245	6407
915.358	6448
915.47	6376
915.583	6448
915.696	6502
915.809	6532
915.921	6494
916.034	6414
916.146	6388
916.259	6391
916.371	6502
916.483	6448
916.595	6380
916.708	6391
916.82	6407
916.932	6315
917.044	6361
917.156	6433
917.268	6300
917.38	6338
917.491	6273
917.603	6327
917.715	6426
917.826	6365
917.938	6304
918.049	6239
918.161	6380
918.272	6429
918.384	6418
918.495	6346
918.606	6224
918.717	6167
918.828	6285
918.939	6304
919.05	6152
919.161	6220
919.272	6064
919.383	6121
919.494	6266
919.604	6403
919.715	6258
919.826	6182
919.936	6197
920.047	6311
920.157	6247
920.267	6414
920.378	6327
920.488	6304
920.598	6445
920.708	6517
920.818	6395
920.928	6414
921.038	6593
921.148	6521
921.258	6334
921.368	6254
921.477	6140
921.587	6163
921.697	6060
921.806	6178
921.916	6064
922.025	5961
922.134	5901
922.244	5904
922.353	5927
922.462	5817
922.571	5733
922.68	5718
922.789	5668
922.898	5691
923.007	5608
923.116	5680
923.224	5649
923.333	5653
923.442	5589
923.55	5554
923.659	5573
923.767	5585
923.876	5493
923.984	5585
924.092	5520
924.201	5554
924.309	5547
924.417	5554
924.525	5425
924.633	5410
924.741	6273
924.849	5357
924.956	5490
925.064	5330
925.172	5337
925.279	5315
925.387	5322
925.494	5326
925.602	5383
925.709	5334
925.816	5296
925.924	5330
926.031	5364
926.138	5273
926.245	5288
926.352	5201
926.459	5284
926.566	5311
926.673	5174
926.779	5105
926.886	5117
926.993	5041
927.099	4987
927.206	4984
927.312	4919
927.419	5060
927.525	4934
927.631	4991
927.737	4854
927.843	4835
927.95	4767
928.056	4847
928.162	4828
928.267	4839
928.373	5250
928.479	4850
928.585	4668
928.69	4759
928.796	4771
928.901	4664
929.007	4580
929.112	4698
929.218	4603
929.323	4622
929.428	4512
929.533	4683
929.638	4478
929.743	4531
929.848	4538
929.953	4478
930.058	4481
930.163	4344
930.267	4344
930.372	4390
930.477	4352
930.581	4455
930.685	4344
930.79	4257
930.894	4287
930.998	4219
931.103	4379
931.207	4093
931.311	4090
931.415	3994
931.519	3884
931.623	3911
