Data from glass_V78500241_2844.txt Node
Date: Wed Sep 01 19:34:12 CST 2021
User: usil
Spectrometer: V785-0024
Trigger mode: 0
Integration Time (sec): 4.000000E-1
Scans to average: 1
Nonlinearity correction enabled: false
Boxcar width: 0
Storing dark spectrum: false
XAxis mode: Wavelengths
Number of Pixels in Spectrum: 1024
>>>>>Begin Spectral Data<<<<<
801.071	3713
801.214	3759
801.356	3705
801.499	3701
801.641	3694
801.783	3743
801.926	3804
802.068	3793
802.211	3838
802.353	3869
802.496	3823
802.638	3907
802.78	3854
802.923	3926
803.065	3884
803.208	3819
803.35	3819
803.492	3873
803.635	3903
803.777	3766
803.919	3892
804.061	4147
804.204	3934
804.346	3945
804.488	3873
804.63	4010
804.773	3953
804.915	4002
805.057	4120
805.199	4025
805.341	4040
805.483	4112
805.626	4097
805.768	4101
805.91	4196
806.052	4272
806.194	4185
806.336	4299
806.478	4181
806.62	4131
806.762	4196
806.904	4234
807.046	4303
807.188	4188
807.33	4166
807.472	4242
807.614	4166
807.756	4265
807.898	4204
808.04	4181
808.182	4276
808.324	4310
808.465	4390
808.607	4451
808.749	4398
808.891	4447
809.033	4462
809.174	4383
809.316	4261
809.458	4211
809.6	4128
809.741	4147
809.883	4135
810.025	4204
810.166	4219
810.308	4200
810.45	4261
810.591	4215
810.733	4295
810.875	4440
811.016	4797
811.158	5147
811.299	5273
811.441	5239
811.582	5025
811.724	4698
811.865	4447
812.007	4455
812.148	4409
812.29	4367
812.431	4405
812.573	4379
812.714	4402
812.855	4428
812.997	4405
813.138	4451
813.279	4375
813.421	4383
813.562	4375
813.703	4299
813.845	4318
813.986	4234
814.127	4230
814.268	4291
814.41	4249
814.551	4246
814.692	4310
814.833	4242
814.974	4280
815.115	4325
815.256	4177
815.397	4242
815.539	4207
815.68	4162
815.821	4204
815.962	4322
816.103	4234
816.244	4246
816.385	4246
816.526	4261
816.666	4188
816.807	4055
816.948	4150
817.089	4185
817.23	4071
817.371	4067
817.512	4051
817.653	4082
817.793	3975
817.934	4029
818.075	4082
818.216	4063
818.356	4032
818.497	3960
818.638	3896
818.778	3888
818.919	3899
819.06	3857
819.2	3892
819.341	3857
819.481	3823
819.622	3884
819.762	4017
819.903	3956
820.043	3831
820.184	3816
820.324	3808
820.465	3808
820.605	3823
820.746	3846
820.886	3827
821.026	3926
821.167	3873
821.307	3964
821.447	3960
821.588	3937
821.728	3949
821.868	3899
822.008	3888
822.149	3873
822.289	3857
822.429	3705
822.569	3743
822.709	3804
822.849	3633
822.99	3717
823.13	3755
823.27	3793
823.41	3705
823.55	3701
823.69	3713
823.83	3740
823.97	3648
824.11	3595
824.25	3549
824.389	3584
824.529	3667
824.669	3568
824.809	3660
824.949	3705
825.089	3682
825.228	3671
825.368	3568
825.508	3584
825.648	3557
825.787	3542
825.927	3595
826.067	3584
826.206	3660
826.346	3740
826.485	3831
826.625	3880
826.765	3896
826.904	3850
827.044	3610
827.183	3523
827.323	3355
827.462	3462
827.601	3416
827.741	3424
827.88	3393
828.02	3401
828.159	3420
828.298	3420
828.437	3500
828.577	3447
828.716	3564
828.855	3500
828.994	3363
829.134	3336
829.273	3363
829.412	3287
829.551	3294
829.69	3348
829.829	3351
829.968	3485
830.107	3393
830.246	3405
830.385	3363
830.524	3351
830.663	3325
830.802	3253
830.941	3173
831.08	3207
831.219	3260
831.357	3195
831.496	3374
831.635	3241
831.774	3195
831.913	3165
832.051	3119
832.19	3127
832.329	3184
832.467	3093
832.606	3100
832.744	3188
832.883	3199
833.022	3154
833.16	3245
833.299	3359
833.437	3321
833.576	3313
833.714	3382
833.852	3409
833.991	3458
834.129	3428
834.267	3389
834.406	3355
834.544	3412
834.682	3424
834.821	3378
834.959	3561
835.097	3393
835.235	3485
835.373	3450
835.511	3481
835.65	3409
835.788	3473
835.926	3397
836.064	3386
836.202	3412
836.34	3568
836.478	3614
836.615	3515
836.753	3572
836.891	3610
837.029	3622
837.167	3599
837.305	3557
837.443	3477
837.58	3481
837.718	3584
837.856	3561
837.993	3523
838.131	3564
838.269	3564
838.406	3606
838.544	3580
838.681	3462
838.819	3454
838.956	3344
839.094	3397
839.231	3405
839.369	3500
839.506	3671
839.643	3644
839.781	3458
839.918	3466
840.055	3515
840.193	3500
840.33	3500
840.467	3561
840.604	3599
840.742	3770
840.879	3507
841.016	3553
841.153	3549
841.29	3740
841.427	3698
841.564	3679
841.701	3701
841.838	3675
841.975	3686
842.112	3732
842.249	3591
842.385	3614
842.522	3762
842.659	3679
842.796	3686
842.933	3713
843.069	3644
843.206	3679
843.343	3766
843.479	3743
843.616	3762
843.752	3614
843.889	3656
844.025	3827
844.162	3694
844.298	3861
844.435	3762
844.571	3770
844.708	3857
844.844	3953
844.98	4032
845.117	4002
845.253	3911
845.389	3903
845.525	3975
845.661	3979
845.798	3930
845.934	3968
846.07	3956
846.206	4010
846.342	4078
846.478	4055
846.614	3983
846.75	3896
846.886	3869
847.022	4040
847.158	3956
847.294	3926
847.429	3987
847.565	3964
847.701	4223
847.837	3857
847.972	3831
848.108	3979
848.244	3949
848.379	3865
848.515	3838
848.65	3747
848.786	3857
848.921	3854
849.057	3918
849.192	3911
849.328	3903
849.463	3896
849.598	3831
849.734	3835
849.869	3808
850.004	3751
850.14	3755
850.275	3743
850.41	3724
850.545	3762
850.68	3785
850.815	3785
850.95	3751
851.085	3918
851.22	3865
851.355	3857
851.49	3781
851.625	3766
851.76	3797
851.895	3705
852.03	3713
852.165	3793
852.299	3838
852.434	3915
852.569	3850
852.703	3896
852.838	3911
852.973	3953
853.107	3956
853.242	3842
853.376	3838
853.511	3743
853.645	3774
853.78	3956
853.914	3884
854.048	3846
854.183	3865
854.317	3880
854.451	4044
854.585	3937
854.72	3960
854.854	4025
854.988	3911
855.122	3949
855.256	3892
855.39	4013
855.524	4048
855.658	4101
855.792	4093
855.926	4082
856.06	4150
856.194	4242
856.327	4135
856.461	4109
856.595	4078
856.729	4162
856.862	4219
856.996	4192
857.13	4325
857.263	4322
857.397	4325
857.53	4295
857.664	4329
857.797	4379
857.931	4405
858.064	4379
858.197	4398
858.331	4409
858.464	4322
858.597	4318
858.731	4421
858.864	4447
858.997	4417
859.13	4459
859.263	4508
859.396	4519
859.529	4550
859.662	4519
859.795	4481
859.928	4603
860.061	4626
860.194	4694
860.327	4615
860.46	4622
860.592	4717
860.725	4755
860.858	4748
860.99	4675
861.123	4683
861.256	4660
861.388	4717
861.521	5315
861.653	4744
861.786	4710
861.918	4721
862.05	4752
862.183	4835
862.315	4908
862.447	4949
862.58	4889
862.712	4801
862.844	4717
862.976	4885
863.108	4854
863.24	5273
863.372	4850
863.504	4885
863.636	4870
863.768	4949
863.9	5003
864.032	4923
864.164	4938
864.296	4957
864.428	5086
864.559	5102
864.691	5041
864.823	5098
864.954	5109
865.086	5174
865.217	5155
865.349	5056
865.48	5162
865.612	5159
865.743	5284
865.875	5151
866.006	5178
866.137	5220
866.269	5189
866.4	5254
866.531	5242
866.662	5220
866.793	5288
866.924	5227
867.055	5326
867.186	5322
867.317	5311
867.448	5258
867.579	5391
867.71	5364
867.841	5364
867.972	5474
868.103	5421
868.233	5497
868.364	5535
868.495	5516
868.625	5688
868.756	5767
868.886	5649
869.017	5752
869.147	5859
869.278	5836
869.408	5802
869.539	5817
869.669	5885
869.799	5920
869.929	5996
870.06	6045
870.19	6121
870.32	6125
870.45	6224
870.58	6319
870.71	6437
870.84	6426
870.97	6315
871.1	6441
871.23	6597
871.36	6665
871.489	6662
871.619	6662
871.749	6772
871.879	6863
872.008	6951
872.138	6924
872.267	6985
872.397	6947
872.526	6989
872.656	7076
872.785	7240
872.915	7365
873.044	7472
873.173	7483
873.303	7609
873.432	7700
873.561	7845
873.69	7890
873.819	8024
873.948	8157
874.077	8259
874.206	8305
874.335	8370
874.464	8674
874.593	8899
874.722	8838
874.851	9154
874.979	9188
875.108	9408
875.237	9386
875.365	9496
875.494	9629
875.623	9778
875.751	9854
875.88	9949
876.008	10116
876.136	10158
876.265	10531
876.393	10706
876.521	10725
876.65	10805
876.778	10763
876.906	10790
877.034	10999
877.162	11067
877.29	11201
877.418	11277
877.546	11376
877.674	11364
877.802	11459
877.93	11551
878.058	11455
878.185	11596
878.313	11615
878.441	11733
878.568	11699
878.696	11851
878.824	11798
878.951	11893
879.079	11980
879.206	12125
879.333	11980
879.461	11942
879.588	12034
879.715	12057
879.842	12167
879.97	12072
880.097	11882
880.224	11843
880.351	11889
880.478	11897
880.605	11889
880.732	11843
880.859	11927
880.986	11832
881.112	11885
881.239	11737
881.366	11649
881.493	11668
881.619	11490
881.746	11532
881.872	11528
881.999	11585
882.125	11444
882.252	11547
882.378	11547
882.505	11566
882.631	11387
882.757	11288
882.883	11269
883.01	11170
883.136	11178
883.262	11060
883.388	11037
883.514	11239
883.64	11143
883.766	11113
883.892	10961
884.018	10911
884.143	11048
884.269	11048
884.395	10790
884.52	10755
884.646	10778
884.772	10660
884.897	10630
885.023	10748
885.148	10763
885.274	10714
885.399	10698
885.524	10596
885.65	10668
885.775	10550
885.9	10516
886.025	10592
886.15	10565
886.275	10424
886.4	10303
886.525	10379
886.65	10287
886.775	10299
886.9	10428
887.025	10489
887.149	10371
887.274	10238
887.399	10181
887.523	10196
887.648	10135
887.773	10082
887.897	10173
888.021	10200
888.146	10048
888.27	10181
888.395	10272
888.519	10147
888.643	10204
888.767	10116
888.891	10040
889.015	10029
889.139	10059
889.263	9937
889.387	10071
889.511	10090
889.635	10044
889.759	9911
889.883	9953
890.006	9991
890.13	10139
890.254	9979
890.377	9983
890.501	9816
890.624	9789
890.748	9892
890.871	9804
890.995	9736
891.118	9648
891.241	9785
891.364	9675
891.488	9823
891.611	9648
891.734	9724
891.857	9759
891.98	9644
892.103	9747
892.226	9701
892.349	9656
892.471	9492
892.594	9564
892.717	9629
892.839	9622
892.962	9641
893.085	9644
893.207	9511
893.33	9473
893.452	9469
893.575	9572
893.697	9526
893.819	9572
893.941	9584
894.064	9618
894.186	9397
894.308	9355
894.43	9500
894.552	9534
894.674	9500
894.796	9351
894.918	9431
895.04	9253
895.161	9321
895.283	9344
895.405	9184
895.526	9226
895.648	9222
895.769	9256
895.891	9203
896.012	9302
896.134	9211
896.255	9146
896.376	9123
896.498	9081
896.619	9116
896.74	9043
896.861	9074
896.982	9306
897.103	9298
897.224	9108
897.345	9039
897.466	8925
897.587	9005
897.708	9013
897.828	8937
897.949	8925
898.07	8880
898.19	8823
898.311	8933
898.431	8967
898.552	8895
898.672	8944
898.792	8883
898.913	8880
899.033	8811
899.153	8689
899.273	8697
899.393	8735
899.513	8678
899.633	8701
899.753	8743
899.873	8739
899.993	8766
900.113	8674
900.232	8727
900.352	8651
900.472	8526
900.591	8579
900.711	8560
900.83	8503
900.95	8610
901.069	8716
901.189	8590
901.308	8419
901.427	8385
901.546	8366
901.665	8400
901.784	8484
901.904	8412
902.023	8317
902.141	8229
902.26	8161
902.379	8259
902.498	8229
902.617	8161
902.735	8301
902.854	8305
902.973	8244
903.091	8069
903.21	8138
903.328	8138
903.446	8050
903.565	8035
903.683	8100
903.801	8008
903.919	8100
904.038	8168
904.156	8077
904.274	7997
904.392	7997
904.51	7967
904.627	8016
904.745	8016
904.863	8058
904.981	7906
905.098	7780
905.216	7849
905.334	7925
905.451	7913
905.569	7902
905.686	7887
905.803	7856
905.921	7795
906.038	7826
906.155	7776
906.272	7681
906.389	7689
906.506	7628
906.623	7559
906.74	7514
906.857	7499
906.974	7506
907.091	7636
907.208	7624
907.324	7647
907.441	7575
907.557	7464
907.674	7392
907.79	7362
907.907	7320
908.023	7392
908.139	7422
908.256	7297
908.372	7346
908.488	7373
908.604	7297
908.72	7282
908.836	7221
908.952	7213
909.068	7232
909.184	7301
909.3	7145
909.415	7240
909.531	7251
909.647	7099
909.762	7103
909.878	7145
909.993	7099
910.108	7061
910.224	7050
910.339	7053
910.454	7023
910.57	6958
910.685	6935
910.8	7137
910.915	7027
911.03	7031
911.145	6856
911.259	6886
911.374	6882
911.489	6779
911.604	6783
911.718	6658
911.833	6734
911.947	6635
912.062	6589
912.176	6688
912.291	6665
912.405	6642
912.519	6753
912.633	6806
912.748	6662
912.862	6662
912.976	6601
913.09	6589
913.204	6547
913.318	6555
913.431	6665
913.545	6677
913.659	6726
913.772	6620
913.886	6551
914	6585
914.113	6604
914.226	6665
914.34	6601
914.453	6506
914.566	6654
914.68	6486
914.793	6547
914.906	6429
915.019	6414
915.132	6369
915.245	6365
915.358	6399
915.47	6403
915.583	6441
915.696	6452
915.809	6506
915.921	6506
916.034	6376
916.146	6331
916.259	6323
916.371	6418
916.483	6422
916.595	6327
916.708	6350
916.82	6395
916.932	6346
917.044	6388
917.156	6327
917.268	6311
917.38	6346
917.491	6258
917.603	6319
917.715	6391
917.826	6380
917.938	6308
918.049	6270
918.161	6308
918.272	6399
918.384	6384
918.495	6285
918.606	6243
918.717	6213
918.828	6251
918.939	6228
919.05	6186
919.161	6209
919.272	6117
919.383	6087
919.494	6266
919.604	6422
919.715	6247
919.826	6213
919.936	6292
920.047	6342
920.157	6281
920.267	6372
920.378	6292
920.488	6247
920.598	6327
920.708	6486
920.818	6410
920.928	6502
921.038	6585
921.148	6559
921.258	6315
921.368	6285
921.477	6224
921.587	6155
921.697	6068
921.806	6186
921.916	6136
922.025	5923
922.134	5916
922.244	5832
922.353	5908
922.462	5786
922.571	5783
922.68	5688
922.789	5630
922.898	5703
923.007	5589
923.116	5676
923.224	5657
923.333	5585
923.442	5524
923.55	5611
923.659	5623
923.767	5657
923.876	5512
923.984	5615
924.092	5471
924.201	5524
924.309	5535
924.417	5497
924.525	5452
924.633	5486
924.741	6060
924.849	5379
924.956	5486
925.064	5330
925.172	5254
925.279	5315
925.387	5360
925.494	5330
925.602	5387
925.709	5376
925.816	5242
925.924	5261
926.031	5337
926.138	5277
926.245	5311
926.352	5197
926.459	5299
926.566	5322
926.673	5174
926.779	5121
926.886	5079
926.993	5022
927.099	4991
927.206	4949
927.312	4877
927.419	4968
927.525	4965
927.631	4938
927.737	4866
927.843	4812
927.95	4782
928.056	4839
928.162	4786
928.267	4850
928.373	5189
928.479	4824
928.585	4672
928.69	4736
928.796	4835
928.901	4702
929.007	4580
929.112	4660
929.218	4645
929.323	4580
929.428	4565
929.533	4672
929.638	4481
929.743	4531
929.848	4554
929.953	4493
930.058	4436
930.163	4344
930.267	4333
930.372	4398
930.477	4287
930.581	4493
930.685	4363
930.79	4192
930.894	4230
930.998	4234
931.103	4379
931.207	4128
931.311	4040
931.415	4021
931.519	3941
931.623	3903
