Data from glass_V78500241_386.txt Node
Date: Wed Sep 01 19:17:10 CST 2021
User: usil
Spectrometer: V785-0024
Trigger mode: 0
Integration Time (sec): 4.000000E-1
Scans to average: 1
Nonlinearity correction enabled: false
Boxcar width: 0
Storing dark spectrum: false
XAxis mode: Wavelengths
Number of Pixels in Spectrum: 1024
>>>>>Begin Spectral Data<<<<<
801.071	3751
801.214	3759
801.356	3709
801.499	3690
801.641	3736
801.783	3789
801.926	3865
802.068	3846
802.211	3857
802.353	3968
802.496	3854
802.638	3876
802.78	3907
802.923	3964
803.065	3892
803.208	3876
803.35	3930
803.492	3945
803.635	3991
803.777	3793
803.919	3934
804.061	4188
804.204	3972
804.346	3934
804.488	3945
804.63	4040
804.773	4010
804.915	4051
805.057	4173
805.199	4078
805.341	4112
805.483	4135
805.626	4139
805.768	4158
805.91	4257
806.052	4242
806.194	4204
806.336	4398
806.478	4257
806.62	4200
806.762	4185
806.904	4253
807.046	4367
807.188	4223
807.33	4181
807.472	4238
807.614	4192
807.756	4246
807.898	4253
808.04	4223
808.182	4295
808.324	4344
808.465	4390
808.607	4443
808.749	4512
808.891	4504
809.033	4546
809.174	4447
809.316	4246
809.458	4276
809.6	4154
809.741	4147
809.883	4093
810.025	4188
810.166	4242
810.308	4234
810.45	4291
810.591	4246
810.733	4268
810.875	4516
811.016	4828
811.158	5113
811.299	5284
811.441	5303
811.582	5086
811.724	4714
811.865	4485
812.007	4485
812.148	4459
812.29	4455
812.431	4443
812.573	4428
812.714	4398
812.855	4424
812.997	4440
813.138	4497
813.279	4436
813.421	4360
813.562	4413
813.703	4356
813.845	4322
813.986	4261
814.127	4200
814.268	4295
814.41	4272
814.551	4207
814.692	4329
814.833	4276
814.974	4310
815.115	4405
815.256	4310
815.397	4253
815.539	4299
815.68	4238
815.821	4249
815.962	4329
816.103	4291
816.244	4272
816.385	4257
816.526	4337
816.666	4242
816.807	4124
816.948	4196
817.089	4188
817.23	4105
817.371	4078
817.512	4063
817.653	4055
817.793	4029
817.934	4032
818.075	4150
818.216	4078
818.356	4078
818.497	4013
818.638	3876
818.778	3930
818.919	3949
819.06	3884
819.2	3861
819.341	3880
819.481	3865
819.622	3922
819.762	4048
819.903	3960
820.043	3896
820.184	3854
820.324	3846
820.465	3857
820.605	3857
820.746	3922
820.886	3808
821.026	3945
821.167	3880
821.307	4006
821.447	3991
821.588	3972
821.728	3934
821.868	3972
822.008	3899
822.149	3941
822.289	3998
822.429	3751
822.569	3781
822.709	3819
822.849	3762
822.99	3789
823.13	3800
823.27	3800
823.41	3781
823.55	3720
823.69	3724
823.83	3724
823.97	3701
824.11	3576
824.25	3584
824.389	3679
824.529	3713
824.669	3610
824.809	3728
824.949	3785
825.089	3736
825.228	3705
825.368	3599
825.508	3564
825.648	3572
825.787	3652
825.927	3675
826.067	3641
826.206	3690
826.346	3831
826.485	3850
826.625	3899
826.765	3934
826.904	3892
827.044	3625
827.183	3542
827.323	3458
827.462	3500
827.601	3469
827.741	3439
827.88	3523
828.02	3397
828.159	3466
828.298	3424
828.437	3549
828.577	3523
828.716	3618
828.855	3500
828.994	3420
829.134	3382
829.273	3416
829.412	3386
829.551	3348
829.69	3321
829.829	3481
829.968	3507
830.107	3397
830.246	3428
830.385	3359
830.524	3370
830.663	3291
830.802	3291
830.941	3211
831.08	3207
831.219	3283
831.357	3260
831.496	3420
831.635	3237
831.774	3195
831.913	3222
832.051	3142
832.19	3169
832.329	3211
832.467	3150
832.606	3188
832.744	3195
832.883	3207
833.022	3195
833.16	3260
833.299	3344
833.437	3310
833.576	3374
833.714	3412
833.852	3450
833.991	3439
834.129	3523
834.267	3450
834.406	3420
834.544	3420
834.682	3473
834.821	3458
834.959	3599
835.097	3389
835.235	3542
835.373	3530
835.511	3496
835.65	3439
835.788	3519
835.926	3412
836.064	3435
836.202	3424
836.34	3584
836.478	3622
836.615	3568
836.753	3603
836.891	3656
837.029	3606
837.167	3629
837.305	3572
837.443	3557
837.58	3526
837.718	3599
837.856	3603
837.993	3526
838.131	3614
838.269	3606
838.406	3618
838.544	3580
838.681	3492
838.819	3473
838.956	3389
839.094	3431
839.231	3466
839.369	3568
839.506	3759
839.643	3686
839.781	3496
839.918	3454
840.055	3549
840.193	3549
840.33	3572
840.467	3641
840.604	3660
840.742	3827
840.879	3584
841.016	3538
841.153	3629
841.29	3751
841.427	3732
841.564	3747
841.701	3759
841.838	3732
841.975	3652
842.112	3713
842.249	3660
842.385	3663
842.522	3838
842.659	3724
842.796	3698
842.933	3774
843.069	3732
843.206	3770
843.343	3876
843.479	3793
843.616	3861
843.752	3690
843.889	3686
844.025	3899
844.162	3705
844.298	3911
844.435	3812
844.571	3842
844.708	3915
844.844	3998
844.98	4059
845.117	4021
845.253	3987
845.389	3903
845.525	3953
845.661	3972
845.798	3918
845.934	3987
846.07	3964
846.206	4082
846.342	4090
846.478	4067
846.614	3991
846.75	3896
846.886	3918
847.022	4002
847.158	3968
847.294	4040
847.429	4055
847.565	4048
847.701	4257
847.837	3918
847.972	3896
848.108	4006
848.244	3972
848.379	3892
848.515	3854
848.65	3827
848.786	3842
848.921	3850
849.057	3911
849.192	3945
849.328	3945
849.463	3911
849.598	3884
849.734	3873
849.869	3838
850.004	3770
850.14	3816
850.275	3785
850.41	3762
850.545	3766
850.68	3755
850.815	3789
850.95	3800
851.085	3937
851.22	3903
851.355	3842
851.49	3854
851.625	3812
851.76	3774
851.895	3740
852.03	3736
852.165	3793
852.299	3884
852.434	3907
852.569	3880
852.703	3926
852.838	3945
852.973	4036
853.107	4010
853.242	3880
853.376	3857
853.511	3740
853.645	3846
853.78	4010
853.914	3892
854.048	3922
854.183	3892
854.317	3926
854.451	4093
854.585	3979
854.72	3930
854.854	4048
854.988	3964
855.122	4013
855.256	3922
855.39	3998
855.524	4105
855.658	4105
855.792	4177
855.926	4166
856.06	4204
856.194	4284
856.327	4185
856.461	4131
856.595	4143
856.729	4169
856.862	4310
856.996	4219
857.13	4337
857.263	4325
857.397	4329
857.53	4295
857.664	4363
857.797	4424
857.931	4421
858.064	4421
858.197	4500
858.331	4383
858.464	4440
858.597	4379
858.731	4409
858.864	4405
858.997	4470
859.13	4497
859.263	4546
859.396	4580
859.529	4584
859.662	4569
859.795	4535
859.928	4637
860.061	4702
860.194	4771
860.327	4664
860.46	4611
860.592	4786
860.725	4763
860.858	4786
860.99	4672
861.123	4729
861.256	4698
861.388	4801
861.521	5429
861.653	4748
861.786	4691
861.918	4774
862.05	4809
862.183	4862
862.315	4896
862.447	4938
862.58	4896
862.712	4843
862.844	4771
862.976	4904
863.108	4870
863.24	5284
863.372	4858
863.504	4919
863.636	4900
863.768	4957
863.9	4980
864.032	4957
864.164	4980
864.296	5029
864.428	5083
864.559	5113
864.691	5098
864.823	5155
864.954	5109
865.086	5128
865.217	5117
865.349	5128
865.48	5166
865.612	5201
865.743	5307
865.875	5231
866.006	5231
866.137	5231
866.269	5277
866.4	5296
866.531	5292
866.662	5242
866.793	5250
866.924	5277
867.055	5299
867.186	5334
867.317	5311
867.448	5334
867.579	5387
867.71	5455
867.841	5448
867.972	5505
868.103	5490
868.233	5482
868.364	5490
868.495	5497
868.625	5653
868.756	5764
868.886	5676
869.017	5745
869.147	5882
869.278	5866
869.408	5817
869.539	5840
869.669	5882
869.799	5954
869.929	6030
870.06	6053
870.19	6224
870.32	6190
870.45	6327
870.58	6369
870.71	6467
870.84	6498
870.97	6456
871.1	6475
871.23	6635
871.36	6692
871.489	6650
871.619	6749
871.749	6875
871.879	6901
872.008	7008
872.138	7042
872.267	6993
872.397	6985
872.526	6962
872.656	7050
872.785	7171
872.915	7362
873.044	7521
873.173	7643
873.303	7609
873.432	7727
873.561	7887
873.69	7845
873.819	8100
873.948	8218
874.077	8298
874.206	8358
874.335	8423
874.464	8655
874.593	8899
874.722	9005
874.851	9127
874.979	9222
875.108	9344
875.237	9405
875.365	9504
875.494	9751
875.623	9751
875.751	9861
875.88	10090
876.008	10181
876.136	10253
876.265	10546
876.393	10649
876.521	10744
876.65	10847
876.778	10885
876.906	10885
877.034	10972
877.162	11109
877.29	11242
877.418	11326
877.546	11398
877.674	11429
877.802	11383
877.93	11600
878.058	11581
878.185	11501
878.313	11611
878.441	11783
878.568	11611
878.696	11798
878.824	11912
878.951	11946
879.079	12045
879.206	12091
879.333	12053
879.461	12064
879.588	12125
879.715	11954
879.842	12235
879.97	12110
880.097	11866
880.224	11946
880.351	11874
880.478	11973
880.605	11901
880.732	11824
880.859	11996
880.986	11821
881.112	11855
881.239	11718
881.366	11653
881.493	11642
881.619	11520
881.746	11646
881.872	11646
881.999	11429
882.125	11459
882.252	11589
882.378	11577
882.505	11611
882.631	11379
882.757	11303
882.883	11288
883.01	11292
883.136	11258
883.262	11128
883.388	11090
883.514	11216
883.64	11090
883.766	11151
883.892	10972
884.018	10949
884.143	11018
884.269	11086
884.395	10763
884.52	10725
884.646	10744
884.772	10672
884.897	10637
885.023	10714
885.148	10729
885.274	10866
885.399	10736
885.524	10603
885.65	10558
885.775	10565
885.9	10531
886.025	10603
886.15	10527
886.275	10523
886.4	10440
886.525	10394
886.65	10344
886.775	10306
886.9	10390
887.025	10493
887.149	10352
887.274	10280
887.399	10192
887.523	10196
887.648	10124
887.773	10093
887.897	10242
888.021	10265
888.146	10207
888.27	10246
888.395	10257
888.519	10238
888.643	10192
888.767	10204
888.891	10086
889.015	10021
889.139	10029
889.263	9979
889.387	10139
889.511	10105
889.635	10071
889.759	9907
889.883	9930
890.006	9975
890.13	10071
890.254	9945
890.377	9918
890.501	9850
890.624	9918
890.748	9880
890.871	9762
890.995	9812
891.118	9713
891.241	9740
891.364	9747
891.488	9842
891.611	9774
891.734	9728
891.857	9755
891.98	9705
892.103	9789
892.226	9694
892.349	9713
892.471	9572
892.594	9595
892.717	9648
892.839	9675
892.962	9648
893.085	9610
893.207	9561
893.33	9553
893.452	9549
893.575	9591
893.697	9587
893.819	9622
893.941	9580
894.064	9545
894.186	9492
894.308	9405
894.43	9511
894.552	9504
894.674	9587
894.796	9408
894.918	9355
895.04	9321
895.161	9389
895.283	9370
895.405	9226
895.526	9226
895.648	9264
895.769	9237
895.891	9283
896.012	9370
896.134	9199
896.255	9192
896.376	9108
896.498	9173
896.619	9127
896.74	9119
896.861	9127
896.982	9260
897.103	9321
897.224	9138
897.345	9070
897.466	8998
897.587	9093
897.708	9097
897.828	9039
897.949	8998
898.07	8895
898.19	8937
898.311	9032
898.431	8910
898.552	8883
898.672	9058
898.792	8948
898.913	8918
899.033	8823
899.153	8773
899.273	8670
899.393	8750
899.513	8807
899.633	8712
899.753	8788
899.873	8743
899.993	8746
900.113	8686
900.232	8762
900.352	8724
900.472	8651
900.591	8575
900.711	8678
900.83	8606
900.95	8777
901.069	8762
901.189	8549
901.308	8484
901.427	8419
901.546	8465
901.665	8507
901.784	8495
901.904	8396
902.023	8328
902.141	8252
902.26	8248
902.379	8267
902.498	8240
902.617	8195
902.735	8294
902.854	8324
902.973	8275
903.091	8115
903.21	8149
903.328	8164
903.446	8168
903.565	8126
903.683	8115
903.801	8054
903.919	8069
904.038	8130
904.156	8096
904.274	8084
904.392	8088
904.51	8126
904.627	8050
904.745	8058
904.863	8180
904.981	7970
905.098	7871
905.216	7947
905.334	7864
905.451	7947
905.569	7932
905.686	7928
905.803	7989
905.921	7776
906.038	7860
906.155	7852
906.272	7715
906.389	7674
906.506	7662
906.623	7651
906.74	7605
906.857	7506
906.974	7537
907.091	7674
907.208	7731
907.324	7677
907.441	7594
907.557	7457
907.674	7460
907.79	7388
907.907	7377
908.023	7495
908.139	7388
908.256	7377
908.372	7426
908.488	7331
908.604	7263
908.72	7247
908.836	7247
908.952	7244
909.068	7308
909.184	7320
909.3	7263
909.415	7308
909.531	7266
909.647	7164
909.762	7149
909.878	7103
909.993	7145
910.108	7183
910.224	7095
910.339	7141
910.454	7061
910.57	6962
910.685	6932
910.8	7179
910.915	7129
911.03	7050
911.145	6901
911.259	6890
911.374	6875
911.489	6829
911.604	6856
911.718	6741
911.833	6730
911.947	6662
912.062	6585
912.176	6749
912.291	6688
912.405	6673
912.519	6783
912.633	6814
912.748	6711
912.862	6715
912.976	6589
913.09	6555
913.204	6597
913.318	6627
913.431	6700
913.545	6726
913.659	6768
913.772	6658
913.886	6604
914	6601
914.113	6700
914.226	6677
914.34	6620
914.453	6532
914.566	6604
914.68	6536
914.793	6551
914.906	6456
915.019	6369
915.132	6429
915.245	6433
915.358	6448
915.47	6479
915.583	6475
915.696	6460
915.809	6597
915.921	6555
916.034	6376
916.146	6479
916.259	6395
916.371	6460
916.483	6395
916.595	6441
916.708	6407
916.82	6391
916.932	6399
917.044	6395
917.156	6422
917.268	6357
917.38	6391
917.491	6346
917.603	6361
917.715	6433
917.826	6448
917.938	6372
918.049	6247
918.161	6372
918.272	6422
918.384	6410
918.495	6327
918.606	6273
918.717	6205
918.828	6270
918.939	6350
919.05	6201
919.161	6319
919.272	6205
919.383	6167
919.494	6353
919.604	6403
919.715	6311
919.826	6205
919.936	6281
920.047	6369
920.157	6292
920.267	6525
920.378	6319
920.488	6296
920.598	6509
920.708	6578
920.818	6426
920.928	6502
921.038	6597
921.148	6551
921.258	6300
921.368	6319
921.477	6209
921.587	6201
921.697	6110
921.806	6224
921.916	6102
922.025	5973
922.134	5916
922.244	5923
922.353	5977
922.462	5832
922.571	5859
922.68	5748
922.789	5767
922.898	5726
923.007	5634
923.116	5737
923.224	5718
923.333	5672
923.442	5630
923.55	5539
923.659	5581
923.767	5661
923.876	5547
923.984	5627
924.092	5493
924.201	5581
924.309	5532
924.417	5543
924.525	5448
924.633	5524
924.741	6285
924.849	5387
924.956	5463
925.064	5360
925.172	5368
925.279	5311
925.387	5372
925.494	5280
925.602	5471
925.709	5398
925.816	5315
925.924	5368
926.031	5436
926.138	5307
926.245	5337
926.352	5239
926.459	5288
926.566	5368
926.673	5227
926.779	5136
926.886	5162
926.993	5090
927.099	4991
927.206	4961
927.312	4991
927.419	5033
927.525	5033
927.631	5037
927.737	4896
927.843	4885
927.95	4771
928.056	4824
928.162	4824
928.267	4866
928.373	5280
928.479	4858
928.585	4706
928.69	4805
928.796	4805
928.901	4702
929.007	4588
929.112	4675
929.218	4641
929.323	4596
929.428	4565
929.533	4653
929.638	4519
929.743	4542
929.848	4561
929.953	4512
930.058	4489
930.163	4295
930.267	4398
930.372	4459
930.477	4291
930.581	4436
930.685	4344
930.79	4284
930.894	4314
930.998	4265
931.103	4413
931.207	4162
931.311	4082
931.415	4086
931.519	3892
931.623	3956
