Data from glass_V78500241_2392.txt Node
Date: Wed Sep 01 19:31:04 CST 2021
User: usil
Spectrometer: V785-0024
Trigger mode: 0
Integration Time (sec): 4.000000E-1
Scans to average: 1
Nonlinearity correction enabled: false
Boxcar width: 0
Storing dark spectrum: false
XAxis mode: Wavelengths
Number of Pixels in Spectrum: 1024
>>>>>Begin Spectral Data<<<<<
801.071	3709
801.214	3720
801.356	3709
801.499	3732
801.641	3759
801.783	3774
801.926	3876
802.068	3819
802.211	3827
802.353	3865
802.496	3842
802.638	3880
802.78	3865
802.923	3861
803.065	3892
803.208	3876
803.35	3842
803.492	3880
803.635	3903
803.777	3774
803.919	3869
804.061	4128
804.204	3968
804.346	3907
804.488	3907
804.63	4032
804.773	3941
804.915	4021
805.057	4116
805.199	4025
805.341	4093
805.483	4128
805.626	4086
805.768	4093
805.91	4204
806.052	4223
806.194	4211
806.336	4314
806.478	4211
806.62	4162
806.762	4177
806.904	4242
807.046	4295
807.188	4207
807.33	4162
807.472	4215
807.614	4223
807.756	4238
807.898	4265
808.04	4234
808.182	4265
808.324	4341
808.465	4303
808.607	4436
808.749	4459
808.891	4481
809.033	4478
809.174	4390
809.316	4291
809.458	4211
809.6	4143
809.741	4131
809.883	4143
810.025	4173
810.166	4219
810.308	4192
810.45	4207
810.591	4204
810.733	4276
810.875	4504
811.016	4816
811.158	5098
811.299	5239
811.441	5235
811.582	5090
811.724	4664
811.865	4481
812.007	4402
812.148	4440
812.29	4409
812.431	4428
812.573	4402
812.714	4379
812.855	4398
812.997	4424
813.138	4474
813.279	4386
813.421	4363
813.562	4363
813.703	4268
813.845	4337
813.986	4265
814.127	4211
814.268	4246
814.41	4280
814.551	4261
814.692	4341
814.833	4291
814.974	4306
815.115	4325
815.256	4246
815.397	4257
815.539	4253
815.68	4204
815.821	4211
815.962	4329
816.103	4238
816.244	4268
816.385	4246
816.526	4261
816.666	4181
816.807	4086
816.948	4196
817.089	4173
817.23	4105
817.371	4029
817.512	4063
817.653	4082
817.793	4048
817.934	4006
818.075	4074
818.216	4048
818.356	4063
818.497	4006
818.638	3888
818.778	3903
818.919	3934
819.06	3865
819.2	3934
819.341	3816
819.481	3846
819.622	3915
819.762	4040
819.903	3915
820.043	3865
820.184	3778
820.324	3785
820.465	3838
820.605	3861
820.746	3861
820.886	3770
821.026	3915
821.167	3888
821.307	3949
821.447	4013
821.588	3953
821.728	3918
821.868	3934
822.008	3903
822.149	3907
822.289	3926
822.429	3747
822.569	3740
822.709	3736
822.849	3671
822.99	3701
823.13	3728
823.27	3804
823.41	3713
823.55	3740
823.69	3705
823.83	3740
823.97	3660
824.11	3599
824.25	3599
824.389	3622
824.529	3625
824.669	3656
824.809	3717
824.949	3743
825.089	3717
825.228	3671
825.368	3618
825.508	3504
825.648	3568
825.787	3584
825.927	3629
826.067	3625
826.206	3675
826.346	3747
826.485	3797
826.625	3876
826.765	3899
826.904	3827
827.044	3618
827.183	3530
827.323	3409
827.462	3496
827.601	3393
827.741	3393
827.88	3435
828.02	3378
828.159	3405
828.298	3428
828.437	3534
828.577	3447
828.716	3587
828.855	3469
828.994	3386
829.134	3340
829.273	3351
829.412	3363
829.551	3332
829.69	3340
829.829	3382
829.968	3469
830.107	3439
830.246	3443
830.385	3374
830.524	3378
830.663	3272
830.802	3256
830.941	3203
831.08	3192
831.219	3241
831.357	3249
831.496	3370
831.635	3241
831.774	3176
831.913	3218
832.051	3116
832.19	3165
832.329	3165
832.467	3142
832.606	3108
832.744	3154
832.883	3138
833.022	3180
833.16	3264
833.299	3313
833.437	3298
833.576	3344
833.714	3367
833.852	3416
833.991	3447
834.129	3447
834.267	3450
834.406	3386
834.544	3393
834.682	3428
834.821	3382
834.959	3580
835.097	3382
835.235	3488
835.373	3481
835.511	3477
835.65	3439
835.788	3488
835.926	3412
836.064	3348
836.202	3393
836.34	3515
836.478	3595
836.615	3507
836.753	3584
836.891	3614
837.029	3568
837.167	3603
837.305	3553
837.443	3511
837.58	3466
837.718	3572
837.856	3538
837.993	3488
838.131	3622
838.269	3561
838.406	3557
838.544	3580
838.681	3450
838.819	3424
838.956	3355
839.094	3359
839.231	3431
839.369	3519
839.506	3717
839.643	3663
839.781	3515
839.918	3431
840.055	3519
840.193	3492
840.33	3485
840.467	3564
840.604	3572
840.742	3846
840.879	3504
841.016	3553
841.153	3568
841.29	3755
841.427	3717
841.564	3717
841.701	3743
841.838	3709
841.975	3713
842.112	3724
842.249	3625
842.385	3610
842.522	3778
842.659	3701
842.796	3660
842.933	3679
843.069	3679
843.206	3724
843.343	3774
843.479	3789
843.616	3808
843.752	3652
843.889	3644
844.025	3846
844.162	3713
844.298	3831
844.435	3778
844.571	3778
844.708	3869
844.844	3972
844.98	4032
845.117	3945
845.253	3915
845.389	3915
845.525	3945
845.661	4002
845.798	3930
845.934	3998
846.07	3975
846.206	4048
846.342	4120
846.478	4074
846.614	3949
846.75	3922
846.886	3873
847.022	4059
847.158	3972
847.294	3968
847.429	4002
847.565	3994
847.701	4265
847.837	3842
847.972	3816
848.108	3994
848.244	3953
848.379	3831
848.515	3812
848.65	3812
848.786	3816
848.921	3861
849.057	3884
849.192	3960
849.328	3880
849.463	3907
849.598	3907
849.734	3846
849.869	3816
850.004	3846
850.14	3812
850.275	3743
850.41	3766
850.545	3770
850.68	3759
850.815	3804
850.95	3747
851.085	3930
851.22	3808
851.355	3819
851.49	3740
851.625	3781
851.76	3751
851.895	3732
852.03	3694
852.165	3816
852.299	3846
852.434	3922
852.569	3842
852.703	3911
852.838	3956
852.973	3968
853.107	3983
853.242	3915
853.376	3869
853.511	3781
853.645	3835
853.78	3983
853.914	3884
854.048	3892
854.183	3915
854.317	3964
854.451	4044
854.585	3915
854.72	3956
854.854	4097
854.988	3918
855.122	3983
855.256	3915
855.39	4044
855.524	4078
855.658	4071
855.792	4086
855.926	4112
856.06	4135
856.194	4173
856.327	4135
856.461	4101
856.595	4169
856.729	4166
856.862	4272
856.996	4268
857.13	4280
857.263	4344
857.397	4360
857.53	4295
857.664	4337
857.797	4398
857.931	4413
858.064	4394
858.197	4409
858.331	4379
858.464	4356
858.597	4352
858.731	4424
858.864	4451
858.997	4417
859.13	4478
859.263	4527
859.396	4535
859.529	4523
859.662	4519
859.795	4489
859.928	4569
860.061	4698
860.194	4763
860.327	4656
860.46	4656
860.592	4744
860.725	4763
860.858	4725
860.99	4683
861.123	4653
861.256	4717
861.388	4790
861.521	5490
861.653	4740
861.786	4710
861.918	4744
862.05	4812
862.183	4782
862.315	4896
862.447	4919
862.58	4847
862.712	4748
862.844	4786
862.976	4809
863.108	4839
863.24	5231
863.372	4831
863.504	4870
863.636	4873
863.768	4904
863.9	4930
864.032	4873
864.164	4987
864.296	4976
864.428	5071
864.559	5090
864.691	5075
864.823	5102
864.954	5079
865.086	5083
865.217	5086
865.349	5067
865.48	5159
865.612	5166
865.743	5277
865.875	5223
866.006	5174
866.137	5261
866.269	5235
866.4	5273
866.531	5223
866.662	5239
866.793	5265
866.924	5269
867.055	5307
867.186	5334
867.317	5273
867.448	5246
867.579	5402
867.71	5410
867.841	5341
867.972	5410
868.103	5482
868.233	5463
868.364	5478
868.495	5562
868.625	5676
868.756	5764
868.886	5665
869.017	5695
869.147	5863
869.278	5847
869.408	5832
869.539	5783
869.669	5958
869.799	5878
869.929	6003
870.06	5988
870.19	6155
870.32	6190
870.45	6277
870.58	6365
870.71	6426
870.84	6460
870.97	6403
871.1	6445
871.23	6658
871.36	6665
871.489	6623
871.619	6764
871.749	6840
871.879	6882
872.008	6920
872.138	6920
872.267	6977
872.397	6993
872.526	7038
872.656	7053
872.785	7221
872.915	7373
873.044	7533
873.173	7559
873.303	7624
873.432	7757
873.561	7841
873.69	7932
873.819	7982
873.948	8237
874.077	8130
874.206	8294
874.335	8473
874.464	8640
874.593	8826
874.722	8925
874.851	9146
874.979	9192
875.108	9329
875.237	9412
875.365	9450
875.494	9625
875.623	9797
875.751	9823
875.88	10017
876.008	10082
876.136	10310
876.265	10462
876.393	10691
876.521	10752
876.65	10812
876.778	10946
876.906	10927
877.034	10980
877.162	11029
877.29	11105
877.418	11360
877.546	11410
877.674	11425
877.802	11455
877.93	11577
878.058	11509
878.185	11566
878.313	11638
878.441	11707
878.568	11638
878.696	11718
878.824	11893
878.951	11859
879.079	11980
879.206	12030
879.333	12064
879.461	11977
879.588	12068
879.715	12011
879.842	12224
879.97	11992
880.097	11836
880.224	11809
880.351	11927
880.478	11878
880.605	11824
880.732	11923
880.859	12049
880.986	11843
881.112	11802
881.239	11729
881.366	11608
881.493	11661
881.619	11547
881.746	11493
881.872	11482
881.999	11512
882.125	11471
882.252	11528
882.378	11474
882.505	11562
882.631	11334
882.757	11311
882.883	11318
883.01	11265
883.136	11140
883.262	11109
883.388	11102
883.514	11185
883.64	11143
883.766	11109
883.892	11045
884.018	11029
884.143	11105
884.269	11075
884.395	10759
884.52	10774
884.646	10702
884.772	10691
884.897	10584
885.023	10691
885.148	10729
885.274	10637
885.399	10672
885.524	10588
885.65	10599
885.775	10538
885.9	10580
886.025	10626
886.15	10622
886.275	10440
886.4	10379
886.525	10367
886.65	10421
886.775	10310
886.9	10459
887.025	10615
887.149	10337
887.274	10268
887.399	10230
887.523	10223
887.648	10112
887.773	10101
887.897	10211
888.021	10211
888.146	10227
888.27	10227
888.395	10211
888.519	10192
888.643	10173
888.767	10173
888.891	10143
889.015	9979
889.139	10097
889.263	9968
889.387	10120
889.511	10101
889.635	10048
889.759	10036
889.883	10013
890.006	9964
890.13	10063
890.254	9983
890.377	10017
890.501	9785
890.624	9854
890.748	9892
890.871	9762
890.995	9781
891.118	9686
891.241	9797
891.364	9816
891.488	9831
891.611	9667
891.734	9740
891.857	9740
891.98	9720
892.103	9690
892.226	9675
892.349	9641
892.471	9466
892.594	9595
892.717	9591
892.839	9530
892.962	9557
893.085	9660
893.207	9564
893.33	9523
893.452	9515
893.575	9622
893.697	9473
893.819	9629
893.941	9561
894.064	9572
894.186	9500
894.308	9462
894.43	9496
894.552	9538
894.674	9496
894.796	9389
894.918	9469
895.04	9321
895.161	9363
895.283	9340
895.405	9199
895.526	9256
895.648	9214
895.769	9245
895.891	9214
896.012	9283
896.134	9161
896.255	9207
896.376	9135
896.498	9131
896.619	9108
896.74	9089
896.861	9108
896.982	9249
897.103	9317
897.224	9119
897.345	9085
897.466	8986
897.587	8956
897.708	9135
897.828	9066
897.949	8963
898.07	8902
898.19	8864
898.311	8975
898.431	8941
898.552	8895
898.672	8967
898.792	8960
898.913	8902
899.033	8800
899.153	8693
899.273	8697
899.393	8727
899.513	8781
899.633	8674
899.753	8769
899.873	8762
899.993	8762
900.113	8629
900.232	8708
900.352	8651
900.472	8621
900.591	8590
900.711	8655
900.83	8545
900.95	8739
901.069	8590
901.189	8560
901.308	8434
901.427	8446
901.546	8492
901.665	8434
901.784	8484
901.904	8351
902.023	8301
902.141	8168
902.26	8126
902.379	8320
902.498	8202
902.617	8263
902.735	8298
902.854	8282
902.973	8229
903.091	8138
903.21	8195
903.328	8142
903.446	8096
903.565	8008
903.683	8096
903.801	8027
903.919	8069
904.038	8024
904.156	8065
904.274	8123
904.392	8039
904.51	8001
904.627	8065
904.745	8103
904.863	8065
904.981	7986
905.098	7818
905.216	7913
905.334	7898
905.451	7830
905.569	7818
905.686	7917
905.803	7913
905.921	7799
906.038	7864
906.155	7784
906.272	7727
906.389	7750
906.506	7647
906.623	7666
906.74	7605
906.857	7556
906.974	7556
907.091	7632
907.208	7696
907.324	7636
907.441	7601
907.557	7514
907.674	7468
907.79	7350
907.907	7381
908.023	7419
908.139	7415
908.256	7354
908.372	7343
908.488	7388
908.604	7221
908.72	7217
908.836	7263
908.952	7251
909.068	7198
909.184	7377
909.3	7209
909.415	7282
909.531	7293
909.647	7076
909.762	7091
909.878	7053
909.993	7076
910.108	7118
910.224	7076
910.339	7076
910.454	7042
910.57	7019
910.685	6962
910.8	7103
910.915	7069
911.03	6993
911.145	6859
911.259	6837
911.374	6901
911.489	6878
911.604	6848
911.718	6654
911.833	6787
911.947	6620
912.062	6616
912.176	6741
912.291	6707
912.405	6681
912.519	6825
912.633	6806
912.748	6715
912.862	6688
912.976	6639
913.09	6528
913.204	6623
913.318	6578
913.431	6650
913.545	6665
913.659	6703
913.772	6608
913.886	6513
914	6551
914.113	6570
914.226	6646
914.34	6612
914.453	6498
914.566	6601
914.68	6498
914.793	6521
914.906	6414
915.019	6369
915.132	6342
915.245	6388
915.358	6422
915.47	6418
915.583	6437
915.696	6475
915.809	6544
915.921	6521
916.034	6384
916.146	6407
916.259	6357
916.371	6399
916.483	6448
916.595	6361
916.708	6384
916.82	6456
916.932	6365
917.044	6376
917.156	6395
917.268	6369
917.38	6380
917.491	6292
917.603	6319
917.715	6391
917.826	6426
917.938	6277
918.049	6213
918.161	6338
918.272	6361
918.384	6464
918.495	6323
918.606	6239
918.717	6190
918.828	6277
918.939	6239
919.05	6175
919.161	6232
919.272	6095
919.383	6152
919.494	6209
919.604	6502
919.715	6258
919.826	6205
919.936	6239
920.047	6327
920.157	6266
920.267	6410
920.378	6262
920.488	6243
920.598	6365
920.708	6532
920.818	6433
920.928	6464
921.038	6646
921.148	6593
921.258	6357
921.368	6334
921.477	6209
921.587	6167
921.697	6026
921.806	6136
921.916	6045
922.025	5931
922.134	5901
922.244	5878
922.353	5927
922.462	5790
922.571	5790
922.68	5684
922.789	5688
922.898	5684
923.007	5604
923.116	5695
923.224	5691
923.333	5600
923.442	5619
923.55	5566
923.659	5566
923.767	5589
923.876	5512
923.984	5509
924.092	5452
924.201	5497
924.309	5532
924.417	5520
924.525	5493
924.633	5493
924.741	6281
924.849	5349
924.956	5463
925.064	5383
925.172	5235
925.279	5303
925.387	5357
925.494	5311
925.602	5395
925.709	5368
925.816	5288
925.924	5296
926.031	5364
926.138	5265
926.245	5307
926.352	5181
926.459	5299
926.566	5311
926.673	5147
926.779	5083
926.886	5094
926.993	4987
927.099	4991
927.206	4915
927.312	4999
927.419	4965
927.525	4972
927.631	4987
927.737	4854
927.843	4911
927.95	4740
928.056	4816
928.162	4820
928.267	4820
928.373	5208
928.479	4782
928.585	4706
928.69	4801
928.796	4797
928.901	4630
929.007	4626
929.112	4660
929.218	4641
929.323	4588
929.428	4565
929.533	4653
929.638	4527
929.743	4546
929.848	4504
929.953	4519
930.058	4402
930.163	4341
930.267	4325
930.372	4413
930.477	4299
930.581	4493
930.685	4363
930.79	4268
930.894	4280
930.998	4280
931.103	4424
931.207	4131
931.311	4051
931.415	4021
931.519	3930
931.623	3949
