Data from glass_V78500241_1766.txt Node
Date: Wed Sep 01 19:26:44 CST 2021
User: usil
Spectrometer: V785-0024
Trigger mode: 0
Integration Time (sec): 4.000000E-1
Scans to average: 1
Nonlinearity correction enabled: false
Boxcar width: 0
Storing dark spectrum: false
XAxis mode: Wavelengths
Number of Pixels in Spectrum: 1024
>>>>>Begin Spectral Data<<<<<
801.071	3743
801.214	3751
801.356	3675
801.499	3732
801.641	3720
801.783	3781
801.926	3865
802.068	3816
802.211	3838
802.353	3869
802.496	3869
802.638	3899
802.78	3876
802.923	3930
803.065	3911
803.208	3819
803.35	3876
803.492	3930
803.635	3930
803.777	3831
803.919	3876
804.061	4116
804.204	3949
804.346	3979
804.488	3915
804.63	4051
804.773	3968
804.915	3991
805.057	4109
805.199	4059
805.341	4078
805.483	4112
805.626	4128
805.768	4051
805.91	4211
806.052	4223
806.194	4177
806.336	4371
806.478	4219
806.62	4169
806.762	4162
806.904	4230
807.046	4329
807.188	4211
807.33	4181
807.472	4257
807.614	4219
807.756	4219
807.898	4177
808.04	4223
808.182	4303
808.324	4303
808.465	4390
808.607	4466
808.749	4481
808.891	4478
809.033	4535
809.174	4394
809.316	4276
809.458	4238
809.6	4128
809.741	4162
809.883	4154
810.025	4200
810.166	4219
810.308	4181
810.45	4246
810.591	4249
810.733	4322
810.875	4497
811.016	4812
811.158	5143
811.299	5296
811.441	5235
811.582	5079
811.724	4721
811.865	4462
812.007	4409
812.148	4455
812.29	4363
812.431	4390
812.573	4386
812.714	4371
812.855	4383
812.997	4367
813.138	4466
813.279	4428
813.421	4367
813.562	4390
813.703	4337
813.845	4284
813.986	4295
814.127	4219
814.268	4257
814.41	4272
814.551	4295
814.692	4333
814.833	4291
814.974	4314
815.115	4360
815.256	4299
815.397	4261
815.539	4295
815.68	4177
815.821	4215
815.962	4310
816.103	4268
816.244	4223
816.385	4238
816.526	4238
816.666	4215
816.807	4097
816.948	4120
817.089	4166
817.23	4139
817.371	4051
817.512	4074
817.653	4124
817.793	4048
817.934	4048
818.075	4112
818.216	4078
818.356	4074
818.497	4002
818.638	3880
818.778	3934
818.919	3903
819.06	3854
819.2	3934
819.341	3838
819.481	3827
819.622	3934
819.762	4025
819.903	3960
820.043	3876
820.184	3823
820.324	3827
820.465	3899
820.605	3896
820.746	3857
820.886	3781
821.026	3949
821.167	3899
821.307	3972
821.447	4006
821.588	3949
821.728	3926
821.868	3937
822.008	3876
822.149	3899
822.289	3926
822.429	3800
822.569	3808
822.709	3804
822.849	3675
822.99	3720
823.13	3781
823.27	3720
823.41	3736
823.55	3675
823.69	3728
823.83	3713
823.97	3648
824.11	3606
824.25	3599
824.389	3663
824.529	3629
824.669	3660
824.809	3724
824.949	3797
825.089	3720
825.228	3671
825.368	3584
825.508	3568
825.648	3580
825.787	3576
825.927	3622
826.067	3580
826.206	3652
826.346	3804
826.485	3835
826.625	3873
826.765	3915
826.904	3804
827.044	3610
827.183	3519
827.323	3428
827.462	3473
827.601	3458
827.741	3409
827.88	3431
828.02	3340
828.159	3424
828.298	3473
828.437	3504
828.577	3473
828.716	3584
828.855	3496
828.994	3416
829.134	3397
829.273	3405
829.412	3367
829.551	3321
829.69	3363
829.829	3389
829.968	3481
830.107	3431
830.246	3447
830.385	3389
830.524	3329
830.663	3287
830.802	3237
830.941	3203
831.08	3214
831.219	3237
831.357	3279
831.496	3378
831.635	3211
831.774	3184
831.913	3195
832.051	3146
832.19	3150
832.329	3203
832.467	3169
832.606	3116
832.744	3154
832.883	3207
833.022	3230
833.16	3245
833.299	3351
833.437	3344
833.576	3363
833.714	3367
833.852	3439
833.991	3431
834.129	3435
834.267	3424
834.406	3397
834.544	3439
834.682	3386
834.821	3424
834.959	3557
835.097	3412
835.235	3507
835.373	3454
835.511	3515
835.65	3458
835.788	3466
835.926	3397
836.064	3370
836.202	3374
836.34	3580
836.478	3595
836.615	3545
836.753	3580
836.891	3660
837.029	3633
837.167	3572
837.305	3530
837.443	3561
837.58	3496
837.718	3595
837.856	3564
837.993	3534
838.131	3595
838.269	3553
838.406	3580
838.544	3549
838.681	3409
838.819	3435
838.956	3401
839.094	3382
839.231	3454
839.369	3511
839.506	3705
839.643	3648
839.781	3507
839.918	3481
840.055	3523
840.193	3545
840.33	3561
840.467	3599
840.604	3610
840.742	3804
840.879	3534
841.016	3553
841.153	3603
841.29	3713
841.427	3675
841.564	3682
841.701	3759
841.838	3724
841.975	3663
842.112	3698
842.249	3606
842.385	3671
842.522	3816
842.659	3690
842.796	3686
842.933	3671
843.069	3682
843.206	3709
843.343	3823
843.479	3770
843.616	3842
843.752	3682
843.889	3663
844.025	3850
844.162	3743
844.298	3854
844.435	3793
844.571	3808
844.708	3945
844.844	3991
844.98	4032
845.117	3994
845.253	3945
845.389	3888
845.525	3930
845.661	3956
845.798	3903
845.934	4006
846.07	3964
846.206	4055
846.342	4093
846.478	4051
846.614	3975
846.75	3911
846.886	3903
847.022	3998
847.158	3953
847.294	4006
847.429	4017
847.565	3994
847.701	4249
847.837	3956
847.972	3903
848.108	3941
848.244	3991
848.379	3831
848.515	3816
848.65	3819
848.786	3835
848.921	3857
849.057	3926
849.192	3960
849.328	3884
849.463	3896
849.598	3918
849.734	3865
849.869	3808
850.004	3789
850.14	3812
850.275	3743
850.41	3720
850.545	3686
850.68	3781
850.815	3812
850.95	3793
851.085	3972
851.22	3888
851.355	3785
851.49	3751
851.625	3762
851.76	3819
851.895	3717
852.03	3778
852.165	3793
852.299	3888
852.434	3945
852.569	3854
852.703	3850
852.838	3930
852.973	3949
853.107	3991
853.242	3880
853.376	3869
853.511	3785
853.645	3846
853.78	3956
853.914	3907
854.048	3873
854.183	3896
854.317	3956
854.451	4059
854.585	3896
854.72	3930
854.854	4010
854.988	3979
855.122	3972
855.256	3937
855.39	4010
855.524	4097
855.658	4071
855.792	4109
855.926	4173
856.06	4196
856.194	4166
856.327	4131
856.461	4090
856.595	4158
856.729	4169
856.862	4310
856.996	4284
857.13	4310
857.263	4341
857.397	4398
857.53	4310
857.664	4371
857.797	4405
857.931	4440
858.064	4322
858.197	4466
858.331	4390
858.464	4413
858.597	4379
858.731	4440
858.864	4481
858.997	4413
859.13	4493
859.263	4550
859.396	4519
859.529	4535
859.662	4493
859.795	4516
859.928	4603
860.061	4675
860.194	4740
860.327	4618
860.46	4634
860.592	4710
860.725	4717
860.858	4767
860.99	4687
861.123	4672
861.256	4691
861.388	4790
861.521	5406
861.653	4694
861.786	4698
861.918	4721
862.05	4790
862.183	4866
862.315	4900
862.447	4900
862.58	4831
862.712	4790
862.844	4786
862.976	4892
863.108	4854
863.24	5258
863.372	4835
863.504	4904
863.636	4919
863.768	4892
863.9	4991
864.032	4892
864.164	4972
864.296	5029
864.428	5086
864.559	5064
864.691	5067
864.823	5159
864.954	5124
865.086	5140
865.217	5109
865.349	5109
865.48	5162
865.612	5197
865.743	5212
865.875	5227
866.006	5159
866.137	5216
866.269	5242
866.4	5246
866.531	5227
866.662	5223
866.793	5246
866.924	5307
867.055	5337
867.186	5372
867.317	5280
867.448	5330
867.579	5391
867.71	5368
867.841	5379
867.972	5448
868.103	5474
868.233	5516
868.364	5516
868.495	5516
868.625	5684
868.756	5786
868.886	5672
869.017	5710
869.147	5828
869.278	5889
869.408	5775
869.539	5786
869.669	5916
869.799	5889
869.929	5999
870.06	5969
870.19	6224
870.32	6201
870.45	6273
870.58	6304
870.71	6475
870.84	6506
870.97	6388
871.1	6486
871.23	6692
871.36	6650
871.489	6688
871.619	6681
871.749	6844
871.879	6901
872.008	6993
872.138	6947
872.267	6958
872.397	6981
872.526	7004
872.656	7065
872.785	7187
872.915	7377
873.044	7537
873.173	7575
873.303	7563
873.432	7769
873.561	7814
873.69	7868
873.819	8008
873.948	8119
874.077	8271
874.206	8339
874.335	8412
874.464	8648
874.593	8895
874.722	8941
874.851	9127
874.979	9272
875.108	9382
875.237	9329
875.365	9473
875.494	9648
875.623	9865
875.751	9797
875.88	10032
876.008	10135
876.136	10329
876.265	10470
876.393	10672
876.521	10691
876.65	10809
876.778	10824
876.906	10892
877.034	11037
877.162	11075
877.29	11132
877.418	11273
877.546	11398
877.674	11410
877.802	11436
877.93	11524
878.058	11497
878.185	11539
878.313	11615
878.441	11790
878.568	11668
878.696	11760
878.824	11840
878.951	11996
879.079	12019
879.206	12087
879.333	12057
879.461	12106
879.588	12030
879.715	12034
879.842	12224
879.97	11973
880.097	11950
880.224	11863
880.351	11783
880.478	11897
880.605	11775
880.732	11824
880.859	12038
880.986	11901
881.112	11745
881.239	11775
881.366	11668
881.493	11642
881.619	11558
881.746	11535
881.872	11493
881.999	11520
882.125	11493
882.252	11425
882.378	11547
882.505	11520
882.631	11315
882.757	11250
882.883	11307
883.01	11303
883.136	11197
883.262	11067
883.388	11105
883.514	11227
883.64	11208
883.766	11071
883.892	10980
884.018	10972
884.143	11094
884.269	11060
884.395	10908
884.52	10850
884.646	10763
884.772	10721
884.897	10645
885.023	10729
885.148	10752
885.274	10767
885.399	10687
885.524	10519
885.65	10599
885.775	10660
885.9	10565
886.025	10596
886.15	10523
886.275	10440
886.4	10375
886.525	10447
886.65	10390
886.775	10333
886.9	10546
887.025	10451
887.149	10329
887.274	10177
887.399	10280
887.523	10207
887.648	10090
887.773	10128
887.897	10246
888.021	10185
888.146	10116
888.27	10204
888.395	10227
888.519	10158
888.643	10188
888.767	10192
888.891	10082
889.015	10063
889.139	10021
889.263	9994
889.387	10078
889.511	10048
889.635	10120
889.759	10017
889.883	9960
890.006	9941
890.13	10078
890.254	9964
890.377	10010
890.501	9835
890.624	9835
890.748	9922
890.871	9800
890.995	9743
891.118	9736
891.241	9774
891.364	9755
891.488	9888
891.611	9800
891.734	9690
891.857	9747
891.98	9766
892.103	9785
892.226	9720
892.349	9747
892.471	9485
892.594	9606
892.717	9618
892.839	9606
892.962	9663
893.085	9709
893.207	9568
893.33	9443
893.452	9507
893.575	9564
893.697	9511
893.819	9584
893.941	9622
894.064	9584
894.186	9454
894.308	9488
894.43	9538
894.552	9610
894.674	9534
894.796	9355
894.918	9393
895.04	9317
895.161	9397
895.283	9325
895.405	9283
895.526	9287
895.648	9230
895.769	9207
895.891	9222
896.012	9321
896.134	9176
896.255	9195
896.376	9062
896.498	9188
896.619	9131
896.74	9074
896.861	9062
896.982	9302
897.103	9283
897.224	9089
897.345	9108
897.466	9028
897.587	8990
897.708	9123
897.828	8960
897.949	8914
898.07	8895
898.19	8937
898.311	9009
898.431	8914
898.552	8929
898.672	8933
898.792	8838
898.913	8880
899.033	8800
899.153	8731
899.273	8693
899.393	8708
899.513	8746
899.633	8769
899.753	8792
899.873	8670
899.993	8781
900.113	8750
900.232	8766
900.352	8590
900.472	8606
900.591	8560
900.711	8598
900.83	8552
900.95	8693
901.069	8708
901.189	8575
901.308	8461
901.427	8419
901.546	8454
901.665	8427
901.784	8476
901.904	8389
902.023	8336
902.141	8259
902.26	8157
902.379	8248
902.498	8237
902.617	8221
902.735	8294
902.854	8332
902.973	8252
903.091	8115
903.21	8119
903.328	8092
903.446	8119
903.565	8081
903.683	8157
903.801	8081
903.919	8088
904.038	8123
904.156	8081
904.274	8069
904.392	8065
904.51	8054
904.627	8100
904.745	8039
904.863	8130
904.981	7932
905.098	7898
905.216	7906
905.334	7951
905.451	7982
905.569	7887
905.686	7917
905.803	7951
905.921	7792
906.038	7898
906.155	7780
906.272	7712
906.389	7700
906.506	7616
906.623	7597
906.74	7674
906.857	7533
906.974	7552
907.091	7658
907.208	7655
907.324	7586
907.441	7613
907.557	7426
907.674	7392
907.79	7411
907.907	7339
908.023	7407
908.139	7487
908.256	7354
908.372	7384
908.488	7343
908.604	7251
908.72	7236
908.836	7289
908.952	7266
909.068	7263
909.184	7289
909.3	7247
909.415	7339
909.531	7346
909.647	7118
909.762	7091
909.878	7076
909.993	7084
910.108	7095
910.224	7107
910.339	7141
910.454	7019
910.57	7050
910.685	6890
910.8	7190
910.915	7103
911.03	7069
911.145	6954
911.259	6901
911.374	6840
911.489	6852
911.604	6821
911.718	6715
911.833	6726
911.947	6639
912.062	6650
912.176	6730
912.291	6745
912.405	6711
912.519	6810
912.633	6798
912.748	6715
912.862	6688
912.976	6559
913.09	6509
913.204	6532
913.318	6620
913.431	6669
913.545	6696
913.659	6726
913.772	6684
913.886	6498
914	6544
914.113	6582
914.226	6601
914.34	6604
914.453	6471
914.566	6570
914.68	6517
914.793	6551
914.906	6441
915.019	6414
915.132	6357
915.245	6399
915.358	6433
915.47	6460
915.583	6399
915.696	6494
915.809	6498
915.921	6525
916.034	6414
916.146	6350
916.259	6445
916.371	6452
916.483	6429
916.595	6407
916.708	6437
916.82	6422
916.932	6365
917.044	6369
917.156	6388
917.268	6342
917.38	6388
917.491	6292
917.603	6384
917.715	6399
917.826	6391
917.938	6361
918.049	6213
918.161	6254
918.272	6445
918.384	6445
918.495	6353
918.606	6239
918.717	6209
918.828	6270
918.939	6311
919.05	6167
919.161	6296
919.272	6117
919.383	6175
919.494	6311
919.604	6467
919.715	6315
919.826	6152
919.936	6243
920.047	6361
920.157	6247
920.267	6452
920.378	6350
920.488	6296
920.598	6422
920.708	6570
920.818	6460
920.928	6483
921.038	6566
921.148	6589
921.258	6327
921.368	6292
921.477	6140
921.587	6163
921.697	6064
921.806	6194
921.916	6129
922.025	5923
922.134	5897
922.244	5847
922.353	5923
922.462	5824
922.571	5767
922.68	5699
922.789	5634
922.898	5668
923.007	5665
923.116	5653
923.224	5649
923.333	5695
923.442	5585
923.55	5573
923.659	5657
923.767	5638
923.876	5551
923.984	5596
924.092	5554
924.201	5585
924.309	5543
924.417	5505
924.525	5524
924.633	5520
924.741	6258
924.849	5360
924.956	5463
925.064	5383
925.172	5292
925.279	5330
925.387	5345
925.494	5334
925.602	5433
925.709	5360
925.816	5265
925.924	5322
926.031	5376
926.138	5284
926.245	5326
926.352	5216
926.459	5353
926.566	5322
926.673	5113
926.779	5121
926.886	5113
926.993	5052
927.099	4976
927.206	4965
927.312	4980
927.419	5052
927.525	5003
927.631	4995
927.737	4927
927.843	4877
927.95	4755
928.056	4824
928.162	4801
928.267	4858
928.373	5357
928.479	4854
928.585	4687
928.69	4824
928.796	4782
928.901	4710
929.007	4554
929.112	4691
929.218	4630
929.323	4580
929.428	4554
929.533	4615
929.638	4489
929.743	4577
929.848	4573
929.953	4546
930.058	4443
930.163	4314
930.267	4287
930.372	4398
930.477	4265
930.581	4447
930.685	4386
930.79	4272
930.894	4261
930.998	4265
931.103	4356
931.207	4120
931.311	4078
931.415	4051
931.519	3949
931.623	3953
