Data from glass_V78500241_636.txt Node
Date: Wed Sep 01 19:18:54 CST 2021
User: usil
Spectrometer: V785-0024
Trigger mode: 0
Integration Time (sec): 4.000000E-1
Scans to average: 1
Nonlinearity correction enabled: false
Boxcar width: 0
Storing dark spectrum: false
XAxis mode: Wavelengths
Number of Pixels in Spectrum: 1024
>>>>>Begin Spectral Data<<<<<
801.071	3747
801.214	3785
801.356	3766
801.499	3736
801.641	3736
801.783	3800
801.926	3903
802.068	3854
802.211	3888
802.353	3884
802.496	3831
802.638	3915
802.78	3892
802.923	3979
803.065	3903
803.208	3876
803.35	3888
803.492	3911
803.635	3934
803.777	3831
803.919	3949
804.061	4158
804.204	4006
804.346	3960
804.488	3960
804.63	4044
804.773	3972
804.915	4040
805.057	4150
805.199	4048
805.341	4074
805.483	4055
805.626	4124
805.768	4139
805.91	4227
806.052	4223
806.194	4223
806.336	4333
806.478	4192
806.62	4211
806.762	4185
806.904	4291
807.046	4356
807.188	4230
807.33	4204
807.472	4196
807.614	4219
807.756	4291
807.898	4211
808.04	4204
808.182	4284
808.324	4360
808.465	4436
808.607	4474
808.749	4478
808.891	4493
809.033	4516
809.174	4402
809.316	4272
809.458	4310
809.6	4192
809.741	4112
809.883	4128
810.025	4207
810.166	4177
810.308	4242
810.45	4253
810.591	4215
810.733	4242
810.875	4489
811.016	4790
811.158	5117
811.299	5315
811.441	5307
811.582	5056
811.724	4729
811.865	4459
812.007	4493
812.148	4459
812.29	4409
812.431	4443
812.573	4386
812.714	4333
812.855	4402
812.997	4432
813.138	4481
813.279	4459
813.421	4417
813.562	4421
813.703	4341
813.845	4348
813.986	4276
814.127	4249
814.268	4253
814.41	4348
814.551	4322
814.692	4341
814.833	4295
814.974	4303
815.115	4383
815.256	4276
815.397	4276
815.539	4253
815.68	4219
815.821	4246
815.962	4306
816.103	4238
816.244	4272
816.385	4287
816.526	4280
816.666	4219
816.807	4105
816.948	4166
817.089	4181
817.23	4101
817.371	4025
817.512	4036
817.653	4055
817.793	4044
817.934	4071
818.075	4162
818.216	4059
818.356	4109
818.497	3998
818.638	3876
818.778	3896
818.919	3922
819.06	3869
819.2	3915
819.341	3873
819.481	3838
819.622	3911
819.762	4063
819.903	3968
820.043	3876
820.184	3846
820.324	3861
820.465	3892
820.605	3903
820.746	3903
820.886	3781
821.026	3949
821.167	3926
821.307	3987
821.447	4002
821.588	3983
821.728	3945
821.868	3960
822.008	3880
822.149	3934
822.289	3926
822.429	3819
822.569	3785
822.709	3812
822.849	3709
822.99	3781
823.13	3770
823.27	3812
823.41	3720
823.55	3751
823.69	3762
823.83	3736
823.97	3732
824.11	3629
824.25	3633
824.389	3610
824.529	3690
824.669	3671
824.809	3724
824.949	3705
825.089	3709
825.228	3705
825.368	3644
825.508	3599
825.648	3572
825.787	3622
825.927	3637
826.067	3625
826.206	3682
826.346	3789
826.485	3896
826.625	3880
826.765	3922
826.904	3857
827.044	3610
827.183	3549
827.323	3454
827.462	3515
827.601	3435
827.741	3443
827.88	3466
828.02	3405
828.159	3439
828.298	3515
828.437	3504
828.577	3473
828.716	3595
828.855	3454
828.994	3386
829.134	3397
829.273	3355
829.412	3336
829.551	3397
829.69	3382
829.829	3454
829.968	3538
830.107	3447
830.246	3420
830.385	3428
830.524	3367
830.663	3268
830.802	3256
830.941	3226
831.08	3195
831.219	3272
831.357	3279
831.496	3386
831.635	3268
831.774	3165
831.913	3176
832.051	3100
832.19	3135
832.329	3256
832.467	3157
832.606	3123
832.744	3157
832.883	3180
833.022	3184
833.16	3264
833.299	3325
833.437	3370
833.576	3329
833.714	3443
833.852	3450
833.991	3473
834.129	3488
834.267	3424
834.406	3393
834.544	3405
834.682	3435
834.821	3424
834.959	3576
835.097	3405
835.235	3523
835.373	3496
835.511	3500
835.65	3428
835.788	3534
835.926	3370
836.064	3367
836.202	3447
836.34	3584
836.478	3622
836.615	3603
836.753	3584
836.891	3671
837.029	3603
837.167	3584
837.305	3599
837.443	3534
837.58	3523
837.718	3584
837.856	3572
837.993	3576
838.131	3603
838.269	3603
838.406	3587
838.544	3591
838.681	3466
838.819	3542
838.956	3355
839.094	3424
839.231	3435
839.369	3534
839.506	3728
839.643	3625
839.781	3519
839.918	3492
840.055	3500
840.193	3545
840.33	3557
840.467	3568
840.604	3591
840.742	3823
840.879	3572
841.016	3599
841.153	3591
841.29	3740
841.427	3736
841.564	3717
841.701	3785
841.838	3713
841.975	3667
842.112	3720
842.249	3637
842.385	3656
842.522	3804
842.659	3751
842.796	3686
842.933	3724
843.069	3717
843.206	3694
843.343	3816
843.479	3804
843.616	3827
843.752	3682
843.889	3705
844.025	3823
844.162	3713
844.298	3857
844.435	3778
844.571	3770
844.708	3934
844.844	4029
844.98	4063
845.117	4044
845.253	3953
845.389	3911
845.525	3979
845.661	3994
845.798	3926
845.934	3994
846.07	3998
846.206	4071
846.342	4116
846.478	4055
846.614	3994
846.75	3922
846.886	3941
847.022	4067
847.158	3994
847.294	4036
847.429	4040
847.565	4032
847.701	4234
847.837	3892
847.972	3911
848.108	3960
848.244	3949
848.379	3857
848.515	3819
848.65	3835
848.786	3850
848.921	3880
849.057	3945
849.192	3945
849.328	3991
849.463	3960
849.598	3899
849.734	3892
849.869	3884
850.004	3812
850.14	3854
850.275	3823
850.41	3720
850.545	3755
850.68	3774
850.815	3835
850.95	3819
851.085	3949
851.22	3876
851.355	3876
851.49	3804
851.625	3831
851.76	3804
851.895	3747
852.03	3743
852.165	3812
852.299	3884
852.434	3888
852.569	3857
852.703	3911
852.838	3949
852.973	3964
853.107	4044
853.242	3884
853.376	3918
853.511	3797
853.645	3876
853.78	3945
853.914	3918
854.048	3899
854.183	3876
854.317	3934
854.451	4063
854.585	3987
854.72	3975
854.854	4021
854.988	3937
855.122	3975
855.256	3941
855.39	4025
855.524	4097
855.658	4116
855.792	4101
855.926	4177
856.06	4169
856.194	4173
856.327	4177
856.461	4101
856.595	4139
856.729	4166
856.862	4276
856.996	4238
857.13	4284
857.263	4363
857.397	4390
857.53	4295
857.664	4341
857.797	4394
857.931	4402
858.064	4409
858.197	4497
858.331	4394
858.464	4383
858.597	4409
858.731	4455
858.864	4451
858.997	4497
859.13	4512
859.263	4573
859.396	4611
859.529	4538
859.662	4527
859.795	4577
859.928	4603
860.061	4733
860.194	4721
860.327	4588
860.46	4599
860.592	4725
860.725	4752
860.858	4797
860.99	4733
861.123	4664
861.256	4740
861.388	4797
861.521	5273
861.653	4748
861.786	4740
861.918	4774
862.05	4793
862.183	4847
862.315	4896
862.447	4942
862.58	4866
862.712	4793
862.844	4793
862.976	4892
863.108	4896
863.24	5231
863.372	4801
863.504	4961
863.636	4904
863.768	5006
863.9	4987
864.032	4949
864.164	4961
864.296	5045
864.428	5098
864.559	5124
864.691	5117
864.823	5109
864.954	5121
865.086	5170
865.217	5121
865.349	5098
865.48	5143
865.612	5181
865.743	5273
865.875	5178
866.006	5250
866.137	5277
866.269	5258
866.4	5303
866.531	5246
866.662	5303
866.793	5261
866.924	5265
867.055	5322
867.186	5280
867.317	5349
867.448	5315
867.579	5357
867.71	5406
867.841	5410
867.972	5463
868.103	5497
868.233	5490
868.364	5471
868.495	5573
868.625	5703
868.756	5844
868.886	5695
869.017	5714
869.147	5908
869.278	5920
869.408	5821
869.539	5855
869.669	5931
869.799	5935
869.929	6011
870.06	5992
870.19	6190
870.32	6194
870.45	6296
870.58	6361
870.71	6422
870.84	6433
870.97	6403
871.1	6502
871.23	6650
871.36	6669
871.489	6665
871.619	6791
871.749	6764
871.879	6909
872.008	7000
872.138	7000
872.267	7061
872.397	6996
872.526	7012
872.656	7122
872.785	7270
872.915	7373
873.044	7567
873.173	7575
873.303	7624
873.432	7784
873.561	7849
873.69	7909
873.819	7989
873.948	8225
874.077	8282
874.206	8313
874.335	8465
874.464	8708
874.593	8868
874.722	8963
874.851	9188
874.979	9302
875.108	9336
875.237	9447
875.365	9530
875.494	9644
875.623	9793
875.751	9869
875.88	10051
876.008	10109
876.136	10280
876.265	10474
876.393	10691
876.521	10725
876.65	10752
876.778	10854
876.906	10908
877.034	11048
877.162	11166
877.29	11113
877.418	11277
877.546	11341
877.674	11459
877.802	11512
877.93	11493
878.058	11585
878.185	11528
878.313	11680
878.441	11779
878.568	11619
878.696	11733
878.824	11824
878.951	11992
879.079	12034
879.206	12148
879.333	12087
879.461	12030
879.588	12076
879.715	12091
879.842	12209
879.97	12053
880.097	11961
880.224	11889
880.351	11889
880.478	11916
880.605	11794
880.732	11882
880.859	12049
880.986	11824
881.112	11798
881.239	11611
881.366	11718
881.493	11676
881.619	11657
881.746	11566
881.872	11608
881.999	11551
882.125	11474
882.252	11535
882.378	11440
882.505	11539
882.631	11379
882.757	11223
882.883	11292
883.01	11174
883.136	11204
883.262	11064
883.388	11083
883.514	11227
883.64	11250
883.766	11105
883.892	11037
884.018	11033
884.143	11147
884.269	11140
884.395	10862
884.52	10782
884.646	10736
884.772	10729
884.897	10622
885.023	10679
885.148	10790
885.274	10763
885.399	10664
885.524	10672
885.65	10599
885.775	10611
885.9	10531
886.025	10691
886.15	10607
886.275	10466
886.4	10432
886.525	10447
886.65	10356
886.775	10344
886.9	10413
887.025	10527
887.149	10333
887.274	10246
887.399	10185
887.523	10162
887.648	10139
887.773	10173
887.897	10181
888.021	10310
888.146	10116
888.27	10272
888.395	10238
888.519	10253
888.643	10246
888.767	10188
888.891	10090
889.015	10048
889.139	10109
889.263	10013
889.387	10067
889.511	10143
889.635	10173
889.759	10002
889.883	10044
890.006	9960
890.13	10158
890.254	9979
890.377	9949
890.501	9876
890.624	9903
890.748	9854
890.871	9911
890.995	9770
891.118	9755
891.241	9797
891.364	9759
891.488	9918
891.611	9800
891.734	9762
891.857	9800
891.98	9717
892.103	9823
892.226	9743
892.349	9675
892.471	9622
892.594	9625
892.717	9603
892.839	9648
892.962	9667
893.085	9759
893.207	9549
893.33	9473
893.452	9542
893.575	9614
893.697	9576
893.819	9671
893.941	9625
894.064	9682
894.186	9462
894.308	9420
894.43	9561
894.552	9629
894.674	9534
894.796	9378
894.918	9428
895.04	9306
895.161	9401
895.283	9359
895.405	9176
895.526	9283
895.648	9260
895.769	9233
895.891	9241
896.012	9291
896.134	9233
896.255	9180
896.376	9127
896.498	9161
896.619	9135
896.74	9097
896.861	9100
896.982	9207
897.103	9321
897.224	9302
897.345	9085
897.466	8967
897.587	9097
897.708	9180
897.828	9020
897.949	9001
898.07	8906
898.19	8937
898.311	9055
898.431	8960
898.552	8868
898.672	8986
898.792	8944
898.913	8906
899.033	8849
899.153	8792
899.273	8697
899.393	8667
899.513	8746
899.633	8743
899.753	8731
899.873	8720
899.993	8788
900.113	8705
900.232	8682
900.352	8579
900.472	8655
900.591	8564
900.711	8663
900.83	8598
900.95	8651
901.069	8720
901.189	8587
901.308	8473
901.427	8343
901.546	8393
901.665	8499
901.784	8518
901.904	8461
902.023	8374
902.141	8271
902.26	8199
902.379	8298
902.498	8206
902.617	8221
902.735	8298
902.854	8279
902.973	8301
903.091	8100
903.21	8161
903.328	8191
903.446	8153
903.565	8039
903.683	8119
903.801	8073
903.919	8115
904.038	8119
904.156	7978
904.274	8142
904.392	8016
904.51	8084
904.627	8073
904.745	8081
904.863	8142
904.981	7989
905.098	7917
905.216	7883
905.334	7841
905.451	7902
905.569	7852
905.686	7955
905.803	7875
905.921	7803
906.038	7868
906.155	7830
906.272	7769
906.389	7742
906.506	7624
906.623	7658
906.74	7624
906.857	7495
906.974	7613
907.091	7643
907.208	7655
907.324	7628
907.441	7575
907.557	7430
907.674	7460
907.79	7403
907.907	7346
908.023	7430
908.139	7441
908.256	7419
908.372	7388
908.488	7339
908.604	7335
908.72	7236
908.836	7255
908.952	7259
909.068	7225
909.184	7358
909.3	7282
909.415	7316
909.531	7316
909.647	7103
909.762	7095
909.878	7061
909.993	7126
910.108	7198
910.224	7084
910.339	7126
910.454	7080
910.57	7000
910.685	6977
910.8	7164
910.915	7080
911.03	6996
911.145	6981
911.259	6882
911.374	6905
911.489	6863
911.604	6897
911.718	6738
911.833	6791
911.947	6681
912.062	6563
912.176	6715
912.291	6745
912.405	6688
912.519	6897
912.633	6833
912.748	6764
912.862	6726
912.976	6608
913.09	6551
913.204	6570
913.318	6650
913.431	6688
913.545	6707
913.659	6806
913.772	6616
913.886	6627
914	6566
914.113	6700
914.226	6658
914.34	6578
914.453	6555
914.566	6616
914.68	6597
914.793	6563
914.906	6414
915.019	6380
915.132	6365
915.245	6452
915.358	6471
915.47	6422
915.583	6407
915.696	6471
915.809	6486
915.921	6536
916.034	6388
916.146	6426
916.259	6418
916.371	6448
916.483	6498
916.595	6445
916.708	6475
916.82	6395
916.932	6331
917.044	6399
917.156	6418
917.268	6323
917.38	6319
917.491	6338
917.603	6365
917.715	6414
917.826	6429
917.938	6338
918.049	6262
918.161	6308
918.272	6517
918.384	6486
918.495	6410
918.606	6315
918.717	6262
918.828	6353
918.939	6300
919.05	6243
919.161	6289
919.272	6121
919.383	6140
919.494	6243
919.604	6445
919.715	6346
919.826	6235
919.936	6281
920.047	6380
920.157	6327
920.267	6513
920.378	6315
920.488	6323
920.598	6471
920.708	6506
920.818	6414
920.928	6494
921.038	6578
921.148	6654
921.258	6395
921.368	6292
921.477	6254
921.587	6178
921.697	6068
921.806	6163
921.916	6133
922.025	5920
922.134	5923
922.244	5893
922.353	5935
922.462	5855
922.571	5832
922.68	5710
922.789	5718
922.898	5745
923.007	5684
923.116	5676
923.224	5726
923.333	5630
923.442	5619
923.55	5566
923.659	5573
923.767	5581
923.876	5543
923.984	5680
924.092	5493
924.201	5608
924.309	5562
924.417	5566
924.525	5486
924.633	5516
924.741	6292
924.849	5402
924.956	5474
925.064	5410
925.172	5357
925.279	5307
925.387	5307
925.494	5318
925.602	5421
925.709	5391
925.816	5265
925.924	5307
926.031	5337
926.138	5299
926.245	5364
926.352	5246
926.459	5364
926.566	5368
926.673	5258
926.779	5147
926.886	5178
926.993	5075
927.099	5029
927.206	4980
927.312	5022
927.419	5041
927.525	5006
927.631	5003
927.737	4908
927.843	4908
927.95	4793
928.056	4847
928.162	4812
928.267	4854
928.373	5258
928.479	4877
928.585	4691
928.69	4778
928.796	4820
928.901	4698
929.007	4611
929.112	4672
929.218	4634
929.323	4618
929.428	4577
929.533	4691
929.638	4519
929.743	4531
929.848	4603
929.953	4516
930.058	4474
930.163	4333
930.267	4371
930.372	4459
930.477	4318
930.581	4459
930.685	4379
930.79	4173
930.894	4348
930.998	4242
931.103	4402
931.207	4128
931.311	4124
931.415	4074
931.519	3922
931.623	3930
