Data from glass_V78500241_1378.txt Node
Date: Wed Sep 01 19:24:03 CST 2021
User: usil
Spectrometer: V785-0024
Trigger mode: 0
Integration Time (sec): 4.000000E-1
Scans to average: 1
Nonlinearity correction enabled: false
Boxcar width: 0
Storing dark spectrum: false
XAxis mode: Wavelengths
Number of Pixels in Spectrum: 1024
>>>>>Begin Spectral Data<<<<<
801.071	3747
801.214	3755
801.356	3720
801.499	3717
801.641	3717
801.783	3766
801.926	3880
802.068	3865
802.211	3831
802.353	3907
802.496	3850
802.638	3850
802.78	3937
802.923	3953
803.065	3903
803.208	3896
803.35	3857
803.492	3915
803.635	3896
803.777	3808
803.919	3888
804.061	4139
804.204	3926
804.346	3937
804.488	3930
804.63	4036
804.773	3998
804.915	4036
805.057	4150
805.199	4021
805.341	4101
805.483	4185
805.626	4162
805.768	4147
805.91	4196
806.052	4261
806.194	4219
806.336	4322
806.478	4207
806.62	4185
806.762	4219
806.904	4230
807.046	4360
807.188	4284
807.33	4219
807.472	4238
807.614	4135
807.756	4280
807.898	4230
808.04	4185
808.182	4272
808.324	4333
808.465	4398
808.607	4478
808.749	4485
808.891	4424
809.033	4485
809.174	4402
809.316	4249
809.458	4242
809.6	4185
809.741	4154
809.883	4128
810.025	4242
810.166	4181
810.308	4207
810.45	4246
810.591	4230
810.733	4287
810.875	4535
811.016	4854
811.158	5147
811.299	5318
811.441	5265
811.582	5083
811.724	4752
811.865	4478
812.007	4508
812.148	4436
812.29	4402
812.431	4405
812.573	4409
812.714	4360
812.855	4383
812.997	4481
813.138	4516
813.279	4428
813.421	4352
813.562	4383
813.703	4325
813.845	4314
813.986	4268
814.127	4223
814.268	4284
814.41	4295
814.551	4295
814.692	4367
814.833	4291
814.974	4314
815.115	4383
815.256	4227
815.397	4207
815.539	4261
815.68	4173
815.821	4227
815.962	4295
816.103	4287
816.244	4265
816.385	4253
816.526	4261
816.666	4204
816.807	4093
816.948	4185
817.089	4177
817.23	4116
817.371	4071
817.512	4071
817.653	4074
817.793	4032
817.934	4078
818.075	4109
818.216	4048
818.356	4097
818.497	4013
818.638	3899
818.778	3926
818.919	3880
819.06	3880
819.2	3911
819.341	3854
819.481	3850
819.622	3899
819.762	4021
819.903	4010
820.043	3827
820.184	3880
820.324	3797
820.465	3846
820.605	3865
820.746	3892
820.886	3808
821.026	3945
821.167	3918
821.307	4013
821.447	3964
821.588	3945
821.728	3998
821.868	3987
822.008	3869
822.149	3949
822.289	3896
822.429	3827
822.569	3747
822.709	3770
822.849	3698
822.99	3728
823.13	3743
823.27	3808
823.41	3743
823.55	3686
823.69	3720
823.83	3743
823.97	3667
824.11	3633
824.25	3606
824.389	3641
824.529	3667
824.669	3622
824.809	3740
824.949	3766
825.089	3713
825.228	3717
825.368	3576
825.508	3553
825.648	3591
825.787	3629
825.927	3629
826.067	3622
826.206	3667
826.346	3762
826.485	3857
826.625	3911
826.765	3960
826.904	3857
827.044	3614
827.183	3534
827.323	3450
827.462	3492
827.601	3428
827.741	3405
827.88	3485
828.02	3359
828.159	3435
828.298	3530
828.437	3542
828.577	3485
828.716	3610
828.855	3492
828.994	3382
829.134	3405
829.273	3378
829.412	3378
829.551	3332
829.69	3397
829.829	3416
829.968	3538
830.107	3435
830.246	3454
830.385	3359
830.524	3302
830.663	3298
830.802	3226
830.941	3203
831.08	3214
831.219	3291
831.357	3294
831.496	3409
831.635	3287
831.774	3169
831.913	3245
832.051	3112
832.19	3157
832.329	3211
832.467	3135
832.606	3131
832.744	3165
832.883	3188
833.022	3214
833.16	3245
833.299	3321
833.437	3367
833.576	3359
833.714	3439
833.852	3412
833.991	3466
834.129	3462
834.267	3412
834.406	3374
834.544	3416
834.682	3428
834.821	3428
834.959	3538
835.097	3420
835.235	3526
835.373	3500
835.511	3507
835.65	3435
835.788	3492
835.926	3374
836.064	3336
836.202	3378
836.34	3576
836.478	3599
836.615	3549
836.753	3568
836.891	3644
837.029	3618
837.167	3599
837.305	3580
837.443	3549
837.58	3534
837.718	3622
837.856	3572
837.993	3519
838.131	3557
838.269	3584
838.406	3603
838.544	3561
838.681	3462
838.819	3477
838.956	3325
839.094	3428
839.231	3428
839.369	3504
839.506	3759
839.643	3648
839.781	3500
839.918	3469
840.055	3507
840.193	3504
840.33	3534
840.467	3564
840.604	3606
840.742	3797
840.879	3519
841.016	3568
841.153	3614
841.29	3720
841.427	3759
841.564	3713
841.701	3755
841.838	3709
841.975	3671
842.112	3698
842.249	3648
842.385	3660
842.522	3850
842.659	3698
842.796	3671
842.933	3705
843.069	3690
843.206	3713
843.343	3835
843.479	3766
843.616	3846
843.752	3637
843.889	3709
844.025	3861
844.162	3724
844.298	3838
844.435	3766
844.571	3751
844.708	3861
844.844	4006
844.98	4002
845.117	4021
845.253	3907
845.389	3888
845.525	3975
845.661	3964
845.798	3922
845.934	3991
846.07	3972
846.206	4082
846.342	4128
846.478	4086
846.614	3979
846.75	3930
846.886	3892
847.022	4002
847.158	3983
847.294	4025
847.429	4021
847.565	3991
847.701	4261
847.837	3884
847.972	3899
848.108	3968
848.244	3934
848.379	3880
848.515	3850
848.65	3819
848.786	3865
848.921	3899
849.057	3945
849.192	3953
849.328	3903
849.463	3896
849.598	3876
849.734	3857
849.869	3846
850.004	3831
850.14	3835
850.275	3785
850.41	3766
850.545	3781
850.68	3823
850.815	3778
850.95	3793
851.085	3941
851.22	3816
851.355	3816
851.49	3789
851.625	3770
851.76	3800
851.895	3724
852.03	3759
852.165	3800
852.299	3876
852.434	3896
852.569	3854
852.703	3884
852.838	3937
852.973	3975
853.107	3956
853.242	3915
853.376	3892
853.511	3766
853.645	3819
853.78	3987
853.914	3926
854.048	3884
854.183	3896
854.317	3991
854.451	4090
854.585	3960
854.72	3960
854.854	4063
854.988	3911
855.122	4002
855.256	3915
855.39	4036
855.524	4131
855.658	4071
855.792	4112
855.926	4131
856.06	4188
856.194	4234
856.327	4177
856.461	4177
856.595	4150
856.729	4204
856.862	4253
856.996	4242
857.13	4238
857.263	4318
857.397	4394
857.53	4337
857.664	4344
857.797	4455
857.931	4390
858.064	4428
858.197	4440
858.331	4409
858.464	4417
858.597	4363
858.731	4470
858.864	4455
858.997	4500
859.13	4512
859.263	4523
859.396	4630
859.529	4516
859.662	4542
859.795	4546
859.928	4565
860.061	4721
860.194	4767
860.327	4653
860.46	4664
860.592	4736
860.725	4771
860.858	4733
860.99	4740
861.123	4683
861.256	4702
861.388	4778
861.521	5284
861.653	4736
861.786	4733
861.918	4752
862.05	4801
862.183	4873
862.315	4892
862.447	4915
862.58	4892
862.712	4828
862.844	4767
862.976	4862
863.108	4847
863.24	5170
863.372	4812
863.504	4896
863.636	4881
863.768	4984
863.9	4946
864.032	4930
864.164	4953
864.296	5022
864.428	5056
864.559	5098
864.691	5098
864.823	5178
864.954	5102
865.086	5155
865.217	5136
865.349	5094
865.48	5197
865.612	5242
865.743	5258
865.875	5204
866.006	5201
866.137	5254
866.269	5185
866.4	5246
866.531	5208
866.662	5242
866.793	5292
866.924	5250
867.055	5318
867.186	5345
867.317	5326
867.448	5296
867.579	5360
867.71	5406
867.841	5417
867.972	5490
868.103	5433
868.233	5524
868.364	5493
868.495	5547
868.625	5665
868.756	5767
868.886	5649
869.017	5760
869.147	5790
869.278	5882
869.408	5790
869.539	5878
869.669	5908
869.799	5904
869.929	6019
870.06	6022
870.19	6152
870.32	6239
870.45	6270
870.58	6365
870.71	6437
870.84	6471
870.97	6395
871.1	6479
871.23	6646
871.36	6692
871.489	6665
871.619	6787
871.749	6844
871.879	6909
872.008	7027
872.138	7023
872.267	6989
872.397	6970
872.526	7042
872.656	7141
872.785	7168
872.915	7327
873.044	7430
873.173	7525
873.303	7609
873.432	7689
873.561	7887
873.69	7849
873.819	7928
873.948	8130
874.077	8305
874.206	8279
874.335	8434
874.464	8670
874.593	8902
874.722	8929
874.851	9135
874.979	9264
875.108	9367
875.237	9363
875.365	9405
875.494	9648
875.623	9831
875.751	9831
875.88	9975
876.008	10181
876.136	10303
876.265	10512
876.393	10748
876.521	10679
876.65	10862
876.778	10885
876.906	10862
877.034	11018
877.162	11086
877.29	11136
877.418	11261
877.546	11334
877.674	11467
877.802	11539
877.93	11573
878.058	11562
878.185	11600
878.313	11592
878.441	11821
878.568	11714
878.696	11840
878.824	11840
878.951	11980
879.079	11988
879.206	12072
879.333	12003
879.461	11973
879.588	12117
879.715	12049
879.842	12273
879.97	12079
880.097	11920
880.224	11942
880.351	11866
880.478	11920
880.605	11855
880.732	11813
880.859	12022
880.986	11786
881.112	11832
881.239	11790
881.366	11634
881.493	11516
881.619	11532
881.746	11535
881.872	11539
881.999	11509
882.125	11448
882.252	11646
882.378	11535
882.505	11577
882.631	11429
882.757	11254
882.883	11303
883.01	11261
883.136	11223
883.262	11117
883.388	11075
883.514	11273
883.64	11064
883.766	11086
883.892	11006
884.018	11003
884.143	11071
884.269	11083
884.395	10755
884.52	10744
884.646	10790
884.772	10618
884.897	10641
885.023	10691
885.148	10812
885.274	10793
885.399	10668
885.524	10653
885.65	10569
885.775	10538
885.9	10531
886.025	10634
886.15	10519
886.275	10466
886.4	10386
886.525	10417
886.65	10375
886.775	10367
886.9	10470
887.025	10580
887.149	10360
887.274	10318
887.399	10242
887.523	10116
887.648	10116
887.773	10124
887.897	10215
888.021	10261
888.146	10109
888.27	10246
888.395	10242
888.519	10177
888.643	10242
888.767	10192
888.891	10124
889.015	9937
889.139	10051
889.263	10032
889.387	10112
889.511	10154
889.635	10063
889.759	10010
889.883	9968
890.006	9972
890.13	10200
890.254	9949
890.377	10002
890.501	9892
890.624	9880
890.748	9869
890.871	9850
890.995	9774
891.118	9717
891.241	9781
891.364	9751
891.488	9850
891.611	9751
891.734	9774
891.857	9648
891.98	9793
892.103	9835
892.226	9698
892.349	9682
892.471	9485
892.594	9599
892.717	9629
892.839	9629
892.962	9576
893.085	9629
893.207	9591
893.33	9511
893.452	9576
893.575	9648
893.697	9542
893.819	9625
893.941	9599
894.064	9534
894.186	9462
894.308	9439
894.43	9488
894.552	9568
894.674	9584
894.796	9412
894.918	9397
895.04	9389
895.161	9329
895.283	9462
895.405	9287
895.526	9279
895.648	9230
895.769	9336
895.891	9226
896.012	9313
896.134	9214
896.255	9207
896.376	9028
896.498	9192
896.619	9188
896.74	9116
896.861	9032
896.982	9275
897.103	9298
897.224	9173
897.345	9066
897.466	8929
897.587	9009
897.708	9013
897.828	9013
897.949	8963
898.07	8891
898.19	8861
898.311	8960
898.431	8906
898.552	8857
898.672	9001
898.792	8979
898.913	8918
899.033	8796
899.153	8750
899.273	8663
899.393	8697
899.513	8800
899.633	8678
899.753	8777
899.873	8708
899.993	8727
900.113	8739
900.232	8724
900.352	8701
900.472	8651
900.591	8537
900.711	8625
900.83	8587
900.95	8697
901.069	8773
901.189	8587
901.308	8465
901.427	8343
901.546	8442
901.665	8450
901.784	8533
901.904	8434
902.023	8328
902.141	8240
902.26	8176
902.379	8286
902.498	8275
902.617	8244
902.735	8298
902.854	8233
902.973	8286
903.091	8100
903.21	8153
903.328	8237
903.446	8088
903.565	8054
903.683	8149
903.801	8043
903.919	8096
904.038	8142
904.156	8005
904.274	8126
904.392	8065
904.51	8031
904.627	8062
904.745	8164
904.863	8073
904.981	7989
905.098	7917
905.216	7921
905.334	7928
905.451	7917
905.569	7883
905.686	7963
905.803	7856
905.921	7769
906.038	7875
906.155	7765
906.272	7681
906.389	7799
906.506	7613
906.623	7696
906.74	7662
906.857	7616
906.974	7567
907.091	7643
907.208	7753
907.324	7658
907.441	7563
907.557	7453
907.674	7415
907.79	7396
907.907	7354
908.023	7487
908.139	7396
908.256	7346
908.372	7381
908.488	7369
908.604	7270
908.72	7168
908.836	7327
908.952	7293
909.068	7244
909.184	7354
909.3	7206
909.415	7244
909.531	7358
909.647	7133
909.762	7152
909.878	7061
909.993	7107
910.108	7145
910.224	7084
910.339	7080
910.454	7046
910.57	6958
910.685	6939
910.8	7179
910.915	7091
911.03	7053
911.145	6886
911.259	6890
911.374	6901
911.489	6814
911.604	6821
911.718	6703
911.833	6779
911.947	6650
912.062	6639
912.176	6639
912.291	6722
912.405	6688
912.519	6783
912.633	6863
912.748	6730
912.862	6677
912.976	6544
913.09	6532
913.204	6585
913.318	6623
913.431	6681
913.545	6662
913.659	6764
913.772	6673
913.886	6635
914	6544
914.113	6616
914.226	6601
914.34	6635
914.453	6540
914.566	6570
914.68	6544
914.793	6498
914.906	6399
915.019	6422
915.132	6365
915.245	6407
915.358	6460
915.47	6467
915.583	6422
915.696	6536
915.809	6467
915.921	6555
916.034	6414
916.146	6407
916.259	6410
916.371	6422
916.483	6437
916.595	6372
916.708	6479
916.82	6410
916.932	6388
917.044	6410
917.156	6384
917.268	6277
917.38	6327
917.491	6308
917.603	6323
917.715	6376
917.826	6448
917.938	6331
918.049	6292
918.161	6388
918.272	6433
918.384	6384
918.495	6380
918.606	6277
918.717	6220
918.828	6220
918.939	6300
919.05	6213
919.161	6270
919.272	6152
919.383	6201
919.494	6258
919.604	6452
919.715	6289
919.826	6197
919.936	6216
920.047	6296
920.157	6243
920.267	6467
920.378	6384
920.488	6224
920.598	6448
920.708	6551
920.818	6490
920.928	6479
921.038	6631
921.148	6525
921.258	6353
921.368	6304
921.477	6251
921.587	6175
921.697	6114
921.806	6155
921.916	6095
922.025	5889
922.134	5889
922.244	5965
922.353	6022
922.462	5863
922.571	5802
922.68	5714
922.789	5691
922.898	5676
923.007	5684
923.116	5722
923.224	5657
923.333	5699
923.442	5604
923.55	5562
923.659	5600
923.767	5657
923.876	5490
923.984	5634
924.092	5501
924.201	5524
924.309	5524
924.417	5501
924.525	5486
924.633	5497
924.741	6300
924.849	5383
924.956	5452
925.064	5421
925.172	5345
925.279	5292
925.387	5307
925.494	5330
925.602	5448
925.709	5368
925.816	5318
925.924	5273
926.031	5345
926.138	5379
926.245	5376
926.352	5258
926.459	5326
926.566	5280
926.673	5223
926.779	5132
926.886	5121
926.993	5014
927.099	4961
927.206	4961
927.312	4949
927.419	4991
927.525	5003
927.631	4980
927.737	4885
927.843	4877
927.95	4752
928.056	4843
928.162	4835
928.267	4873
928.373	5235
928.479	4854
928.585	4664
928.69	4801
928.796	4755
928.901	4759
929.007	4577
929.112	4698
929.218	4675
929.323	4607
929.428	4577
929.533	4687
929.638	4535
929.743	4561
929.848	4569
929.953	4493
930.058	4466
930.163	4367
930.267	4356
930.372	4424
930.477	4310
930.581	4474
930.685	4333
930.79	4284
930.894	4299
930.998	4242
931.103	4371
931.207	4196
931.311	4131
931.415	4051
931.519	3937
931.623	3983
