Data from glass_V78500241_1125.txt Node
Date: Wed Sep 01 19:22:17 CST 2021
User: usil
Spectrometer: V785-0024
Trigger mode: 0
Integration Time (sec): 4.000000E-1
Scans to average: 1
Nonlinearity correction enabled: false
Boxcar width: 0
Storing dark spectrum: false
XAxis mode: Wavelengths
Number of Pixels in Spectrum: 1024
>>>>>Begin Spectral Data<<<<<
801.071	3819
801.214	3759
801.356	3705
801.499	3743
801.641	3778
801.783	3781
801.926	3876
802.068	3846
802.211	3827
802.353	3857
802.496	3842
802.638	3857
802.78	3949
802.923	3926
803.065	3911
803.208	3850
803.35	3861
803.492	3896
803.635	3907
803.777	3857
803.919	3896
804.061	4200
804.204	3945
804.346	3953
804.488	3934
804.63	4032
804.773	3949
804.915	3991
805.057	4147
805.199	4032
805.341	4128
805.483	4158
805.626	4154
805.768	4131
805.91	4196
806.052	4234
806.194	4177
806.336	4375
806.478	4215
806.62	4196
806.762	4215
806.904	4249
807.046	4360
807.188	4181
807.33	4200
807.472	4246
807.614	4169
807.756	4287
807.898	4230
808.04	4215
808.182	4318
808.324	4325
808.465	4352
808.607	4508
808.749	4459
808.891	4466
809.033	4542
809.174	4451
809.316	4276
809.458	4211
809.6	4124
809.741	4192
809.883	4177
810.025	4215
810.166	4204
810.308	4227
810.45	4230
810.591	4230
810.733	4310
810.875	4489
811.016	4877
811.158	5136
811.299	5292
811.441	5315
811.582	5090
811.724	4725
811.865	4455
812.007	4462
812.148	4432
812.29	4386
812.431	4413
812.573	4409
812.714	4428
812.855	4421
812.997	4417
813.138	4462
813.279	4436
813.421	4386
813.562	4398
813.703	4325
813.845	4329
813.986	4253
814.127	4238
814.268	4261
814.41	4341
814.551	4284
814.692	4367
814.833	4280
814.974	4322
815.115	4318
815.256	4253
815.397	4234
815.539	4211
815.68	4211
815.821	4215
815.962	4329
816.103	4291
816.244	4227
816.385	4238
816.526	4306
816.666	4246
816.807	4120
816.948	4120
817.089	4185
817.23	4101
817.371	4048
817.512	4078
817.653	4078
817.793	4017
817.934	4074
818.075	4109
818.216	4101
818.356	4082
818.497	3998
818.638	3926
818.778	3972
818.919	3934
819.06	3857
819.2	3941
819.341	3911
819.481	3865
819.622	3926
819.762	4036
819.903	3991
820.043	3857
820.184	3903
820.324	3903
820.465	3934
820.605	3880
820.746	3876
820.886	3800
821.026	3945
821.167	3945
821.307	4006
821.447	3998
821.588	3922
821.728	3922
821.868	3949
822.008	3892
822.149	3941
822.289	3972
822.429	3774
822.569	3804
822.709	3785
822.849	3694
822.99	3717
823.13	3770
823.27	3774
823.41	3709
823.55	3743
823.69	3736
823.83	3728
823.97	3686
824.11	3648
824.25	3599
824.389	3667
824.529	3682
824.669	3591
824.809	3701
824.949	3785
825.089	3751
825.228	3701
825.368	3603
825.508	3553
825.648	3584
825.787	3591
825.927	3637
826.067	3656
826.206	3671
826.346	3797
826.485	3842
826.625	3861
826.765	3911
826.904	3838
827.044	3599
827.183	3545
827.323	3443
827.462	3515
827.601	3428
827.741	3443
827.88	3462
828.02	3397
828.159	3485
828.298	3515
828.437	3553
828.577	3496
828.716	3591
828.855	3500
828.994	3386
829.134	3382
829.273	3416
829.412	3386
829.551	3344
829.69	3378
829.829	3443
829.968	3511
830.107	3454
830.246	3485
830.385	3405
830.524	3355
830.663	3313
830.802	3298
830.941	3195
831.08	3245
831.219	3245
831.357	3275
831.496	3428
831.635	3233
831.774	3218
831.913	3214
832.051	3104
832.19	3195
832.329	3233
832.467	3104
832.606	3100
832.744	3165
832.883	3176
833.022	3253
833.16	3264
833.299	3302
833.437	3332
833.576	3363
833.714	3409
833.852	3431
833.991	3439
834.129	3473
834.267	3439
834.406	3397
834.544	3405
834.682	3435
834.821	3424
834.959	3584
835.097	3462
835.235	3538
835.373	3496
835.511	3469
835.65	3469
835.788	3500
835.926	3389
836.064	3409
836.202	3450
836.34	3564
836.478	3622
836.615	3515
836.753	3603
836.891	3667
837.029	3641
837.167	3561
837.305	3561
837.443	3530
837.58	3507
837.718	3625
837.856	3564
837.993	3545
838.131	3587
838.269	3572
838.406	3587
838.544	3553
838.681	3500
838.819	3458
838.956	3389
839.094	3386
839.231	3435
839.369	3523
839.506	3774
839.643	3622
839.781	3511
839.918	3443
840.055	3545
840.193	3576
840.33	3507
840.467	3572
840.604	3633
840.742	3816
840.879	3610
841.016	3587
841.153	3622
841.29	3804
841.427	3717
841.564	3713
841.701	3751
841.838	3671
841.975	3686
842.112	3774
842.249	3644
842.385	3652
842.522	3800
842.659	3705
842.796	3644
842.933	3720
843.069	3709
843.206	3713
843.343	3797
843.479	3804
843.616	3854
843.752	3679
843.889	3720
844.025	3854
844.162	3717
844.298	3857
844.435	3781
844.571	3797
844.708	3892
844.844	3979
844.98	4010
845.117	4055
845.253	3941
845.389	3873
845.525	3949
845.661	3987
845.798	3918
845.934	4021
846.07	3968
846.206	4078
846.342	4116
846.478	4048
846.614	3930
846.75	3964
846.886	3915
847.022	4051
847.158	4021
847.294	4032
847.429	4048
847.565	3983
847.701	4249
847.837	3907
847.972	3903
848.108	3998
848.244	3975
848.379	3869
848.515	3846
848.65	3838
848.786	3823
848.921	3857
849.057	3915
849.192	3934
849.328	3934
849.463	3934
849.598	3880
849.734	3846
849.869	3819
850.004	3770
850.14	3793
850.275	3789
850.41	3740
850.545	3759
850.68	3812
850.815	3835
850.95	3804
851.085	3956
851.22	3880
851.355	3838
851.49	3793
851.625	3827
851.76	3823
851.895	3766
852.03	3740
852.165	3823
852.299	3854
852.434	3945
852.569	3892
852.703	3899
852.838	3994
852.973	4002
853.107	4006
853.242	3892
853.376	3854
853.511	3766
853.645	3842
853.78	3979
853.914	3854
854.048	3880
854.183	3922
854.317	3987
854.451	4063
854.585	3960
854.72	3937
854.854	4040
854.988	3930
855.122	4021
855.256	3907
855.39	4067
855.524	4135
855.658	4112
855.792	4120
855.926	4143
856.06	4166
856.194	4185
856.327	4177
856.461	4131
856.595	4154
856.729	4150
856.862	4291
856.996	4272
857.13	4314
857.263	4348
857.397	4375
857.53	4280
857.664	4352
857.797	4421
857.931	4398
858.064	4413
858.197	4413
858.331	4417
858.464	4375
858.597	4363
858.731	4424
858.864	4474
858.997	4451
859.13	4485
859.263	4497
859.396	4538
859.529	4500
859.662	4538
859.795	4535
859.928	4645
860.061	4698
860.194	4778
860.327	4634
860.46	4664
860.592	4782
860.725	4778
860.858	4786
860.99	4691
861.123	4698
861.256	4729
861.388	4774
861.521	5402
861.653	4664
861.786	4675
861.918	4771
862.05	4790
862.183	4820
862.315	4938
862.447	4923
862.58	4889
862.712	4812
862.844	4774
862.976	4847
863.108	4908
863.24	5178
863.372	4862
863.504	4858
863.636	4927
863.768	4980
863.9	4934
864.032	4900
864.164	4938
864.296	5018
864.428	5140
864.559	5140
864.691	5140
864.823	5151
864.954	5151
865.086	5143
865.217	5151
865.349	5109
865.48	5140
865.612	5147
865.743	5296
865.875	5231
866.006	5220
866.137	5292
866.269	5235
866.4	5246
866.531	5212
866.662	5242
866.793	5265
866.924	5273
867.055	5364
867.186	5353
867.317	5315
867.448	5349
867.579	5402
867.71	5410
867.841	5334
867.972	5440
868.103	5444
868.233	5490
868.364	5505
868.495	5535
868.625	5634
868.756	5851
868.886	5691
869.017	5767
869.147	5805
869.278	5844
869.408	5863
869.539	5897
869.669	5916
869.799	5950
869.929	5973
870.06	6003
870.19	6175
870.32	6220
870.45	6232
870.58	6361
870.71	6467
870.84	6521
870.97	6433
871.1	6437
871.23	6681
871.36	6654
871.489	6669
871.619	6776
871.749	6783
871.879	6894
872.008	7004
872.138	7023
872.267	6996
872.397	7084
872.526	7069
872.656	7091
872.785	7175
872.915	7354
873.044	7559
873.173	7624
873.303	7704
873.432	7772
873.561	7932
873.69	7917
873.819	7967
873.948	8126
874.077	8202
874.206	8313
874.335	8450
874.464	8651
874.593	8899
874.722	9001
874.851	9150
874.979	9211
875.108	9435
875.237	9439
875.365	9447
875.494	9686
875.623	9854
875.751	9850
875.88	10006
876.008	10067
876.136	10299
876.265	10527
876.393	10668
876.521	10748
876.65	10881
876.778	10873
876.906	10949
877.034	10991
877.162	11056
877.29	11140
877.418	11246
877.546	11273
877.674	11421
877.802	11414
877.93	11554
878.058	11649
878.185	11547
878.313	11676
878.441	11684
878.568	11665
878.696	11878
878.824	11855
878.951	11958
879.079	11984
879.206	12163
879.333	12034
879.461	11946
879.588	12091
879.715	12045
879.842	12175
879.97	12091
880.097	11931
880.224	11904
880.351	11874
880.478	11912
880.605	11942
880.732	11851
880.859	12015
880.986	11855
881.112	11855
881.239	11733
881.366	11684
881.493	11668
881.619	11535
881.746	11566
881.872	11512
881.999	11554
882.125	11421
882.252	11566
882.378	11619
882.505	11562
882.631	11410
882.757	11315
882.883	11326
883.01	11265
883.136	11166
883.262	11117
883.388	11056
883.514	11197
883.64	11269
883.766	11102
883.892	11010
884.018	11037
884.143	11083
884.269	11037
884.395	10816
884.52	10748
884.646	10771
884.772	10702
884.897	10748
885.023	10717
885.148	10645
885.274	10717
885.399	10656
885.524	10558
885.65	10618
885.775	10561
885.9	10542
886.025	10546
886.15	10516
886.275	10443
886.4	10341
886.525	10470
886.65	10329
886.775	10291
886.9	10523
887.025	10531
887.149	10291
887.274	10265
887.399	10268
887.523	10238
887.648	10109
887.773	10139
887.897	10211
888.021	10227
888.146	10177
888.27	10242
888.395	10196
888.519	10131
888.643	10120
888.767	10162
888.891	10048
889.015	9987
889.139	10040
889.263	9987
889.387	10139
889.511	10112
889.635	10143
889.759	10002
889.883	10010
890.006	9968
890.13	10105
890.254	9994
890.377	9873
890.501	9827
890.624	9915
890.748	9876
890.871	9884
890.995	9759
891.118	9720
891.241	9793
891.364	9740
891.488	9797
891.611	9781
891.734	9785
891.857	9717
891.98	9717
892.103	9781
892.226	9762
892.349	9747
892.471	9515
892.594	9587
892.717	9637
892.839	9549
892.962	9564
893.085	9580
893.207	9580
893.33	9542
893.452	9534
893.575	9557
893.697	9526
893.819	9675
893.941	9576
894.064	9564
894.186	9454
894.308	9443
894.43	9587
894.552	9553
894.674	9485
894.796	9363
894.918	9393
895.04	9329
895.161	9386
895.283	9378
895.405	9211
895.526	9325
895.648	9264
895.769	9214
895.891	9317
896.012	9275
896.134	9245
896.255	9169
896.376	9123
896.498	9180
896.619	9108
896.74	9131
896.861	9112
896.982	9245
897.103	9416
897.224	9195
897.345	9062
897.466	9097
897.587	9074
897.708	9123
897.828	8979
897.949	8925
898.07	8857
898.19	8925
898.311	9051
898.431	8872
898.552	8941
898.672	8979
898.792	8948
898.913	8899
899.033	8872
899.153	8720
899.273	8724
899.393	8716
899.513	8800
899.633	8773
899.753	8735
899.873	8686
899.993	8724
900.113	8697
900.232	8708
900.352	8621
900.472	8655
900.591	8571
900.711	8587
900.83	8522
900.95	8712
901.069	8636
901.189	8579
901.308	8431
901.427	8454
901.546	8457
901.665	8480
901.784	8461
901.904	8366
902.023	8370
902.141	8259
902.26	8180
902.379	8256
902.498	8218
902.617	8240
902.735	8347
902.854	8267
902.973	8244
903.091	8081
903.21	8157
903.328	8168
903.446	8176
903.565	8035
903.683	8096
903.801	8065
903.919	8088
904.038	8134
904.156	8107
904.274	8050
904.392	8058
904.51	8100
904.627	8077
904.745	8142
904.863	8096
904.981	7951
905.098	7947
905.216	7833
905.334	7898
905.451	7963
905.569	7963
905.686	7936
905.803	7909
905.921	7841
906.038	7921
906.155	7799
906.272	7750
906.389	7681
906.506	7674
906.623	7632
906.74	7601
906.857	7495
906.974	7620
907.091	7666
907.208	7689
907.324	7662
907.441	7537
907.557	7487
907.674	7495
907.79	7400
907.907	7438
908.023	7434
908.139	7426
908.256	7411
908.372	7354
908.488	7373
908.604	7312
908.72	7274
908.836	7259
908.952	7289
909.068	7251
909.184	7358
909.3	7259
909.415	7278
909.531	7247
909.647	7129
909.762	7118
909.878	7168
909.993	7145
910.108	7072
910.224	7084
910.339	7141
910.454	7050
910.57	7053
910.685	6970
910.8	7141
910.915	7114
911.03	7023
911.145	6897
911.259	6890
911.374	6875
911.489	6920
911.604	6779
911.718	6764
911.833	6772
911.947	6616
912.062	6627
912.176	6722
912.291	6669
912.405	6711
912.519	6772
912.633	6806
912.748	6753
912.862	6703
912.976	6597
913.09	6551
913.204	6532
913.318	6658
913.431	6677
913.545	6711
913.659	6715
913.772	6673
913.886	6604
914	6547
914.113	6665
914.226	6635
914.34	6544
914.453	6521
914.566	6616
914.68	6532
914.793	6547
914.906	6391
915.019	6426
915.132	6342
915.245	6509
915.358	6464
915.47	6437
915.583	6456
915.696	6498
915.809	6517
915.921	6582
916.034	6448
916.146	6471
916.259	6369
916.371	6422
916.483	6456
916.595	6361
916.708	6437
916.82	6388
916.932	6448
917.044	6380
917.156	6418
917.268	6311
917.38	6414
917.491	6323
917.603	6353
917.715	6388
917.826	6414
917.938	6365
918.049	6304
918.161	6357
918.272	6403
918.384	6391
918.495	6353
918.606	6270
918.717	6232
918.828	6232
918.939	6281
919.05	6243
919.161	6247
919.272	6144
919.383	6121
919.494	6228
919.604	6422
919.715	6292
919.826	6243
919.936	6247
920.047	6308
920.157	6300
920.267	6441
920.378	6254
920.488	6289
920.598	6426
920.708	6521
920.818	6464
920.928	6483
921.038	6601
921.148	6608
921.258	6388
921.368	6289
921.477	6224
921.587	6178
921.697	6083
921.806	6224
921.916	6102
922.025	5954
922.134	5950
922.244	5889
922.353	6003
922.462	5870
922.571	5836
922.68	5680
922.789	5688
922.898	5760
923.007	5657
923.116	5756
923.224	5688
923.333	5695
923.442	5581
923.55	5634
923.659	5589
923.767	5634
923.876	5581
923.984	5608
924.092	5478
924.201	5577
924.309	5577
924.417	5509
924.525	5452
924.633	5516
924.741	6129
924.849	5417
924.956	5497
925.064	5326
925.172	5326
925.279	5280
925.387	5337
925.494	5315
925.602	5436
925.709	5383
925.816	5299
925.924	5330
926.031	5387
926.138	5337
926.245	5315
926.352	5212
926.459	5311
926.566	5330
926.673	5265
926.779	5155
926.886	5102
926.993	5071
927.099	4972
927.206	5056
927.312	4942
927.419	5037
927.525	4965
927.631	5045
927.737	4946
927.843	4870
927.95	4782
928.056	4839
928.162	4820
928.267	4858
928.373	5383
928.479	4854
928.585	4725
928.69	4782
928.796	4767
928.901	4698
929.007	4634
929.112	4702
929.218	4622
929.323	4649
929.428	4603
929.533	4664
929.638	4512
929.743	4565
929.848	4561
929.953	4516
930.058	4466
930.163	4352
930.267	4348
930.372	4459
930.477	4287
930.581	4493
930.685	4386
930.79	4268
930.894	4284
930.998	4246
931.103	4322
931.207	4147
931.311	4059
931.415	4051
931.519	3945
931.623	3964
