Data from glass_V78500241_738.txt Node
Date: Wed Sep 01 19:19:36 CST 2021
User: usil
Spectrometer: V785-0024
Trigger mode: 0
Integration Time (sec): 4.000000E-1
Scans to average: 1
Nonlinearity correction enabled: false
Boxcar width: 0
Storing dark spectrum: false
XAxis mode: Wavelengths
Number of Pixels in Spectrum: 1024
>>>>>Begin Spectral Data<<<<<
801.071	3740
801.214	3736
801.356	3770
801.499	3743
801.641	3755
801.783	3808
801.926	3888
802.068	3888
802.211	3838
802.353	3884
802.496	3869
802.638	3922
802.78	3907
802.923	3918
803.065	3865
803.208	3857
803.35	3831
803.492	3911
803.635	3945
803.777	3835
803.919	3926
804.061	4192
804.204	3987
804.346	3934
804.488	3896
804.63	4040
804.773	3991
804.915	4021
805.057	4196
805.199	4051
805.341	4082
805.483	4131
805.626	4124
805.768	4135
805.91	4234
806.052	4204
806.194	4181
806.336	4360
806.478	4215
806.62	4192
806.762	4192
806.904	4265
807.046	4329
807.188	4177
807.33	4253
807.472	4219
807.614	4242
807.756	4272
807.898	4204
808.04	4223
808.182	4284
808.324	4314
808.465	4375
808.607	4489
808.749	4462
808.891	4485
809.033	4538
809.174	4386
809.316	4272
809.458	4246
809.6	4177
809.741	4154
809.883	4169
810.025	4192
810.166	4188
810.308	4272
810.45	4242
810.591	4246
810.733	4306
810.875	4531
811.016	4843
811.158	5147
811.299	5261
811.441	5269
811.582	5094
811.724	4740
811.865	4428
812.007	4390
812.148	4451
812.29	4459
812.431	4405
812.573	4379
812.714	4386
812.855	4402
812.997	4481
813.138	4516
813.279	4462
813.421	4398
813.562	4405
813.703	4379
813.845	4322
813.986	4265
814.127	4230
814.268	4265
814.41	4318
814.551	4238
814.692	4329
814.833	4310
814.974	4341
815.115	4337
815.256	4215
815.397	4291
815.539	4268
815.68	4185
815.821	4181
815.962	4344
816.103	4291
816.244	4230
816.385	4219
816.526	4295
816.666	4196
816.807	4074
816.948	4223
817.089	4177
817.23	4112
817.371	4105
817.512	4090
817.653	4105
817.793	4029
817.934	4093
818.075	4105
818.216	4074
818.356	4082
818.497	3987
818.638	3915
818.778	3937
818.919	3915
819.06	3911
819.2	3922
819.341	3892
819.481	3831
819.622	3930
819.762	4025
819.903	3972
820.043	3876
820.184	3831
820.324	3823
820.465	3861
820.605	3903
820.746	3861
820.886	3781
821.026	3911
821.167	3941
821.307	4029
821.447	3975
821.588	3945
821.728	3964
821.868	3903
822.008	3907
822.149	3979
822.289	3918
822.429	3835
822.569	3816
822.709	3804
822.849	3709
822.99	3728
823.13	3778
823.27	3793
823.41	3690
823.55	3762
823.69	3743
823.83	3713
823.97	3641
824.11	3606
824.25	3644
824.389	3679
824.529	3705
824.669	3667
824.809	3679
824.949	3789
825.089	3766
825.228	3717
825.368	3606
825.508	3564
825.648	3553
825.787	3663
825.927	3622
826.067	3641
826.206	3701
826.346	3778
826.485	3850
826.625	3899
826.765	4002
826.904	3831
827.044	3603
827.183	3538
827.323	3462
827.462	3496
827.601	3450
827.741	3450
827.88	3500
828.02	3416
828.159	3439
828.298	3545
828.437	3564
828.577	3488
828.716	3603
828.855	3492
828.994	3389
829.134	3344
829.273	3359
829.412	3397
829.551	3348
829.69	3374
829.829	3450
829.968	3526
830.107	3428
830.246	3428
830.385	3416
830.524	3355
830.663	3359
830.802	3291
830.941	3256
831.08	3218
831.219	3291
831.357	3306
831.496	3386
831.635	3245
831.774	3173
831.913	3203
832.051	3100
832.19	3161
832.329	3233
832.467	3116
832.606	3131
832.744	3203
832.883	3184
833.022	3195
833.16	3256
833.299	3325
833.437	3370
833.576	3393
833.714	3450
833.852	3454
833.991	3420
834.129	3466
834.267	3439
834.406	3416
834.544	3439
834.682	3424
834.821	3424
834.959	3584
835.097	3397
835.235	3534
835.373	3477
835.511	3519
835.65	3454
835.788	3504
835.926	3386
836.064	3374
836.202	3447
836.34	3557
836.478	3606
836.615	3530
836.753	3618
836.891	3656
837.029	3641
837.167	3625
837.305	3580
837.443	3507
837.58	3511
837.718	3641
837.856	3561
837.993	3584
838.131	3580
838.269	3587
838.406	3576
838.544	3584
838.681	3488
838.819	3462
838.956	3401
839.094	3450
839.231	3443
839.369	3526
839.506	3736
839.643	3641
839.781	3485
839.918	3519
840.055	3530
840.193	3526
840.33	3542
840.467	3580
840.604	3595
840.742	3819
840.879	3591
841.016	3564
841.153	3606
841.29	3759
841.427	3728
841.564	3732
841.701	3732
841.838	3736
841.975	3660
842.112	3755
842.249	3629
842.385	3625
842.522	3846
842.659	3679
842.796	3629
842.933	3743
843.069	3740
843.206	3690
843.343	3873
843.479	3831
843.616	3835
843.752	3698
843.889	3679
844.025	3842
844.162	3736
844.298	3850
844.435	3797
844.571	3781
844.708	3896
844.844	3975
844.98	4021
845.117	4002
845.253	3945
845.389	3956
845.525	3960
845.661	3991
845.798	3918
845.934	4044
846.07	3949
846.206	4082
846.342	4093
846.478	4086
846.614	3934
846.75	3968
846.886	3945
847.022	4071
847.158	4006
847.294	4044
847.429	4013
847.565	4040
847.701	4238
847.837	3896
847.972	3850
848.108	4010
848.244	3937
848.379	3869
848.515	3842
848.65	3831
848.786	3831
848.921	3823
849.057	3972
849.192	3953
849.328	3907
849.463	3960
849.598	3918
849.734	3892
849.869	3808
850.004	3781
850.14	3823
850.275	3770
850.41	3789
850.545	3778
850.68	3812
850.815	3797
850.95	3800
851.085	3949
851.22	3854
851.355	3880
851.49	3785
851.625	3800
851.76	3831
851.895	3785
852.03	3785
852.165	3800
852.299	3876
852.434	3941
852.569	3873
852.703	3880
852.838	3960
852.973	4040
853.107	3991
853.242	3896
853.376	3854
853.511	3797
853.645	3876
853.78	3953
853.914	3934
854.048	3907
854.183	3918
854.317	3991
854.451	4090
854.585	3972
854.72	3937
854.854	4055
854.988	3926
855.122	3953
855.256	3934
855.39	4006
855.524	4097
855.658	4112
855.792	4097
855.926	4177
856.06	4154
856.194	4230
856.327	4120
856.461	4105
856.595	4192
856.729	4215
856.862	4295
856.996	4249
857.13	4363
857.263	4322
857.397	4360
857.53	4310
857.664	4348
857.797	4413
857.931	4424
858.064	4443
858.197	4478
858.331	4402
858.464	4386
858.597	4375
858.731	4447
858.864	4478
858.997	4489
859.13	4516
859.263	4588
859.396	4611
859.529	4531
859.662	4531
859.795	4516
859.928	4637
860.061	4721
860.194	4755
860.327	4683
860.46	4603
860.592	4717
860.725	4725
860.858	4786
860.99	4740
861.123	4691
861.256	4691
861.388	4717
861.521	5326
861.653	4752
861.786	4687
861.918	4755
862.05	4786
862.183	4812
862.315	4934
862.447	4946
862.58	4919
862.712	4812
862.844	4755
862.976	4892
863.108	4839
863.24	5318
863.372	4843
863.504	4934
863.636	4900
863.768	5003
863.9	4961
864.032	4938
864.164	5003
864.296	5041
864.428	5071
864.559	5090
864.691	5132
864.823	5128
864.954	5132
865.086	5155
865.217	5124
865.349	5132
865.48	5174
865.612	5235
865.743	5337
865.875	5197
866.006	5143
866.137	5284
866.269	5239
866.4	5239
866.531	5277
866.662	5261
866.793	5269
866.924	5284
867.055	5326
867.186	5368
867.317	5341
867.448	5269
867.579	5410
867.71	5341
867.841	5391
867.972	5474
868.103	5482
868.233	5505
868.364	5539
868.495	5547
868.625	5649
868.756	5764
868.886	5630
869.017	5745
869.147	5897
869.278	5878
869.408	5828
869.539	5863
869.669	5878
869.799	5950
869.929	6011
870.06	6076
870.19	6171
870.32	6239
870.45	6258
870.58	6357
870.71	6464
870.84	6498
870.97	6403
871.1	6426
871.23	6658
871.36	6711
871.489	6715
871.619	6806
871.749	6837
871.879	6916
872.008	7027
872.138	6989
872.267	7000
872.397	7019
872.526	7038
872.656	7080
872.785	7179
872.915	7407
873.044	7556
873.173	7559
873.303	7662
873.432	7772
873.561	7932
873.69	7947
873.819	8065
873.948	8195
874.077	8279
874.206	8313
874.335	8412
874.464	8644
874.593	8891
874.722	8971
874.851	9081
874.979	9245
875.108	9397
875.237	9424
875.365	9435
875.494	9652
875.623	9831
875.751	9778
875.88	9937
876.008	10086
876.136	10242
876.265	10527
876.393	10672
876.521	10763
876.65	10790
876.778	10862
876.906	10957
877.034	10991
877.162	11071
877.29	11117
877.418	11337
877.546	11254
877.674	11455
877.802	11452
877.93	11573
878.058	11600
878.185	11592
878.313	11699
878.441	11756
878.568	11718
878.696	11760
878.824	11874
878.951	11958
879.079	11980
879.206	12136
879.333	12106
879.461	11950
879.588	12045
879.715	12041
879.842	12239
879.97	12064
880.097	11882
880.224	11878
880.351	11946
880.478	11882
880.605	11805
880.732	11843
880.859	12019
880.986	11855
881.112	11836
881.239	11832
881.366	11657
881.493	11657
881.619	11486
881.746	11581
881.872	11539
881.999	11570
882.125	11535
882.252	11459
882.378	11532
882.505	11589
882.631	11429
882.757	11231
882.883	11307
883.01	11258
883.136	11269
883.262	11174
883.388	11060
883.514	11216
883.64	11269
883.766	11071
883.892	10968
884.018	11045
884.143	10999
884.269	11227
884.395	10797
884.52	10850
884.646	10725
884.772	10698
884.897	10744
885.023	10801
885.148	10755
885.274	10782
885.399	10634
885.524	10679
885.65	10675
885.775	10550
885.9	10489
886.025	10660
886.15	10561
886.275	10459
886.4	10352
886.525	10375
886.65	10390
886.775	10318
886.9	10417
887.025	10516
887.149	10360
887.274	10276
887.399	10211
887.523	10280
887.648	10169
887.773	10044
887.897	10249
888.021	10284
888.146	10150
888.27	10211
888.395	10268
888.519	10192
888.643	10207
888.767	10139
888.891	10120
889.015	10036
889.139	10051
889.263	10013
889.387	10177
889.511	10063
889.635	10116
889.759	9895
889.883	9987
890.006	9987
890.13	10082
890.254	9922
890.377	9941
890.501	9884
890.624	9956
890.748	9903
890.871	9808
890.995	9778
891.118	9724
891.241	9857
891.364	9736
891.488	9812
891.611	9762
891.734	9762
891.857	9869
891.98	9720
892.103	9797
892.226	9728
892.349	9660
892.471	9439
892.594	9614
892.717	9629
892.839	9587
892.962	9625
893.085	9713
893.207	9641
893.33	9530
893.452	9519
893.575	9675
893.697	9507
893.819	9549
893.941	9606
894.064	9625
894.186	9428
894.308	9428
894.43	9500
894.552	9538
894.674	9542
894.796	9313
894.918	9431
895.04	9294
895.161	9412
895.283	9359
895.405	9245
895.526	9260
895.648	9233
895.769	9306
895.891	9260
896.012	9302
896.134	9275
896.255	9253
896.376	9127
896.498	9203
896.619	9169
896.74	9074
896.861	9116
896.982	9283
897.103	9393
897.224	9127
897.345	9100
897.466	8937
897.587	8982
897.708	9108
897.828	9047
897.949	8921
898.07	8868
898.19	8975
898.311	9043
898.431	8891
898.552	8925
898.672	8963
898.792	8933
898.913	8921
899.033	8796
899.153	8731
899.273	8644
899.393	8727
899.513	8743
899.633	8792
899.753	8686
899.873	8705
899.993	8754
900.113	8682
900.232	8788
900.352	8621
900.472	8663
900.591	8537
900.711	8583
900.83	8594
900.95	8678
901.069	8655
901.189	8613
901.308	8480
901.427	8457
901.546	8412
901.665	8503
901.784	8518
901.904	8328
902.023	8324
902.141	8286
902.26	8229
902.379	8298
902.498	8279
902.617	8225
902.735	8301
902.854	8298
902.973	8233
903.091	8138
903.21	8119
903.328	8161
903.446	8134
903.565	8107
903.683	8142
903.801	8088
903.919	8153
904.038	8161
904.156	8039
904.274	8065
904.392	8027
904.51	8065
904.627	8046
904.745	8069
904.863	8111
904.981	7936
905.098	7902
905.216	7932
905.334	7921
905.451	7890
905.569	7932
905.686	7978
905.803	7921
905.921	7788
906.038	7887
906.155	7795
906.272	7689
906.389	7731
906.506	7670
906.623	7632
906.74	7620
906.857	7567
906.974	7609
907.091	7712
907.208	7792
907.324	7628
907.441	7582
907.557	7441
907.674	7529
907.79	7415
907.907	7434
908.023	7480
908.139	7434
908.256	7373
908.372	7411
908.488	7316
908.604	7293
908.72	7232
908.836	7282
908.952	7305
909.068	7255
909.184	7301
909.3	7240
909.415	7259
909.531	7270
909.647	7099
909.762	7160
909.878	7015
909.993	7065
910.108	7137
910.224	7061
910.339	7171
910.454	7050
910.57	7008
910.685	6909
910.8	7133
910.915	7160
911.03	7046
911.145	6924
911.259	6886
911.374	6924
911.489	6802
911.604	6852
911.718	6703
911.833	6783
911.947	6692
912.062	6612
912.176	6673
912.291	6741
912.405	6703
912.519	6856
912.633	6829
912.748	6730
912.862	6677
912.976	6566
913.09	6547
913.204	6623
913.318	6608
913.431	6711
913.545	6620
913.659	6745
913.772	6597
913.886	6593
914	6578
914.113	6677
914.226	6639
914.34	6593
914.453	6540
914.566	6566
914.68	6532
914.793	6555
914.906	6407
915.019	6407
915.132	6338
915.245	6445
915.358	6498
915.47	6509
915.583	6437
915.696	6506
915.809	6521
915.921	6570
916.034	6414
916.146	6429
916.259	6407
916.371	6502
916.483	6467
916.595	6407
916.708	6399
916.82	6426
916.932	6410
917.044	6437
917.156	6433
917.268	6353
917.38	6384
917.491	6350
917.603	6365
917.715	6467
917.826	6422
917.938	6331
918.049	6247
918.161	6361
918.272	6395
918.384	6486
918.495	6388
918.606	6251
918.717	6232
918.828	6304
918.939	6319
919.05	6266
919.161	6296
919.272	6197
919.383	6182
919.494	6243
919.604	6471
919.715	6285
919.826	6243
919.936	6300
920.047	6407
920.157	6304
920.267	6445
920.378	6357
920.488	6323
920.598	6414
920.708	6612
920.818	6498
920.928	6479
921.038	6593
921.148	6566
921.258	6395
921.368	6270
921.477	6228
921.587	6178
921.697	6133
921.806	6228
921.916	6034
922.025	5954
922.134	5916
922.244	5954
922.353	5931
922.462	5889
922.571	5752
922.68	5737
922.789	5668
922.898	5695
923.007	5668
923.116	5672
923.224	5691
923.333	5623
923.442	5627
923.55	5589
923.659	5608
923.767	5615
923.876	5592
923.984	5653
924.092	5436
924.201	5528
924.309	5592
924.417	5589
924.525	5512
924.633	5471
924.741	6098
924.849	5421
924.956	5455
925.064	5372
925.172	5265
925.279	5364
925.387	5337
925.494	5311
925.602	5505
925.709	5372
925.816	5269
925.924	5280
926.031	5357
926.138	5341
926.245	5353
926.352	5220
926.459	5345
926.566	5376
926.673	5261
926.779	5143
926.886	5071
926.993	5060
927.099	5025
927.206	4976
927.312	4911
927.419	5067
927.525	5025
927.631	4999
927.737	4946
927.843	4881
927.95	4790
928.056	4831
928.162	4858
928.267	4904
928.373	5345
928.479	4862
928.585	4683
928.69	4790
928.796	4771
928.901	4664
929.007	4596
929.112	4717
929.218	4656
929.323	4580
929.428	4542
929.533	4675
929.638	4542
929.743	4569
929.848	4577
929.953	4504
930.058	4451
930.163	4341
930.267	4367
930.372	4443
930.477	4318
930.581	4493
930.685	4383
930.79	4246
930.894	4322
930.998	4242
931.103	4405
931.207	4150
931.311	4128
931.415	4044
931.519	3956
931.623	3979
