Data from glass_V78500241_217.txt Node
Date: Wed Sep 01 19:16:00 CST 2021
User: usil
Spectrometer: V785-0024
Trigger mode: 0
Integration Time (sec): 4.000000E-1
Scans to average: 1
Nonlinearity correction enabled: false
Boxcar width: 0
Storing dark spectrum: false
XAxis mode: Wavelengths
Number of Pixels in Spectrum: 1024
>>>>>Begin Spectral Data<<<<<
801.071	3762
801.214	3747
801.356	3740
801.499	3800
801.641	3770
801.783	3774
801.926	3873
802.068	3857
802.211	3869
802.353	3903
802.496	3831
802.638	3896
802.78	3941
802.923	3994
803.065	3941
803.208	3861
803.35	3857
803.492	3899
803.635	3949
803.777	3835
803.919	3949
804.061	4177
804.204	3949
804.346	3979
804.488	3896
804.63	4017
804.773	3979
804.915	3998
805.057	4162
805.199	4082
805.341	4109
805.483	4177
805.626	4162
805.768	4112
805.91	4204
806.052	4230
806.194	4192
806.336	4394
806.478	4238
806.62	4196
806.762	4230
806.904	4280
807.046	4371
807.188	4185
807.33	4188
807.472	4246
807.614	4257
807.756	4272
807.898	4242
808.04	4234
808.182	4291
808.324	4363
808.465	4383
808.607	4478
808.749	4478
808.891	4527
809.033	4508
809.174	4394
809.316	4268
809.458	4310
809.6	4185
809.741	4135
809.883	4150
810.025	4219
810.166	4215
810.308	4242
810.45	4204
810.591	4268
810.733	4318
810.875	4546
811.016	4805
811.158	5147
811.299	5261
811.441	5303
811.582	5071
811.724	4736
811.865	4455
812.007	4470
812.148	4478
812.29	4405
812.431	4440
812.573	4455
812.714	4375
812.855	4383
812.997	4485
813.138	4497
813.279	4386
813.421	4432
813.562	4337
813.703	4325
813.845	4356
813.986	4310
814.127	4257
814.268	4348
814.41	4310
814.551	4284
814.692	4356
814.833	4322
814.974	4360
815.115	4379
815.256	4280
815.397	4261
815.539	4276
815.68	4204
815.821	4204
815.962	4322
816.103	4287
816.244	4249
816.385	4249
816.526	4272
816.666	4223
816.807	4116
816.948	4162
817.089	4188
817.23	4109
817.371	4086
817.512	4044
817.653	4086
817.793	4055
817.934	4097
818.075	4082
818.216	4078
818.356	4139
818.497	3998
818.638	3922
818.778	3937
818.919	3934
819.06	3903
819.2	3934
819.341	3880
819.481	3861
819.622	3956
819.762	4059
819.903	3991
820.043	3907
820.184	3846
820.324	3854
820.465	3911
820.605	3819
820.746	3884
820.886	3812
821.026	3937
821.167	3956
821.307	3991
821.447	3994
821.588	4006
821.728	3899
821.868	3930
822.008	3892
822.149	3922
822.289	3945
822.429	3793
822.569	3804
822.709	3857
822.849	3747
822.99	3694
823.13	3781
823.27	3770
823.41	3778
823.55	3759
823.69	3717
823.83	3781
823.97	3679
824.11	3595
824.25	3625
824.389	3660
824.529	3667
824.669	3648
824.809	3736
824.949	3743
825.089	3732
825.228	3694
825.368	3618
825.508	3591
825.648	3576
825.787	3644
825.927	3663
826.067	3679
826.206	3694
826.346	3762
826.485	3884
826.625	3880
826.765	3956
826.904	3869
827.044	3644
827.183	3542
827.323	3443
827.462	3481
827.601	3466
827.741	3397
827.88	3473
828.02	3382
828.159	3435
828.298	3507
828.437	3538
828.577	3458
828.716	3625
828.855	3534
828.994	3416
829.134	3393
829.273	3359
829.412	3325
829.551	3378
829.69	3355
829.829	3420
829.968	3584
830.107	3462
830.246	3473
830.385	3416
830.524	3363
830.663	3336
830.802	3272
830.941	3199
831.08	3199
831.219	3302
831.357	3279
831.496	3397
831.635	3272
831.774	3192
831.913	3169
832.051	3150
832.19	3169
832.329	3218
832.467	3138
832.606	3104
832.744	3180
832.883	3188
833.022	3184
833.16	3253
833.299	3313
833.437	3405
833.576	3420
833.714	3409
833.852	3431
833.991	3481
834.129	3488
834.267	3416
834.406	3378
834.544	3473
834.682	3412
834.821	3359
834.959	3595
835.097	3443
835.235	3530
835.373	3500
835.511	3530
835.65	3519
835.788	3496
835.926	3405
836.064	3386
836.202	3435
836.34	3576
836.478	3603
836.615	3549
836.753	3595
836.891	3671
837.029	3580
837.167	3591
837.305	3553
837.443	3587
837.58	3595
837.718	3629
837.856	3534
837.993	3564
838.131	3637
838.269	3625
838.406	3603
838.544	3652
838.681	3500
838.819	3458
838.956	3416
839.094	3420
839.231	3462
839.369	3496
839.506	3717
839.643	3648
839.781	3496
839.918	3504
840.055	3507
840.193	3523
840.33	3557
840.467	3542
840.604	3603
840.742	3846
840.879	3557
841.016	3584
841.153	3591
841.29	3762
841.427	3755
841.564	3766
841.701	3774
841.838	3679
841.975	3701
842.112	3724
842.249	3656
842.385	3625
842.522	3808
842.659	3720
842.796	3648
842.933	3690
843.069	3694
843.206	3743
843.343	3816
843.479	3812
843.616	3797
843.752	3679
843.889	3709
844.025	3892
844.162	3713
844.298	3816
844.435	3816
844.571	3774
844.708	3987
844.844	4006
844.98	4059
845.117	4032
845.253	3930
845.389	3892
845.525	3956
845.661	4006
845.798	3949
845.934	4040
846.07	3972
846.206	4055
846.342	4158
846.478	4063
846.614	3956
846.75	3918
846.886	3941
847.022	4063
847.158	4017
847.294	3983
847.429	4017
847.565	4048
847.701	4246
847.837	3865
847.972	3876
848.108	3956
848.244	3983
848.379	3903
848.515	3800
848.65	3850
848.786	3888
848.921	3873
849.057	3968
849.192	3964
849.328	3903
849.463	3960
849.598	3934
849.734	3854
849.869	3846
850.004	3804
850.14	3854
850.275	3781
850.41	3770
850.545	3808
850.68	3812
850.815	3797
850.95	3785
851.085	3994
851.22	3899
851.355	3865
851.49	3842
851.625	3808
851.76	3812
851.895	3808
852.03	3759
852.165	3816
852.299	3854
852.434	3915
852.569	3850
852.703	3892
852.838	3941
852.973	4040
853.107	4021
853.242	3888
853.376	3869
853.511	3800
853.645	3850
853.78	3937
853.914	3945
854.048	3903
854.183	3880
854.317	3934
854.451	4071
854.585	4002
854.72	3949
854.854	4101
854.988	3907
855.122	4055
855.256	3918
855.39	4048
855.524	4093
855.658	4120
855.792	4154
855.926	4112
856.06	4147
856.194	4173
856.327	4166
856.461	4143
856.595	4204
856.729	4253
856.862	4303
856.996	4287
857.13	4348
857.263	4310
857.397	4394
857.53	4306
857.664	4333
857.797	4375
857.931	4512
858.064	4409
858.197	4489
858.331	4386
858.464	4398
858.597	4363
858.731	4409
858.864	4481
858.997	4542
859.13	4508
859.263	4565
859.396	4580
859.529	4527
859.662	4558
859.795	4577
859.928	4596
860.061	4736
860.194	4778
860.327	4664
860.46	4702
860.592	4729
860.725	4790
860.858	4771
860.99	4656
861.123	4672
861.256	4714
861.388	4801
861.521	5387
861.653	4752
861.786	4714
861.918	4744
862.05	4763
862.183	4835
862.315	4885
862.447	4919
862.58	4885
862.712	4767
862.844	4729
862.976	4847
863.108	4896
863.24	5212
863.372	4812
863.504	4908
863.636	4858
863.768	4930
863.9	4938
864.032	4999
864.164	4946
864.296	5022
864.428	5086
864.559	5121
864.691	5140
864.823	5132
864.954	5143
865.086	5155
865.217	5185
865.349	5124
865.48	5193
865.612	5159
865.743	5292
865.875	5174
866.006	5185
866.137	5227
866.269	5261
866.4	5239
866.531	5265
866.662	5269
866.793	5269
866.924	5345
867.055	5383
867.186	5341
867.317	5330
867.448	5311
867.579	5467
867.71	5387
867.841	5395
867.972	5463
868.103	5474
868.233	5467
868.364	5516
868.495	5551
868.625	5695
868.756	5779
868.886	5676
869.017	5714
869.147	5882
869.278	5882
869.408	5798
869.539	5813
869.669	5939
869.799	5961
869.929	5950
870.06	6030
870.19	6213
870.32	6232
870.45	6251
870.58	6285
870.71	6391
870.84	6448
870.97	6460
871.1	6441
871.23	6707
871.36	6730
871.489	6658
871.619	6715
871.749	6768
871.879	6871
872.008	6981
872.138	7023
872.267	7057
872.397	6973
872.526	7072
872.656	7084
872.785	7247
872.915	7362
873.044	7525
873.173	7575
873.303	7674
873.432	7792
873.561	7860
873.69	7871
873.819	7997
873.948	8161
874.077	8259
874.206	8313
874.335	8404
874.464	8689
874.593	8929
874.722	8960
874.851	9093
874.979	9260
875.108	9401
875.237	9416
875.365	9481
875.494	9629
875.623	9789
875.751	9846
875.88	9968
876.008	10120
876.136	10227
876.265	10538
876.393	10725
876.521	10725
876.65	10790
876.778	10911
876.906	10877
877.034	10930
877.162	11086
877.29	11159
877.418	11242
877.546	11421
877.674	11436
877.802	11516
877.93	11509
878.058	11608
878.185	11535
878.313	11665
878.441	11767
878.568	11726
878.696	11809
878.824	11828
878.951	11912
879.079	12003
879.206	12098
879.333	12079
879.461	12041
879.588	12049
879.715	12079
879.842	12110
879.97	12053
880.097	11927
880.224	11836
880.351	11920
880.478	11882
880.605	11980
880.732	11786
880.859	12030
880.986	11764
881.112	11824
881.239	11741
881.366	11783
881.493	11615
881.619	11592
881.746	11589
881.872	11486
881.999	11592
882.125	11566
882.252	11532
882.378	11497
882.505	11577
882.631	11417
882.757	11258
882.883	11303
883.01	11193
883.136	11166
883.262	11090
883.388	11128
883.514	11220
883.64	11208
883.766	11128
883.892	11037
884.018	11064
884.143	11109
884.269	11132
884.395	10911
884.52	10748
884.646	10847
884.772	10717
884.897	10679
885.023	10710
885.148	10698
885.274	10748
885.399	10717
885.524	10622
885.65	10588
885.775	10584
885.9	10565
886.025	10675
886.15	10554
886.275	10577
886.4	10341
886.525	10436
886.65	10424
886.775	10333
886.9	10531
887.025	10504
887.149	10360
887.274	10242
887.399	10207
887.523	10139
887.648	10261
887.773	10200
887.897	10325
888.021	10215
888.146	10097
888.27	10291
888.395	10230
888.519	10169
888.643	10253
888.767	10166
888.891	10082
889.015	10055
889.139	10074
889.263	10006
889.387	10040
889.511	10071
889.635	10082
889.759	9899
889.883	9994
890.006	9972
890.13	10181
890.254	9895
890.377	9964
890.501	9926
890.624	9842
890.748	9892
890.871	9842
890.995	9778
891.118	9663
891.241	9701
891.364	9701
891.488	9804
891.611	9747
891.734	9819
891.857	9698
891.98	9728
892.103	9812
892.226	9728
892.349	9690
892.471	9561
892.594	9675
892.717	9599
892.839	9591
892.962	9564
893.085	9717
893.207	9557
893.33	9606
893.452	9496
893.575	9618
893.697	9481
893.819	9728
893.941	9652
894.064	9648
894.186	9485
894.308	9488
894.43	9557
894.552	9576
894.674	9515
894.796	9355
894.918	9401
895.04	9389
895.161	9401
895.283	9389
895.405	9249
895.526	9249
895.648	9268
895.769	9245
895.891	9329
896.012	9359
896.134	9230
896.255	9169
896.376	9142
896.498	9157
896.619	9127
896.74	9146
896.861	9100
896.982	9245
897.103	9374
897.224	9195
897.345	9074
897.466	8967
897.587	9077
897.708	9097
897.828	9055
897.949	8914
898.07	8861
898.19	8929
898.311	8994
898.431	8868
898.552	8967
898.672	8925
898.792	8998
898.913	8948
899.033	8796
899.153	8693
899.273	8659
899.393	8712
899.513	8796
899.633	8739
899.753	8769
899.873	8762
899.993	8785
900.113	8705
900.232	8766
900.352	8644
900.472	8629
900.591	8571
900.711	8613
900.83	8568
900.95	8590
901.069	8689
901.189	8663
901.308	8514
901.427	8423
901.546	8446
901.665	8434
901.784	8488
901.904	8431
902.023	8389
902.141	8279
902.26	8153
902.379	8237
902.498	8229
902.617	8263
902.735	8225
902.854	8336
902.973	8252
903.091	8153
903.21	8176
903.328	8168
903.446	8126
903.565	8069
903.683	8084
903.801	8092
903.919	8183
904.038	8187
904.156	8005
904.274	8115
904.392	8069
904.51	8020
904.627	8046
904.745	8103
904.863	8172
904.981	7917
905.098	7776
905.216	7894
905.334	7940
905.451	7947
905.569	7921
905.686	7890
905.803	7879
905.921	7753
906.038	7814
906.155	7814
906.272	7727
906.389	7708
906.506	7719
906.623	7613
906.74	7571
906.857	7594
906.974	7613
907.091	7685
907.208	7746
907.324	7658
907.441	7578
907.557	7499
907.674	7441
907.79	7422
907.907	7434
908.023	7457
908.139	7472
908.256	7377
908.372	7403
908.488	7316
908.604	7278
908.72	7198
908.836	7293
908.952	7255
909.068	7301
909.184	7339
909.3	7236
909.415	7331
909.531	7297
909.647	7129
909.762	7126
909.878	7107
909.993	7099
910.108	7057
910.224	7126
910.339	7057
910.454	7034
910.57	7000
910.685	6951
910.8	7187
910.915	7069
911.03	6993
911.145	6882
911.259	6954
911.374	6829
911.489	6848
911.604	6814
911.718	6730
911.833	6749
911.947	6688
912.062	6601
912.176	6719
912.291	6722
912.405	6707
912.519	6818
912.633	6878
912.748	6707
912.862	6738
912.976	6540
913.09	6513
913.204	6639
913.318	6665
913.431	6692
913.545	6745
913.659	6738
913.772	6684
913.886	6597
914	6574
914.113	6669
914.226	6642
914.34	6620
914.453	6551
914.566	6627
914.68	6582
914.793	6479
914.906	6399
915.019	6452
915.132	6372
915.245	6429
915.358	6460
915.47	6426
915.583	6479
915.696	6506
915.809	6570
915.921	6574
916.034	6410
916.146	6395
916.259	6407
916.371	6490
916.483	6445
916.595	6448
916.708	6395
916.82	6331
916.932	6357
917.044	6410
917.156	6441
917.268	6334
917.38	6361
917.491	6304
917.603	6441
917.715	6410
917.826	6418
917.938	6327
918.049	6243
918.161	6357
918.272	6380
918.384	6395
918.495	6376
918.606	6311
918.717	6254
918.828	6357
918.939	6270
919.05	6220
919.161	6270
919.272	6144
919.383	6136
919.494	6331
919.604	6452
919.715	6270
919.826	6209
919.936	6224
920.047	6380
920.157	6273
920.267	6441
920.378	6334
920.488	6304
920.598	6467
920.708	6566
920.818	6517
920.928	6521
921.038	6566
921.148	6540
921.258	6399
921.368	6357
921.477	6220
921.587	6197
921.697	6117
921.806	6186
921.916	6159
922.025	5984
922.134	5901
922.244	5878
922.353	5923
922.462	5882
922.571	5824
922.68	5745
922.789	5707
922.898	5718
923.007	5653
923.116	5752
923.224	5764
923.333	5699
923.442	5577
923.55	5627
923.659	5634
923.767	5627
923.876	5570
923.984	5646
924.092	5562
924.201	5562
924.309	5509
924.417	5539
924.525	5543
924.633	5566
924.741	6281
924.849	5379
924.956	5486
925.064	5395
925.172	5364
925.279	5372
925.387	5395
925.494	5379
925.602	5444
925.709	5410
925.816	5326
925.924	5280
926.031	5372
926.138	5322
926.245	5303
926.352	5193
926.459	5307
926.566	5322
926.673	5166
926.779	5151
926.886	5140
926.993	5060
927.099	4991
927.206	4972
927.312	5006
927.419	5022
927.525	5018
927.631	4980
927.737	4889
927.843	4835
927.95	4793
928.056	4885
928.162	4866
928.267	4862
928.373	5307
928.479	4904
928.585	4721
928.69	4717
928.796	4778
928.901	4691
929.007	4630
929.112	4653
929.218	4603
929.323	4615
929.428	4558
929.533	4668
929.638	4531
929.743	4584
929.848	4561
929.953	4527
930.058	4478
930.163	4398
930.267	4383
930.372	4485
930.477	4341
930.581	4519
930.685	4367
930.79	4257
930.894	4303
930.998	4261
931.103	4409
931.207	4166
931.311	4059
931.415	4048
931.519	3915
931.623	3945
