Data from glass_V78500241_184.txt Node
Date: Wed Sep 01 19:15:46 CST 2021
User: usil
Spectrometer: V785-0024
Trigger mode: 0
Integration Time (sec): 4.000000E-1
Scans to average: 1
Nonlinearity correction enabled: false
Boxcar width: 0
Storing dark spectrum: false
XAxis mode: Wavelengths
Number of Pixels in Spectrum: 1024
>>>>>Begin Spectral Data<<<<<
801.071	3751
801.214	3740
801.356	3679
801.499	3732
801.641	3755
801.783	3759
801.926	3857
802.068	3827
802.211	3819
802.353	3888
802.496	3899
802.638	3903
802.78	3930
802.923	3964
803.065	3934
803.208	3861
803.35	3896
803.492	3911
803.635	3884
803.777	3831
803.919	3937
804.061	4135
804.204	3941
804.346	3968
804.488	3915
804.63	4082
804.773	3979
804.915	4044
805.057	4120
805.199	4010
805.341	4097
805.483	4128
805.626	4116
805.768	4124
805.91	4242
806.052	4253
806.194	4166
806.336	4341
806.478	4230
806.62	4200
806.762	4204
806.904	4280
807.046	4333
807.188	4253
807.33	4207
807.472	4234
807.614	4249
807.756	4295
807.898	4257
808.04	4242
808.182	4322
808.324	4344
808.465	4390
808.607	4481
808.749	4519
808.891	4402
809.033	4504
809.174	4436
809.316	4287
809.458	4234
809.6	4166
809.741	4143
809.883	4139
810.025	4188
810.166	4207
810.308	4173
810.45	4265
810.591	4230
810.733	4310
810.875	4550
811.016	4854
811.158	5136
811.299	5269
811.441	5273
811.582	5086
811.724	4717
811.865	4504
812.007	4466
812.148	4432
812.29	4409
812.431	4417
812.573	4417
812.714	4375
812.855	4402
812.997	4398
813.138	4481
813.279	4436
813.421	4440
813.562	4402
813.703	4341
813.845	4405
813.986	4280
814.127	4207
814.268	4249
814.41	4295
814.551	4249
814.692	4344
814.833	4257
814.974	4337
815.115	4379
815.256	4230
815.397	4291
815.539	4265
815.68	4272
815.821	4200
815.962	4287
816.103	4322
816.244	4249
816.385	4249
816.526	4299
816.666	4219
816.807	4128
816.948	4219
817.089	4200
817.23	4154
817.371	4055
817.512	4032
817.653	4116
817.793	4086
817.934	4055
818.075	4128
818.216	4116
818.356	4147
818.497	4059
818.638	3945
818.778	3884
818.919	3907
819.06	3915
819.2	3960
819.341	3857
819.481	3865
819.622	3953
819.762	4055
819.903	3953
820.043	3876
820.184	3842
820.324	3816
820.465	3896
820.605	3918
820.746	3911
820.886	3869
821.026	3960
821.167	3953
821.307	3956
821.447	4010
821.588	3987
821.728	3934
821.868	3964
822.008	3899
822.149	3949
822.289	3972
822.429	3781
822.569	3785
822.709	3800
822.849	3747
822.99	3736
823.13	3751
823.27	3816
823.41	3740
823.55	3789
823.69	3755
823.83	3743
823.97	3720
824.11	3625
824.25	3625
824.389	3698
824.529	3724
824.669	3663
824.809	3728
824.949	3778
825.089	3740
825.228	3766
825.368	3564
825.508	3610
825.648	3618
825.787	3618
825.927	3648
826.067	3641
826.206	3686
826.346	3781
826.485	3831
826.625	3865
826.765	3968
826.904	3838
827.044	3667
827.183	3545
827.323	3428
827.462	3507
827.601	3431
827.741	3458
827.88	3447
828.02	3401
828.159	3416
828.298	3496
828.437	3534
828.577	3473
828.716	3610
828.855	3515
828.994	3367
829.134	3359
829.273	3397
829.412	3344
829.551	3317
829.69	3393
829.829	3466
829.968	3545
830.107	3454
830.246	3462
830.385	3386
830.524	3378
830.663	3351
830.802	3253
830.941	3195
831.08	3230
831.219	3329
831.357	3283
831.496	3439
831.635	3230
831.774	3222
831.913	3222
832.051	3165
832.19	3165
832.329	3184
832.467	3150
832.606	3081
832.744	3188
832.883	3176
833.022	3211
833.16	3313
833.299	3317
833.437	3355
833.576	3351
833.714	3393
833.852	3458
833.991	3477
834.129	3481
834.267	3466
834.406	3424
834.544	3443
834.682	3450
834.821	3431
834.959	3580
835.097	3439
835.235	3534
835.373	3481
835.511	3477
835.65	3462
835.788	3504
835.926	3401
836.064	3389
836.202	3431
836.34	3561
836.478	3671
836.615	3542
836.753	3637
836.891	3622
837.029	3629
837.167	3641
837.305	3610
837.443	3584
837.58	3485
837.718	3561
837.856	3606
837.993	3591
838.131	3660
838.269	3572
838.406	3633
838.544	3595
838.681	3469
838.819	3450
838.956	3420
839.094	3428
839.231	3439
839.369	3519
839.506	3751
839.643	3633
839.781	3496
839.918	3485
840.055	3553
840.193	3561
840.33	3530
840.467	3603
840.604	3599
840.742	3835
840.879	3572
841.016	3610
841.153	3591
841.29	3808
841.427	3732
841.564	3736
841.701	3724
841.838	3713
841.975	3701
842.112	3694
842.249	3682
842.385	3656
842.522	3846
842.659	3705
842.796	3690
842.933	3751
843.069	3671
843.206	3755
843.343	3797
843.479	3778
843.616	3838
843.752	3679
843.889	3709
844.025	3854
844.162	3755
844.298	3838
844.435	3797
844.571	3823
844.708	3915
844.844	4032
844.98	4029
845.117	4029
845.253	3937
845.389	3911
845.525	3930
845.661	3998
845.798	3949
845.934	3983
846.07	3968
846.206	4112
846.342	4128
846.478	4013
846.614	3960
846.75	3968
846.886	3918
847.022	4013
847.158	3991
847.294	4032
847.429	3979
847.565	3979
847.701	4276
847.837	3880
847.972	3892
848.108	3991
848.244	3964
848.379	3876
848.515	3865
848.65	3827
848.786	3838
848.921	3892
849.057	3964
849.192	3934
849.328	3907
849.463	3949
849.598	3922
849.734	3922
849.869	3857
850.004	3785
850.14	3835
850.275	3835
850.41	3770
850.545	3797
850.68	3857
850.815	3812
850.95	3831
851.085	3979
851.22	3880
851.355	3835
851.49	3781
851.625	3854
851.76	3812
851.895	3800
852.03	3751
852.165	3823
852.299	3854
852.434	3915
852.569	3857
852.703	3899
852.838	3979
852.973	4025
853.107	4074
853.242	3934
853.376	3835
853.511	3800
853.645	3846
853.78	4002
853.914	3945
854.048	3922
854.183	3903
854.317	3956
854.451	4097
854.585	4002
854.72	3968
854.854	4112
854.988	3964
855.122	4002
855.256	3892
855.39	4025
855.524	4120
855.658	4116
855.792	4143
855.926	4196
856.06	4196
856.194	4242
856.327	4154
856.461	4074
856.595	4112
856.729	4211
856.862	4303
856.996	4215
857.13	4325
857.263	4337
857.397	4371
857.53	4303
857.664	4363
857.797	4424
857.931	4459
858.064	4402
858.197	4459
858.331	4390
858.464	4398
858.597	4379
858.731	4455
858.864	4459
858.997	4474
859.13	4478
859.263	4489
859.396	4653
859.529	4542
859.662	4573
859.795	4538
859.928	4561
860.061	4710
860.194	4740
860.327	4592
860.46	4660
860.592	4721
860.725	4767
860.858	4759
860.99	4660
861.123	4679
861.256	4706
861.388	4763
861.521	5395
861.653	4733
861.786	4721
861.918	4771
862.05	4831
862.183	4820
862.315	4866
862.447	4968
862.58	4923
862.712	4809
862.844	4797
862.976	4877
863.108	4915
863.24	5284
863.372	4831
863.504	4930
863.636	4877
863.768	4999
863.9	5003
864.032	4911
864.164	4995
864.296	4972
864.428	5124
864.559	5067
864.691	5117
864.823	5102
864.954	5185
865.086	5170
865.217	5086
865.349	5159
865.48	5151
865.612	5181
865.743	5326
865.875	5220
866.006	5193
866.137	5231
866.269	5284
866.4	5273
866.531	5277
866.662	5162
866.793	5307
866.924	5242
867.055	5353
867.186	5334
867.317	5364
867.448	5364
867.579	5391
867.71	5387
867.841	5395
867.972	5493
868.103	5467
868.233	5486
868.364	5501
868.495	5554
868.625	5695
868.756	5748
868.886	5676
869.017	5767
869.147	5771
869.278	5847
869.408	5821
869.539	5901
869.669	5912
869.799	5931
869.929	5942
870.06	6049
870.19	6190
870.32	6270
870.45	6262
870.58	6357
870.71	6395
870.84	6471
870.97	6506
871.1	6448
871.23	6688
871.36	6688
871.489	6677
871.619	6741
871.749	6878
871.879	6867
872.008	6981
872.138	7015
872.267	7065
872.397	7076
872.526	7050
872.656	7141
872.785	7266
872.915	7460
873.044	7521
873.173	7616
873.303	7662
873.432	7788
873.561	7849
873.69	8027
873.819	8062
873.948	8214
874.077	8210
874.206	8351
874.335	8427
874.464	8716
874.593	8979
874.722	8918
874.851	9051
874.979	9218
875.108	9401
875.237	9374
875.365	9469
875.494	9595
875.623	9827
875.751	9800
875.88	10002
876.008	10135
876.136	10337
876.265	10523
876.393	10691
876.521	10778
876.65	10843
876.778	10828
876.906	10911
877.034	10938
877.162	11109
877.29	11079
877.418	11288
877.546	11322
877.674	11509
877.802	11516
877.93	11524
878.058	11570
878.185	11554
878.313	11703
878.441	11752
878.568	11653
878.696	11760
878.824	11885
878.951	11969
879.079	12007
879.206	12155
879.333	12060
879.461	12011
879.588	12117
879.715	12049
879.842	12152
879.97	12079
880.097	11946
880.224	11843
880.351	11863
880.478	11847
880.605	11874
880.732	11889
880.859	12022
880.986	11783
881.112	11863
881.239	11737
881.366	11676
881.493	11714
881.619	11497
881.746	11589
881.872	11482
881.999	11509
882.125	11535
882.252	11570
882.378	11539
882.505	11638
882.631	11383
882.757	11292
882.883	11402
883.01	11292
883.136	11258
883.262	11083
883.388	11075
883.514	11227
883.64	11128
883.766	11109
883.892	10953
884.018	11003
884.143	11086
884.269	11109
884.395	10812
884.52	10816
884.646	10835
884.772	10736
884.897	10675
885.023	10675
885.148	10748
885.274	10858
885.399	10698
885.524	10679
885.65	10630
885.775	10592
885.9	10542
886.025	10565
886.15	10546
886.275	10500
886.4	10379
886.525	10394
886.65	10402
886.775	10325
886.9	10512
887.025	10558
887.149	10306
887.274	10230
887.399	10325
887.523	10242
887.648	10173
887.773	10078
887.897	10265
888.021	10284
888.146	10154
888.27	10185
888.395	10200
888.519	10128
888.643	10181
888.767	10204
888.891	10120
889.015	10082
889.139	10029
889.263	9972
889.387	10067
889.511	10120
889.635	10116
889.759	9994
889.883	9991
890.006	9972
890.13	10169
890.254	9934
890.377	10021
890.501	9918
890.624	9884
890.748	9846
890.871	9831
890.995	9698
891.118	9660
891.241	9800
891.364	9823
891.488	9842
891.611	9800
891.734	9751
891.857	9770
891.98	9690
892.103	9755
892.226	9766
892.349	9652
892.471	9530
892.594	9603
892.717	9587
892.839	9580
892.962	9671
893.085	9587
893.207	9610
893.33	9500
893.452	9549
893.575	9622
893.697	9481
893.819	9618
893.941	9610
894.064	9625
894.186	9412
894.308	9416
894.43	9500
894.552	9584
894.674	9492
894.796	9412
894.918	9344
895.04	9374
895.161	9382
895.283	9416
895.405	9207
895.526	9230
895.648	9287
895.769	9260
895.891	9332
896.012	9348
896.134	9249
896.255	9192
896.376	9138
896.498	9249
896.619	9093
896.74	9192
896.861	9043
896.982	9298
897.103	9253
897.224	9207
897.345	9089
897.466	9020
897.587	9028
897.708	9085
897.828	9036
897.949	8975
898.07	8883
898.19	8883
898.311	9066
898.431	8899
898.552	8948
898.672	8918
898.792	8902
898.913	8868
899.033	8834
899.153	8777
899.273	8716
899.393	8727
899.513	8804
899.633	8746
899.753	8750
899.873	8762
899.993	8785
900.113	8800
900.232	8769
900.352	8632
900.472	8625
900.591	8575
900.711	8667
900.83	8613
900.95	8746
901.069	8659
901.189	8617
901.308	8442
901.427	8377
901.546	8450
901.665	8415
901.784	8556
901.904	8438
902.023	8309
902.141	8286
902.26	8218
902.379	8286
902.498	8221
902.617	8279
902.735	8298
902.854	8362
902.973	8339
903.091	8145
903.21	8187
903.328	8149
903.446	8107
903.565	8134
903.683	8096
903.801	8119
903.919	8138
904.038	8107
904.156	8027
904.274	8084
904.392	8043
904.51	8020
904.627	8069
904.745	8096
904.863	8126
904.981	7921
905.098	7864
905.216	7913
905.334	7970
905.451	7902
905.569	7909
905.686	7894
905.803	7936
905.921	7830
906.038	7890
906.155	7864
906.272	7742
906.389	7750
906.506	7715
906.623	7639
906.74	7590
906.857	7552
906.974	7571
907.091	7594
907.208	7753
907.324	7681
907.441	7597
907.557	7514
907.674	7453
907.79	7411
907.907	7460
908.023	7441
908.139	7480
908.256	7472
908.372	7403
908.488	7305
908.604	7316
908.72	7293
908.836	7263
908.952	7316
909.068	7282
909.184	7373
909.3	7232
909.415	7278
909.531	7335
909.647	7126
909.762	7149
909.878	7076
909.993	7187
910.108	7061
910.224	7076
910.339	7183
910.454	7004
910.57	7031
910.685	6962
910.8	7152
910.915	7114
911.03	7061
911.145	6977
911.259	6897
911.374	6897
911.489	6791
911.604	6825
911.718	6673
911.833	6753
911.947	6650
912.062	6544
912.176	6711
912.291	6738
912.405	6703
912.519	6852
912.633	6844
912.748	6715
912.862	6707
912.976	6601
913.09	6570
913.204	6593
913.318	6639
913.431	6677
913.545	6711
913.659	6734
913.772	6620
913.886	6601
914	6601
914.113	6673
914.226	6673
914.34	6620
914.453	6544
914.566	6658
914.68	6566
914.793	6483
914.906	6471
915.019	6376
915.132	6410
915.245	6369
915.358	6437
915.47	6475
915.583	6498
915.696	6479
915.809	6547
915.921	6532
916.034	6498
916.146	6441
916.259	6414
916.371	6547
916.483	6479
916.595	6346
916.708	6399
916.82	6353
916.932	6388
917.044	6403
917.156	6437
917.268	6327
917.38	6372
917.491	6369
917.603	6300
917.715	6376
917.826	6391
917.938	6353
918.049	6220
918.161	6380
918.272	6479
918.384	6445
918.495	6266
918.606	6319
918.717	6228
918.828	6247
918.939	6327
919.05	6178
919.161	6289
919.272	6095
919.383	6194
919.494	6292
919.604	6414
919.715	6300
919.826	6273
919.936	6304
920.047	6380
920.157	6254
920.267	6448
920.378	6353
920.488	6311
920.598	6521
920.708	6532
920.818	6528
920.928	6479
921.038	6585
921.148	6608
921.258	6372
921.368	6327
921.477	6247
921.587	6167
921.697	6091
921.806	6186
921.916	6182
922.025	5920
922.134	5878
922.244	5897
922.353	5946
922.462	5874
922.571	5832
922.68	5741
922.789	5649
922.898	5741
923.007	5638
923.116	5729
923.224	5661
923.333	5672
923.442	5623
923.55	5619
923.659	5570
923.767	5615
923.876	5570
923.984	5611
924.092	5497
924.201	5539
924.309	5532
924.417	5558
924.525	5497
924.633	5589
924.741	6140
924.849	5383
924.956	5444
925.064	5387
925.172	5269
925.279	5322
925.387	5406
925.494	5360
925.602	5444
925.709	5360
925.816	5334
925.924	5326
926.031	5376
926.138	5322
926.245	5337
926.352	5265
926.459	5349
926.566	5379
926.673	5246
926.779	5185
926.886	5162
926.993	5014
927.099	5014
927.206	4980
927.312	4968
927.419	5018
927.525	5029
927.631	5033
927.737	4930
927.843	4896
927.95	4812
928.056	4801
928.162	4790
928.267	4885
928.373	5307
928.479	4824
928.585	4664
928.69	4759
928.796	4793
928.901	4653
929.007	4592
929.112	4656
929.218	4656
929.323	4615
929.428	4538
929.533	4687
929.638	4527
929.743	4538
929.848	4565
929.953	4527
930.058	4443
930.163	4352
930.267	4360
930.372	4451
930.477	4314
930.581	4550
930.685	4344
930.79	4268
930.894	4291
930.998	4291
931.103	4421
931.207	4086
931.311	4097
931.415	4040
931.519	3941
931.623	3941
