Data from glass_V78500241_1799.txt Node
Date: Wed Sep 01 19:26:58 CST 2021
User: usil
Spectrometer: V785-0024
Trigger mode: 0
Integration Time (sec): 4.000000E-1
Scans to average: 1
Nonlinearity correction enabled: false
Boxcar width: 0
Storing dark spectrum: false
XAxis mode: Wavelengths
Number of Pixels in Spectrum: 1024
>>>>>Begin Spectral Data<<<<<
801.071	3717
801.214	3720
801.356	3701
801.499	3751
801.641	3701
801.783	3751
801.926	3850
802.068	3816
802.211	3865
802.353	3846
802.496	3819
802.638	3831
802.78	3854
802.923	3907
803.065	3857
803.208	3838
803.35	3873
803.492	3880
803.635	3892
803.777	3819
803.919	3861
804.061	4112
804.204	3983
804.346	3945
804.488	3968
804.63	4051
804.773	3979
804.915	4029
805.057	4143
805.199	4017
805.341	4040
805.483	4166
805.626	4120
805.768	4086
805.91	4196
806.052	4200
806.194	4150
806.336	4360
806.478	4200
806.62	4109
806.762	4162
806.904	4261
807.046	4268
807.188	4207
807.33	4207
807.472	4207
807.614	4181
807.756	4276
807.898	4181
808.04	4219
808.182	4249
808.324	4310
808.465	4371
808.607	4497
808.749	4436
808.891	4527
809.033	4478
809.174	4379
809.316	4268
809.458	4246
809.6	4143
809.741	4219
809.883	4139
810.025	4249
810.166	4204
810.308	4238
810.45	4265
810.591	4242
810.733	4280
810.875	4546
811.016	4812
811.158	5109
811.299	5303
811.441	5315
811.582	5045
811.724	4755
811.865	4405
812.007	4417
812.148	4443
812.29	4417
812.431	4424
812.573	4424
812.714	4394
812.855	4398
812.997	4459
813.138	4497
813.279	4409
813.421	4386
813.562	4329
813.703	4325
813.845	4325
813.986	4261
814.127	4234
814.268	4287
814.41	4265
814.551	4268
814.692	4303
814.833	4276
814.974	4276
815.115	4322
815.256	4257
815.397	4227
815.539	4303
815.68	4177
815.821	4276
815.962	4299
816.103	4295
816.244	4207
816.385	4257
816.526	4284
816.666	4200
816.807	4082
816.948	4204
817.089	4177
817.23	4139
817.371	4029
817.512	4086
817.653	4063
817.793	4021
817.934	4044
818.075	4105
818.216	4059
818.356	4086
818.497	4017
818.638	3903
818.778	3880
818.919	3899
819.06	3838
819.2	3968
819.341	3884
819.481	3823
819.622	3861
819.762	4010
819.903	3918
820.043	3876
820.184	3835
820.324	3789
820.465	3850
820.605	3850
820.746	3880
820.886	3793
821.026	3922
821.167	3911
821.307	3960
821.447	4013
821.588	3979
821.728	3949
821.868	3934
822.008	3876
822.149	3880
822.289	3930
822.429	3778
822.569	3797
822.709	3781
822.849	3671
822.99	3694
823.13	3751
823.27	3789
823.41	3690
823.55	3713
823.69	3705
823.83	3705
823.97	3717
824.11	3606
824.25	3599
824.389	3633
824.529	3709
824.669	3610
824.809	3728
824.949	3743
825.089	3724
825.228	3698
825.368	3572
825.508	3576
825.648	3622
825.787	3580
825.927	3633
826.067	3675
826.206	3648
826.346	3831
826.485	3778
826.625	3880
826.765	3941
826.904	3812
827.044	3614
827.183	3538
827.323	3462
827.462	3454
827.601	3424
827.741	3416
827.88	3439
828.02	3359
828.159	3458
828.298	3492
828.437	3538
828.577	3481
828.716	3603
828.855	3511
828.994	3424
829.134	3355
829.273	3397
829.412	3378
829.551	3340
829.69	3378
829.829	3412
829.968	3504
830.107	3466
830.246	3416
830.385	3355
830.524	3355
830.663	3306
830.802	3260
830.941	3203
831.08	3214
831.219	3260
831.357	3279
831.496	3416
831.635	3226
831.774	3154
831.913	3195
832.051	3165
832.19	3150
832.329	3188
832.467	3104
832.606	3077
832.744	3169
832.883	3195
833.022	3203
833.16	3230
833.299	3317
833.437	3336
833.576	3348
833.714	3378
833.852	3416
833.991	3393
834.129	3485
834.267	3412
834.406	3397
834.544	3435
834.682	3389
834.821	3397
834.959	3538
835.097	3378
835.235	3515
835.373	3496
835.511	3496
835.65	3454
835.788	3466
835.926	3382
836.064	3370
836.202	3458
836.34	3584
836.478	3584
836.615	3538
836.753	3584
836.891	3682
837.029	3606
837.167	3603
837.305	3572
837.443	3545
837.58	3523
837.718	3599
837.856	3564
837.993	3545
838.131	3561
838.269	3553
838.406	3561
838.544	3580
838.681	3431
838.819	3439
838.956	3416
839.094	3420
839.231	3454
839.369	3504
839.506	3747
839.643	3606
839.781	3515
839.918	3488
840.055	3511
840.193	3500
840.33	3542
840.467	3496
840.604	3625
840.742	3800
840.879	3538
841.016	3564
841.153	3603
841.29	3740
841.427	3740
841.564	3740
841.701	3751
841.838	3682
841.975	3686
842.112	3709
842.249	3648
842.385	3625
842.522	3827
842.659	3663
842.796	3701
842.933	3717
843.069	3717
843.206	3705
843.343	3785
843.479	3755
843.616	3816
843.752	3660
843.889	3698
844.025	3816
844.162	3701
844.298	3876
844.435	3804
844.571	3759
844.708	3884
844.844	3983
844.98	4025
845.117	4025
845.253	3945
845.389	3903
845.525	3975
845.661	3994
845.798	3926
845.934	3998
846.07	4002
846.206	4048
846.342	4086
846.478	4025
846.614	3968
846.75	3953
846.886	3915
847.022	4044
847.158	4002
847.294	3956
847.429	4017
847.565	4013
847.701	4158
847.837	3880
847.972	3846
848.108	4006
848.244	3960
848.379	3823
848.515	3838
848.65	3819
848.786	3812
848.921	3911
849.057	3937
849.192	3922
849.328	3896
849.463	3911
849.598	3884
849.734	3873
849.869	3876
850.004	3759
850.14	3789
850.275	3785
850.41	3720
850.545	3747
850.68	3751
850.815	3781
850.95	3793
851.085	3956
851.22	3918
851.355	3804
851.49	3774
851.625	3766
851.76	3740
851.895	3770
852.03	3747
852.165	3804
852.299	3861
852.434	3896
852.569	3823
852.703	3850
852.838	3896
852.973	3994
853.107	3994
853.242	3873
853.376	3835
853.511	3778
853.645	3835
853.78	3956
853.914	3865
854.048	3869
854.183	3899
854.317	3937
854.451	4059
854.585	3918
854.72	3888
854.854	4040
854.988	3911
855.122	3994
855.256	3918
855.39	4010
855.524	4150
855.658	4090
855.792	4090
855.926	4177
856.06	4177
856.194	4173
856.327	4128
856.461	4093
856.595	4143
856.729	4196
856.862	4257
856.996	4204
857.13	4280
857.263	4356
857.397	4356
857.53	4287
857.664	4333
857.797	4383
857.931	4447
858.064	4375
858.197	4447
858.331	4363
858.464	4360
858.597	4390
858.731	4398
858.864	4470
858.997	4470
859.13	4493
859.263	4527
859.396	4569
859.529	4527
859.662	4531
859.795	4512
859.928	4611
860.061	4729
860.194	4702
860.327	4672
860.46	4592
860.592	4767
860.725	4786
860.858	4805
860.99	4744
861.123	4729
861.256	4752
861.388	4702
861.521	5357
861.653	4668
861.786	4702
861.918	4721
862.05	4801
862.183	4831
862.315	4866
862.447	4919
862.58	4862
862.712	4816
862.844	4820
862.976	4889
863.108	4881
863.24	5197
863.372	4831
863.504	4915
863.636	4908
863.768	5022
863.9	4965
864.032	4927
864.164	5006
864.296	5014
864.428	5094
864.559	5117
864.691	5136
864.823	5098
864.954	5143
865.086	5117
865.217	5124
865.349	5090
865.48	5174
865.612	5170
865.743	5284
865.875	5208
866.006	5254
866.137	5246
866.269	5208
866.4	5227
866.531	5227
866.662	5254
866.793	5227
866.924	5288
867.055	5349
867.186	5292
867.317	5318
867.448	5341
867.579	5391
867.71	5398
867.841	5360
867.972	5440
868.103	5436
868.233	5516
868.364	5512
868.495	5467
868.625	5630
868.756	5752
868.886	5661
869.017	5733
869.147	5847
869.278	5840
869.408	5817
869.539	5805
869.669	5863
869.799	5920
869.929	5958
870.06	6034
870.19	6155
870.32	6152
870.45	6273
870.58	6296
870.71	6403
870.84	6467
870.97	6399
871.1	6479
871.23	6639
871.36	6715
871.489	6658
871.619	6688
871.749	6840
871.879	6882
872.008	6954
872.138	6920
872.267	6958
872.397	6977
872.526	7065
872.656	7118
872.785	7236
872.915	7362
873.044	7525
873.173	7563
873.303	7651
873.432	7807
873.561	7849
873.69	7906
873.819	8020
873.948	8187
874.077	8244
874.206	8294
874.335	8507
874.464	8590
874.593	8944
874.722	8876
874.851	9055
874.979	9275
875.108	9382
875.237	9458
875.365	9519
875.494	9599
875.623	9789
875.751	9816
875.88	10002
876.008	10139
876.136	10356
876.265	10508
876.393	10752
876.521	10744
876.65	10858
876.778	10816
876.906	10896
877.034	11041
877.162	11132
877.29	11083
877.418	11250
877.546	11391
877.674	11436
877.802	11516
877.93	11528
878.058	11520
878.185	11497
878.313	11543
878.441	11722
878.568	11676
878.696	11767
878.824	11897
878.951	11954
879.079	12007
879.206	12194
879.333	12057
879.461	11973
879.588	12041
879.715	12106
879.842	12239
879.97	12060
880.097	11912
880.224	11855
880.351	11832
880.478	11836
880.605	11843
880.732	11836
880.859	11992
880.986	11882
881.112	11859
881.239	11775
881.366	11748
881.493	11630
881.619	11512
881.746	11619
881.872	11509
881.999	11543
882.125	11471
882.252	11566
882.378	11467
882.505	11577
882.631	11326
882.757	11311
882.883	11265
883.01	11220
883.136	11170
883.262	11067
883.388	11098
883.514	11193
883.64	11170
883.766	11048
883.892	10991
884.018	11006
884.143	11064
884.269	11140
884.395	10923
884.52	10809
884.646	10797
884.772	10748
884.897	10656
885.023	10645
885.148	10702
885.274	10729
885.399	10786
885.524	10706
885.65	10626
885.775	10489
885.9	10535
886.025	10656
886.15	10504
886.275	10436
886.4	10367
886.525	10379
886.65	10402
886.775	10409
886.9	10459
887.025	10569
887.149	10360
887.274	10177
887.399	10185
887.523	10200
887.648	10143
887.773	10093
887.897	10223
888.021	10234
888.146	10135
888.27	10242
888.395	10268
888.519	10196
888.643	10162
888.767	10150
888.891	10082
889.015	10025
889.139	10040
889.263	10078
889.387	10162
889.511	10131
889.635	9964
889.759	9930
889.883	9884
890.006	9949
890.13	10074
890.254	9876
890.377	9911
890.501	9857
890.624	9831
890.748	9869
890.871	9812
890.995	9781
891.118	9713
891.241	9751
891.364	9701
891.488	9827
891.611	9728
891.734	9740
891.857	9618
891.98	9740
892.103	9785
892.226	9671
892.349	9663
892.471	9515
892.594	9545
892.717	9584
892.839	9663
892.962	9648
893.085	9667
893.207	9492
893.33	9507
893.452	9545
893.575	9576
893.697	9557
893.819	9572
893.941	9633
894.064	9561
894.186	9367
894.308	9428
894.43	9526
894.552	9614
894.674	9584
894.796	9367
894.918	9351
895.04	9325
895.161	9401
895.283	9355
895.405	9249
895.526	9283
895.648	9241
895.769	9241
895.891	9245
896.012	9230
896.134	9169
896.255	9138
896.376	9123
896.498	9062
896.619	9100
896.74	9032
896.861	9089
896.982	9340
897.103	9302
897.224	9180
897.345	8986
897.466	8975
897.587	9028
897.708	9077
897.828	8963
897.949	8910
898.07	8864
898.19	8864
898.311	8998
898.431	8872
898.552	8918
898.672	9032
898.792	8948
898.913	8883
899.033	8842
899.153	8754
899.273	8674
899.393	8678
899.513	8796
899.633	8769
899.753	8746
899.873	8644
899.993	8788
900.113	8663
900.232	8727
900.352	8640
900.472	8648
900.591	8575
900.711	8545
900.83	8514
900.95	8663
901.069	8682
901.189	8579
901.308	8446
901.427	8438
901.546	8450
901.665	8450
901.784	8442
901.904	8370
902.023	8298
902.141	8214
902.26	8240
902.379	8233
902.498	8134
902.617	8218
902.735	8301
902.854	8279
902.973	8275
903.091	8149
903.21	8115
903.328	8233
903.446	8115
903.565	8062
903.683	8073
903.801	8092
903.919	8168
904.038	8153
904.156	7978
904.274	8081
904.392	8046
904.51	7947
904.627	8058
904.745	8134
904.863	8081
904.981	7860
905.098	7864
905.216	7917
905.334	7875
905.451	7917
905.569	7845
905.686	7932
905.803	7883
905.921	7753
906.038	7811
906.155	7822
906.272	7696
906.389	7719
906.506	7651
906.623	7613
906.74	7689
906.857	7556
906.974	7537
907.091	7662
907.208	7712
907.324	7601
907.441	7582
907.557	7472
907.674	7407
907.79	7407
907.907	7426
908.023	7453
908.139	7438
908.256	7384
908.372	7369
908.488	7403
908.604	7305
908.72	7221
908.836	7244
908.952	7278
909.068	7190
909.184	7365
909.3	7266
909.415	7301
909.531	7335
909.647	7156
909.762	7076
909.878	7065
909.993	7050
910.108	7168
910.224	7088
910.339	7050
910.454	7065
910.57	7034
910.685	6966
910.8	7168
910.915	7152
911.03	7023
911.145	6882
911.259	6875
911.374	6867
911.489	6821
911.604	6814
911.718	6669
911.833	6669
911.947	6703
912.062	6669
912.176	6677
912.291	6715
912.405	6677
912.519	6829
912.633	6840
912.748	6703
912.862	6684
912.976	6623
913.09	6475
913.204	6597
913.318	6566
913.431	6707
913.545	6707
913.659	6707
913.772	6601
913.886	6517
914	6589
914.113	6635
914.226	6646
914.34	6620
914.453	6467
914.566	6582
914.68	6490
914.793	6521
914.906	6433
915.019	6414
915.132	6334
915.245	6479
915.358	6376
915.47	6460
915.583	6395
915.696	6471
915.809	6513
915.921	6589
916.034	6437
916.146	6388
916.259	6357
916.371	6460
916.483	6448
916.595	6327
916.708	6376
916.82	6445
916.932	6395
917.044	6369
917.156	6384
917.268	6315
917.38	6308
917.491	6350
917.603	6342
917.715	6350
917.826	6433
917.938	6319
918.049	6190
918.161	6258
918.272	6403
918.384	6429
918.495	6357
918.606	6292
918.717	6254
918.828	6338
918.939	6247
919.05	6216
919.161	6254
919.272	6095
919.383	6057
919.494	6289
919.604	6418
919.715	6251
919.826	6216
919.936	6216
920.047	6369
920.157	6247
920.267	6418
920.378	6369
920.488	6266
920.598	6475
920.708	6544
920.818	6391
920.928	6445
921.038	6585
921.148	6589
921.258	6380
921.368	6296
921.477	6232
921.587	6167
921.697	6083
921.806	6167
921.916	6045
922.025	5992
922.134	6011
922.244	5893
922.353	5992
922.462	5863
922.571	5779
922.68	5733
922.789	5676
922.898	5691
923.007	5600
923.116	5707
923.224	5630
923.333	5627
923.442	5585
923.55	5577
923.659	5573
923.767	5600
923.876	5551
923.984	5570
924.092	5528
924.201	5543
924.309	5581
924.417	5558
924.525	5478
924.633	5493
924.741	6308
924.849	5345
924.956	5471
925.064	5368
925.172	5315
925.279	5303
925.387	5292
925.494	5307
925.602	5383
925.709	5376
925.816	5223
925.924	5334
926.031	5357
926.138	5299
926.245	5284
926.352	5261
926.459	5261
926.566	5311
926.673	5216
926.779	5124
926.886	5121
926.993	5052
927.099	4995
927.206	5022
927.312	4942
927.419	5029
927.525	4965
927.631	5010
927.737	4908
927.843	4831
927.95	4771
928.056	4793
928.162	4805
928.267	4919
928.373	5353
928.479	4812
928.585	4698
928.69	4771
928.796	4771
928.901	4649
929.007	4584
929.112	4668
929.218	4569
929.323	4592
929.428	4573
929.533	4656
929.638	4485
929.743	4558
929.848	4584
929.953	4508
930.058	4428
930.163	4303
930.267	4318
930.372	4390
930.477	4268
930.581	4459
930.685	4341
930.79	4249
930.894	4276
930.998	4261
931.103	4390
931.207	4090
931.311	4082
931.415	4017
931.519	3911
931.623	3972
