Data from glass_V78500241_157.txt Node
Date: Wed Sep 01 19:15:35 CST 2021
User: usil
Spectrometer: V785-0024
Trigger mode: 0
Integration Time (sec): 4.000000E-1
Scans to average: 1
Nonlinearity correction enabled: false
Boxcar width: 0
Storing dark spectrum: false
XAxis mode: Wavelengths
Number of Pixels in Spectrum: 1024
>>>>>Begin Spectral Data<<<<<
801.071	3743
801.214	3751
801.356	3755
801.499	3770
801.641	3781
801.783	3770
801.926	3880
802.068	3842
802.211	3884
802.353	3915
802.496	3903
802.638	3888
802.78	3880
802.923	3968
803.065	3911
803.208	3857
803.35	3899
803.492	3892
803.635	3937
803.777	3819
803.919	3926
804.061	4139
804.204	3968
804.346	3953
804.488	3930
804.63	4017
804.773	3964
804.915	4048
805.057	4166
805.199	4074
805.341	4101
805.483	4158
805.626	4158
805.768	4093
805.91	4253
806.052	4268
806.194	4257
806.336	4341
806.478	4204
806.62	4234
806.762	4238
806.904	4268
807.046	4325
807.188	4166
807.33	4196
807.472	4234
807.614	4185
807.756	4257
807.898	4234
808.04	4219
808.182	4272
808.324	4325
808.465	4363
808.607	4428
808.749	4474
808.891	4466
809.033	4512
809.174	4451
809.316	4257
809.458	4280
809.6	4173
809.741	4150
809.883	4181
810.025	4177
810.166	4246
810.308	4291
810.45	4238
810.591	4268
810.733	4337
810.875	4592
811.016	4831
811.158	5162
811.299	5334
811.441	5292
811.582	5117
811.724	4721
811.865	4489
812.007	4481
812.148	4462
812.29	4405
812.431	4443
812.573	4470
812.714	4363
812.855	4436
812.997	4413
813.138	4527
813.279	4398
813.421	4413
813.562	4394
813.703	4386
813.845	4325
813.986	4234
814.127	4276
814.268	4291
814.41	4314
814.551	4276
814.692	4322
814.833	4314
814.974	4337
815.115	4322
815.256	4284
815.397	4230
815.539	4291
815.68	4207
815.821	4185
815.962	4276
816.103	4306
816.244	4268
816.385	4230
816.526	4341
816.666	4230
816.807	4105
816.948	4177
817.089	4204
817.23	4093
817.371	4055
817.512	4078
817.653	4116
817.793	4036
817.934	4055
818.075	4086
818.216	4078
818.356	4109
818.497	3953
818.638	3918
818.778	3930
818.919	3945
819.06	3911
819.2	3907
819.341	3865
819.481	3842
819.622	3956
819.762	4017
819.903	3949
820.043	3854
820.184	3903
820.324	3846
820.465	3892
820.605	3899
820.746	3876
820.886	3838
821.026	3941
821.167	3945
821.307	3968
821.447	4021
821.588	3979
821.728	3994
821.868	4006
822.008	3911
822.149	3937
822.289	3896
822.429	3774
822.569	3797
822.709	3831
822.849	3705
822.99	3751
823.13	3793
823.27	3835
823.41	3751
823.55	3705
823.69	3778
823.83	3759
823.97	3705
824.11	3610
824.25	3614
824.389	3660
824.529	3675
824.669	3633
824.809	3747
824.949	3740
825.089	3724
825.228	3709
825.368	3587
825.508	3576
825.648	3622
825.787	3610
825.927	3618
826.067	3652
826.206	3663
826.346	3804
826.485	3838
826.625	3896
826.765	3953
826.904	3846
827.044	3644
827.183	3530
827.323	3412
827.462	3477
827.601	3458
827.741	3466
827.88	3485
828.02	3389
828.159	3447
828.298	3485
828.437	3538
828.577	3534
828.716	3618
828.855	3515
828.994	3386
829.134	3378
829.273	3370
829.412	3359
829.551	3355
829.69	3359
829.829	3450
829.968	3519
830.107	3428
830.246	3458
830.385	3405
830.524	3378
830.663	3317
830.802	3275
830.941	3226
831.08	3203
831.219	3298
831.357	3268
831.496	3450
831.635	3226
831.774	3218
831.913	3199
832.051	3074
832.19	3150
832.329	3199
832.467	3135
832.606	3108
832.744	3218
832.883	3184
833.022	3199
833.16	3272
833.299	3317
833.437	3340
833.576	3409
833.714	3416
833.852	3454
833.991	3473
834.129	3439
834.267	3454
834.406	3420
834.544	3428
834.682	3435
834.821	3469
834.959	3591
835.097	3447
835.235	3561
835.373	3542
835.511	3526
835.65	3507
835.788	3561
835.926	3424
836.064	3370
836.202	3416
836.34	3572
836.478	3610
836.615	3568
836.753	3614
836.891	3671
837.029	3610
837.167	3603
837.305	3545
837.443	3564
837.58	3557
837.718	3618
837.856	3545
837.993	3526
838.131	3618
838.269	3584
838.406	3599
838.544	3519
838.681	3519
838.819	3450
838.956	3397
839.094	3412
839.231	3473
839.369	3572
839.506	3717
839.643	3629
839.781	3561
839.918	3500
840.055	3523
840.193	3523
840.33	3561
840.467	3549
840.604	3652
840.742	3827
840.879	3553
841.016	3652
841.153	3614
841.29	3755
841.427	3770
841.564	3732
841.701	3747
841.838	3671
841.975	3671
842.112	3732
842.249	3656
842.385	3652
842.522	3835
842.659	3720
842.796	3694
842.933	3755
843.069	3709
843.206	3755
843.343	3808
843.479	3781
843.616	3831
843.752	3709
843.889	3724
844.025	3880
844.162	3675
844.298	3846
844.435	3789
844.571	3793
844.708	3922
844.844	3972
844.98	4006
845.117	3975
845.253	3945
845.389	3930
845.525	3964
845.661	3998
845.798	3945
845.934	3968
846.07	3941
846.206	4055
846.342	4173
846.478	4090
846.614	3987
846.75	3934
846.886	3960
847.022	4048
847.158	3991
847.294	4029
847.429	4021
847.565	3991
847.701	4242
847.837	3911
847.972	3857
848.108	4017
848.244	3964
848.379	3888
848.515	3865
848.65	3911
848.786	3800
848.921	3892
849.057	3949
849.192	3964
849.328	3930
849.463	3922
849.598	3884
849.734	3854
849.869	3854
850.004	3766
850.14	3857
850.275	3785
850.41	3759
850.545	3743
850.68	3778
850.815	3816
850.95	3835
851.085	3949
851.22	3888
851.355	3835
851.49	3838
851.625	3793
851.76	3797
851.895	3743
852.03	3709
852.165	3827
852.299	3865
852.434	3896
852.569	3884
852.703	3873
852.838	3972
852.973	4044
853.107	3987
853.242	3926
853.376	3892
853.511	3793
853.645	3865
853.78	3972
853.914	3922
854.048	3903
854.183	3911
854.317	4021
854.451	4105
854.585	3983
854.72	3953
854.854	4059
854.988	3926
855.122	3998
855.256	3941
855.39	4036
855.524	4082
855.658	4139
855.792	4124
855.926	4135
856.06	4188
856.194	4249
856.327	4196
856.461	4162
856.595	4173
856.729	4181
856.862	4238
856.996	4261
857.13	4310
857.263	4417
857.397	4352
857.53	4333
857.664	4363
857.797	4417
857.931	4443
858.064	4443
858.197	4436
858.331	4413
858.464	4409
858.597	4394
858.731	4443
858.864	4451
858.997	4455
859.13	4489
859.263	4538
859.396	4584
859.529	4550
859.662	4538
859.795	4542
859.928	4603
860.061	4736
860.194	4782
860.327	4641
860.46	4653
860.592	4786
860.725	4801
860.858	4790
860.99	4729
861.123	4729
861.256	4683
861.388	4771
861.521	5501
861.653	4736
861.786	4721
861.918	4790
862.05	4805
862.183	4847
862.315	4908
862.447	4896
862.58	4839
862.712	4801
862.844	4820
862.976	4889
863.108	4870
863.24	5296
863.372	4900
863.504	4908
863.636	4930
863.768	5006
863.9	5010
864.032	4946
864.164	4972
864.296	5056
864.428	5090
864.559	5098
864.691	5170
864.823	5136
864.954	5094
865.086	5143
865.217	5136
865.349	5121
865.48	5227
865.612	5170
865.743	5265
865.875	5231
866.006	5147
866.137	5269
866.269	5246
866.4	5250
866.531	5273
866.662	5185
866.793	5216
866.924	5292
867.055	5383
867.186	5349
867.317	5296
867.448	5334
867.579	5345
867.71	5421
867.841	5372
867.972	5459
868.103	5471
868.233	5505
868.364	5493
868.495	5573
868.625	5649
868.756	5786
868.886	5657
869.017	5718
869.147	5916
869.278	5844
869.408	5859
869.539	5851
869.669	5927
869.799	5923
869.929	5950
870.06	6034
870.19	6197
870.32	6228
870.45	6285
870.58	6395
870.71	6414
870.84	6445
870.97	6460
871.1	6460
871.23	6681
871.36	6669
871.489	6730
871.619	6730
871.749	6814
871.879	6871
872.008	7031
872.138	6981
872.267	6993
872.397	6970
872.526	7042
872.656	7031
872.785	7228
872.915	7362
873.044	7487
873.173	7578
873.303	7658
873.432	7818
873.561	7913
873.69	8035
873.819	7982
873.948	8176
874.077	8290
874.206	8309
874.335	8438
874.464	8610
874.593	8861
874.722	8975
874.851	9077
874.979	9237
875.108	9401
875.237	9466
875.365	9507
875.494	9595
875.623	9770
875.751	9827
875.88	10013
876.008	10128
876.136	10303
876.265	10512
876.393	10656
876.521	10736
876.65	10839
876.778	10866
876.906	10927
877.034	10949
877.162	11124
877.29	11261
877.418	11379
877.546	11368
877.674	11417
877.802	11497
877.93	11528
878.058	11573
878.185	11611
878.313	11649
878.441	11790
878.568	11668
878.696	11775
878.824	11935
878.951	11912
879.079	12106
879.206	12140
879.333	12072
879.461	12034
879.588	12072
879.715	12114
879.842	12190
879.97	12022
880.097	11847
880.224	11950
880.351	11866
880.478	11863
880.605	11893
880.732	11840
880.859	12034
880.986	11790
881.112	11863
881.239	11764
881.366	11646
881.493	11600
881.619	11551
881.746	11592
881.872	11505
881.999	11577
882.125	11459
882.252	11543
882.378	11471
882.505	11543
882.631	11372
882.757	11326
882.883	11356
883.01	11269
883.136	11265
883.262	11166
883.388	11155
883.514	11284
883.64	11162
883.766	11143
883.892	10968
884.018	11029
884.143	11079
884.269	11170
884.395	10850
884.52	10759
884.646	10797
884.772	10721
884.897	10710
885.023	10706
885.148	10752
885.274	10736
885.399	10725
885.524	10641
885.65	10554
885.775	10580
885.9	10569
886.025	10615
886.15	10497
886.275	10459
886.4	10421
886.525	10474
886.65	10405
886.775	10390
886.9	10478
887.025	10474
887.149	10356
887.274	10257
887.399	10177
887.523	10234
887.648	10090
887.773	10120
887.897	10234
888.021	10215
888.146	10185
888.27	10280
888.395	10200
888.519	10166
888.643	10181
888.767	10177
888.891	10112
889.015	10059
889.139	9987
889.263	9998
889.387	10204
889.511	10120
889.635	10059
889.759	9994
889.883	10093
890.006	10040
890.13	10078
890.254	9991
890.377	9975
890.501	9835
890.624	9831
890.748	9907
890.871	9835
890.995	9774
891.118	9720
891.241	9819
891.364	9755
891.488	9812
891.611	9743
891.734	9755
891.857	9778
891.98	9774
892.103	9823
892.226	9701
892.349	9701
892.471	9519
892.594	9519
892.717	9682
892.839	9641
892.962	9606
893.085	9652
893.207	9542
893.33	9519
893.452	9557
893.575	9720
893.697	9564
893.819	9705
893.941	9667
894.064	9618
894.186	9447
894.308	9473
894.43	9629
894.552	9599
894.674	9496
894.796	9447
894.918	9389
895.04	9378
895.161	9412
895.283	9291
895.405	9237
895.526	9340
895.648	9279
895.769	9268
895.891	9256
896.012	9287
896.134	9214
896.255	9207
896.376	9119
896.498	9157
896.619	9081
896.74	9097
896.861	9081
896.982	9287
897.103	9306
897.224	9127
897.345	9093
897.466	8963
897.587	9097
897.708	9116
897.828	9066
897.949	8967
898.07	8944
898.19	8929
898.311	9017
898.431	8914
898.552	9009
898.672	9001
898.792	8952
898.913	8998
899.033	8807
899.153	8762
899.273	8720
899.393	8720
899.513	8693
899.633	8727
899.753	8781
899.873	8739
899.993	8785
900.113	8693
900.232	8758
900.352	8701
900.472	8651
900.591	8499
900.711	8598
900.83	8492
900.95	8610
901.069	8731
901.189	8526
901.308	8434
901.427	8461
901.546	8457
901.665	8461
901.784	8503
901.904	8396
902.023	8366
902.141	8259
902.26	8282
902.379	8381
902.498	8153
902.617	8221
902.735	8298
902.854	8286
902.973	8259
903.091	8126
903.21	8115
903.328	8149
903.446	8115
903.565	8142
903.683	8100
903.801	8134
903.919	8073
904.038	8058
904.156	8088
904.274	8161
904.392	7932
904.51	8012
904.627	8024
904.745	8088
904.863	8054
904.981	7970
905.098	7856
905.216	7864
905.334	7868
905.451	7856
905.569	7849
905.686	7928
905.803	7925
905.921	7746
906.038	7917
906.155	7845
906.272	7727
906.389	7719
906.506	7658
906.623	7670
906.74	7632
906.857	7632
906.974	7575
907.091	7685
907.208	7693
907.324	7586
907.441	7590
907.557	7453
907.674	7499
907.79	7502
907.907	7422
908.023	7464
908.139	7441
908.256	7369
908.372	7354
908.488	7419
908.604	7320
908.72	7244
908.836	7263
908.952	7266
909.068	7251
909.184	7324
909.3	7259
909.415	7339
909.531	7312
909.647	7126
909.762	7095
909.878	7107
909.993	7152
910.108	7133
910.224	7000
910.339	7175
910.454	7027
910.57	6973
910.685	7008
910.8	7168
910.915	7084
911.03	7088
911.145	6970
911.259	6882
911.374	6924
911.489	6837
911.604	6829
911.718	6734
911.833	6734
911.947	6593
912.062	6563
912.176	6684
912.291	6730
912.405	6730
912.519	6783
912.633	6856
912.748	6741
912.862	6684
912.976	6635
913.09	6547
913.204	6654
913.318	6608
913.431	6654
913.545	6616
913.659	6722
913.772	6734
913.886	6582
914	6547
914.113	6620
914.226	6665
914.34	6574
914.453	6563
914.566	6620
914.68	6528
914.793	6513
914.906	6418
915.019	6399
915.132	6388
915.245	6448
915.358	6433
915.47	6376
915.583	6426
915.696	6494
915.809	6547
915.921	6566
916.034	6486
916.146	6426
916.259	6452
916.371	6433
916.483	6506
916.595	6376
916.708	6441
916.82	6452
916.932	6357
917.044	6426
917.156	6445
917.268	6372
917.38	6372
917.491	6277
917.603	6346
917.715	6353
917.826	6418
917.938	6372
918.049	6232
918.161	6403
918.272	6426
918.384	6437
918.495	6380
918.606	6251
918.717	6228
918.828	6308
918.939	6258
919.05	6232
919.161	6270
919.272	6182
919.383	6125
919.494	6277
919.604	6418
919.715	6346
919.826	6273
919.936	6308
920.047	6338
920.157	6243
920.267	6479
920.378	6334
920.488	6281
920.598	6502
920.708	6544
920.818	6490
920.928	6479
921.038	6616
921.148	6547
921.258	6418
921.368	6315
921.477	6155
921.587	6140
921.697	6125
921.806	6201
921.916	6072
922.025	5984
922.134	5988
922.244	5889
922.353	5942
922.462	5821
922.571	5798
922.68	5745
922.789	5684
922.898	5684
923.007	5710
923.116	5710
923.224	5657
923.333	5676
923.442	5573
923.55	5554
923.659	5642
923.767	5634
923.876	5543
923.984	5611
924.092	5543
924.201	5558
924.309	5554
924.417	5573
924.525	5463
924.633	5444
924.741	6129
924.849	5402
924.956	5467
925.064	5372
925.172	5322
925.279	5376
925.387	5372
925.494	5307
925.602	5455
925.709	5402
925.816	5296
925.924	5383
926.031	5391
926.138	5280
926.245	5357
926.352	5269
926.459	5349
926.566	5406
926.673	5220
926.779	5094
926.886	5102
926.993	5094
927.099	5022
927.206	4949
927.312	4919
927.419	4991
927.525	5010
927.631	5029
927.737	4915
927.843	4927
927.95	4828
928.056	4870
928.162	4835
928.267	4877
928.373	5326
928.479	4866
928.585	4706
928.69	4809
928.796	4812
928.901	4706
929.007	4649
929.112	4675
929.218	4683
929.323	4641
929.428	4580
929.533	4656
929.638	4554
929.743	4573
929.848	4558
929.953	4535
930.058	4485
930.163	4314
930.267	4402
930.372	4432
930.477	4337
930.581	4474
930.685	4390
930.79	4322
930.894	4276
930.998	4227
931.103	4356
931.207	4162
931.311	4120
931.415	4082
931.519	3937
931.623	3945
