Data from glass_V78500241_978.txt Node
Date: Wed Sep 01 19:21:16 CST 2021
User: usil
Spectrometer: V785-0024
Trigger mode: 0
Integration Time (sec): 4.000000E-1
Scans to average: 1
Nonlinearity correction enabled: false
Boxcar width: 0
Storing dark spectrum: false
XAxis mode: Wavelengths
Number of Pixels in Spectrum: 1024
>>>>>Begin Spectral Data<<<<<
801.071	3728
801.214	3728
801.356	3717
801.499	3766
801.641	3709
801.783	3812
801.926	3857
802.068	3861
802.211	3869
802.353	3873
802.496	3823
802.638	3888
802.78	3922
802.923	3934
803.065	3899
803.208	3888
803.35	3880
803.492	3911
803.635	3907
803.777	3816
803.919	3956
804.061	4120
804.204	3987
804.346	3991
804.488	3911
804.63	4032
804.773	3964
804.915	4074
805.057	4158
805.199	4025
805.341	4071
805.483	4116
805.626	4154
805.768	4112
805.91	4261
806.052	4227
806.194	4196
806.336	4367
806.478	4291
806.62	4169
806.762	4211
806.904	4287
807.046	4405
807.188	4265
807.33	4200
807.472	4234
807.614	4192
807.756	4360
807.898	4219
808.04	4219
808.182	4314
808.324	4371
808.465	4402
808.607	4451
808.749	4489
808.891	4470
809.033	4512
809.174	4386
809.316	4284
809.458	4230
809.6	4162
809.741	4173
809.883	4166
810.025	4246
810.166	4238
810.308	4238
810.45	4280
810.591	4246
810.733	4284
810.875	4527
811.016	4831
811.158	5109
811.299	5303
811.441	5269
811.582	5117
811.724	4694
811.865	4497
812.007	4497
812.148	4497
812.29	4413
812.431	4455
812.573	4424
812.714	4409
812.855	4390
812.997	4409
813.138	4558
813.279	4436
813.421	4405
813.562	4348
813.703	4367
813.845	4352
813.986	4265
814.127	4265
814.268	4272
814.41	4306
814.551	4249
814.692	4303
814.833	4253
814.974	4322
815.115	4352
815.256	4230
815.397	4242
815.539	4257
815.68	4223
815.821	4249
815.962	4291
816.103	4322
816.244	4230
816.385	4249
816.526	4272
816.666	4246
816.807	4101
816.948	4234
817.089	4200
817.23	4162
817.371	4063
817.512	4010
817.653	4116
817.793	4032
817.934	4040
818.075	4093
818.216	4093
818.356	4040
818.497	3960
818.638	3964
818.778	3903
818.919	3907
819.06	3873
819.2	3953
819.341	3880
819.481	3823
819.622	3907
819.762	4036
819.903	3949
820.043	3876
820.184	3884
820.324	3838
820.465	3899
820.605	3861
820.746	3941
820.886	3789
821.026	3899
821.167	3960
821.307	3998
821.447	4013
821.588	3975
821.728	3937
821.868	3968
822.008	3873
822.149	3915
822.289	3941
822.429	3865
822.569	3789
822.709	3808
822.849	3720
822.99	3720
823.13	3770
823.27	3831
823.41	3709
823.55	3732
823.69	3717
823.83	3751
823.97	3686
824.11	3606
824.25	3610
824.389	3614
824.529	3690
824.669	3622
824.809	3705
824.949	3766
825.089	3732
825.228	3732
825.368	3557
825.508	3549
825.648	3599
825.787	3610
825.927	3603
826.067	3629
826.206	3667
826.346	3766
826.485	3838
826.625	3888
826.765	3949
826.904	3850
827.044	3587
827.183	3561
827.323	3454
827.462	3504
827.601	3447
827.741	3416
827.88	3477
828.02	3389
828.159	3450
828.298	3534
828.437	3526
828.577	3469
828.716	3606
828.855	3488
828.994	3374
829.134	3367
829.273	3348
829.412	3336
829.551	3359
829.69	3409
829.829	3462
829.968	3507
830.107	3439
830.246	3412
830.385	3420
830.524	3348
830.663	3283
830.802	3268
830.941	3230
831.08	3211
831.219	3294
831.357	3214
831.496	3431
831.635	3226
831.774	3211
831.913	3184
832.051	3180
832.19	3157
832.329	3260
832.467	3138
832.606	3074
832.744	3222
832.883	3173
833.022	3203
833.16	3245
833.299	3268
833.437	3355
833.576	3409
833.714	3420
833.852	3458
833.991	3447
834.129	3439
834.267	3431
834.406	3439
834.544	3409
834.682	3412
834.821	3428
834.959	3591
835.097	3454
835.235	3549
835.373	3507
835.511	3504
835.65	3481
835.788	3443
835.926	3424
836.064	3401
836.202	3412
836.34	3591
836.478	3629
836.615	3580
836.753	3606
836.891	3686
837.029	3603
837.167	3591
837.305	3564
837.443	3561
837.58	3507
837.718	3614
837.856	3553
837.993	3523
838.131	3625
838.269	3591
838.406	3549
838.544	3572
838.681	3458
838.819	3496
838.956	3382
839.094	3382
839.231	3462
839.369	3515
839.506	3717
839.643	3667
839.781	3500
839.918	3462
840.055	3549
840.193	3553
840.33	3580
840.467	3599
840.604	3595
840.742	3793
840.879	3538
841.016	3591
841.153	3606
841.29	3736
841.427	3717
841.564	3732
841.701	3751
841.838	3713
841.975	3709
842.112	3762
842.249	3641
842.385	3625
842.522	3823
842.659	3690
842.796	3648
842.933	3728
843.069	3679
843.206	3698
843.343	3857
843.479	3804
843.616	3857
843.752	3663
843.889	3652
844.025	3861
844.162	3717
844.298	3861
844.435	3797
844.571	3789
844.708	3960
844.844	4048
844.98	4013
845.117	4002
845.253	3930
845.389	3911
845.525	3987
845.661	3941
845.798	3945
845.934	4032
846.07	3945
846.206	4090
846.342	4154
846.478	4048
846.614	3979
846.75	3915
846.886	3911
847.022	4044
847.158	3991
847.294	4032
847.429	4021
847.565	3975
847.701	4284
847.837	3876
847.972	3865
848.108	3983
848.244	3941
848.379	3857
848.515	3915
848.65	3781
848.786	3812
848.921	3880
849.057	3926
849.192	3956
849.328	3949
849.463	3884
849.598	3915
849.734	3892
849.869	3800
850.004	3781
850.14	3846
850.275	3770
850.41	3751
850.545	3804
850.68	3774
850.815	3823
850.95	3793
851.085	3998
851.22	3865
851.355	3835
851.49	3774
851.625	3804
851.76	3816
851.895	3793
852.03	3724
852.165	3797
852.299	3873
852.434	3945
852.569	3842
852.703	3857
852.838	3926
852.973	3994
853.107	4010
853.242	3937
853.376	3865
853.511	3800
853.645	3869
853.78	3987
853.914	3899
854.048	3876
854.183	3937
854.317	3922
854.451	4097
854.585	3983
854.72	3941
854.854	4086
854.988	3934
855.122	4032
855.256	3903
855.39	3998
855.524	4105
855.658	4128
855.792	4147
855.926	4147
856.06	4181
856.194	4238
856.327	4162
856.461	4124
856.595	4166
856.729	4162
856.862	4306
856.996	4261
857.13	4306
857.263	4276
857.397	4367
857.53	4276
857.664	4314
857.797	4402
857.931	4428
858.064	4383
858.197	4474
858.331	4466
858.464	4394
858.597	4375
858.731	4421
858.864	4489
858.997	4462
859.13	4516
859.263	4554
859.396	4588
859.529	4527
859.662	4516
859.795	4554
859.928	4660
860.061	4736
860.194	4733
860.327	4706
860.46	4664
860.592	4759
860.725	4744
860.858	4748
860.99	4634
861.123	4702
861.256	4717
861.388	4778
861.521	5482
861.653	4767
861.786	4691
861.918	4774
862.05	4809
862.183	4866
862.315	4900
862.447	4961
862.58	4873
862.712	4812
862.844	4809
862.976	4889
863.108	4892
863.24	5280
863.372	4847
863.504	4915
863.636	4923
863.768	4965
863.9	5003
864.032	4927
864.164	4961
864.296	5056
864.428	5102
864.559	5098
864.691	5178
864.823	5083
864.954	5170
865.086	5151
865.217	5166
865.349	5117
865.48	5174
865.612	5220
865.743	5288
865.875	5227
866.006	5155
866.137	5204
866.269	5254
866.4	5250
866.531	5174
866.662	5227
866.793	5216
866.924	5299
867.055	5345
867.186	5368
867.317	5303
867.448	5334
867.579	5387
867.71	5341
867.841	5383
867.972	5455
868.103	5471
868.233	5471
868.364	5543
868.495	5558
868.625	5688
868.756	5802
868.886	5646
869.017	5767
869.147	5855
869.278	5847
869.408	5836
869.539	5851
869.669	5916
869.799	5893
869.929	5977
870.06	6003
870.19	6216
870.32	6220
870.45	6296
870.58	6308
870.71	6456
870.84	6429
870.97	6380
871.1	6494
871.23	6650
871.36	6703
871.489	6650
871.619	6764
871.749	6840
871.879	6863
872.008	7034
872.138	6939
872.267	7008
872.397	7038
872.526	6958
872.656	7129
872.785	7187
872.915	7384
873.044	7495
873.173	7586
873.303	7696
873.432	7780
873.561	7875
873.69	7890
873.819	7970
873.948	8195
874.077	8237
874.206	8362
874.335	8438
874.464	8720
874.593	8899
874.722	8918
874.851	9214
874.979	9230
875.108	9416
875.237	9473
875.365	9530
875.494	9671
875.623	9808
875.751	9789
875.88	9991
876.008	10238
876.136	10291
876.265	10394
876.393	10759
876.521	10759
876.65	10797
876.778	10908
876.906	10866
877.034	10961
877.162	11155
877.29	11162
877.418	11261
877.546	11334
877.674	11414
877.802	11501
877.93	11486
878.058	11604
878.185	11581
878.313	11718
878.441	11813
878.568	11707
878.696	11851
878.824	11885
878.951	12007
879.079	12038
879.206	12102
879.333	12057
879.461	11961
879.588	12148
879.715	12098
879.842	12209
879.97	12110
880.097	11878
880.224	11863
880.351	11935
880.478	11920
880.605	11821
880.732	11828
880.859	12026
880.986	11802
881.112	11870
881.239	11718
881.366	11676
881.493	11493
881.619	11516
881.746	11577
881.872	11543
881.999	11501
882.125	11478
882.252	11596
882.378	11592
882.505	11539
882.631	11345
882.757	11269
882.883	11326
883.01	11284
883.136	11269
883.262	11212
883.388	11155
883.514	11284
883.64	11109
883.766	11132
883.892	11025
884.018	11006
884.143	11041
884.269	11128
884.395	10885
884.52	10809
884.646	10752
884.772	10683
884.897	10717
885.023	10694
885.148	10710
885.274	10797
885.399	10714
885.524	10672
885.65	10656
885.775	10649
885.9	10596
886.025	10634
886.15	10542
886.275	10459
886.4	10424
886.525	10424
886.65	10440
886.775	10356
886.9	10569
887.025	10504
887.149	10432
887.274	10303
887.399	10158
887.523	10074
887.648	10078
887.773	10177
887.897	10227
888.021	10303
888.146	10135
888.27	10303
888.395	10219
888.519	10181
888.643	10211
888.767	10238
888.891	10116
889.015	10093
889.139	10086
889.263	9972
889.387	10124
889.511	10067
889.635	9941
889.759	9964
889.883	9983
890.006	10059
890.13	10147
890.254	9964
890.377	9949
890.501	9869
890.624	9835
890.748	9823
890.871	9812
890.995	9808
891.118	9759
891.241	9770
891.364	9781
891.488	9800
891.611	9736
891.734	9728
891.857	9751
891.98	9755
892.103	9774
892.226	9743
892.349	9660
892.471	9530
892.594	9511
892.717	9663
892.839	9614
892.962	9629
893.085	9644
893.207	9618
893.33	9515
893.452	9542
893.575	9606
893.697	9416
893.819	9584
893.941	9694
894.064	9603
894.186	9504
894.308	9378
894.43	9523
894.552	9584
894.674	9530
894.796	9317
894.918	9363
895.04	9321
895.161	9340
895.283	9332
895.405	9291
895.526	9298
895.648	9207
895.769	9279
895.891	9249
896.012	9245
896.134	9161
896.255	9245
896.376	9138
896.498	9119
896.619	9192
896.74	9085
896.861	9119
896.982	9245
897.103	9302
897.224	9135
897.345	9127
897.466	9020
897.587	9074
897.708	9100
897.828	9062
897.949	8971
898.07	8902
898.19	8929
898.311	8986
898.431	8918
898.552	8952
898.672	8982
898.792	8921
898.913	8921
899.033	8861
899.153	8735
899.273	8663
899.393	8781
899.513	8727
899.633	8705
899.753	8800
899.873	8720
899.993	8758
900.113	8739
900.232	8766
900.352	8606
900.472	8594
900.591	8587
900.711	8625
900.83	8556
900.95	8636
901.069	8670
901.189	8621
901.308	8431
901.427	8412
901.546	8492
901.665	8484
901.784	8533
901.904	8396
902.023	8393
902.141	8180
902.26	8187
902.379	8343
902.498	8240
902.617	8263
902.735	8294
902.854	8294
902.973	8252
903.091	8107
903.21	8153
903.328	8145
903.446	8142
903.565	8153
903.683	8145
903.801	8088
903.919	8183
904.038	8149
904.156	7978
904.274	8119
904.392	8054
904.51	8024
904.627	8058
904.745	8077
904.863	8046
904.981	7868
905.098	7898
905.216	7913
905.334	7921
905.451	7917
905.569	7814
905.686	7894
905.803	7852
905.921	7753
906.038	7906
906.155	7849
906.272	7731
906.389	7708
906.506	7689
906.623	7628
906.74	7601
906.857	7578
906.974	7533
907.091	7689
907.208	7723
907.324	7575
907.441	7571
907.557	7483
907.674	7472
907.79	7396
907.907	7441
908.023	7415
908.139	7472
908.256	7407
908.372	7400
908.488	7324
908.604	7308
908.72	7236
908.836	7331
908.952	7247
909.068	7293
909.184	7274
909.3	7225
909.415	7274
909.531	7324
909.647	7129
909.762	7088
909.878	7057
909.993	7149
910.108	7160
910.224	7137
910.339	7084
910.454	7031
910.57	7015
910.685	6928
910.8	7171
910.915	7110
911.03	7076
911.145	6935
911.259	6806
911.374	6920
911.489	6837
911.604	6791
911.718	6753
911.833	6772
911.947	6658
912.062	6593
912.176	6741
912.291	6734
912.405	6692
912.519	6814
912.633	6859
912.748	6738
912.862	6772
912.976	6639
913.09	6532
913.204	6623
913.318	6623
913.431	6658
913.545	6681
913.659	6760
913.772	6662
913.886	6532
914	6547
914.113	6650
914.226	6642
914.34	6711
914.453	6532
914.566	6650
914.68	6551
914.793	6486
914.906	6456
915.019	6452
915.132	6380
915.245	6464
915.358	6471
915.47	6445
915.583	6467
915.696	6490
915.809	6544
915.921	6593
916.034	6441
916.146	6361
916.259	6429
916.371	6460
916.483	6467
916.595	6403
916.708	6418
916.82	6456
916.932	6338
917.044	6414
917.156	6437
917.268	6353
917.38	6365
917.491	6357
917.603	6353
917.715	6388
917.826	6456
917.938	6327
918.049	6266
918.161	6357
918.272	6452
918.384	6441
918.495	6391
918.606	6254
918.717	6209
918.828	6258
918.939	6342
919.05	6235
919.161	6262
919.272	6194
919.383	6155
919.494	6304
919.604	6437
919.715	6270
919.826	6201
919.936	6300
920.047	6346
920.157	6338
920.267	6513
920.378	6338
920.488	6342
920.598	6445
920.708	6525
920.818	6490
920.928	6486
921.038	6616
921.148	6574
921.258	6346
921.368	6311
921.477	6201
921.587	6163
921.697	6087
921.806	6254
921.916	6133
922.025	5980
922.134	5889
922.244	5901
922.353	5992
922.462	5847
922.571	5779
922.68	5794
922.789	5703
922.898	5718
923.007	5623
923.116	5726
923.224	5703
923.333	5668
923.442	5592
923.55	5554
923.659	5608
923.767	5688
923.876	5535
923.984	5676
924.092	5512
924.201	5581
924.309	5490
924.417	5592
924.525	5482
924.633	5543
924.741	6102
924.849	5379
924.956	5455
925.064	5406
925.172	5337
925.279	5296
925.387	5357
925.494	5292
925.602	5444
925.709	5398
925.816	5315
925.924	5288
926.031	5345
926.138	5299
926.245	5322
926.352	5239
926.459	5318
926.566	5379
926.673	5223
926.779	5166
926.886	5185
926.993	5025
927.099	5025
927.206	4949
927.312	4934
927.419	5094
927.525	4980
927.631	4927
927.737	4896
927.843	4881
927.95	4793
928.056	4839
928.162	4847
928.267	4866
928.373	5360
928.479	4847
928.585	4714
928.69	4843
928.796	4801
928.901	4740
929.007	4599
929.112	4668
929.218	4645
929.323	4573
929.428	4531
929.533	4694
929.638	4489
929.743	4558
929.848	4611
929.953	4512
930.058	4440
930.163	4344
930.267	4341
930.372	4466
930.477	4318
930.581	4440
930.685	4367
930.79	4261
930.894	4318
930.998	4272
931.103	4443
931.207	4116
931.311	4067
931.415	4029
931.519	3953
931.623	3926
