Data from glass_V78500241_48.txt Node
Date: Wed Sep 01 19:14:49 CST 2021
User: usil
Spectrometer: V785-0024
Trigger mode: 0
Integration Time (sec): 4.000000E-1
Scans to average: 1
Nonlinearity correction enabled: false
Boxcar width: 0
Storing dark spectrum: false
XAxis mode: Wavelengths
Number of Pixels in Spectrum: 1024
>>>>>Begin Spectral Data<<<<<
801.071	3717
801.214	3793
801.356	3740
801.499	3736
801.641	3713
801.783	3816
801.926	3869
802.068	3827
802.211	3854
802.353	3918
802.496	3835
802.638	3907
802.78	3873
802.923	3934
803.065	3899
803.208	3884
803.35	3880
803.492	3892
803.635	3903
803.777	3797
803.919	3876
804.061	4181
804.204	4013
804.346	4025
804.488	3869
804.63	4090
804.773	3994
804.915	4051
805.057	4173
805.199	4063
805.341	4097
805.483	4158
805.626	4162
805.768	4150
805.91	4219
806.052	4238
806.194	4253
806.336	4375
806.478	4261
806.62	4200
806.762	4177
806.904	4295
807.046	4402
807.188	4246
807.33	4166
807.472	4249
807.614	4196
807.756	4303
807.898	4215
808.04	4230
808.182	4322
808.324	4344
808.465	4413
808.607	4466
808.749	4516
808.891	4478
809.033	4569
809.174	4432
809.316	4291
809.458	4306
809.6	4215
809.741	4169
809.883	4169
810.025	4185
810.166	4223
810.308	4238
810.45	4242
810.591	4223
810.733	4325
810.875	4512
811.016	4892
811.158	5128
811.299	5277
811.441	5273
811.582	5086
811.724	4706
811.865	4470
812.007	4474
812.148	4432
812.29	4398
812.431	4421
812.573	4424
812.714	4383
812.855	4432
812.997	4417
813.138	4550
813.279	4428
813.421	4383
813.562	4383
813.703	4352
813.845	4303
813.986	4318
814.127	4249
814.268	4257
814.41	4295
814.551	4268
814.692	4375
814.833	4325
814.974	4322
815.115	4329
815.256	4272
815.397	4246
815.539	4242
815.68	4188
815.821	4261
815.962	4348
816.103	4284
816.244	4253
816.385	4238
816.526	4303
816.666	4200
816.807	4120
816.948	4173
817.089	4188
817.23	4112
817.371	4059
817.512	4101
817.653	4120
817.793	4055
817.934	4063
818.075	4105
818.216	4063
818.356	4101
818.497	3983
818.638	3918
818.778	3972
818.919	3899
819.06	3873
819.2	3934
819.341	3876
819.481	3854
819.622	3918
819.762	3983
819.903	3987
820.043	3880
820.184	3838
820.324	3854
820.465	3873
820.605	3827
820.746	3907
820.886	3774
821.026	3953
821.167	3907
821.307	3994
821.447	3991
821.588	3956
821.728	3945
821.868	3987
822.008	3907
822.149	3960
822.289	3903
822.429	3823
822.569	3808
822.709	3819
822.849	3690
822.99	3747
823.13	3759
823.27	3762
823.41	3720
823.55	3751
823.69	3770
823.83	3774
823.97	3694
824.11	3663
824.25	3618
824.389	3652
824.529	3717
824.669	3622
824.809	3713
824.949	3781
825.089	3755
825.228	3728
825.368	3580
825.508	3633
825.648	3610
825.787	3629
825.927	3652
826.067	3625
826.206	3667
826.346	3797
826.485	3869
826.625	3899
826.765	3983
826.904	3842
827.044	3648
827.183	3492
827.323	3435
827.462	3496
827.601	3473
827.741	3431
827.88	3450
828.02	3393
828.159	3454
828.298	3481
828.437	3515
828.577	3447
828.716	3637
828.855	3511
828.994	3424
829.134	3401
829.273	3405
829.412	3374
829.551	3351
829.69	3416
829.829	3454
829.968	3542
830.107	3412
830.246	3473
830.385	3386
830.524	3409
830.663	3298
830.802	3275
830.941	3203
831.08	3237
831.219	3253
831.357	3268
831.496	3393
831.635	3249
831.774	3233
831.913	3207
832.051	3180
832.19	3146
832.329	3188
832.467	3138
832.606	3112
832.744	3211
832.883	3180
833.022	3203
833.16	3260
833.299	3298
833.437	3363
833.576	3374
833.714	3431
833.852	3439
833.991	3473
834.129	3481
834.267	3431
834.406	3397
834.544	3462
834.682	3450
834.821	3397
834.959	3595
835.097	3462
835.235	3553
835.373	3504
835.511	3496
835.65	3450
835.788	3507
835.926	3420
836.064	3378
836.202	3397
836.34	3542
836.478	3610
836.615	3557
836.753	3614
836.891	3686
837.029	3679
837.167	3564
837.305	3576
837.443	3568
837.58	3526
837.718	3603
837.856	3614
837.993	3549
838.131	3591
838.269	3576
838.406	3553
838.544	3603
838.681	3492
838.819	3500
838.956	3405
839.094	3389
839.231	3450
839.369	3526
839.506	3743
839.643	3663
839.781	3530
839.918	3462
840.055	3549
840.193	3511
840.33	3610
840.467	3561
840.604	3599
840.742	3816
840.879	3622
841.016	3591
841.153	3629
841.29	3732
841.427	3736
841.564	3743
841.701	3732
841.838	3701
841.975	3705
842.112	3705
842.249	3652
842.385	3663
842.522	3861
842.659	3709
842.796	3671
842.933	3728
843.069	3774
843.206	3732
843.343	3854
843.479	3797
843.616	3831
843.752	3663
843.889	3682
844.025	3884
844.162	3701
844.298	3869
844.435	3835
844.571	3812
844.708	3926
844.844	3975
844.98	3960
845.117	4051
845.253	3975
845.389	3907
845.525	3979
845.661	3998
845.798	3953
845.934	3994
846.07	3964
846.206	4109
846.342	4128
846.478	4082
846.614	4017
846.75	3960
846.886	3945
847.022	4071
847.158	4029
847.294	3991
847.429	4074
847.565	4040
847.701	4280
847.837	3854
847.972	3861
848.108	4021
848.244	3960
848.379	3884
848.515	3835
848.65	3838
848.786	3823
848.921	3915
849.057	3964
849.192	3960
849.328	3934
849.463	3972
849.598	3903
849.734	3899
849.869	3785
850.004	3793
850.14	3816
850.275	3838
850.41	3747
850.545	3785
850.68	3785
850.815	3789
850.95	3838
851.085	3926
851.22	3892
851.355	3842
851.49	3831
851.625	3800
851.76	3823
851.895	3755
852.03	3770
852.165	3854
852.299	3865
852.434	3918
852.569	3884
852.703	3884
852.838	3960
852.973	4002
853.107	3968
853.242	3937
853.376	3876
853.511	3819
853.645	3823
853.78	4021
853.914	3926
854.048	3926
854.183	3922
854.317	3960
854.451	4086
854.585	3960
854.72	3983
854.854	4071
854.988	3968
855.122	4002
855.256	3926
855.39	4048
855.524	4128
855.658	4162
855.792	4120
855.926	4147
856.06	4188
856.194	4215
856.327	4147
856.461	4147
856.595	4169
856.729	4238
856.862	4333
856.996	4287
857.13	4284
857.263	4394
857.397	4360
857.53	4306
857.664	4386
857.797	4405
857.931	4489
858.064	4413
858.197	4485
858.331	4383
858.464	4481
858.597	4394
858.731	4443
858.864	4493
858.997	4440
859.13	4497
859.263	4565
859.396	4607
859.529	4493
859.662	4535
859.795	4519
859.928	4664
860.061	4691
860.194	4767
860.327	4634
860.46	4618
860.592	4710
860.725	4752
860.858	4778
860.99	4733
861.123	4660
861.256	4672
861.388	4767
861.521	5433
861.653	4733
861.786	4698
861.918	4752
862.05	4786
862.183	4828
862.315	4904
862.447	4938
862.58	4953
862.712	4809
862.844	4801
862.976	4873
863.108	4866
863.24	5246
863.372	4847
863.504	4904
863.636	4919
863.768	4972
863.9	4957
864.032	4949
864.164	4949
864.296	5067
864.428	5113
864.559	5094
864.691	5105
864.823	5155
864.954	5079
865.086	5197
865.217	5132
865.349	5159
865.48	5189
865.612	5208
865.743	5299
865.875	5269
866.006	5170
866.137	5212
866.269	5284
866.4	5277
866.531	5227
866.662	5269
866.793	5277
866.924	5307
867.055	5353
867.186	5353
867.317	5296
867.448	5315
867.579	5391
867.71	5360
867.841	5433
867.972	5478
868.103	5482
868.233	5471
868.364	5520
868.495	5577
868.625	5623
868.756	5790
868.886	5668
869.017	5794
869.147	5897
869.278	5885
869.408	5855
869.539	5836
869.669	5950
869.799	5923
869.929	6011
870.06	6045
870.19	6232
870.32	6186
870.45	6304
870.58	6372
870.71	6479
870.84	6452
870.97	6448
871.1	6475
871.23	6677
871.36	6681
871.489	6703
871.619	6753
871.749	6852
871.879	6859
872.008	7004
872.138	6977
872.267	7004
872.397	7023
872.526	7072
872.656	7114
872.785	7198
872.915	7381
873.044	7597
873.173	7616
873.303	7727
873.432	7723
873.561	7944
873.69	7993
873.819	8065
873.948	8210
874.077	8240
874.206	8370
874.335	8480
874.464	8697
874.593	8864
874.722	8906
874.851	9108
874.979	9256
875.108	9348
875.237	9488
875.365	9443
875.494	9698
875.623	9789
875.751	9899
875.88	10131
876.008	10200
876.136	10272
876.265	10649
876.393	10679
876.521	10683
876.65	10850
876.778	10911
876.906	10908
877.034	11086
877.162	11128
877.29	11193
877.418	11337
877.546	11280
877.674	11516
877.802	11410
877.93	11547
878.058	11490
878.185	11600
878.313	11726
878.441	11771
878.568	11619
878.696	11779
878.824	11931
878.951	11969
879.079	12011
879.206	12098
879.333	12060
879.461	11958
879.588	12072
879.715	12171
879.842	12239
879.97	12125
880.097	11866
880.224	11939
880.351	11885
880.478	11908
880.605	11832
880.732	11817
880.859	11942
880.986	11878
881.112	11866
881.239	11741
881.366	11630
881.493	11608
881.619	11547
881.746	11520
881.872	11551
881.999	11516
882.125	11474
882.252	11558
882.378	11501
882.505	11558
882.631	11448
882.757	11360
882.883	11429
883.01	11204
883.136	11155
883.262	11162
883.388	11064
883.514	11239
883.64	11178
883.766	11162
883.892	10877
884.018	11060
884.143	11136
884.269	11121
884.395	10919
884.52	10740
884.646	10786
884.772	10740
884.897	10615
885.023	10717
885.148	10725
885.274	10714
885.399	10714
885.524	10634
885.65	10611
885.775	10546
885.9	10535
886.025	10645
886.15	10558
886.275	10546
886.4	10390
886.525	10440
886.65	10356
886.775	10386
886.9	10466
887.025	10474
887.149	10344
887.274	10265
887.399	10162
887.523	10215
887.648	10166
887.773	10105
887.897	10223
888.021	10204
888.146	10128
888.27	10211
888.395	10154
888.519	10207
888.643	10242
888.767	10310
888.891	10131
889.015	9987
889.139	10048
889.263	9945
889.387	10048
889.511	10154
889.635	10040
889.759	10010
889.883	10071
890.006	10055
890.13	10120
890.254	9960
890.377	9930
890.501	9857
890.624	9903
890.748	9922
890.871	9850
890.995	9778
891.118	9675
891.241	9690
891.364	9804
891.488	9800
891.611	9705
891.734	9808
891.857	9800
891.98	9740
892.103	9770
892.226	9682
892.349	9618
892.471	9511
892.594	9576
892.717	9652
892.839	9610
892.962	9610
893.085	9637
893.207	9538
893.33	9576
893.452	9504
893.575	9610
893.697	9530
893.819	9618
893.941	9675
894.064	9644
894.186	9405
894.308	9389
894.43	9542
894.552	9504
894.674	9523
894.796	9393
894.918	9359
895.04	9348
895.161	9412
895.283	9405
895.405	9283
895.526	9302
895.648	9336
895.769	9264
895.891	9249
896.012	9329
896.134	9275
896.255	9241
896.376	9119
896.498	9214
896.619	9173
896.74	9077
896.861	9100
896.982	9279
897.103	9367
897.224	9188
897.345	9005
897.466	9032
897.587	8982
897.708	9142
897.828	9043
897.949	8921
898.07	8929
898.19	8906
898.311	9055
898.431	8929
898.552	8967
898.672	8963
898.792	8956
898.913	8925
899.033	8826
899.153	8815
899.273	8663
899.393	8746
899.513	8807
899.633	8796
899.753	8800
899.873	8792
899.993	8724
900.113	8727
900.232	8705
900.352	8659
900.472	8587
900.591	8583
900.711	8613
900.83	8621
900.95	8667
901.069	8670
901.189	8549
901.308	8404
901.427	8415
901.546	8488
901.665	8465
901.784	8507
901.904	8362
902.023	8385
902.141	8244
902.26	8267
902.379	8328
902.498	8240
902.617	8225
902.735	8320
902.854	8328
902.973	8294
903.091	8046
903.21	8134
903.328	8172
903.446	8145
903.565	8058
903.683	8107
903.801	8115
903.919	8100
904.038	8145
904.156	8046
904.274	8134
904.392	8062
904.51	8111
904.627	8081
904.745	8096
904.863	8130
904.981	7879
905.098	7833
905.216	7822
905.334	7887
905.451	7898
905.569	7871
905.686	7894
905.803	7970
905.921	7814
906.038	7814
906.155	7795
906.272	7784
906.389	7696
906.506	7719
906.623	7700
906.74	7666
906.857	7590
906.974	7582
907.091	7715
907.208	7772
907.324	7689
907.441	7609
907.557	7472
907.674	7480
907.79	7384
907.907	7396
908.023	7400
908.139	7445
908.256	7392
908.372	7415
908.488	7388
908.604	7274
908.72	7213
908.836	7263
908.952	7259
909.068	7305
909.184	7297
909.3	7285
909.415	7312
909.531	7301
909.647	7152
909.762	7133
909.878	7061
909.993	7183
910.108	7069
910.224	7118
910.339	7114
910.454	7050
910.57	7008
910.685	7000
910.8	7179
910.915	7126
911.03	7027
911.145	6878
911.259	6890
911.374	6894
911.489	6852
911.604	6844
911.718	6768
911.833	6741
911.947	6623
912.062	6612
912.176	6745
912.291	6711
912.405	6730
912.519	6878
912.633	6871
912.748	6795
912.862	6734
912.976	6608
913.09	6570
913.204	6585
913.318	6616
913.431	6654
913.545	6669
913.659	6726
913.772	6631
913.886	6525
914	6582
914.113	6623
914.226	6662
914.34	6608
914.453	6532
914.566	6642
914.68	6551
914.793	6525
914.906	6467
915.019	6399
915.132	6403
915.245	6414
915.358	6490
915.47	6513
915.583	6433
915.696	6494
915.809	6536
915.921	6555
916.034	6433
916.146	6445
916.259	6399
916.371	6506
916.483	6475
916.595	6464
916.708	6403
916.82	6372
916.932	6376
917.044	6403
917.156	6395
917.268	6338
917.38	6319
917.491	6311
917.603	6327
917.715	6407
917.826	6403
917.938	6342
918.049	6232
918.161	6361
918.272	6433
918.384	6502
918.495	6369
918.606	6304
918.717	6232
918.828	6346
918.939	6292
919.05	6270
919.161	6224
919.272	6129
919.383	6152
919.494	6281
919.604	6433
919.715	6350
919.826	6273
919.936	6292
920.047	6285
920.157	6308
920.267	6521
920.378	6357
920.488	6273
920.598	6490
920.708	6597
920.818	6483
920.928	6460
921.038	6642
921.148	6528
921.258	6407
921.368	6334
921.477	6247
921.587	6144
921.697	6095
921.806	6224
921.916	6072
922.025	5927
922.134	5908
922.244	5908
922.353	5973
922.462	5863
922.571	5824
922.68	5729
922.789	5718
922.898	5726
923.007	5619
923.116	5726
923.224	5699
923.333	5634
923.442	5615
923.55	5573
923.659	5619
923.767	5634
923.876	5547
923.984	5596
924.092	5551
924.201	5547
924.309	5623
924.417	5562
924.525	5493
924.633	5543
924.741	6281
924.849	5379
924.956	5497
925.064	5337
925.172	5318
925.279	5277
925.387	5360
925.494	5307
925.602	5440
925.709	5398
925.816	5292
925.924	5330
926.031	5322
926.138	5357
926.245	5372
926.352	5246
926.459	5288
926.566	5326
926.673	5212
926.779	5159
926.886	5159
926.993	5048
927.099	5048
927.206	5022
927.312	4991
927.419	5037
927.525	4987
927.631	5022
927.737	4885
927.843	4877
927.95	4793
928.056	4847
928.162	4866
928.267	4839
928.373	5315
928.479	4850
928.585	4679
928.69	4767
928.796	4816
928.901	4683
929.007	4607
929.112	4698
929.218	4577
929.323	4580
929.428	4565
929.533	4702
929.638	4508
929.743	4497
929.848	4580
929.953	4497
930.058	4421
930.163	4375
930.267	4337
930.372	4478
930.477	4280
930.581	4489
930.685	4371
930.79	4284
930.894	4268
930.998	4272
931.103	4436
931.207	4150
931.311	4082
931.415	4025
931.519	3926
931.623	4010
