Data from glass_V78500241_2518.txt Node
Date: Wed Sep 01 19:31:57 CST 2021
User: usil
Spectrometer: V785-0024
Trigger mode: 0
Integration Time (sec): 4.000000E-1
Scans to average: 1
Nonlinearity correction enabled: false
Boxcar width: 0
Storing dark spectrum: false
XAxis mode: Wavelengths
Number of Pixels in Spectrum: 1024
>>>>>Begin Spectral Data<<<<<
801.071	3713
801.214	3766
801.356	3720
801.499	3740
801.641	3751
801.783	3789
801.926	3789
802.068	3838
802.211	3846
802.353	3876
802.496	3812
802.638	3880
802.78	3918
802.923	3869
803.065	3892
803.208	3819
803.35	3857
803.492	3873
803.635	3907
803.777	3808
803.919	3861
804.061	4143
804.204	3926
804.346	3941
804.488	3937
804.63	4002
804.773	3949
804.915	4021
805.057	4120
805.199	4029
805.341	4036
805.483	4124
805.626	4150
805.768	4086
805.91	4162
806.052	4219
806.194	4169
806.336	4356
806.478	4181
806.62	4150
806.762	4162
806.904	4219
807.046	4363
807.188	4192
807.33	4162
807.472	4265
807.614	4215
807.756	4280
807.898	4211
808.04	4150
808.182	4306
808.324	4284
808.465	4310
808.607	4432
808.749	4459
808.891	4455
809.033	4504
809.174	4413
809.316	4276
809.458	4227
809.6	4131
809.741	4143
809.883	4116
810.025	4181
810.166	4207
810.308	4223
810.45	4238
810.591	4181
810.733	4318
810.875	4493
811.016	4820
811.158	5067
811.299	5292
811.441	5334
811.582	5140
811.724	4675
811.865	4451
812.007	4440
812.148	4424
812.29	4409
812.431	4413
812.573	4405
812.714	4333
812.855	4398
812.997	4371
813.138	4485
813.279	4367
813.421	4344
813.562	4367
813.703	4329
813.845	4322
813.986	4234
814.127	4238
814.268	4276
814.41	4299
814.551	4253
814.692	4314
814.833	4238
814.974	4257
815.115	4306
815.256	4234
815.397	4230
815.539	4242
815.68	4230
815.821	4211
815.962	4253
816.103	4272
816.244	4196
816.385	4204
816.526	4280
816.666	4219
816.807	4078
816.948	4154
817.089	4116
817.23	4074
817.371	4044
817.512	4040
817.653	4040
817.793	4078
817.934	4029
818.075	4120
818.216	4109
818.356	4090
818.497	3956
818.638	3884
818.778	3903
818.919	3880
819.06	3827
819.2	3873
819.341	3869
819.481	3846
819.622	3892
819.762	3983
819.903	3907
820.043	3850
820.184	3827
820.324	3804
820.465	3827
820.605	3842
820.746	3880
820.886	3774
821.026	3869
821.167	3918
821.307	3934
821.447	3994
821.588	3960
821.728	3956
821.868	3934
822.008	3831
822.149	3896
822.289	3945
822.429	3740
822.569	3804
822.709	3785
822.849	3717
822.99	3679
823.13	3770
823.27	3778
823.41	3720
823.55	3724
823.69	3690
823.83	3717
823.97	3679
824.11	3576
824.25	3564
824.389	3603
824.529	3690
824.669	3606
824.809	3671
824.949	3759
825.089	3705
825.228	3671
825.368	3580
825.508	3538
825.648	3515
825.787	3591
825.927	3606
826.067	3610
826.206	3663
826.346	3751
826.485	3831
826.625	3835
826.765	3911
826.904	3850
827.044	3595
827.183	3515
827.323	3447
827.462	3481
827.601	3420
827.741	3424
827.88	3447
828.02	3348
828.159	3416
828.298	3477
828.437	3519
828.577	3469
828.716	3553
828.855	3481
828.994	3386
829.134	3370
829.273	3363
829.412	3317
829.551	3310
829.69	3363
829.829	3412
829.968	3496
830.107	3469
830.246	3439
830.385	3401
830.524	3363
830.663	3294
830.802	3279
830.941	3211
831.08	3211
831.219	3214
831.357	3199
831.496	3401
831.635	3207
831.774	3192
831.913	3173
832.051	3123
832.19	3146
832.329	3211
832.467	3142
832.606	3074
832.744	3199
832.883	3135
833.022	3150
833.16	3287
833.299	3306
833.437	3340
833.576	3302
833.714	3386
833.852	3401
833.991	3447
834.129	3469
834.267	3428
834.406	3386
834.544	3454
834.682	3416
834.821	3389
834.959	3580
835.097	3370
835.235	3504
835.373	3469
835.511	3473
835.65	3416
835.788	3469
835.926	3393
836.064	3405
836.202	3401
836.34	3576
836.478	3599
836.615	3526
836.753	3542
836.891	3644
837.029	3606
837.167	3610
837.305	3576
837.443	3526
837.58	3496
837.718	3595
837.856	3580
837.993	3507
838.131	3606
838.269	3599
838.406	3549
838.544	3568
838.681	3469
838.819	3420
838.956	3374
839.094	3374
839.231	3454
839.369	3481
839.506	3713
839.643	3633
839.781	3462
839.918	3450
840.055	3519
840.193	3526
840.33	3473
840.467	3542
840.604	3603
840.742	3804
840.879	3542
841.016	3580
841.153	3584
841.29	3751
841.427	3743
841.564	3709
841.701	3717
841.838	3698
841.975	3682
842.112	3717
842.249	3667
842.385	3606
842.522	3846
842.659	3660
842.796	3679
842.933	3694
843.069	3671
843.206	3679
843.343	3835
843.479	3770
843.616	3831
843.752	3660
843.889	3720
844.025	3835
844.162	3667
844.298	3850
844.435	3812
844.571	3774
844.708	3911
844.844	3979
844.98	4025
845.117	4013
845.253	3922
845.389	3918
845.525	3972
845.661	3968
845.798	3907
845.934	3994
846.07	3953
846.206	4059
846.342	4093
846.478	4032
846.614	3949
846.75	3911
846.886	3888
847.022	4013
847.158	3937
847.294	3953
847.429	4044
847.565	3960
847.701	4207
847.837	3880
847.972	3869
848.108	3945
848.244	3945
848.379	3854
848.515	3785
848.65	3827
848.786	3816
848.921	3850
849.057	3911
849.192	3911
849.328	3949
849.463	3915
849.598	3922
849.734	3880
849.869	3835
850.004	3800
850.14	3808
850.275	3785
850.41	3774
850.545	3759
850.68	3770
850.815	3797
850.95	3720
851.085	3903
851.22	3842
851.355	3823
851.49	3770
851.625	3778
851.76	3785
851.895	3713
852.03	3701
852.165	3785
852.299	3819
852.434	3873
852.569	3869
852.703	3888
852.838	3911
852.973	3979
853.107	3991
853.242	3888
853.376	3842
853.511	3762
853.645	3850
853.78	3987
853.914	3896
854.048	3865
854.183	3850
854.317	3922
854.451	4029
854.585	3979
854.72	3930
854.854	4029
854.988	3888
855.122	3991
855.256	3884
855.39	3991
855.524	4059
855.658	4051
855.792	4059
855.926	4188
856.06	4154
856.194	4242
856.327	4128
856.461	4105
856.595	4173
856.729	4139
856.862	4253
856.996	4207
857.13	4284
857.263	4344
857.397	4322
857.53	4287
857.664	4379
857.797	4386
857.931	4409
858.064	4417
858.197	4421
858.331	4390
858.464	4398
858.597	4360
858.731	4421
858.864	4413
858.997	4428
859.13	4474
859.263	4569
859.396	4531
859.529	4573
859.662	4546
859.795	4531
859.928	4573
860.061	4698
860.194	4702
860.327	4626
860.46	4580
860.592	4694
860.725	4755
860.858	4763
860.99	4668
861.123	4664
861.256	4679
861.388	4774
861.521	5391
861.653	4717
861.786	4721
861.918	4793
862.05	4774
862.183	4824
862.315	4854
862.447	4885
862.58	4877
862.712	4782
862.844	4812
862.976	4877
863.108	4885
863.24	5162
863.372	4805
863.504	4870
863.636	4892
863.768	4972
863.9	4961
864.032	4877
864.164	4930
864.296	5060
864.428	5079
864.559	5113
864.691	5094
864.823	5193
864.954	5105
865.086	5083
865.217	5090
865.349	5128
865.48	5147
865.612	5178
865.743	5265
865.875	5136
866.006	5174
866.137	5246
866.269	5204
866.4	5250
866.531	5201
866.662	5223
866.793	5296
866.924	5299
867.055	5318
867.186	5326
867.317	5296
867.448	5261
867.579	5357
867.71	5353
867.841	5360
867.972	5490
868.103	5459
868.233	5421
868.364	5459
868.495	5551
868.625	5661
868.756	5802
868.886	5642
869.017	5699
869.147	5908
869.278	5870
869.408	5771
869.539	5840
869.669	5931
869.799	5912
869.929	5942
870.06	6011
870.19	6178
870.32	6144
870.45	6228
870.58	6319
870.71	6441
870.84	6460
870.97	6384
871.1	6441
871.23	6635
871.36	6673
871.489	6646
871.619	6707
871.749	6802
871.879	6905
872.008	6939
872.138	6920
872.267	7004
872.397	7034
872.526	6954
872.656	7110
872.785	7187
872.915	7381
873.044	7491
873.173	7586
873.303	7605
873.432	7723
873.561	7864
873.69	7906
873.819	8008
873.948	8180
874.077	8180
874.206	8358
874.335	8473
874.464	8655
874.593	8849
874.722	8883
874.851	9100
874.979	9203
875.108	9348
875.237	9431
875.365	9469
875.494	9580
875.623	9842
875.751	9816
875.88	9945
876.008	10124
876.136	10291
876.265	10546
876.393	10649
876.521	10672
876.65	10839
876.778	10892
876.906	10885
877.034	10961
877.162	11181
877.29	11113
877.418	11254
877.546	11303
877.674	11486
877.802	11448
877.93	11558
878.058	11577
878.185	11581
878.313	11653
878.441	11661
878.568	11722
878.696	11764
878.824	11836
878.951	11889
879.079	11999
879.206	12175
879.333	12041
879.461	11999
879.588	12087
879.715	12076
879.842	12186
879.97	12064
880.097	11809
880.224	11916
880.351	11893
880.478	11855
880.605	11775
880.732	11859
880.859	11980
880.986	11805
881.112	11824
881.239	11745
881.366	11668
881.493	11554
881.619	11505
881.746	11592
881.872	11554
881.999	11554
882.125	11452
882.252	11600
882.378	11512
882.505	11436
882.631	11337
882.757	11322
882.883	11307
883.01	11292
883.136	11239
883.262	11204
883.388	11086
883.514	11174
883.64	11170
883.766	11102
883.892	10984
884.018	11056
884.143	11056
884.269	11052
884.395	10755
884.52	10755
884.646	10736
884.772	10721
884.897	10714
885.023	10725
885.148	10767
885.274	10702
885.399	10675
885.524	10622
885.65	10596
885.775	10603
885.9	10451
886.025	10542
886.15	10561
886.275	10466
886.4	10329
886.525	10371
886.65	10348
886.775	10322
886.9	10497
887.025	10489
887.149	10341
887.274	10185
887.399	10154
887.523	10162
887.648	10074
887.773	10017
887.897	10188
888.021	10166
888.146	10135
888.27	10234
888.395	10139
888.519	10192
888.643	10215
888.767	10200
888.891	10044
889.015	9922
889.139	10051
889.263	10006
889.387	10109
889.511	10086
889.635	10063
889.759	9998
889.883	10010
890.006	10036
890.13	10101
890.254	10002
890.377	9941
890.501	9850
890.624	9838
890.748	9880
890.871	9838
890.995	9698
891.118	9728
891.241	9743
891.364	9736
891.488	9747
891.611	9724
891.734	9580
891.857	9827
891.98	9690
892.103	9652
892.226	9720
892.349	9701
892.471	9488
892.594	9610
892.717	9633
892.839	9511
892.962	9595
893.085	9686
893.207	9591
893.33	9473
893.452	9599
893.575	9530
893.697	9572
893.819	9584
893.941	9595
894.064	9584
894.186	9507
894.308	9378
894.43	9568
894.552	9561
894.674	9477
894.796	9389
894.918	9370
895.04	9329
895.161	9351
895.283	9378
895.405	9237
895.526	9256
895.648	9237
895.769	9176
895.891	9275
896.012	9340
896.134	9131
896.255	9176
896.376	9104
896.498	9146
896.619	9127
896.74	9013
896.861	9051
896.982	9230
897.103	9195
897.224	9112
897.345	9058
897.466	8982
897.587	9009
897.708	9039
897.828	8998
897.949	8944
898.07	8743
898.19	8853
898.311	8982
898.431	8944
898.552	8891
898.672	8982
898.792	8944
898.913	8785
899.033	8750
899.153	8804
899.273	8720
899.393	8739
899.513	8716
899.633	8708
899.753	8804
899.873	8686
899.993	8743
900.113	8670
900.232	8739
900.352	8583
900.472	8613
900.591	8484
900.711	8579
900.83	8545
900.95	8667
901.069	8697
901.189	8598
901.308	8415
901.427	8362
901.546	8347
901.665	8457
901.784	8457
901.904	8362
902.023	8309
902.141	8202
902.26	8218
902.379	8218
902.498	8233
902.617	8221
902.735	8320
902.854	8248
902.973	8267
903.091	8115
903.21	8145
903.328	8149
903.446	8088
903.565	8088
903.683	8069
903.801	8005
903.919	8092
904.038	8157
904.156	8001
904.274	8062
904.392	7970
904.51	8031
904.627	8077
904.745	8027
904.863	8100
904.981	7883
905.098	7868
905.216	7871
905.334	7909
905.451	7883
905.569	7932
905.686	7890
905.803	7925
905.921	7761
906.038	7826
906.155	7746
906.272	7731
906.389	7738
906.506	7639
906.623	7628
906.74	7582
906.857	7571
906.974	7537
907.091	7624
907.208	7769
907.324	7578
907.441	7567
907.557	7499
907.674	7453
907.79	7350
907.907	7411
908.023	7441
908.139	7422
908.256	7373
908.372	7331
908.488	7339
908.604	7236
908.72	7183
908.836	7228
908.952	7232
909.068	7251
909.184	7278
909.3	7221
909.415	7251
909.531	7255
909.647	7095
909.762	7129
909.878	7061
909.993	7122
910.108	7088
910.224	7019
910.339	7076
910.454	7034
910.57	6970
910.685	6954
910.8	7122
910.915	7133
911.03	7023
911.145	6890
911.259	6867
911.374	6882
911.489	6833
911.604	6795
911.718	6684
911.833	6741
911.947	6639
912.062	6631
912.176	6703
912.291	6764
912.405	6696
912.519	6821
912.633	6795
912.748	6688
912.862	6738
912.976	6593
913.09	6494
913.204	6551
913.318	6559
913.431	6662
913.545	6703
913.659	6711
913.772	6601
913.886	6544
914	6528
914.113	6604
914.226	6631
914.34	6589
914.453	6525
914.566	6570
914.68	6506
914.793	6525
914.906	6365
915.019	6380
915.132	6372
915.245	6414
915.358	6418
915.47	6448
915.583	6418
915.696	6525
915.809	6494
915.921	6521
916.034	6426
916.146	6353
916.259	6369
916.371	6490
916.483	6365
916.595	6407
916.708	6418
916.82	6388
916.932	6369
917.044	6422
917.156	6452
917.268	6353
917.38	6323
917.491	6285
917.603	6346
917.715	6334
917.826	6388
917.938	6342
918.049	6319
918.161	6399
918.272	6433
918.384	6448
918.495	6357
918.606	6243
918.717	6167
918.828	6228
918.939	6311
919.05	6133
919.161	6258
919.272	6129
919.383	6152
919.494	6232
919.604	6399
919.715	6220
919.826	6232
919.936	6266
920.047	6357
920.157	6247
920.267	6418
920.378	6323
920.488	6289
920.598	6414
920.708	6547
920.818	6452
920.928	6456
921.038	6570
921.148	6582
921.258	6311
921.368	6281
921.477	6133
921.587	6186
921.697	6133
921.806	6190
921.916	6076
922.025	5961
922.134	5927
922.244	5889
922.353	5916
922.462	5802
922.571	5737
922.68	5688
922.789	5649
922.898	5703
923.007	5680
923.116	5646
923.224	5668
923.333	5668
923.442	5589
923.55	5539
923.659	5619
923.767	5619
923.876	5490
923.984	5570
924.092	5493
924.201	5478
924.309	5566
924.417	5558
924.525	5467
924.633	5493
924.741	6262
924.849	5330
924.956	5474
925.064	5322
925.172	5242
925.279	5269
925.387	5345
925.494	5292
925.602	5429
925.709	5345
925.816	5269
925.924	5307
926.031	5353
926.138	5292
926.245	5311
926.352	5208
926.459	5322
926.566	5311
926.673	5185
926.779	5143
926.886	5166
926.993	5037
927.099	5014
927.206	5014
927.312	4957
927.419	5010
927.525	4961
927.631	5003
927.737	4881
927.843	4854
927.95	4805
928.056	4805
928.162	4809
928.267	4889
928.373	5235
928.479	4881
928.585	4634
928.69	4774
928.796	4790
928.901	4710
929.007	4584
929.112	4668
929.218	4618
929.323	4599
929.428	4546
929.533	4702
929.638	4493
929.743	4546
929.848	4573
929.953	4497
930.058	4436
930.163	4329
930.267	4325
930.372	4383
930.477	4310
930.581	4421
930.685	4318
930.79	4246
930.894	4276
930.998	4268
931.103	4360
931.207	4078
931.311	4090
931.415	4021
931.519	3918
931.623	3926
