Data from glass_V78500241_2344.txt Node
Date: Wed Sep 01 19:30:44 CST 2021
User: usil
Spectrometer: V785-0024
Trigger mode: 0
Integration Time (sec): 4.000000E-1
Scans to average: 1
Nonlinearity correction enabled: false
Boxcar width: 0
Storing dark spectrum: false
XAxis mode: Wavelengths
Number of Pixels in Spectrum: 1024
>>>>>Begin Spectral Data<<<<<
801.071	3724
801.214	3755
801.356	3679
801.499	3713
801.641	3724
801.783	3770
801.926	3857
802.068	3781
802.211	3827
802.353	3899
802.496	3823
802.638	3873
802.78	3896
802.923	3888
803.065	3922
803.208	3873
803.35	3846
803.492	3892
803.635	3896
803.777	3819
803.919	3873
804.061	4128
804.204	3949
804.346	3960
804.488	3896
804.63	4029
804.773	3979
804.915	4036
805.057	4116
805.199	4036
805.341	4101
805.483	4067
805.626	4120
805.768	4093
805.91	4173
806.052	4207
806.194	4185
806.336	4390
806.478	4219
806.62	4154
806.762	4181
806.904	4249
807.046	4318
807.188	4230
807.33	4177
807.472	4238
807.614	4158
807.756	4253
807.898	4215
808.04	4227
808.182	4223
808.324	4314
808.465	4348
808.607	4428
808.749	4421
808.891	4440
809.033	4504
809.174	4459
809.316	4284
809.458	4215
809.6	4150
809.741	4173
809.883	4143
810.025	4192
810.166	4204
810.308	4230
810.45	4215
810.591	4223
810.733	4234
810.875	4538
811.016	4824
811.158	5064
811.299	5250
811.441	5261
811.582	5041
811.724	4721
811.865	4455
812.007	4447
812.148	4462
812.29	4402
812.431	4363
812.573	4356
812.714	4390
812.855	4386
812.997	4398
813.138	4451
813.279	4417
813.421	4341
813.562	4386
813.703	4344
813.845	4390
813.986	4257
814.127	4223
814.268	4204
814.41	4299
814.551	4295
814.692	4356
814.833	4230
814.974	4272
815.115	4333
815.256	4204
815.397	4234
815.539	4268
815.68	4223
815.821	4150
815.962	4280
816.103	4272
816.244	4227
816.385	4238
816.526	4272
816.666	4227
816.807	4090
816.948	4169
817.089	4192
817.23	4131
817.371	4029
817.512	4032
817.653	4017
817.793	4040
817.934	4059
818.075	4067
818.216	4059
818.356	4063
818.497	3987
818.638	3915
818.778	3930
818.919	3865
819.06	3831
819.2	3888
819.341	3838
819.481	3823
819.622	3907
819.762	3972
819.903	3945
820.043	3846
820.184	3831
820.324	3835
820.465	3857
820.605	3850
820.746	3842
820.886	3766
821.026	3880
821.167	3926
821.307	3991
821.447	3983
821.588	3934
821.728	3945
821.868	3915
822.008	3800
822.149	3922
822.289	3907
822.429	3766
822.569	3770
822.709	3774
822.849	3679
822.99	3694
823.13	3717
823.27	3736
823.41	3698
823.55	3732
823.69	3720
823.83	3682
823.97	3701
824.11	3587
824.25	3564
824.389	3682
824.529	3660
824.669	3637
824.809	3679
824.949	3698
825.089	3724
825.228	3652
825.368	3584
825.508	3564
825.648	3553
825.787	3599
825.927	3622
826.067	3618
826.206	3648
826.346	3770
826.485	3823
826.625	3842
826.765	3945
826.904	3808
827.044	3629
827.183	3538
827.323	3412
827.462	3477
827.601	3386
827.741	3450
827.88	3447
828.02	3363
828.159	3466
828.298	3462
828.437	3519
828.577	3466
828.716	3568
828.855	3473
828.994	3351
829.134	3336
829.273	3393
829.412	3340
829.551	3294
829.69	3374
829.829	3424
829.968	3523
830.107	3443
830.246	3443
830.385	3359
830.524	3367
830.663	3287
830.802	3253
830.941	3184
831.08	3199
831.219	3264
831.357	3260
831.496	3370
831.635	3256
831.774	3146
831.913	3180
832.051	3146
832.19	3165
832.329	3222
832.467	3157
832.606	3116
832.744	3173
832.883	3195
833.022	3192
833.16	3256
833.299	3298
833.437	3351
833.576	3340
833.714	3378
833.852	3443
833.991	3439
834.129	3431
834.267	3439
834.406	3397
834.544	3420
834.682	3428
834.821	3412
834.959	3553
835.097	3435
835.235	3473
835.373	3511
835.511	3511
835.65	3466
835.788	3454
835.926	3389
836.064	3378
836.202	3351
836.34	3580
836.478	3561
836.615	3500
836.753	3557
836.891	3614
837.029	3553
837.167	3591
837.305	3534
837.443	3526
837.58	3481
837.718	3580
837.856	3538
837.993	3561
838.131	3614
838.269	3603
838.406	3618
838.544	3576
838.681	3431
838.819	3477
838.956	3374
839.094	3382
839.231	3458
839.369	3477
839.506	3717
839.643	3622
839.781	3496
839.918	3458
840.055	3568
840.193	3492
840.33	3572
840.467	3542
840.604	3561
840.742	3808
840.879	3576
841.016	3576
841.153	3603
841.29	3770
841.427	3778
841.564	3724
841.701	3751
841.838	3679
841.975	3713
842.112	3679
842.249	3576
842.385	3606
842.522	3812
842.659	3675
842.796	3660
842.933	3682
843.069	3690
843.206	3694
843.343	3793
843.479	3759
843.616	3816
843.752	3648
843.889	3694
844.025	3816
844.162	3682
844.298	3831
844.435	3766
844.571	3835
844.708	3892
844.844	3975
844.98	4006
845.117	3953
845.253	3892
845.389	3911
845.525	3953
845.661	3960
845.798	3949
845.934	4006
846.07	3979
846.206	4017
846.342	4120
846.478	4048
846.614	3987
846.75	3907
846.886	3915
847.022	3987
847.158	3964
847.294	4006
847.429	4002
847.565	4006
847.701	4211
847.837	3896
847.972	3865
848.108	3991
848.244	3964
848.379	3861
848.515	3854
848.65	3812
848.786	3812
848.921	3835
849.057	3907
849.192	3975
849.328	3907
849.463	3899
849.598	3903
849.734	3842
849.869	3835
850.004	3789
850.14	3762
850.275	3766
850.41	3698
850.545	3759
850.68	3747
850.815	3804
850.95	3800
851.085	3945
851.22	3865
851.355	3835
851.49	3785
851.625	3781
851.76	3827
851.895	3728
852.03	3747
852.165	3812
852.299	3846
852.434	3857
852.569	3888
852.703	3861
852.838	3911
852.973	3991
853.107	3994
853.242	3884
853.376	3854
853.511	3751
853.645	3850
853.78	3968
853.914	3899
854.048	3896
854.183	3873
854.317	3899
854.451	4051
854.585	3918
854.72	3937
854.854	4017
854.988	3884
855.122	4006
855.256	3888
855.39	4002
855.524	4143
855.658	4040
855.792	4063
855.926	4097
856.06	4204
856.194	4204
856.327	4131
856.461	4135
856.595	4116
856.729	4139
856.862	4329
856.996	4227
857.13	4314
857.263	4322
857.397	4341
857.53	4238
857.664	4261
857.797	4348
857.931	4398
858.064	4394
858.197	4466
858.331	4413
858.464	4333
858.597	4337
858.731	4417
858.864	4447
858.997	4459
859.13	4519
859.263	4527
859.396	4603
859.529	4516
859.662	4516
859.795	4500
859.928	4592
860.061	4656
860.194	4706
860.327	4656
860.46	4668
860.592	4736
860.725	4763
860.858	4752
860.99	4687
861.123	4748
861.256	4698
861.388	4748
861.521	5246
861.653	4748
861.786	4710
861.918	4763
862.05	4793
862.183	4854
862.315	4889
862.447	4949
862.58	4885
862.712	4801
862.844	4744
862.976	4862
863.108	4820
863.24	5128
863.372	4793
863.504	4904
863.636	4889
863.768	4934
863.9	4965
864.032	4904
864.164	4934
864.296	5003
864.428	5083
864.559	5075
864.691	5067
864.823	5064
864.954	5109
865.086	5090
865.217	5083
865.349	5132
865.48	5151
865.612	5193
865.743	5280
865.875	5204
866.006	5208
866.137	5223
866.269	5212
866.4	5284
866.531	5189
866.662	5239
866.793	5208
866.924	5357
867.055	5334
867.186	5326
867.317	5341
867.448	5288
867.579	5360
867.71	5315
867.841	5398
867.972	5478
868.103	5471
868.233	5497
868.364	5459
868.495	5512
868.625	5623
868.756	5748
868.886	5684
869.017	5699
869.147	5840
869.278	5882
869.408	5794
869.539	5828
869.669	5935
869.799	5950
869.929	5965
870.06	6019
870.19	6178
870.32	6209
870.45	6262
870.58	6285
870.71	6407
870.84	6429
870.97	6403
871.1	6456
871.23	6589
871.36	6669
871.489	6711
871.619	6783
871.749	6852
871.879	6821
872.008	6966
872.138	6996
872.267	6951
872.397	6996
872.526	7034
872.656	7027
872.785	7236
872.915	7365
873.044	7529
873.173	7537
873.303	7655
873.432	7704
873.561	7936
873.69	7928
873.819	7993
873.948	8183
874.077	8282
874.206	8351
874.335	8469
874.464	8663
874.593	8929
874.722	8921
874.851	9081
874.979	9256
875.108	9340
875.237	9431
875.365	9500
875.494	9660
875.623	9793
875.751	9873
875.88	9930
876.008	10234
876.136	10287
876.265	10432
876.393	10641
876.521	10694
876.65	10717
876.778	10828
876.906	10911
877.034	10957
877.162	11056
877.29	11102
877.418	11376
877.546	11360
877.674	11414
877.802	11532
877.93	11505
878.058	11532
878.185	11547
878.313	11653
878.441	11737
878.568	11623
878.696	11843
878.824	11828
878.951	11882
879.079	11999
879.206	12121
879.333	12026
879.461	12045
879.588	12098
879.715	12030
879.842	12304
879.97	12072
880.097	11885
880.224	11817
880.351	11889
880.478	11843
880.605	11855
880.732	11840
880.859	12003
880.986	11760
881.112	11859
881.239	11630
881.366	11600
881.493	11630
881.619	11505
881.746	11596
881.872	11509
881.999	11512
882.125	11482
882.252	11543
882.378	11433
882.505	11497
882.631	11391
882.757	11246
882.883	11299
883.01	11235
883.136	11193
883.262	11102
883.388	11083
883.514	11189
883.64	11212
883.766	11185
883.892	11102
884.018	11022
884.143	11018
884.269	11071
884.395	10900
884.52	10725
884.646	10736
884.772	10736
884.897	10618
885.023	10630
885.148	10744
885.274	10752
885.399	10748
885.524	10626
885.65	10527
885.775	10584
885.9	10584
886.025	10599
886.15	10550
886.275	10478
886.4	10371
886.525	10390
886.65	10367
886.775	10367
886.9	10527
887.025	10493
887.149	10398
887.274	10169
887.399	10223
887.523	10223
887.648	10112
887.773	10124
887.897	10249
888.021	10234
888.146	10116
888.27	10207
888.395	10192
888.519	10124
888.643	10112
888.767	10188
888.891	10082
889.015	10040
889.139	10059
889.263	10006
889.387	10101
889.511	10135
889.635	10082
889.759	9956
889.883	9968
890.006	9941
890.13	10097
890.254	9975
890.377	9934
890.501	9895
890.624	9907
890.748	9857
890.871	9713
890.995	9743
891.118	9701
891.241	9751
891.364	9709
891.488	9827
891.611	9762
891.734	9762
891.857	9751
891.98	9679
892.103	9747
892.226	9728
892.349	9663
892.471	9523
892.594	9572
892.717	9671
892.839	9705
892.962	9656
893.085	9705
893.207	9545
893.33	9526
893.452	9477
893.575	9637
893.697	9496
893.819	9572
893.941	9629
894.064	9538
894.186	9458
894.308	9454
894.43	9534
894.552	9587
894.674	9477
894.796	9363
894.918	9401
895.04	9313
895.161	9424
895.283	9245
895.405	9184
895.526	9222
895.648	9332
895.769	9176
895.891	9203
896.012	9294
896.134	9195
896.255	9176
896.376	9142
896.498	9116
896.619	9135
896.74	9116
896.861	9146
896.982	9260
897.103	9226
897.224	9097
897.345	9058
897.466	9005
897.587	8998
897.708	9157
897.828	9062
897.949	8906
898.07	8887
898.19	8876
898.311	8967
898.431	8906
898.552	8956
898.672	9017
898.792	8933
898.913	8895
899.033	8815
899.153	8773
899.273	8636
899.393	8701
899.513	8746
899.633	8727
899.753	8705
899.873	8651
899.993	8769
900.113	8682
900.232	8670
900.352	8682
900.472	8648
900.591	8564
900.711	8564
900.83	8552
900.95	8651
901.069	8701
901.189	8579
901.308	8389
901.427	8389
901.546	8419
901.665	8457
901.784	8473
901.904	8408
902.023	8366
902.141	8218
902.26	8221
902.379	8248
902.498	8218
902.617	8176
902.735	8275
902.854	8290
902.973	8267
903.091	8084
903.21	8145
903.328	8168
903.446	8123
903.565	8069
903.683	8115
903.801	7989
903.919	8119
904.038	8225
904.156	7997
904.274	8043
904.392	8039
904.51	8005
904.627	8096
904.745	8062
904.863	8046
904.981	7902
905.098	7906
905.216	7883
905.334	7898
905.451	7830
905.569	7883
905.686	7936
905.803	7902
905.921	7750
906.038	7955
906.155	7807
906.272	7715
906.389	7674
906.506	7594
906.623	7533
906.74	7575
906.857	7502
906.974	7567
907.091	7674
907.208	7715
907.324	7655
907.441	7521
907.557	7449
907.674	7487
907.79	7426
907.907	7381
908.023	7411
908.139	7388
908.256	7362
908.372	7339
908.488	7293
908.604	7232
908.72	7255
908.836	7221
908.952	7225
909.068	7255
909.184	7232
909.3	7232
909.415	7354
909.531	7236
909.647	7091
909.762	7137
909.878	7061
909.993	7122
910.108	7042
910.224	7072
910.339	7095
910.454	7000
910.57	6996
910.685	6901
910.8	7168
910.915	7137
911.03	7012
911.145	6897
911.259	6875
911.374	6947
911.489	6821
911.604	6818
911.718	6715
911.833	6673
911.947	6639
912.062	6627
912.176	6711
912.291	6681
912.405	6730
912.519	6753
912.633	6818
912.748	6730
912.862	6635
912.976	6616
913.09	6574
913.204	6563
913.318	6528
913.431	6662
913.545	6608
913.659	6669
913.772	6662
913.886	6559
914	6521
914.113	6593
914.226	6616
914.34	6646
914.453	6509
914.566	6570
914.68	6490
914.793	6521
914.906	6350
915.019	6372
915.132	6289
915.245	6429
915.358	6391
915.47	6410
915.583	6456
915.696	6494
915.809	6528
915.921	6525
916.034	6395
916.146	6433
916.259	6365
916.371	6452
916.483	6369
916.595	6433
916.708	6338
916.82	6311
916.932	6380
917.044	6418
917.156	6395
917.268	6277
917.38	6331
917.491	6319
917.603	6270
917.715	6388
917.826	6365
917.938	6323
918.049	6232
918.161	6323
918.272	6395
918.384	6391
918.495	6350
918.606	6251
918.717	6159
918.828	6281
918.939	6277
919.05	6182
919.161	6224
919.272	6095
919.383	6110
919.494	6304
919.604	6418
919.715	6270
919.826	6213
919.936	6235
920.047	6350
920.157	6251
920.267	6414
920.378	6327
920.488	6270
920.598	6426
920.708	6555
920.818	6506
920.928	6471
921.038	6631
921.148	6544
921.258	6300
921.368	6247
921.477	6213
921.587	6155
921.697	6098
921.806	6167
921.916	6102
922.025	5958
922.134	5950
922.244	5874
922.353	5954
922.462	5897
922.571	5790
922.68	5691
922.789	5630
922.898	5718
923.007	5615
923.116	5703
923.224	5661
923.333	5623
923.442	5562
923.55	5627
923.659	5585
923.767	5634
923.876	5577
923.984	5570
924.092	5535
924.201	5566
924.309	5554
924.417	5547
924.525	5490
924.633	5467
924.741	6296
924.849	5364
924.956	5448
925.064	5383
925.172	5277
925.279	5254
925.387	5326
925.494	5280
925.602	5444
925.709	5421
925.816	5239
925.924	5360
926.031	5280
926.138	5288
926.245	5307
926.352	5235
926.459	5318
926.566	5299
926.673	5201
926.779	5109
926.886	5143
926.993	5045
927.099	4991
927.206	5003
927.312	4946
927.419	4999
927.525	4968
927.631	4987
927.737	4896
927.843	4854
927.95	4748
928.056	4824
928.162	4812
928.267	4793
928.373	5337
928.479	4839
928.585	4668
928.69	4752
928.796	4755
928.901	4721
929.007	4573
929.112	4664
929.218	4592
929.323	4603
929.428	4538
929.533	4622
929.638	4542
929.743	4500
929.848	4512
929.953	4493
930.058	4413
930.163	4295
930.267	4322
930.372	4436
930.477	4322
930.581	4462
930.685	4310
930.79	4246
930.894	4268
930.998	4249
931.103	4398
931.207	4147
931.311	4059
931.415	4071
931.519	3918
931.623	3903
