Data from glass_V78500241_2720.txt Node
Date: Wed Sep 01 19:33:21 CST 2021
User: usil
Spectrometer: V785-0024
Trigger mode: 0
Integration Time (sec): 4.000000E-1
Scans to average: 1
Nonlinearity correction enabled: false
Boxcar width: 0
Storing dark spectrum: false
XAxis mode: Wavelengths
Number of Pixels in Spectrum: 1024
>>>>>Begin Spectral Data<<<<<
801.071	3751
801.214	3755
801.356	3690
801.499	3740
801.641	3690
801.783	3778
801.926	3842
802.068	3819
802.211	3888
802.353	3876
802.496	3861
802.638	3876
802.78	3888
802.923	3899
803.065	3869
803.208	3823
803.35	3899
803.492	3899
803.635	3907
803.777	3762
803.919	3873
804.061	4169
804.204	3941
804.346	3907
804.488	3907
804.63	4032
804.773	3934
804.915	4017
805.057	4090
805.199	4010
805.341	4101
805.483	4150
805.626	4109
805.768	4116
805.91	4192
806.052	4204
806.194	4158
806.336	4325
806.478	4185
806.62	4131
806.762	4166
806.904	4276
807.046	4303
807.188	4234
807.33	4154
807.472	4268
807.614	4188
807.756	4238
807.898	4196
808.04	4166
808.182	4230
808.324	4276
808.465	4360
808.607	4440
808.749	4428
808.891	4455
809.033	4478
809.174	4352
809.316	4238
809.458	4204
809.6	4078
809.741	4120
809.883	4109
810.025	4150
810.166	4207
810.308	4177
810.45	4257
810.591	4230
810.733	4306
810.875	4481
811.016	4809
811.158	5113
811.299	5303
811.441	5223
811.582	5045
811.724	4710
811.865	4459
812.007	4459
812.148	4497
812.29	4375
812.431	4443
812.573	4375
812.714	4405
812.855	4390
812.997	4383
813.138	4489
813.279	4409
813.421	4413
813.562	4341
813.703	4348
813.845	4318
813.986	4265
814.127	4249
814.268	4230
814.41	4257
814.551	4261
814.692	4341
814.833	4272
814.974	4284
815.115	4310
815.256	4246
815.397	4215
815.539	4211
815.68	4185
815.821	4200
815.962	4287
816.103	4200
816.244	4253
816.385	4200
816.526	4234
816.666	4185
816.807	4071
816.948	4204
817.089	4128
817.23	4093
817.371	4074
817.512	4051
817.653	4074
817.793	4063
817.934	4040
818.075	4078
818.216	4048
818.356	4090
818.497	4006
818.638	3934
818.778	3880
818.919	3892
819.06	3869
819.2	3934
819.341	3896
819.481	3819
819.622	3880
819.762	3994
819.903	3926
820.043	3865
820.184	3781
820.324	3827
820.465	3846
820.605	3846
820.746	3846
820.886	3774
821.026	3873
821.167	3930
821.307	3979
821.447	3960
821.588	3922
821.728	3903
821.868	3926
822.008	3850
822.149	3876
822.289	3899
822.429	3789
822.569	3679
822.709	3762
822.849	3698
822.99	3728
823.13	3713
823.27	3770
823.41	3751
823.55	3743
823.69	3701
823.83	3743
823.97	3698
824.11	3644
824.25	3557
824.389	3625
824.529	3637
824.669	3637
824.809	3679
824.949	3728
825.089	3705
825.228	3671
825.368	3542
825.508	3549
825.648	3523
825.787	3637
825.927	3641
826.067	3633
826.206	3591
826.346	3781
826.485	3835
826.625	3869
826.765	3960
826.904	3827
827.044	3580
827.183	3526
827.323	3420
827.462	3481
827.601	3409
827.741	3420
827.88	3458
828.02	3370
828.159	3496
828.298	3458
828.437	3488
828.577	3435
828.716	3576
828.855	3447
828.994	3340
829.134	3416
829.273	3329
829.412	3344
829.551	3302
829.69	3355
829.829	3412
829.968	3492
830.107	3447
830.246	3435
830.385	3325
830.524	3344
830.663	3264
830.802	3264
830.941	3218
831.08	3165
831.219	3272
831.357	3279
831.496	3389
831.635	3214
831.774	3192
831.913	3150
832.051	3146
832.19	3150
832.329	3150
832.467	3093
832.606	3104
832.744	3199
832.883	3165
833.022	3184
833.16	3226
833.299	3298
833.437	3306
833.576	3370
833.714	3382
833.852	3420
833.991	3458
834.129	3454
834.267	3443
834.406	3389
834.544	3435
834.682	3389
834.821	3370
834.959	3542
835.097	3412
835.235	3488
835.373	3481
835.511	3511
835.65	3412
835.788	3462
835.926	3420
836.064	3370
836.202	3397
836.34	3591
836.478	3584
836.615	3564
836.753	3576
836.891	3656
837.029	3610
837.167	3572
837.305	3545
837.443	3523
837.58	3496
837.718	3591
837.856	3534
837.993	3553
838.131	3557
838.269	3584
838.406	3580
838.544	3557
838.681	3462
838.819	3447
838.956	3355
839.094	3401
839.231	3435
839.369	3496
839.506	3694
839.643	3599
839.781	3431
839.918	3488
840.055	3492
840.193	3538
840.33	3488
840.467	3580
840.604	3591
840.742	3793
840.879	3511
841.016	3599
841.153	3561
841.29	3762
841.427	3732
841.564	3701
841.701	3747
841.838	3694
841.975	3690
842.112	3663
842.249	3606
842.385	3587
842.522	3808
842.659	3641
842.796	3622
842.933	3679
843.069	3709
843.206	3720
843.343	3785
843.479	3751
843.616	3778
843.752	3656
843.889	3698
844.025	3854
844.162	3720
844.298	3869
844.435	3743
844.571	3759
844.708	3903
844.844	3960
844.98	4017
845.117	4013
845.253	3960
845.389	3869
845.525	3934
845.661	3949
845.798	3903
845.934	4002
846.07	3922
846.206	3987
846.342	4109
846.478	4071
846.614	3960
846.75	3922
846.886	3911
847.022	4013
847.158	3975
847.294	3922
847.429	4010
847.565	3975
847.701	4196
847.837	3861
847.972	3823
848.108	3964
848.244	3960
848.379	3861
848.515	3831
848.65	3789
848.786	3846
848.921	3838
849.057	3903
849.192	3896
849.328	3880
849.463	3926
849.598	3854
849.734	3880
849.869	3827
850.004	3789
850.14	3823
850.275	3759
850.41	3751
850.545	3755
850.68	3762
850.815	3770
850.95	3751
851.085	3869
851.22	3835
851.355	3762
851.49	3785
851.625	3766
851.76	3778
851.895	3724
852.03	3743
852.165	3778
852.299	3873
852.434	3865
852.569	3850
852.703	3869
852.838	3899
852.973	3991
853.107	3964
853.242	3857
853.376	3808
853.511	3713
853.645	3835
853.78	3922
853.914	3865
854.048	3865
854.183	3880
854.317	3945
854.451	4044
854.585	3884
854.72	3880
854.854	4067
854.988	3930
855.122	3968
855.256	3899
855.39	4006
855.524	4105
855.658	4105
855.792	4112
855.926	4109
856.06	4128
856.194	4211
856.327	4169
856.461	4124
856.595	4109
856.729	4158
856.862	4291
856.996	4227
857.13	4280
857.263	4348
857.397	4356
857.53	4306
857.664	4341
857.797	4371
857.931	4360
858.064	4402
858.197	4455
858.331	4379
858.464	4363
858.597	4352
858.731	4421
858.864	4428
858.997	4421
859.13	4451
859.263	4497
859.396	4497
859.529	4489
859.662	4519
859.795	4481
859.928	4580
860.061	4714
860.194	4736
860.327	4672
860.46	4653
860.592	4672
860.725	4729
860.858	4755
860.99	4675
861.123	4649
861.256	4698
861.388	4793
861.521	5269
861.653	4694
861.786	4630
861.918	4736
862.05	4740
862.183	4820
862.315	4896
862.447	4949
862.58	4885
862.712	4778
862.844	4729
862.976	4843
863.108	4862
863.24	5227
863.372	4793
863.504	4949
863.636	4908
863.768	4972
863.9	4908
864.032	4892
864.164	4976
864.296	4995
864.428	5079
864.559	5086
864.691	5086
864.823	5075
864.954	5113
865.086	5128
865.217	5151
865.349	5105
865.48	5151
865.612	5159
865.743	5265
865.875	5193
866.006	5174
866.137	5235
866.269	5204
866.4	5212
866.531	5227
866.662	5273
866.793	5299
866.924	5292
867.055	5334
867.186	5337
867.317	5322
867.448	5330
867.579	5357
867.71	5395
867.841	5376
867.972	5440
868.103	5421
868.233	5471
868.364	5497
868.495	5512
868.625	5630
868.756	5745
868.886	5649
869.017	5718
869.147	5805
869.278	5863
869.408	5756
869.539	5840
869.669	5863
869.799	5912
869.929	5969
870.06	6011
870.19	6239
870.32	6129
870.45	6220
870.58	6327
870.71	6365
870.84	6464
870.97	6372
871.1	6509
871.23	6620
871.36	6650
871.489	6608
871.619	6760
871.749	6768
871.879	6848
872.008	7027
872.138	6977
872.267	7038
872.397	7023
872.526	6996
872.656	7110
872.785	7179
872.915	7362
873.044	7499
873.173	7571
873.303	7651
873.432	7822
873.561	7826
873.69	7890
873.819	8012
873.948	8161
874.077	8210
874.206	8298
874.335	8446
874.464	8682
874.593	8864
874.722	8872
874.851	9100
874.979	9211
875.108	9389
875.237	9329
875.365	9534
875.494	9648
875.623	9873
875.751	9778
875.88	9941
876.008	10131
876.136	10238
876.265	10519
876.393	10774
876.521	10687
876.65	10812
876.778	10915
876.906	10843
877.034	11014
877.162	11086
877.29	11113
877.418	11239
877.546	11269
877.674	11497
877.802	11486
877.93	11512
878.058	11425
878.185	11516
878.313	11653
878.441	11691
878.568	11703
878.696	11805
878.824	11794
878.951	11996
879.079	11946
879.206	12098
879.333	11965
879.461	12087
879.588	12022
879.715	12019
879.842	12182
879.97	12098
880.097	11767
880.224	11798
880.351	11923
880.478	11855
880.605	11840
880.732	11863
880.859	11950
880.986	11760
881.112	11882
881.239	11714
881.366	11642
881.493	11604
881.619	11474
881.746	11539
881.872	11471
881.999	11486
882.125	11429
882.252	11524
882.378	11509
882.505	11562
882.631	11303
882.757	11364
882.883	11318
883.01	11231
883.136	11151
883.262	11075
883.388	11098
883.514	11208
883.64	11159
883.766	11048
883.892	10999
884.018	10953
884.143	11006
884.269	11064
884.395	10908
884.52	10710
884.646	10771
884.772	10668
884.897	10626
885.023	10603
885.148	10664
885.274	10721
885.399	10687
885.524	10558
885.65	10588
885.775	10615
885.9	10615
886.025	10592
886.15	10538
886.275	10405
886.4	10379
886.525	10413
886.65	10390
886.775	10405
886.9	10455
887.025	10527
887.149	10333
887.274	10207
887.399	10097
887.523	10082
887.648	10135
887.773	10116
887.897	10261
888.021	10215
888.146	10143
888.27	10303
888.395	10173
888.519	10116
888.643	10158
888.767	10215
888.891	10090
889.015	9968
889.139	10063
889.263	9975
889.387	10025
889.511	10139
889.635	10074
889.759	9907
889.883	10006
890.006	9979
890.13	10158
890.254	9953
890.377	9918
890.501	9827
890.624	9835
890.748	9876
890.871	9823
890.995	9759
891.118	9751
891.241	9827
891.364	9717
891.488	9823
891.611	9720
891.734	9686
891.857	9770
891.98	9705
892.103	9781
892.226	9690
892.349	9709
892.471	9496
892.594	9584
892.717	9568
892.839	9564
892.962	9526
893.085	9675
893.207	9568
893.33	9450
893.452	9526
893.575	9603
893.697	9500
893.819	9572
893.941	9762
894.064	9599
894.186	9431
894.308	9367
894.43	9519
894.552	9545
894.674	9523
894.796	9397
894.918	9412
895.04	9348
895.161	9329
895.283	9294
895.405	9214
895.526	9294
895.648	9253
895.769	9184
895.891	9283
896.012	9230
896.134	9199
896.255	9222
896.376	9112
896.498	9112
896.619	9131
896.74	9055
896.861	9131
896.982	9237
897.103	9253
897.224	9157
897.345	9028
897.466	8986
897.587	8994
897.708	9043
897.828	8990
897.949	8941
898.07	8849
898.19	8883
898.311	9017
898.431	8880
898.552	8868
898.672	8971
898.792	8887
898.913	8941
899.033	8834
899.153	8762
899.273	8659
899.393	8720
899.513	8720
899.633	8663
899.753	8762
899.873	8689
899.993	8731
900.113	8655
900.232	8708
900.352	8720
900.472	8617
900.591	8511
900.711	8610
900.83	8556
900.95	8640
901.069	8667
901.189	8579
901.308	8415
901.427	8294
901.546	8434
901.665	8438
901.784	8507
901.904	8336
902.023	8324
902.141	8221
902.26	8180
902.379	8237
902.498	8248
902.617	8202
902.735	8271
902.854	8282
902.973	8252
903.091	8054
903.21	8191
903.328	8172
903.446	8130
903.565	8111
903.683	8039
903.801	8027
903.919	8062
904.038	8100
904.156	8005
904.274	8054
904.392	8024
904.51	8039
904.627	8020
904.745	8050
904.863	8161
904.981	7944
905.098	7883
905.216	7887
905.334	7864
905.451	7898
905.569	7833
905.686	7932
905.803	7883
905.921	7807
906.038	7902
906.155	7776
906.272	7715
906.389	7712
906.506	7594
906.623	7590
906.74	7575
906.857	7575
906.974	7571
907.091	7719
907.208	7647
907.324	7677
907.441	7544
907.557	7426
907.674	7460
907.79	7407
907.907	7403
908.023	7472
908.139	7407
908.256	7415
908.372	7282
908.488	7384
908.604	7266
908.72	7171
908.836	7179
908.952	7247
909.068	7187
909.184	7305
909.3	7247
909.415	7202
909.531	7232
909.647	7107
909.762	7126
909.878	7069
909.993	7034
910.108	7091
910.224	7038
910.339	7080
910.454	7046
910.57	7008
910.685	6985
910.8	7118
910.915	7084
911.03	6989
911.145	6901
911.259	6920
911.374	6844
911.489	6871
911.604	6802
911.718	6734
911.833	6753
911.947	6684
912.062	6582
912.176	6639
912.291	6734
912.405	6665
912.519	6776
912.633	6829
912.748	6734
912.862	6715
912.976	6559
913.09	6506
913.204	6574
913.318	6608
913.431	6669
913.545	6650
913.659	6741
913.772	6669
913.886	6650
914	6570
914.113	6589
914.226	6658
914.34	6532
914.453	6475
914.566	6551
914.68	6498
914.793	6498
914.906	6399
915.019	6422
915.132	6346
915.245	6426
915.358	6399
915.47	6426
915.583	6467
915.696	6479
915.809	6479
915.921	6532
916.034	6372
916.146	6391
916.259	6346
916.371	6445
916.483	6376
916.595	6357
916.708	6388
916.82	6346
916.932	6361
917.044	6372
917.156	6395
917.268	6270
917.38	6334
917.491	6361
917.603	6323
917.715	6391
917.826	6353
917.938	6289
918.049	6220
918.161	6311
918.272	6384
918.384	6437
918.495	6304
918.606	6296
918.717	6190
918.828	6239
918.939	6296
919.05	6209
919.161	6186
919.272	6076
919.383	6155
919.494	6285
919.604	6433
919.715	6304
919.826	6247
919.936	6254
920.047	6292
920.157	6308
920.267	6464
920.378	6273
920.488	6266
920.598	6422
920.708	6506
920.818	6460
920.928	6388
921.038	6570
921.148	6585
921.258	6304
921.368	6281
921.477	6186
921.587	6201
921.697	6106
921.806	6110
921.916	6110
922.025	5931
922.134	5992
922.244	5885
922.353	5882
922.462	5828
922.571	5809
922.68	5657
922.789	5691
922.898	5733
923.007	5653
923.116	5722
923.224	5680
923.333	5642
923.442	5585
923.55	5566
923.659	5604
923.767	5619
923.876	5573
923.984	5577
924.092	5482
924.201	5516
924.309	5554
924.417	5512
924.525	5474
924.633	5474
924.741	6262
924.849	5383
924.956	5474
925.064	5376
925.172	5360
925.279	5322
925.387	5349
925.494	5303
925.602	5440
925.709	5372
925.816	5254
925.924	5303
926.031	5383
926.138	5258
926.245	5322
926.352	5235
926.459	5334
926.566	5273
926.673	5174
926.779	5105
926.886	5098
926.993	5041
927.099	5025
927.206	4976
927.312	4923
927.419	5029
927.525	4930
927.631	4984
927.737	4828
927.843	4873
927.95	4691
928.056	4801
928.162	4774
928.267	4835
928.373	5368
928.479	4862
928.585	4691
928.69	4755
928.796	4767
928.901	4641
929.007	4546
929.112	4653
929.218	4637
929.323	4630
929.428	4569
929.533	4660
929.638	4535
929.743	4497
929.848	4493
929.953	4493
930.058	4440
930.163	4314
930.267	4329
930.372	4409
930.477	4272
930.581	4481
930.685	4360
930.79	4207
930.894	4230
930.998	4265
931.103	4367
931.207	4116
931.311	4074
931.415	3987
931.519	3915
931.623	3915
