Data from glass_V78500241_1708.txt Node
Date: Wed Sep 01 19:26:20 CST 2021
User: usil
Spectrometer: V785-0024
Trigger mode: 0
Integration Time (sec): 4.000000E-1
Scans to average: 1
Nonlinearity correction enabled: false
Boxcar width: 0
Storing dark spectrum: false
XAxis mode: Wavelengths
Number of Pixels in Spectrum: 1024
>>>>>Begin Spectral Data<<<<<
801.071	3728
801.214	3770
801.356	3671
801.499	3755
801.641	3698
801.783	3816
801.926	3869
802.068	3873
802.211	3903
802.353	3865
802.496	3842
802.638	3854
802.78	3915
802.923	3930
803.065	3892
803.208	3838
803.35	3857
803.492	3880
803.635	3945
803.777	3785
803.919	3880
804.061	4139
804.204	3975
804.346	3926
804.488	3945
804.63	4017
804.773	3983
804.915	4048
805.057	4097
805.199	4021
805.341	4082
805.483	4143
805.626	4139
805.768	4120
805.91	4211
806.052	4230
806.194	4166
806.336	4341
806.478	4211
806.62	4223
806.762	4173
806.904	4276
807.046	4299
807.188	4185
807.33	4124
807.472	4230
807.614	4166
807.756	4204
807.898	4192
808.04	4215
808.182	4310
808.324	4348
808.465	4436
808.607	4451
808.749	4462
808.891	4451
809.033	4485
809.174	4417
809.316	4257
809.458	4219
809.6	4169
809.741	4173
809.883	4154
810.025	4204
810.166	4219
810.308	4196
810.45	4215
810.591	4215
810.733	4295
810.875	4538
811.016	4812
811.158	5136
811.299	5223
811.441	5227
811.582	5075
811.724	4683
811.865	4428
812.007	4481
812.148	4459
812.29	4409
812.431	4371
812.573	4409
812.714	4371
812.855	4428
812.997	4409
813.138	4455
813.279	4436
813.421	4394
813.562	4390
813.703	4356
813.845	4337
813.986	4242
814.127	4238
814.268	4310
814.41	4284
814.551	4284
814.692	4276
814.833	4265
814.974	4265
815.115	4344
815.256	4223
815.397	4242
815.539	4287
815.68	4154
815.821	4181
815.962	4303
816.103	4310
816.244	4234
816.385	4234
816.526	4265
816.666	4181
816.807	4139
816.948	4158
817.089	4192
817.23	4143
817.371	4078
817.512	4086
817.653	4063
817.793	4040
817.934	4040
818.075	4109
818.216	4051
818.356	4086
818.497	3964
818.638	3911
818.778	3934
818.919	3896
819.06	3838
819.2	3960
819.341	3888
819.481	3808
819.622	3911
819.762	4036
819.903	3983
820.043	3831
820.184	3850
820.324	3888
820.465	3865
820.605	3854
820.746	3873
820.886	3804
821.026	3926
821.167	3903
821.307	4010
821.447	3991
821.588	3922
821.728	3945
821.868	3949
822.008	3842
822.149	3899
822.289	3991
822.429	3770
822.569	3762
822.709	3804
822.849	3679
822.99	3728
823.13	3755
823.27	3804
823.41	3747
823.55	3694
823.69	3732
823.83	3770
823.97	3698
824.11	3568
824.25	3576
824.389	3614
824.529	3690
824.669	3625
824.809	3766
824.949	3781
825.089	3724
825.228	3743
825.368	3564
825.508	3557
825.648	3580
825.787	3652
825.927	3633
826.067	3633
826.206	3694
826.346	3778
826.485	3800
826.625	3880
826.765	3991
826.904	3823
827.044	3584
827.183	3515
827.323	3439
827.462	3500
827.601	3466
827.741	3443
827.88	3469
828.02	3363
828.159	3405
828.298	3492
828.437	3496
828.577	3496
828.716	3576
828.855	3466
828.994	3428
829.134	3355
829.273	3397
829.412	3363
829.551	3340
829.69	3367
829.829	3439
829.968	3523
830.107	3439
830.246	3462
830.385	3351
830.524	3370
830.663	3306
830.802	3256
830.941	3203
831.08	3199
831.219	3230
831.357	3249
831.496	3393
831.635	3211
831.774	3169
831.913	3169
832.051	3138
832.19	3176
832.329	3226
832.467	3154
832.606	3093
832.744	3169
832.883	3169
833.022	3161
833.16	3264
833.299	3306
833.437	3329
833.576	3386
833.714	3370
833.852	3370
833.991	3424
834.129	3492
834.267	3409
834.406	3416
834.544	3462
834.682	3428
834.821	3405
834.959	3580
835.097	3428
835.235	3526
835.373	3469
835.511	3473
835.65	3416
835.788	3450
835.926	3409
836.064	3397
836.202	3412
836.34	3610
836.478	3599
836.615	3549
836.753	3564
836.891	3614
837.029	3633
837.167	3572
837.305	3557
837.443	3530
837.58	3496
837.718	3576
837.856	3553
837.993	3488
838.131	3568
838.269	3545
838.406	3599
838.544	3534
838.681	3488
838.819	3466
838.956	3382
839.094	3393
839.231	3477
839.369	3511
839.506	3759
839.643	3622
839.781	3466
839.918	3507
840.055	3545
840.193	3538
840.33	3545
840.467	3557
840.604	3587
840.742	3812
840.879	3492
841.016	3538
841.153	3553
841.29	3720
841.427	3747
841.564	3720
841.701	3720
841.838	3622
841.975	3713
842.112	3701
842.249	3629
842.385	3622
842.522	3819
842.659	3660
842.796	3679
842.933	3686
843.069	3682
843.206	3690
843.343	3800
843.479	3804
843.616	3861
843.752	3694
843.889	3705
844.025	3827
844.162	3728
844.298	3835
844.435	3766
844.571	3762
844.708	3918
844.844	3968
844.98	4036
845.117	4006
845.253	3915
845.389	3960
845.525	3979
845.661	3960
845.798	3930
845.934	4017
846.07	3998
846.206	4059
846.342	4143
846.478	4067
846.614	3964
846.75	3911
846.886	3876
847.022	4071
847.158	3994
847.294	4032
847.429	4013
847.565	3964
847.701	4249
847.837	3892
847.972	3804
848.108	3972
848.244	3979
848.379	3854
848.515	3827
848.65	3808
848.786	3857
848.921	3884
849.057	3861
849.192	3964
849.328	3922
849.463	3926
849.598	3888
849.734	3861
849.869	3827
850.004	3770
850.14	3819
850.275	3762
850.41	3774
850.545	3759
850.68	3812
850.815	3793
850.95	3835
851.085	3941
851.22	3854
851.355	3873
851.49	3759
851.625	3816
851.76	3800
851.895	3736
852.03	3713
852.165	3808
852.299	3804
852.434	3884
852.569	3808
852.703	3838
852.838	3941
852.973	4032
853.107	3979
853.242	3899
853.376	3869
853.511	3785
853.645	3838
853.78	3922
853.914	3876
854.048	3884
854.183	3869
854.317	3926
854.451	4078
854.585	3991
854.72	3915
854.854	3998
854.988	3964
855.122	4006
855.256	3926
855.39	4055
855.524	4128
855.658	4090
855.792	4135
855.926	4150
856.06	4139
856.194	4181
856.327	4128
856.461	4150
856.595	4131
856.729	4120
856.862	4284
856.996	4268
857.13	4303
857.263	4367
857.397	4352
857.53	4322
857.664	4363
857.797	4405
857.931	4394
858.064	4383
858.197	4402
858.331	4371
858.464	4386
858.597	4371
858.731	4390
858.864	4394
858.997	4470
859.13	4535
859.263	4561
859.396	4615
859.529	4550
859.662	4527
859.795	4478
859.928	4618
860.061	4694
860.194	4721
860.327	4729
860.46	4596
860.592	4691
860.725	4729
860.858	4790
860.99	4672
861.123	4691
861.256	4694
861.388	4767
861.521	5383
861.653	4733
861.786	4714
861.918	4736
862.05	4809
862.183	4862
862.315	4904
862.447	4930
862.58	4866
862.712	4805
862.844	4767
862.976	4854
863.108	4881
863.24	5235
863.372	4866
863.504	4889
863.636	4862
863.768	5006
863.9	4965
864.032	4953
864.164	4930
864.296	5037
864.428	5117
864.559	5098
864.691	5166
864.823	5075
864.954	5121
865.086	5136
865.217	5102
865.349	5090
865.48	5174
865.612	5181
865.743	5288
865.875	5155
866.006	5220
866.137	5231
866.269	5231
866.4	5254
866.531	5254
866.662	5197
866.793	5273
866.924	5292
867.055	5341
867.186	5349
867.317	5326
867.448	5265
867.579	5368
867.71	5376
867.841	5444
867.972	5444
868.103	5452
868.233	5482
868.364	5505
868.495	5547
868.625	5688
868.756	5767
868.886	5680
869.017	5748
869.147	5794
869.278	5878
869.408	5824
869.539	5847
869.669	5954
869.799	5954
869.929	5942
870.06	5999
870.19	6171
870.32	6239
870.45	6243
870.58	6395
870.71	6391
870.84	6471
870.97	6391
871.1	6437
871.23	6677
871.36	6738
871.489	6662
871.619	6768
871.749	6787
871.879	6833
872.008	6958
872.138	6966
872.267	6970
872.397	6977
872.526	7038
872.656	7133
872.785	7209
872.915	7438
873.044	7476
873.173	7590
873.303	7658
873.432	7731
873.561	7856
873.69	7879
873.819	7993
873.948	8199
874.077	8218
874.206	8339
874.335	8438
874.464	8689
874.593	8788
874.722	8944
874.851	9112
874.979	9283
875.108	9420
875.237	9401
875.365	9443
875.494	9587
875.623	9812
875.751	9850
875.88	9972
876.008	10143
876.136	10272
876.265	10504
876.393	10641
876.521	10767
876.65	10797
876.778	10771
876.906	10938
877.034	10965
877.162	11079
877.29	11170
877.418	11288
877.546	11349
877.674	11421
877.802	11436
877.93	11532
878.058	11558
878.185	11608
878.313	11672
878.441	11756
878.568	11695
878.696	11790
878.824	11828
878.951	11942
879.079	11992
879.206	12201
879.333	12091
879.461	11950
879.588	12041
879.715	12098
879.842	12216
879.97	12049
880.097	11878
880.224	11927
880.351	11794
880.478	11920
880.605	11885
880.732	11821
880.859	12068
880.986	11775
881.112	11756
881.239	11756
881.366	11703
881.493	11566
881.619	11608
881.746	11509
881.872	11532
881.999	11501
882.125	11547
882.252	11573
882.378	11528
882.505	11520
882.631	11345
882.757	11341
882.883	11353
883.01	11265
883.136	11208
883.262	11128
883.388	11109
883.514	11201
883.64	11197
883.766	11109
883.892	10972
884.018	11037
884.143	11098
884.269	11064
884.395	10790
884.52	10809
884.646	10740
884.772	10740
884.897	10622
885.023	10717
885.148	10706
885.274	10809
885.399	10710
885.524	10664
885.65	10599
885.775	10554
885.9	10550
886.025	10569
886.15	10607
886.275	10462
886.4	10421
886.525	10436
886.65	10360
886.775	10333
886.9	10497
887.025	10512
887.149	10405
887.274	10242
887.399	10169
887.523	10124
887.648	10086
887.773	10150
887.897	10200
888.021	10150
888.146	10109
888.27	10253
888.395	10284
888.519	10166
888.643	10162
888.767	10227
888.891	10090
889.015	10059
889.139	10032
889.263	9968
889.387	10105
889.511	10124
889.635	10032
889.759	9991
889.883	10021
890.006	9979
890.13	10154
890.254	9983
890.377	9918
890.501	9865
890.624	9838
890.748	9930
890.871	9797
890.995	9709
891.118	9698
891.241	9766
891.364	9751
891.488	9907
891.611	9755
891.734	9682
891.857	9724
891.98	9812
892.103	9785
892.226	9759
892.349	9667
892.471	9526
892.594	9553
892.717	9599
892.839	9587
892.962	9584
893.085	9740
893.207	9629
893.33	9530
893.452	9511
893.575	9584
893.697	9515
893.819	9622
893.941	9603
894.064	9599
894.186	9382
894.308	9386
894.43	9591
894.552	9595
894.674	9507
894.796	9351
894.918	9370
895.04	9332
895.161	9462
895.283	9370
895.405	9256
895.526	9253
895.648	9207
895.769	9207
895.891	9176
896.012	9275
896.134	9260
896.255	9249
896.376	9104
896.498	9150
896.619	9150
896.74	9085
896.861	9081
896.982	9218
897.103	9275
897.224	9154
897.345	9074
897.466	8960
897.587	9077
897.708	9123
897.828	8986
897.949	8967
898.07	8887
898.19	8830
898.311	8960
898.431	8921
898.552	8967
898.672	8937
898.792	8887
898.913	8864
899.033	8754
899.153	8754
899.273	8678
899.393	8640
899.513	8788
899.633	8826
899.753	8777
899.873	8670
899.993	8686
900.113	8724
900.232	8640
900.352	8678
900.472	8575
900.591	8514
900.711	8606
900.83	8522
900.95	8701
901.069	8705
901.189	8568
901.308	8488
901.427	8320
901.546	8412
901.665	8442
901.784	8549
901.904	8324
902.023	8294
902.141	8244
902.26	8206
902.379	8294
902.498	8237
902.617	8187
902.735	8320
902.854	8290
902.973	8286
903.091	8077
903.21	8172
903.328	8218
903.446	8107
903.565	8096
903.683	8073
903.801	8062
903.919	8103
904.038	8096
904.156	8035
904.274	8088
904.392	8069
904.51	8031
904.627	8020
904.745	8084
904.863	8096
904.981	7947
905.098	7830
905.216	7921
905.334	7868
905.451	7909
905.569	7902
905.686	7940
905.803	7921
905.921	7833
906.038	7940
906.155	7852
906.272	7731
906.389	7681
906.506	7605
906.623	7670
906.74	7575
906.857	7548
906.974	7601
907.091	7704
907.208	7704
907.324	7639
907.441	7575
907.557	7487
907.674	7521
907.79	7358
907.907	7407
908.023	7434
908.139	7434
908.256	7358
908.372	7293
908.488	7293
908.604	7316
908.72	7160
908.836	7240
908.952	7236
909.068	7213
909.184	7354
909.3	7285
909.415	7308
909.531	7247
909.647	7080
909.762	7160
909.878	7084
909.993	7118
910.108	7149
910.224	7065
910.339	7091
910.454	7065
910.57	7012
910.685	6954
910.8	7168
910.915	7061
911.03	6981
911.145	6890
911.259	6901
911.374	6905
911.489	6867
911.604	6798
911.718	6722
911.833	6768
911.947	6623
912.062	6570
912.176	6658
912.291	6700
912.405	6700
912.519	6806
912.633	6837
912.748	6707
912.862	6681
912.976	6635
913.09	6563
913.204	6623
913.318	6585
913.431	6631
913.545	6734
913.659	6688
913.772	6650
913.886	6544
914	6521
914.113	6547
914.226	6654
914.34	6646
914.453	6433
914.566	6631
914.68	6521
914.793	6559
914.906	6433
915.019	6418
915.132	6369
915.245	6448
915.358	6433
915.47	6464
915.583	6486
915.696	6486
915.809	6551
915.921	6502
916.034	6380
916.146	6388
916.259	6384
916.371	6464
916.483	6502
916.595	6403
916.708	6395
916.82	6418
916.932	6369
917.044	6395
917.156	6369
917.268	6357
917.38	6350
917.491	6289
917.603	6380
917.715	6338
917.826	6445
917.938	6346
918.049	6258
918.161	6315
918.272	6403
918.384	6441
918.495	6403
918.606	6235
918.717	6247
918.828	6296
918.939	6296
919.05	6209
919.161	6277
919.272	6091
919.383	6076
919.494	6285
919.604	6403
919.715	6270
919.826	6235
919.936	6224
920.047	6353
920.157	6277
920.267	6445
920.378	6327
920.488	6327
920.598	6418
920.708	6479
920.818	6445
920.928	6506
921.038	6536
921.148	6536
921.258	6353
921.368	6296
921.477	6251
921.587	6171
921.697	6140
921.806	6266
921.916	6015
922.025	5939
922.134	5927
922.244	5939
922.353	5920
922.462	5836
922.571	5786
922.68	5752
922.789	5691
922.898	5710
923.007	5608
923.116	5695
923.224	5729
923.333	5638
923.442	5604
923.55	5642
923.659	5570
923.767	5608
923.876	5505
923.984	5611
924.092	5490
924.201	5543
924.309	5509
924.417	5532
924.525	5490
924.633	5501
924.741	6232
924.849	5345
924.956	5493
925.064	5379
925.172	5277
925.279	5277
925.387	5353
925.494	5318
925.602	5436
925.709	5398
925.816	5303
925.924	5299
926.031	5360
926.138	5326
926.245	5269
926.352	5242
926.459	5303
926.566	5303
926.673	5189
926.779	5060
926.886	5121
926.993	5025
927.099	4976
927.206	4972
927.312	4991
927.419	5025
927.525	4984
927.631	4995
927.737	4839
927.843	4839
927.95	4759
928.056	4866
928.162	4850
928.267	4847
928.373	5372
928.479	4877
928.585	4694
928.69	4714
928.796	4816
928.901	4653
929.007	4558
929.112	4653
929.218	4668
929.323	4596
929.428	4531
929.533	4672
929.638	4493
929.743	4554
929.848	4588
929.953	4489
930.058	4466
930.163	4306
930.267	4363
930.372	4428
930.477	4329
930.581	4459
930.685	4314
930.79	4310
930.894	4257
930.998	4227
931.103	4379
931.207	4143
931.311	4112
931.415	4078
931.519	3941
931.623	3937
