Data from glass_V78500241_1676.txt Node
Date: Wed Sep 01 19:26:07 CST 2021
User: usil
Spectrometer: V785-0024
Trigger mode: 0
Integration Time (sec): 4.000000E-1
Scans to average: 1
Nonlinearity correction enabled: false
Boxcar width: 0
Storing dark spectrum: false
XAxis mode: Wavelengths
Number of Pixels in Spectrum: 1024
>>>>>Begin Spectral Data<<<<<
801.071	3698
801.214	3736
801.356	3720
801.499	3766
801.641	3747
801.783	3770
801.926	3861
802.068	3819
802.211	3816
802.353	3915
802.496	3846
802.638	3876
802.78	3861
802.923	3922
803.065	3899
803.208	3835
803.35	3865
803.492	3865
803.635	3926
803.777	3816
803.919	3896
804.061	4154
804.204	3934
804.346	3953
804.488	3945
804.63	4044
804.773	3960
804.915	4044
805.057	4139
805.199	4051
805.341	4071
805.483	4131
805.626	4128
805.768	4109
805.91	4181
806.052	4227
806.194	4211
806.336	4333
806.478	4219
806.62	4150
806.762	4181
806.904	4265
807.046	4299
807.188	4188
807.33	4192
807.472	4265
807.614	4173
807.756	4257
807.898	4196
808.04	4211
808.182	4310
808.324	4257
808.465	4337
808.607	4474
808.749	4424
808.891	4440
809.033	4466
809.174	4348
809.316	4227
809.458	4253
809.6	4135
809.741	4139
809.883	4158
810.025	4211
810.166	4246
810.308	4211
810.45	4284
810.591	4265
810.733	4322
810.875	4470
811.016	4797
811.158	5147
811.299	5235
811.441	5299
811.582	5056
811.724	4736
811.865	4500
812.007	4466
812.148	4421
812.29	4440
812.431	4398
812.573	4390
812.714	4394
812.855	4409
812.997	4459
813.138	4500
813.279	4386
813.421	4348
813.562	4390
813.703	4314
813.845	4333
813.986	4242
814.127	4242
814.268	4246
814.41	4261
814.551	4227
814.692	4348
814.833	4227
814.974	4360
815.115	4383
815.256	4211
815.397	4253
815.539	4284
815.68	4147
815.821	4192
815.962	4284
816.103	4284
816.244	4227
816.385	4268
816.526	4272
816.666	4238
816.807	4078
816.948	4185
817.089	4162
817.23	4086
817.371	4048
817.512	4078
817.653	4082
817.793	4055
817.934	4055
818.075	4124
818.216	4097
818.356	4067
818.497	3937
818.638	3896
818.778	3880
818.919	3876
819.06	3869
819.2	3922
819.341	3831
819.481	3865
819.622	3850
819.762	4044
819.903	3991
820.043	3816
820.184	3861
820.324	3785
820.465	3896
820.605	3876
820.746	3861
820.886	3804
821.026	3945
821.167	3915
821.307	4029
821.447	3953
821.588	3972
821.728	3915
821.868	3899
822.008	3876
822.149	3922
822.289	3907
822.429	3789
822.569	3743
822.709	3755
822.849	3667
822.99	3671
823.13	3762
823.27	3774
823.41	3694
823.55	3743
823.69	3736
823.83	3759
823.97	3667
824.11	3599
824.25	3618
824.389	3618
824.529	3625
824.669	3629
824.809	3698
824.949	3762
825.089	3747
825.228	3679
825.368	3603
825.508	3568
825.648	3572
825.787	3587
825.927	3656
826.067	3637
826.206	3660
826.346	3770
826.485	3846
826.625	3827
826.765	3918
826.904	3816
827.044	3587
827.183	3519
827.323	3485
827.462	3511
827.601	3454
827.741	3428
827.88	3469
828.02	3428
828.159	3435
828.298	3473
828.437	3534
828.577	3488
828.716	3584
828.855	3466
828.994	3409
829.134	3386
829.273	3405
829.412	3378
829.551	3336
829.69	3374
829.829	3401
829.968	3500
830.107	3412
830.246	3447
830.385	3359
830.524	3363
830.663	3340
830.802	3207
830.941	3157
831.08	3169
831.219	3245
831.357	3233
831.496	3363
831.635	3222
831.774	3188
831.913	3188
832.051	3116
832.19	3123
832.329	3214
832.467	3150
832.606	3093
832.744	3199
832.883	3195
833.022	3165
833.16	3279
833.299	3313
833.437	3370
833.576	3359
833.714	3363
833.852	3462
833.991	3431
834.129	3477
834.267	3424
834.406	3416
834.544	3420
834.682	3469
834.821	3435
834.959	3545
835.097	3409
835.235	3473
835.373	3507
835.511	3469
835.65	3454
835.788	3469
835.926	3393
836.064	3367
836.202	3401
836.34	3545
836.478	3610
836.615	3507
836.753	3606
836.891	3633
837.029	3595
837.167	3629
837.305	3557
837.443	3580
837.58	3511
837.718	3610
837.856	3530
837.993	3511
838.131	3584
838.269	3633
838.406	3561
838.544	3549
838.681	3492
838.819	3485
838.956	3386
839.094	3374
839.231	3401
839.369	3530
839.506	3667
839.643	3595
839.781	3500
839.918	3473
840.055	3500
840.193	3564
840.33	3519
840.467	3576
840.604	3591
840.742	3804
840.879	3576
841.016	3553
841.153	3576
841.29	3778
841.427	3747
841.564	3732
841.701	3751
841.838	3694
841.975	3663
842.112	3743
842.249	3584
842.385	3633
842.522	3835
842.659	3663
842.796	3625
842.933	3724
843.069	3694
843.206	3743
843.343	3781
843.479	3804
843.616	3789
843.752	3648
843.889	3667
844.025	3812
844.162	3682
844.298	3869
844.435	3793
844.571	3740
844.708	3884
844.844	3960
844.98	4040
845.117	4025
845.253	3918
845.389	3880
845.525	3937
845.661	3998
845.798	3922
845.934	3987
846.07	3937
846.206	4051
846.342	4097
846.478	4086
846.614	3960
846.75	3968
846.886	3911
847.022	4021
847.158	3998
847.294	4029
847.429	4048
847.565	3964
847.701	4211
847.837	3884
847.972	3861
848.108	3949
848.244	3972
848.379	3892
848.515	3831
848.65	3880
848.786	3812
848.921	3880
849.057	3873
849.192	3922
849.328	3892
849.463	3930
849.598	3937
849.734	3835
849.869	3842
850.004	3800
850.14	3793
850.275	3812
850.41	3728
850.545	3740
850.68	3774
850.815	3736
850.95	3778
851.085	3937
851.22	3884
851.355	3816
851.49	3816
851.625	3793
851.76	3831
851.895	3682
852.03	3736
852.165	3812
852.299	3835
852.434	3884
852.569	3876
852.703	3869
852.838	3880
852.973	4021
853.107	4010
853.242	3873
853.376	3869
853.511	3774
853.645	3873
853.78	4010
853.914	3903
854.048	3903
854.183	3896
854.317	3941
854.451	4025
854.585	3956
854.72	3941
854.854	4025
854.988	3926
855.122	3968
855.256	3911
855.39	3998
855.524	4105
855.658	4086
855.792	4112
855.926	4131
856.06	4150
856.194	4227
856.327	4112
856.461	4147
856.595	4116
856.729	4177
856.862	4295
856.996	4257
857.13	4276
857.263	4310
857.397	4383
857.53	4295
857.664	4333
857.797	4436
857.931	4436
858.064	4417
858.197	4436
858.331	4409
858.464	4371
858.597	4363
858.731	4398
858.864	4462
858.997	4478
859.13	4554
859.263	4497
859.396	4599
859.529	4546
859.662	4535
859.795	4542
859.928	4592
860.061	4706
860.194	4752
860.327	4637
860.46	4603
860.592	4687
860.725	4702
860.858	4744
860.99	4656
861.123	4721
861.256	4706
861.388	4771
861.521	5364
861.653	4664
861.786	4691
861.918	4759
862.05	4782
862.183	4847
862.315	4877
862.447	4923
862.58	4915
862.712	4831
862.844	4725
862.976	4889
863.108	4915
863.24	5208
863.372	4831
863.504	4881
863.636	4900
863.768	4927
863.9	4965
864.032	4919
864.164	4919
864.296	5037
864.428	5094
864.559	5113
864.691	5098
864.823	5128
864.954	5162
865.086	5204
865.217	5155
865.349	5143
865.48	5143
865.612	5223
865.743	5273
865.875	5250
866.006	5151
866.137	5265
866.269	5201
866.4	5201
866.531	5246
866.662	5239
866.793	5311
866.924	5277
867.055	5334
867.186	5334
867.317	5311
867.448	5322
867.579	5383
867.71	5326
867.841	5341
867.972	5493
868.103	5467
868.233	5490
868.364	5543
868.495	5577
868.625	5649
868.756	5771
868.886	5680
869.017	5714
869.147	5809
869.278	5878
869.408	5836
869.539	5844
869.669	5885
869.799	5863
869.929	5996
870.06	6049
870.19	6182
870.32	6216
870.45	6289
870.58	6296
870.71	6433
870.84	6479
870.97	6467
871.1	6403
871.23	6574
871.36	6684
871.489	6650
871.619	6726
871.749	6719
871.879	6890
872.008	6962
872.138	6943
872.267	6996
872.397	7027
872.526	7053
872.656	7072
872.785	7145
872.915	7407
873.044	7518
873.173	7582
873.303	7616
873.432	7731
873.561	7860
873.69	7906
873.819	8043
873.948	8142
874.077	8199
874.206	8317
874.335	8431
874.464	8651
874.593	8921
874.722	8963
874.851	9100
874.979	9214
875.108	9374
875.237	9439
875.365	9519
875.494	9652
875.623	9873
875.751	9835
875.88	9941
876.008	10135
876.136	10253
876.265	10531
876.393	10630
876.521	10782
876.65	10953
876.778	10843
876.906	10911
877.034	10984
877.162	11083
877.29	11140
877.418	11258
877.546	11250
877.674	11478
877.802	11535
877.93	11509
878.058	11604
878.185	11566
878.313	11695
878.441	11741
878.568	11680
878.696	11707
878.824	11824
878.951	11878
879.079	11961
879.206	12133
879.333	12049
879.461	11935
879.588	12091
879.715	12121
879.842	12182
879.97	12068
880.097	11794
880.224	11878
880.351	11828
880.478	11946
880.605	11798
880.732	11832
880.859	11969
880.986	11836
881.112	11904
881.239	11729
881.366	11608
881.493	11630
881.619	11535
881.746	11535
881.872	11459
881.999	11448
882.125	11455
882.252	11524
882.378	11501
882.505	11573
882.631	11322
882.757	11269
882.883	11353
883.01	11337
883.136	11239
883.262	11075
883.388	11037
883.514	11128
883.64	11170
883.766	11124
883.892	11041
884.018	10957
884.143	11018
884.269	11090
884.395	10831
884.52	10774
884.646	10721
884.772	10767
884.897	10694
885.023	10660
885.148	10790
885.274	10790
885.399	10641
885.524	10649
885.65	10607
885.775	10584
885.9	10584
886.025	10653
886.15	10478
886.275	10402
886.4	10367
886.525	10409
886.65	10360
886.775	10325
886.9	10474
887.025	10470
887.149	10360
887.274	10105
887.399	10227
887.523	10147
887.648	10166
887.773	10131
887.897	10120
888.021	10207
888.146	10131
888.27	10257
888.395	10246
888.519	10158
888.643	10154
888.767	10158
888.891	10101
889.015	9998
889.139	10006
889.263	10021
889.387	10093
889.511	10162
889.635	10090
889.759	9937
889.883	9998
890.006	9979
890.13	10109
890.254	9953
890.377	9915
890.501	9846
890.624	9808
890.748	9857
890.871	9766
890.995	9694
891.118	9694
891.241	9736
891.364	9701
891.488	9797
891.611	9713
891.734	9770
891.857	9781
891.98	9747
892.103	9827
892.226	9720
892.349	9660
892.471	9568
892.594	9599
892.717	9622
892.839	9625
892.962	9679
893.085	9629
893.207	9603
893.33	9511
893.452	9553
893.575	9682
893.697	9500
893.819	9572
893.941	9663
894.064	9591
894.186	9359
894.308	9439
894.43	9599
894.552	9534
894.674	9538
894.796	9249
894.918	9359
895.04	9325
895.161	9359
895.283	9408
895.405	9279
895.526	9245
895.648	9253
895.769	9233
895.891	9287
896.012	9272
896.134	9222
896.255	9214
896.376	9104
896.498	9180
896.619	9192
896.74	9112
896.861	9074
896.982	9313
897.103	9348
897.224	9176
897.345	9017
897.466	8967
897.587	9013
897.708	9123
897.828	8986
897.949	8982
898.07	8838
898.19	8857
898.311	8960
898.431	8918
898.552	8979
898.672	8990
898.792	8933
898.913	8880
899.033	8845
899.153	8777
899.273	8674
899.393	8701
899.513	8750
899.633	8705
899.753	8686
899.873	8712
899.993	8785
900.113	8739
900.232	8727
900.352	8655
900.472	8655
900.591	8537
900.711	8636
900.83	8549
900.95	8724
901.069	8659
901.189	8583
901.308	8400
901.427	8389
901.546	8396
901.665	8423
901.784	8495
901.904	8355
902.023	8404
902.141	8317
902.26	8199
902.379	8221
902.498	8244
902.617	8210
902.735	8290
902.854	8301
902.973	8271
903.091	8119
903.21	8138
903.328	8202
903.446	8107
903.565	8012
903.683	8081
903.801	8084
903.919	8138
904.038	8138
904.156	8043
904.274	8084
904.392	8077
904.51	7967
904.627	8050
904.745	8054
904.863	8046
904.981	7993
905.098	7852
905.216	7890
905.334	7932
905.451	7902
905.569	7845
905.686	7955
905.803	7883
905.921	7761
906.038	7811
906.155	7784
906.272	7662
906.389	7700
906.506	7636
906.623	7647
906.74	7552
906.857	7548
906.974	7567
907.091	7685
907.208	7734
907.324	7632
907.441	7590
907.557	7464
907.674	7502
907.79	7430
907.907	7438
908.023	7426
908.139	7430
908.256	7377
908.372	7392
908.488	7331
908.604	7289
908.72	7202
908.836	7274
908.952	7255
909.068	7228
909.184	7384
909.3	7198
909.415	7293
909.531	7327
909.647	7183
909.762	7126
909.878	7027
909.993	7156
910.108	7099
910.224	7091
910.339	7114
910.454	7053
910.57	7019
910.685	6920
910.8	7206
910.915	7187
911.03	6993
911.145	6844
911.259	6878
911.374	6867
911.489	6856
911.604	6806
911.718	6700
911.833	6722
911.947	6650
912.062	6616
912.176	6726
912.291	6688
912.405	6722
912.519	6814
912.633	6886
912.748	6677
912.862	6715
912.976	6623
913.09	6566
913.204	6677
913.318	6612
913.431	6642
913.545	6703
913.659	6703
913.772	6646
913.886	6585
914	6555
914.113	6639
914.226	6608
914.34	6677
914.453	6388
914.566	6631
914.68	6563
914.793	6506
914.906	6452
915.019	6448
915.132	6334
915.245	6437
915.358	6479
915.47	6422
915.583	6486
915.696	6467
915.809	6589
915.921	6593
916.034	6407
916.146	6395
916.259	6395
916.371	6407
916.483	6460
916.595	6380
916.708	6429
916.82	6357
916.932	6372
917.044	6414
917.156	6388
917.268	6273
917.38	6319
917.491	6361
917.603	6388
917.715	6369
917.826	6372
917.938	6346
918.049	6262
918.161	6338
918.272	6418
918.384	6410
918.495	6334
918.606	6216
918.717	6213
918.828	6228
918.939	6308
919.05	6247
919.161	6209
919.272	6087
919.383	6133
919.494	6232
919.604	6448
919.715	6331
919.826	6262
919.936	6205
920.047	6365
920.157	6266
920.267	6399
920.378	6334
920.488	6273
920.598	6460
920.708	6589
920.818	6452
920.928	6483
921.038	6574
921.148	6608
921.258	6426
921.368	6308
921.477	6167
921.587	6171
921.697	6140
921.806	6175
921.916	6019
922.025	5980
922.134	5912
922.244	5942
922.353	5950
922.462	5874
922.571	5809
922.68	5710
922.789	5600
922.898	5748
923.007	5630
923.116	5684
923.224	5672
923.333	5665
923.442	5630
923.55	5592
923.659	5562
923.767	5619
923.876	5520
923.984	5566
924.092	5520
924.201	5562
924.309	5539
924.417	5528
924.525	5497
924.633	5490
924.741	6300
924.849	5349
924.956	5440
925.064	5341
925.172	5292
925.279	5315
925.387	5326
925.494	5307
925.602	5429
925.709	5368
925.816	5307
925.924	5349
926.031	5318
926.138	5353
926.245	5315
926.352	5174
926.459	5349
926.566	5326
926.673	5147
926.779	5132
926.886	5170
926.993	4965
927.099	4984
927.206	4972
927.312	4972
927.419	5010
927.525	4984
927.631	5010
927.737	4930
927.843	4892
927.95	4774
928.056	4828
928.162	4820
928.267	4881
928.373	5341
928.479	4862
928.585	4634
928.69	4763
928.796	4782
928.901	4694
929.007	4603
929.112	4607
929.218	4664
929.323	4637
929.428	4561
929.533	4630
929.638	4508
929.743	4508
929.848	4527
929.953	4512
930.058	4474
930.163	4295
930.267	4375
930.372	4462
930.477	4329
930.581	4462
930.685	4367
930.79	4265
930.894	4253
930.998	4238
931.103	4363
931.207	4112
931.311	4059
931.415	4036
931.519	3922
931.623	3934
