Data from glass_V78500241_629.txt Node
Date: Wed Sep 01 19:18:51 CST 2021
User: usil
Spectrometer: V785-0024
Trigger mode: 0
Integration Time (sec): 4.000000E-1
Scans to average: 1
Nonlinearity correction enabled: false
Boxcar width: 0
Storing dark spectrum: false
XAxis mode: Wavelengths
Number of Pixels in Spectrum: 1024
>>>>>Begin Spectral Data<<<<<
801.071	3724
801.214	3785
801.356	3736
801.499	3728
801.641	3736
801.783	3804
801.926	3869
802.068	3873
802.211	3888
802.353	3899
802.496	3876
802.638	3876
802.78	3880
802.923	3937
803.065	3918
803.208	3865
803.35	3892
803.492	3903
803.635	3903
803.777	3838
803.919	3945
804.061	4154
804.204	3937
804.346	3937
804.488	3896
804.63	4082
804.773	4006
804.915	3994
805.057	4181
805.199	4040
805.341	4101
805.483	4124
805.626	4131
805.768	4185
805.91	4234
806.052	4246
806.194	4207
806.336	4379
806.478	4215
806.62	4192
806.762	4192
806.904	4242
807.046	4363
807.188	4268
807.33	4219
807.472	4318
807.614	4204
807.756	4284
807.898	4242
808.04	4257
808.182	4329
808.324	4379
808.465	4383
808.607	4481
808.749	4474
808.891	4455
809.033	4531
809.174	4409
809.316	4291
809.458	4253
809.6	4173
809.741	4143
809.883	4112
810.025	4242
810.166	4196
810.308	4261
810.45	4295
810.591	4272
810.733	4318
810.875	4542
811.016	4820
811.158	5128
811.299	5246
811.441	5330
811.582	5048
811.724	4717
811.865	4489
812.007	4447
812.148	4455
812.29	4462
812.431	4447
812.573	4447
812.714	4398
812.855	4424
812.997	4424
813.138	4550
813.279	4375
813.421	4405
813.562	4375
813.703	4356
813.845	4322
813.986	4276
814.127	4253
814.268	4276
814.41	4299
814.551	4257
814.692	4333
814.833	4253
814.974	4363
815.115	4360
815.256	4230
815.397	4249
815.539	4276
815.68	4185
815.821	4219
815.962	4310
816.103	4280
816.244	4219
816.385	4238
816.526	4280
816.666	4192
816.807	4109
816.948	4207
817.089	4230
817.23	4105
817.371	4029
817.512	4074
817.653	4082
817.793	4059
817.934	4067
818.075	4158
818.216	4128
818.356	4105
818.497	4006
818.638	3930
818.778	3911
818.919	3880
819.06	3884
819.2	3926
819.341	3907
819.481	3854
819.622	3892
819.762	4071
819.903	3979
820.043	3838
820.184	3854
820.324	3857
820.465	3873
820.605	3857
820.746	3888
820.886	3819
821.026	3915
821.167	3903
821.307	3994
821.447	3991
821.588	3964
821.728	3975
821.868	3937
822.008	3911
822.149	3903
822.289	3945
822.429	3812
822.569	3789
822.709	3808
822.849	3701
822.99	3743
823.13	3804
823.27	3778
823.41	3717
823.55	3766
823.69	3770
823.83	3755
823.97	3705
824.11	3629
824.25	3568
824.389	3641
824.529	3709
824.669	3663
824.809	3705
824.949	3797
825.089	3740
825.228	3747
825.368	3648
825.508	3534
825.648	3572
825.787	3625
825.927	3614
826.067	3652
826.206	3698
826.346	3797
826.485	3842
826.625	3903
826.765	3941
826.904	3819
827.044	3648
827.183	3553
827.323	3428
827.462	3511
827.601	3458
827.741	3401
827.88	3477
828.02	3382
828.159	3496
828.298	3496
828.437	3549
828.577	3462
828.716	3637
828.855	3542
828.994	3393
829.134	3370
829.273	3447
829.412	3386
829.551	3306
829.69	3389
829.829	3447
829.968	3500
830.107	3473
830.246	3443
830.385	3405
830.524	3378
830.663	3306
830.802	3264
830.941	3226
831.08	3169
831.219	3302
831.357	3283
831.496	3355
831.635	3264
831.774	3169
831.913	3199
832.051	3173
832.19	3154
832.329	3218
832.467	3142
832.606	3142
832.744	3157
832.883	3192
833.022	3192
833.16	3275
833.299	3336
833.437	3355
833.576	3382
833.714	3405
833.852	3424
833.991	3485
834.129	3477
834.267	3504
834.406	3420
834.544	3439
834.682	3393
834.821	3435
834.959	3595
835.097	3401
835.235	3587
835.373	3534
835.511	3526
835.65	3466
835.788	3507
835.926	3424
836.064	3401
836.202	3443
836.34	3606
836.478	3576
836.615	3549
836.753	3599
836.891	3633
837.029	3603
837.167	3591
837.305	3580
837.443	3507
837.58	3523
837.718	3618
837.856	3584
837.993	3557
838.131	3599
838.269	3603
838.406	3580
838.544	3599
838.681	3519
838.819	3469
838.956	3424
839.094	3397
839.231	3435
839.369	3492
839.506	3785
839.643	3622
839.781	3500
839.918	3469
840.055	3549
840.193	3542
840.33	3557
840.467	3603
840.604	3587
840.742	3827
840.879	3576
841.016	3584
841.153	3584
841.29	3789
841.427	3732
841.564	3747
841.701	3759
841.838	3705
841.975	3682
842.112	3690
842.249	3625
842.385	3622
842.522	3854
842.659	3717
842.796	3656
842.933	3728
843.069	3724
843.206	3766
843.343	3808
843.479	3766
843.616	3838
843.752	3701
843.889	3656
844.025	3861
844.162	3686
844.298	3846
844.435	3823
844.571	3816
844.708	3899
844.844	4017
844.98	4032
845.117	3987
845.253	3930
845.389	3941
845.525	3968
845.661	3987
845.798	3907
845.934	3994
846.07	3949
846.206	4093
846.342	4143
846.478	4059
846.614	3987
846.75	3949
846.886	3907
847.022	4078
847.158	4017
847.294	4006
847.429	4044
847.565	3964
847.701	4287
847.837	3911
847.972	3907
848.108	4013
848.244	3983
848.379	3869
848.515	3808
848.65	3808
848.786	3850
848.921	3884
849.057	3941
849.192	3945
849.328	3945
849.463	3930
849.598	3903
849.734	3857
849.869	3827
850.004	3785
850.14	3785
850.275	3831
850.41	3774
850.545	3797
850.68	3797
850.815	3785
850.95	3819
851.085	3918
851.22	3865
851.355	3876
851.49	3835
851.625	3800
851.76	3827
851.895	3751
852.03	3713
852.165	3816
852.299	3835
852.434	3964
852.569	3861
852.703	3930
852.838	3964
852.973	4044
853.107	3998
853.242	3899
853.376	3842
853.511	3827
853.645	3873
853.78	4017
853.914	3884
854.048	3926
854.183	3911
854.317	3968
854.451	4093
854.585	3945
854.72	3953
854.854	4040
854.988	3907
855.122	4013
855.256	3964
855.39	4029
855.524	4124
855.658	4101
855.792	4135
855.926	4150
856.06	4150
856.194	4207
856.327	4147
856.461	4139
856.595	4188
856.729	4253
856.862	4299
856.996	4234
857.13	4295
857.263	4325
857.397	4409
857.53	4310
857.664	4383
857.797	4390
857.931	4432
858.064	4394
858.197	4459
858.331	4405
858.464	4424
858.597	4459
858.731	4481
858.864	4470
858.997	4421
859.13	4519
859.263	4558
859.396	4622
859.529	4546
859.662	4542
859.795	4504
859.928	4649
860.061	4725
860.194	4771
860.327	4660
860.46	4679
860.592	4774
860.725	4759
860.858	4793
860.99	4679
861.123	4717
861.256	4736
861.388	4748
861.521	5330
861.653	4729
861.786	4675
861.918	4733
862.05	4771
862.183	4873
862.315	4873
862.447	4961
862.58	4873
862.712	4839
862.844	4744
862.976	4919
863.108	4885
863.24	5223
863.372	4866
863.504	4915
863.636	4965
863.768	5003
863.9	4946
864.032	4957
864.164	4919
864.296	4987
864.428	5151
864.559	5170
864.691	5147
864.823	5147
864.954	5105
865.086	5143
865.217	5178
865.349	5109
865.48	5170
865.612	5174
865.743	5311
865.875	5216
866.006	5181
866.137	5197
866.269	5277
866.4	5269
866.531	5227
866.662	5277
866.793	5223
866.924	5311
867.055	5307
867.186	5398
867.317	5311
867.448	5372
867.579	5398
867.71	5383
867.841	5410
867.972	5490
868.103	5501
868.233	5471
868.364	5570
868.495	5547
868.625	5672
868.756	5817
868.886	5695
869.017	5786
869.147	5809
869.278	5935
869.408	5760
869.539	5874
869.669	5916
869.799	5904
869.929	6034
870.06	6068
870.19	6178
870.32	6216
870.45	6300
870.58	6353
870.71	6452
870.84	6399
870.97	6441
871.1	6407
871.23	6642
871.36	6642
871.489	6688
871.619	6696
871.749	6814
871.879	6875
872.008	7019
872.138	6935
872.267	7004
872.397	6989
872.526	7053
872.656	7164
872.785	7217
872.915	7384
873.044	7510
873.173	7548
873.303	7655
873.432	7769
873.561	7868
873.69	7868
873.819	8043
873.948	8172
874.077	8324
874.206	8419
874.335	8480
874.464	8651
874.593	8899
874.722	8971
874.851	9123
874.979	9245
875.108	9412
875.237	9420
875.365	9408
875.494	9743
875.623	9930
875.751	9895
875.88	10044
876.008	10124
876.136	10295
876.265	10527
876.393	10702
876.521	10675
876.65	10786
876.778	10866
876.906	10953
877.034	10961
877.162	11067
877.29	11227
877.418	11231
877.546	11379
877.674	11440
877.802	11436
877.93	11604
878.058	11581
878.185	11585
878.313	11688
878.441	11775
878.568	11688
878.696	11783
878.824	11904
878.951	11958
879.079	11999
879.206	12102
879.333	12076
879.461	12049
879.588	12136
879.715	12057
879.842	12277
879.97	12011
880.097	11893
880.224	11908
880.351	11863
880.478	11851
880.605	11927
880.732	11745
880.859	11958
880.986	11783
881.112	11832
881.239	11752
881.366	11642
881.493	11642
881.619	11581
881.746	11581
881.872	11520
881.999	11516
882.125	11501
882.252	11543
882.378	11528
882.505	11573
882.631	11414
882.757	11254
882.883	11353
883.01	11231
883.136	11155
883.262	11102
883.388	11079
883.514	11254
883.64	11136
883.766	11090
883.892	10968
884.018	11025
884.143	11022
884.269	11098
884.395	10831
884.52	10759
884.646	10797
884.772	10687
884.897	10744
885.023	10694
885.148	10736
885.274	10835
885.399	10706
885.524	10694
885.65	10618
885.775	10573
885.9	10596
886.025	10546
886.15	10588
886.275	10432
886.4	10405
886.525	10497
886.65	10409
886.775	10303
886.9	10497
887.025	10527
887.149	10344
887.274	10280
887.399	10215
887.523	10204
887.648	10120
887.773	10158
887.897	10169
888.021	10268
888.146	10147
888.27	10223
888.395	10234
888.519	10211
888.643	10272
888.767	10150
888.891	10109
889.015	10013
889.139	10105
889.263	10021
889.387	10044
889.511	10169
889.635	10139
889.759	10040
889.883	9953
890.006	9994
890.13	10074
890.254	9960
890.377	9979
890.501	9895
890.624	9964
890.748	9930
890.871	9789
890.995	9770
891.118	9724
891.241	9778
891.364	9789
891.488	9854
891.611	9694
891.734	9766
891.857	9785
891.98	9713
892.103	9766
892.226	9736
892.349	9663
892.471	9500
892.594	9629
892.717	9625
892.839	9603
892.962	9648
893.085	9713
893.207	9587
893.33	9500
893.452	9507
893.575	9618
893.697	9523
893.819	9629
893.941	9667
894.064	9724
894.186	9469
894.308	9401
894.43	9553
894.552	9595
894.674	9648
894.796	9363
894.918	9374
895.04	9386
895.161	9351
895.283	9355
895.405	9298
895.526	9249
895.648	9253
895.769	9329
895.891	9150
896.012	9310
896.134	9264
896.255	9127
896.376	9169
896.498	9135
896.619	9127
896.74	9104
896.861	9085
896.982	9355
897.103	9329
897.224	9146
897.345	9104
897.466	9062
897.587	9036
897.708	9093
897.828	9017
897.949	8982
898.07	8906
898.19	8895
898.311	8986
898.431	8868
898.552	8948
898.672	8910
898.792	8925
898.913	8918
899.033	8731
899.153	8678
899.273	8712
899.393	8724
899.513	8804
899.633	8678
899.753	8674
899.873	8746
899.993	8731
900.113	8766
900.232	8735
900.352	8739
900.472	8651
900.591	8564
900.711	8667
900.83	8560
900.95	8708
901.069	8708
901.189	8598
901.308	8457
901.427	8434
901.546	8446
901.665	8499
901.784	8518
901.904	8427
902.023	8358
902.141	8320
902.26	8164
902.379	8343
902.498	8305
902.617	8271
902.735	8240
902.854	8366
902.973	8328
903.091	8164
903.21	8145
903.328	8138
903.446	8062
903.565	8138
903.683	8100
903.801	7997
903.919	8123
904.038	8206
904.156	8046
904.274	8024
904.392	8016
904.51	8062
904.627	8065
904.745	8103
904.863	8103
904.981	7932
905.098	7830
905.216	7837
905.334	7837
905.451	7932
905.569	7864
905.686	7967
905.803	7898
905.921	7826
906.038	7849
906.155	7807
906.272	7681
906.389	7811
906.506	7655
906.623	7655
906.74	7693
906.857	7491
906.974	7613
907.091	7685
907.208	7795
907.324	7616
907.441	7590
907.557	7415
907.674	7495
907.79	7445
907.907	7449
908.023	7419
908.139	7460
908.256	7407
908.372	7354
908.488	7384
908.604	7259
908.72	7217
908.836	7308
908.952	7278
909.068	7259
909.184	7365
909.3	7244
909.415	7312
909.531	7293
909.647	7107
909.762	7152
909.878	7145
909.993	7156
910.108	7156
910.224	7084
910.339	7122
910.454	7053
910.57	7080
910.685	6939
910.8	7175
910.915	7061
911.03	7000
911.145	6920
911.259	6913
911.374	6890
911.489	6829
911.604	6806
911.718	6696
911.833	6673
911.947	6696
912.062	6585
912.176	6722
912.291	6734
912.405	6772
912.519	6821
912.633	6844
912.748	6753
912.862	6722
912.976	6612
913.09	6555
913.204	6582
913.318	6677
913.431	6688
913.545	6719
913.659	6753
913.772	6688
913.886	6620
914	6547
914.113	6608
914.226	6646
914.34	6612
914.453	6506
914.566	6582
914.68	6536
914.793	6544
914.906	6456
915.019	6490
915.132	6391
915.245	6414
915.358	6391
915.47	6414
915.583	6483
915.696	6486
915.809	6544
915.921	6513
916.034	6464
916.146	6407
916.259	6475
916.371	6532
916.483	6509
916.595	6376
916.708	6407
916.82	6384
916.932	6380
917.044	6433
917.156	6426
917.268	6289
917.38	6346
917.491	6315
917.603	6334
917.715	6395
917.826	6433
917.938	6361
918.049	6232
918.161	6338
918.272	6407
918.384	6418
918.495	6403
918.606	6194
918.717	6277
918.828	6216
918.939	6251
919.05	6216
919.161	6262
919.272	6152
919.383	6194
919.494	6308
919.604	6467
919.715	6273
919.826	6186
919.936	6239
920.047	6334
920.157	6296
920.267	6441
920.378	6296
920.488	6327
920.598	6464
920.708	6555
920.818	6456
920.928	6509
921.038	6601
921.148	6635
921.258	6334
921.368	6384
921.477	6232
921.587	6216
921.697	6159
921.806	6205
921.916	6117
922.025	5920
922.134	5935
922.244	5840
922.353	5942
922.462	5851
922.571	5813
922.68	5813
922.789	5688
922.898	5741
923.007	5691
923.116	5718
923.224	5707
923.333	5615
923.442	5577
923.55	5592
923.659	5581
923.767	5604
923.876	5589
923.984	5592
924.092	5497
924.201	5573
924.309	5604
924.417	5585
924.525	5497
924.633	5482
924.741	6281
924.849	5360
924.956	5482
925.064	5391
925.172	5307
925.279	5349
925.387	5410
925.494	5326
925.602	5459
925.709	5383
925.816	5258
925.924	5360
926.031	5326
926.138	5246
926.245	5318
926.352	5216
926.459	5303
926.566	5341
926.673	5246
926.779	5170
926.886	5124
926.993	5037
927.099	5022
927.206	4972
927.312	5006
927.419	5041
927.525	4980
927.631	4991
927.737	4915
927.843	4942
927.95	4778
928.056	4809
928.162	4801
928.267	4862
928.373	5315
928.479	4892
928.585	4694
928.69	4793
928.796	4759
928.901	4675
929.007	4611
929.112	4714
929.218	4637
929.323	4580
929.428	4550
929.533	4679
929.638	4542
929.743	4611
929.848	4588
929.953	4561
930.058	4413
930.163	4344
930.267	4306
930.372	4436
930.477	4299
930.581	4500
930.685	4375
930.79	4242
930.894	4303
930.998	4261
931.103	4371
931.207	4143
931.311	4128
931.415	4006
931.519	3930
931.623	3949
