Data from glass_V78500241_1675.txt Node
Date: Wed Sep 01 19:26:06 CST 2021
User: usil
Spectrometer: V785-0024
Trigger mode: 0
Integration Time (sec): 4.000000E-1
Scans to average: 1
Nonlinearity correction enabled: false
Boxcar width: 0
Storing dark spectrum: false
XAxis mode: Wavelengths
Number of Pixels in Spectrum: 1024
>>>>>Begin Spectral Data<<<<<
801.071	3736
801.214	3781
801.356	3717
801.499	3740
801.641	3751
801.783	3755
801.926	3831
802.068	3842
802.211	3880
802.353	3831
802.496	3869
802.638	3903
802.78	3876
802.923	3892
803.065	3911
803.208	3838
803.35	3896
803.492	3869
803.635	3888
803.777	3789
803.919	3846
804.061	4154
804.204	3911
804.346	3972
804.488	3953
804.63	4025
804.773	3922
804.915	4021
805.057	4131
805.199	4010
805.341	4093
805.483	4074
805.626	4112
805.768	4109
805.91	4196
806.052	4234
806.194	4204
806.336	4329
806.478	4177
806.62	4234
806.762	4169
806.904	4249
807.046	4325
807.188	4280
807.33	4204
807.472	4204
807.614	4207
807.756	4253
807.898	4204
808.04	4238
808.182	4276
808.324	4306
808.465	4375
808.607	4474
808.749	4466
808.891	4497
809.033	4485
809.174	4432
809.316	4295
809.458	4265
809.6	4158
809.741	4166
809.883	4188
810.025	4215
810.166	4192
810.308	4253
810.45	4227
810.591	4215
810.733	4295
810.875	4554
811.016	4854
811.158	5121
811.299	5273
811.441	5299
811.582	5090
811.724	4702
811.865	4485
812.007	4462
812.148	4493
812.29	4413
812.431	4428
812.573	4352
812.714	4337
812.855	4424
812.997	4474
813.138	4478
813.279	4424
813.421	4398
813.562	4352
813.703	4306
813.845	4344
813.986	4257
814.127	4238
814.268	4272
814.41	4291
814.551	4299
814.692	4314
814.833	4287
814.974	4314
815.115	4310
815.256	4287
815.397	4276
815.539	4234
815.68	4207
815.821	4223
815.962	4329
816.103	4268
816.244	4265
816.385	4223
816.526	4329
816.666	4230
816.807	4154
816.948	4192
817.089	4116
817.23	4135
817.371	4063
817.512	4044
817.653	4067
817.793	4051
817.934	4040
818.075	4143
818.216	4109
818.356	4078
818.497	3975
818.638	3903
818.778	3911
818.919	3884
819.06	3854
819.2	3903
819.341	3861
819.481	3865
819.622	3880
819.762	4051
819.903	3937
820.043	3819
820.184	3816
820.324	3804
820.465	3861
820.605	3869
820.746	3884
820.886	3751
821.026	3922
821.167	3907
821.307	3994
821.447	3949
821.588	3911
821.728	3964
821.868	3960
822.008	3846
822.149	3903
822.289	3930
822.429	3770
822.569	3728
822.709	3770
822.849	3713
822.99	3728
823.13	3759
823.27	3778
823.41	3690
823.55	3743
823.69	3686
823.83	3755
823.97	3671
824.11	3622
824.25	3576
824.389	3648
824.529	3637
824.669	3660
824.809	3728
824.949	3736
825.089	3736
825.228	3743
825.368	3553
825.508	3538
825.648	3568
825.787	3599
825.927	3637
826.067	3637
826.206	3671
826.346	3800
826.485	3823
826.625	3873
826.765	3968
826.904	3842
827.044	3641
827.183	3526
827.323	3443
827.462	3488
827.601	3450
827.741	3431
827.88	3488
828.02	3336
828.159	3439
828.298	3496
828.437	3538
828.577	3492
828.716	3610
828.855	3477
828.994	3397
829.134	3348
829.273	3348
829.412	3332
829.551	3336
829.69	3378
829.829	3412
829.968	3530
830.107	3443
830.246	3389
830.385	3389
830.524	3363
830.663	3283
830.802	3245
830.941	3192
831.08	3188
831.219	3249
831.357	3287
831.496	3439
831.635	3249
831.774	3195
831.913	3203
832.051	3173
832.19	3131
832.329	3214
832.467	3131
832.606	3085
832.744	3146
832.883	3169
833.022	3188
833.16	3272
833.299	3275
833.437	3336
833.576	3386
833.714	3409
833.852	3439
833.991	3450
834.129	3443
834.267	3450
834.406	3435
834.544	3443
834.682	3412
834.821	3382
834.959	3576
835.097	3401
835.235	3507
835.373	3485
835.511	3485
835.65	3450
835.788	3466
835.926	3450
836.064	3386
836.202	3382
836.34	3610
836.478	3614
836.615	3507
836.753	3587
836.891	3591
837.029	3622
837.167	3580
837.305	3549
837.443	3568
837.58	3481
837.718	3614
837.856	3530
837.993	3568
838.131	3568
838.269	3557
838.406	3599
838.544	3584
838.681	3492
838.819	3462
838.956	3344
839.094	3389
839.231	3458
839.369	3507
839.506	3720
839.643	3648
839.781	3515
839.918	3454
840.055	3557
840.193	3500
840.33	3564
840.467	3557
840.604	3599
840.742	3800
840.879	3538
841.016	3542
841.153	3671
841.29	3766
841.427	3747
841.564	3717
841.701	3728
841.838	3701
841.975	3675
842.112	3759
842.249	3587
842.385	3591
842.522	3819
842.659	3694
842.796	3682
842.933	3709
843.069	3701
843.206	3694
843.343	3850
843.479	3770
843.616	3835
843.752	3663
843.889	3682
844.025	3896
844.162	3701
844.298	3876
844.435	3831
844.571	3770
844.708	3876
844.844	3953
844.98	4013
845.117	4013
845.253	3941
845.389	3918
845.525	3972
845.661	3979
845.798	3926
845.934	4006
846.07	3975
846.206	4025
846.342	4101
846.478	4017
846.614	3941
846.75	3956
846.886	3903
847.022	4021
847.158	3983
847.294	4032
847.429	3991
847.565	4021
847.701	4276
847.837	3854
847.972	3896
848.108	3994
848.244	3998
848.379	3846
848.515	3804
848.65	3827
848.786	3835
848.921	3869
849.057	3918
849.192	3941
849.328	3873
849.463	3937
849.598	3869
849.734	3896
849.869	3800
850.004	3785
850.14	3835
850.275	3812
850.41	3705
850.545	3762
850.68	3762
850.815	3800
850.95	3804
851.085	3915
851.22	3869
851.355	3838
851.49	3804
851.625	3808
851.76	3800
851.895	3759
852.03	3709
852.165	3778
852.299	3823
852.434	3907
852.569	3884
852.703	3896
852.838	3941
852.973	3949
853.107	3994
853.242	3884
853.376	3808
853.511	3724
853.645	3846
853.78	3975
853.914	3918
854.048	3865
854.183	3892
854.317	3998
854.451	4063
854.585	3968
854.72	3956
854.854	4059
854.988	3888
855.122	4044
855.256	3949
855.39	4036
855.524	4097
855.658	4090
855.792	4120
855.926	4097
856.06	4154
856.194	4223
856.327	4150
856.461	4116
856.595	4158
856.729	4166
856.862	4265
856.996	4242
857.13	4344
857.263	4318
857.397	4344
857.53	4265
857.664	4310
857.797	4390
857.931	4390
858.064	4413
858.197	4462
858.331	4363
858.464	4333
858.597	4325
858.731	4436
858.864	4512
858.997	4493
859.13	4516
859.263	4558
859.396	4641
859.529	4584
859.662	4512
859.795	4500
859.928	4588
860.061	4664
860.194	4706
860.327	4656
860.46	4618
860.592	4725
860.725	4774
860.858	4729
860.99	4694
861.123	4698
861.256	4710
861.388	4759
861.521	5436
861.653	4725
861.786	4679
861.918	4778
862.05	4820
862.183	4828
862.315	4877
862.447	4953
862.58	4900
862.712	4778
862.844	4740
862.976	4911
863.108	4870
863.24	5280
863.372	4831
863.504	4881
863.636	4911
863.768	4965
863.9	4984
864.032	4961
864.164	4999
864.296	5041
864.428	5067
864.559	5102
864.691	5067
864.823	5124
864.954	5151
865.086	5102
865.217	5124
865.349	5079
865.48	5181
865.612	5220
865.743	5322
865.875	5204
866.006	5197
866.137	5216
866.269	5250
866.4	5280
866.531	5197
866.662	5292
866.793	5258
866.924	5337
867.055	5315
867.186	5311
867.317	5277
867.448	5261
867.579	5421
867.71	5372
867.841	5410
867.972	5425
868.103	5474
868.233	5490
868.364	5535
868.495	5573
868.625	5657
868.756	5718
868.886	5634
869.017	5703
869.147	5821
869.278	5863
869.408	5889
869.539	5874
869.669	5893
869.799	5931
869.929	6007
870.06	6011
870.19	6194
870.32	6140
870.45	6194
870.58	6395
870.71	6467
870.84	6388
870.97	6384
871.1	6452
871.23	6627
871.36	6703
871.489	6627
871.619	6738
871.749	6783
871.879	6848
872.008	7015
872.138	6924
872.267	7015
872.397	7004
872.526	7057
872.656	7110
872.785	7247
872.915	7293
873.044	7537
873.173	7514
873.303	7700
873.432	7704
873.561	7864
873.69	7921
873.819	8012
873.948	8157
874.077	8218
874.206	8343
874.335	8454
874.464	8724
874.593	8853
874.722	8952
874.851	9043
874.979	9192
875.108	9306
875.237	9420
875.365	9485
875.494	9682
875.623	9816
875.751	9842
875.88	9998
876.008	10150
876.136	10344
876.265	10558
876.393	10634
876.521	10729
876.65	10877
876.778	10816
876.906	10805
877.034	10934
877.162	11136
877.29	11223
877.418	11315
877.546	11356
877.674	11395
877.802	11429
877.93	11459
878.058	11524
878.185	11539
878.313	11672
878.441	11760
878.568	11684
878.696	11824
878.824	11889
878.951	11889
879.079	12030
879.206	12053
879.333	12022
879.461	12098
879.588	12095
879.715	12015
879.842	12243
879.97	11920
880.097	11882
880.224	11870
880.351	11882
880.478	11931
880.605	11843
880.732	11832
880.859	11969
880.986	11794
881.112	11817
881.239	11699
881.366	11760
881.493	11592
881.619	11554
881.746	11551
881.872	11619
881.999	11493
882.125	11490
882.252	11577
882.378	11486
882.505	11554
882.631	11364
882.757	11235
882.883	11356
883.01	11326
883.136	11189
883.262	11041
883.388	11094
883.514	11208
883.64	11231
883.766	11064
883.892	10976
884.018	11010
884.143	10995
884.269	11121
884.395	10812
884.52	10744
884.646	10805
884.772	10653
884.897	10653
885.023	10653
885.148	10637
885.274	10759
885.399	10675
885.524	10622
885.65	10596
885.775	10542
885.9	10580
886.025	10584
886.15	10546
886.275	10421
886.4	10375
886.525	10424
886.65	10398
886.775	10341
886.9	10413
887.025	10527
887.149	10428
887.274	10257
887.399	10147
887.523	10211
887.648	10196
887.773	10169
887.897	10249
888.021	10261
888.146	10097
888.27	10246
888.395	10227
888.519	10177
888.643	10177
888.767	10211
888.891	10059
889.015	10017
889.139	9991
889.263	9945
889.387	10105
889.511	10071
889.635	10055
889.759	9994
889.883	10002
890.006	10040
890.13	10135
890.254	9991
890.377	9945
890.501	9918
890.624	9827
890.748	9880
890.871	9774
890.995	9759
891.118	9682
891.241	9770
891.364	9762
891.488	9842
891.611	9663
891.734	9720
891.857	9766
891.98	9770
892.103	9816
892.226	9797
892.349	9671
892.471	9511
892.594	9584
892.717	9648
892.839	9500
892.962	9568
893.085	9724
893.207	9599
893.33	9511
893.452	9561
893.575	9545
893.697	9584
893.819	9671
893.941	9656
894.064	9564
894.186	9401
894.308	9370
894.43	9515
894.552	9526
894.674	9481
894.796	9424
894.918	9439
895.04	9336
895.161	9374
895.283	9340
895.405	9260
895.526	9291
895.648	9222
895.769	9222
895.891	9226
896.012	9287
896.134	9184
896.255	9173
896.376	9119
896.498	9173
896.619	9097
896.74	9055
896.861	9058
896.982	9351
897.103	9355
897.224	9195
897.345	9039
897.466	9005
897.587	9036
897.708	9047
897.828	8990
897.949	8933
898.07	8872
898.19	8941
898.311	9085
898.431	8918
898.552	8902
898.672	8998
898.792	8960
898.913	8906
899.033	8842
899.153	8743
899.273	8613
899.393	8682
899.513	8743
899.633	8705
899.753	8727
899.873	8697
899.993	8727
900.113	8705
900.232	8651
900.352	8636
900.472	8640
900.591	8552
900.711	8625
900.83	8552
900.95	8750
901.069	8602
901.189	8579
901.308	8408
901.427	8393
901.546	8377
901.665	8480
901.784	8514
901.904	8408
902.023	8358
902.141	8267
902.26	8191
902.379	8240
902.498	8240
902.617	8206
902.735	8294
902.854	8263
902.973	8301
903.091	8111
903.21	8157
903.328	8157
903.446	8115
903.565	8046
903.683	8115
903.801	8039
903.919	8191
904.038	8157
904.156	8016
904.274	8054
904.392	8039
904.51	8046
904.627	8039
904.745	8043
904.863	8092
904.981	7909
905.098	7928
905.216	7875
905.334	7909
905.451	7856
905.569	7860
905.686	7959
905.803	7890
905.921	7776
906.038	7852
906.155	7833
906.272	7757
906.389	7715
906.506	7613
906.623	7594
906.74	7620
906.857	7628
906.974	7571
907.091	7643
907.208	7696
907.324	7658
907.441	7639
907.557	7453
907.674	7510
907.79	7373
907.907	7422
908.023	7441
908.139	7449
908.256	7472
908.372	7358
908.488	7339
908.604	7255
908.72	7183
908.836	7312
908.952	7164
909.068	7225
909.184	7282
909.3	7259
909.415	7285
909.531	7289
909.647	7118
909.762	7061
909.878	7072
909.993	7019
910.108	7103
910.224	7110
910.339	7088
910.454	7019
910.57	7012
910.685	6993
910.8	7179
910.915	7088
911.03	7019
911.145	6951
911.259	6802
911.374	6886
911.489	6818
911.604	6837
911.718	6711
911.833	6745
911.947	6635
912.062	6601
912.176	6673
912.291	6700
912.405	6692
912.519	6825
912.633	6798
912.748	6749
912.862	6684
912.976	6608
913.09	6536
913.204	6593
913.318	6597
913.431	6658
913.545	6642
913.659	6700
913.772	6646
913.886	6608
914	6589
914.113	6639
914.226	6620
914.34	6570
914.453	6517
914.566	6574
914.68	6540
914.793	6536
914.906	6418
915.019	6437
915.132	6422
915.245	6437
915.358	6445
915.47	6429
915.583	6437
915.696	6502
915.809	6479
915.921	6544
916.034	6441
916.146	6426
916.259	6331
916.371	6490
916.483	6437
916.595	6399
916.708	6422
916.82	6403
916.932	6376
917.044	6407
917.156	6391
917.268	6331
917.38	6361
917.491	6289
917.603	6334
917.715	6433
917.826	6445
917.938	6331
918.049	6262
918.161	6285
918.272	6346
918.384	6429
918.495	6338
918.606	6243
918.717	6201
918.828	6262
918.939	6289
919.05	6239
919.161	6277
919.272	6106
919.383	6178
919.494	6296
919.604	6445
919.715	6277
919.826	6205
919.936	6243
920.047	6308
920.157	6262
920.267	6380
920.378	6342
920.488	6254
920.598	6414
920.708	6517
920.818	6410
920.928	6410
921.038	6635
921.148	6517
921.258	6346
921.368	6273
921.477	6167
921.587	6224
921.697	6041
921.806	6159
921.916	6098
922.025	5923
922.134	5878
922.244	5805
922.353	6011
922.462	5863
922.571	5786
922.68	5767
922.789	5688
922.898	5729
923.007	5680
923.116	5718
923.224	5688
923.333	5672
923.442	5646
923.55	5600
923.659	5604
923.767	5611
923.876	5566
923.984	5627
924.092	5516
924.201	5573
924.309	5539
924.417	5505
924.525	5436
924.633	5532
924.741	6292
924.849	5345
924.956	5467
925.064	5368
925.172	5265
925.279	5330
925.387	5402
925.494	5383
925.602	5421
925.709	5391
925.816	5288
925.924	5265
926.031	5391
926.138	5296
926.245	5357
926.352	5242
926.459	5368
926.566	5296
926.673	5212
926.779	5166
926.886	5109
926.993	5064
927.099	5045
927.206	4919
927.312	5006
927.419	5029
927.525	5037
927.631	4946
927.737	4927
927.843	4847
927.95	4752
928.056	4812
928.162	4809
928.267	4824
928.373	5315
928.479	4847
928.585	4660
928.69	4812
928.796	4733
928.901	4660
929.007	4622
929.112	4672
929.218	4649
929.323	4626
929.428	4550
929.533	4637
929.638	4478
929.743	4527
929.848	4561
929.953	4542
930.058	4455
930.163	4325
930.267	4325
930.372	4386
930.477	4318
930.581	4455
930.685	4390
930.79	4253
930.894	4306
930.998	4287
931.103	4371
931.207	4097
931.311	4101
931.415	4036
931.519	3922
931.623	3930
