Data from glass_V78500241_2184.txt Node
Date: Wed Sep 01 19:29:38 CST 2021
User: usil
Spectrometer: V785-0024
Trigger mode: 0
Integration Time (sec): 4.000000E-1
Scans to average: 1
Nonlinearity correction enabled: false
Boxcar width: 0
Storing dark spectrum: false
XAxis mode: Wavelengths
Number of Pixels in Spectrum: 1024
>>>>>Begin Spectral Data<<<<<
801.071	3709
801.214	3778
801.356	3679
801.499	3759
801.641	3701
801.783	3800
801.926	3823
802.068	3861
802.211	3854
802.353	3831
802.496	3816
802.638	3876
802.78	3873
802.923	3918
803.065	3865
803.208	3846
803.35	3838
803.492	3911
803.635	3907
803.777	3785
803.919	3873
804.061	4120
804.204	3964
804.346	3911
804.488	3930
804.63	4032
804.773	3960
804.915	4013
805.057	4067
805.199	4051
805.341	4059
805.483	4131
805.626	4097
805.768	4128
805.91	4177
806.052	4284
806.194	4188
806.336	4295
806.478	4207
806.62	4196
806.762	4128
806.904	4257
807.046	4356
807.188	4219
807.33	4150
807.472	4227
807.614	4173
807.756	4276
807.898	4200
808.04	4219
808.182	4276
808.324	4291
808.465	4402
808.607	4485
808.749	4455
808.891	4470
809.033	4466
809.174	4390
809.316	4246
809.458	4242
809.6	4162
809.741	4143
809.883	4101
810.025	4227
810.166	4150
810.308	4238
810.45	4265
810.591	4200
810.733	4318
810.875	4508
811.016	4824
811.158	5113
811.299	5227
811.441	5258
811.582	5071
811.724	4679
811.865	4485
812.007	4459
812.148	4440
812.29	4402
812.431	4428
812.573	4398
812.714	4398
812.855	4405
812.997	4383
813.138	4451
813.279	4424
813.421	4375
813.562	4363
813.703	4375
813.845	4291
813.986	4268
814.127	4211
814.268	4246
814.41	4303
814.551	4257
814.692	4341
814.833	4253
814.974	4341
815.115	4314
815.256	4219
815.397	4177
815.539	4284
815.68	4207
815.821	4204
815.962	4291
816.103	4265
816.244	4234
816.385	4238
816.526	4261
816.666	4181
816.807	4105
816.948	4207
817.089	4169
817.23	4105
817.371	4067
817.512	4040
817.653	4082
817.793	4036
817.934	4040
818.075	4093
818.216	4071
818.356	4082
818.497	3945
818.638	3884
818.778	3907
818.919	3888
819.06	3876
819.2	3934
819.341	3819
819.481	3831
819.622	3896
819.762	4036
819.903	3926
820.043	3838
820.184	3831
820.324	3823
820.465	3835
820.605	3861
820.746	3838
820.886	3819
821.026	3941
821.167	3896
821.307	3987
821.447	3972
821.588	3987
821.728	3899
821.868	3949
822.008	3903
822.149	3896
822.289	3899
822.429	3759
822.569	3743
822.709	3747
822.849	3701
822.99	3736
823.13	3766
823.27	3789
823.41	3709
823.55	3736
823.69	3717
823.83	3755
823.97	3698
824.11	3614
824.25	3584
824.389	3622
824.529	3641
824.669	3637
824.809	3698
824.949	3736
825.089	3705
825.228	3698
825.368	3591
825.508	3542
825.648	3549
825.787	3637
825.927	3603
826.067	3625
826.206	3644
826.346	3781
826.485	3831
826.625	3884
826.765	3930
826.904	3808
827.044	3599
827.183	3557
827.323	3485
827.462	3443
827.601	3450
827.741	3370
827.88	3485
828.02	3359
828.159	3462
828.298	3492
828.437	3526
828.577	3435
828.716	3595
828.855	3515
828.994	3344
829.134	3374
829.273	3386
829.412	3355
829.551	3340
829.69	3359
829.829	3424
829.968	3538
830.107	3431
830.246	3462
830.385	3367
830.524	3317
830.663	3279
830.802	3245
830.941	3222
831.08	3173
831.219	3275
831.357	3237
831.496	3435
831.635	3226
831.774	3195
831.913	3237
832.051	3150
832.19	3131
832.329	3211
832.467	3150
832.606	3112
832.744	3157
832.883	3188
833.022	3180
833.16	3279
833.299	3351
833.437	3332
833.576	3344
833.714	3401
833.852	3492
833.991	3454
834.129	3450
834.267	3439
834.406	3378
834.544	3416
834.682	3393
834.821	3359
834.959	3580
835.097	3412
835.235	3485
835.373	3485
835.511	3477
835.65	3466
835.788	3477
835.926	3378
836.064	3393
836.202	3420
836.34	3572
836.478	3564
836.615	3564
836.753	3591
836.891	3622
837.029	3606
837.167	3603
837.305	3568
837.443	3553
837.58	3492
837.718	3576
837.856	3538
837.993	3523
838.131	3534
838.269	3587
838.406	3542
838.544	3580
838.681	3477
838.819	3416
838.956	3359
839.094	3401
839.231	3439
839.369	3526
839.506	3732
839.643	3606
839.781	3511
839.918	3428
840.055	3534
840.193	3549
840.33	3542
840.467	3599
840.604	3584
840.742	3800
840.879	3584
841.016	3564
841.153	3591
841.29	3755
841.427	3717
841.564	3679
841.701	3762
841.838	3663
841.975	3690
842.112	3701
842.249	3644
842.385	3618
842.522	3804
842.659	3660
842.796	3682
842.933	3690
843.069	3713
843.206	3709
843.343	3819
843.479	3797
843.616	3804
843.752	3682
843.889	3682
844.025	3854
844.162	3717
844.298	3838
844.435	3774
844.571	3808
844.708	3930
844.844	4021
844.98	3987
845.117	4002
845.253	3926
845.389	3937
845.525	4017
845.661	3937
845.798	3941
845.934	4025
846.07	3937
846.206	4067
846.342	4112
846.478	4036
846.614	3979
846.75	3899
846.886	3903
847.022	4036
847.158	3972
847.294	4010
847.429	4013
847.565	3998
847.701	4234
847.837	3865
847.972	3888
848.108	3987
848.244	3911
848.379	3823
848.515	3846
848.65	3781
848.786	3876
848.921	3842
849.057	3975
849.192	3964
849.328	3892
849.463	3937
849.598	3873
849.734	3880
849.869	3797
850.004	3797
850.14	3827
850.275	3774
850.41	3720
850.545	3736
850.68	3720
850.815	3838
850.95	3789
851.085	3941
851.22	3854
851.355	3759
851.49	3789
851.625	3785
851.76	3816
851.895	3732
852.03	3698
852.165	3838
852.299	3816
852.434	3903
852.569	3873
852.703	3892
852.838	3937
852.973	3975
853.107	3964
853.242	3854
853.376	3861
853.511	3759
853.645	3831
853.78	3937
853.914	3861
854.048	3892
854.183	3876
854.317	3918
854.451	4029
854.585	3930
854.72	3907
854.854	4025
854.988	3888
855.122	4029
855.256	3869
855.39	4017
855.524	4116
855.658	4067
855.792	4097
855.926	4158
856.06	4101
856.194	4223
856.327	4147
856.461	4105
856.595	4211
856.729	4204
856.862	4249
856.996	4215
857.13	4291
857.263	4318
857.397	4379
857.53	4246
857.664	4352
857.797	4432
857.931	4390
858.064	4402
858.197	4428
858.331	4402
858.464	4348
858.597	4386
858.731	4428
858.864	4447
858.997	4436
859.13	4497
859.263	4519
859.396	4584
859.529	4550
859.662	4500
859.795	4497
859.928	4588
860.061	4694
860.194	4733
860.327	4649
860.46	4615
860.592	4698
860.725	4710
860.858	4736
860.99	4706
861.123	4687
861.256	4660
861.388	4755
861.521	5391
861.653	4733
861.786	4694
861.918	4774
862.05	4809
862.183	4790
862.315	4904
862.447	4927
862.58	4927
862.712	4767
862.844	4759
862.976	4896
863.108	4915
863.24	5212
863.372	4843
863.504	4892
863.636	4877
863.768	4984
863.9	4942
864.032	4927
864.164	4938
864.296	5014
864.428	5064
864.559	5128
864.691	5075
864.823	5090
864.954	5083
865.086	5075
865.217	5060
865.349	5098
865.48	5159
865.612	5181
865.743	5239
865.875	5155
866.006	5178
866.137	5181
866.269	5197
866.4	5223
866.531	5216
866.662	5273
866.793	5265
866.924	5254
867.055	5303
867.186	5322
867.317	5334
867.448	5280
867.579	5357
867.71	5337
867.841	5410
867.972	5429
868.103	5471
868.233	5467
868.364	5497
868.495	5535
868.625	5691
868.756	5821
868.886	5665
869.017	5752
869.147	5851
869.278	5821
869.408	5764
869.539	5851
869.669	5992
869.799	5893
869.929	5973
870.06	5980
870.19	6190
870.32	6171
870.45	6266
870.58	6338
870.71	6445
870.84	6361
870.97	6429
871.1	6407
871.23	6639
871.36	6658
871.489	6608
871.619	6673
871.749	6791
871.879	6871
872.008	7008
872.138	6977
872.267	7023
872.397	6985
872.526	7008
872.656	7084
872.785	7190
872.915	7365
873.044	7499
873.173	7601
873.303	7616
873.432	7712
873.561	7879
873.69	7959
873.819	7989
873.948	8237
874.077	8221
874.206	8320
874.335	8415
874.464	8670
874.593	8887
874.722	8956
874.851	9138
874.979	9192
875.108	9310
875.237	9393
875.365	9466
875.494	9652
875.623	9819
875.751	9732
875.88	10021
876.008	10128
876.136	10272
876.265	10489
876.393	10702
876.521	10774
876.65	10892
876.778	10782
876.906	10824
877.034	10919
877.162	11105
877.29	11128
877.418	11220
877.546	11341
877.674	11395
877.802	11429
877.93	11516
878.058	11535
878.185	11608
878.313	11718
878.441	11668
878.568	11680
878.696	11726
878.824	11805
878.951	11946
879.079	12011
879.206	12110
879.333	12098
879.461	12015
879.588	12057
879.715	12057
879.842	12216
879.97	12019
880.097	11942
880.224	11889
880.351	11843
880.478	11977
880.605	11821
880.732	11760
880.859	11984
880.986	11745
881.112	11809
881.239	11703
881.366	11684
881.493	11532
881.619	11554
881.746	11512
881.872	11509
881.999	11554
882.125	11433
882.252	11433
882.378	11459
882.505	11581
882.631	11368
882.757	11265
882.883	11269
883.01	11273
883.136	11212
883.262	11124
883.388	11064
883.514	11170
883.64	11174
883.766	11098
883.892	10911
884.018	11056
884.143	11086
884.269	11121
884.395	10968
884.52	10831
884.646	10797
884.772	10694
884.897	10630
885.023	10675
885.148	10721
885.274	10736
885.399	10698
885.524	10611
885.65	10599
885.775	10523
885.9	10508
886.025	10577
886.15	10554
886.275	10440
886.4	10428
886.525	10421
886.65	10443
886.775	10348
886.9	10440
887.025	10538
887.149	10352
887.274	10310
887.399	10162
887.523	10162
887.648	10143
887.773	10124
887.897	10181
888.021	10143
888.146	10158
888.27	10181
888.395	10253
888.519	10150
888.643	10196
888.767	10200
888.891	10116
889.015	9968
889.139	10162
889.263	10029
889.387	10082
889.511	10150
889.635	10055
889.759	9991
889.883	9998
890.006	10010
890.13	10063
890.254	9941
890.377	9972
890.501	9793
890.624	9873
890.748	9953
890.871	9766
890.995	9724
891.118	9747
891.241	9728
891.364	9778
891.488	9869
891.611	9747
891.734	9728
891.857	9728
891.98	9720
892.103	9736
892.226	9789
892.349	9618
892.471	9542
892.594	9587
892.717	9564
892.839	9606
892.962	9587
893.085	9701
893.207	9515
893.33	9511
893.452	9507
893.575	9610
893.697	9439
893.819	9641
893.941	9709
894.064	9622
894.186	9393
894.308	9416
894.43	9443
894.552	9614
894.674	9530
894.796	9374
894.918	9386
895.04	9332
895.161	9397
895.283	9279
895.405	9211
895.526	9294
895.648	9233
895.769	9214
895.891	9332
896.012	9249
896.134	9138
896.255	9214
896.376	9150
896.498	9176
896.619	9085
896.74	9089
896.861	9051
896.982	9245
897.103	9306
897.224	9176
897.345	9036
897.466	8994
897.587	8963
897.708	9066
897.828	8967
897.949	8925
898.07	8781
898.19	8883
898.311	8967
898.431	8811
898.552	8937
898.672	9020
898.792	8998
898.913	8929
899.033	8853
899.153	8773
899.273	8735
899.393	8701
899.513	8689
899.633	8682
899.753	8766
899.873	8724
899.993	8826
900.113	8701
900.232	8686
900.352	8640
900.472	8648
900.591	8514
900.711	8571
900.83	8526
900.95	8648
901.069	8625
901.189	8617
901.308	8454
901.427	8351
901.546	8469
901.665	8400
901.784	8503
901.904	8362
902.023	8313
902.141	8275
902.26	8240
902.379	8290
902.498	8225
902.617	8191
902.735	8290
902.854	8286
902.973	8263
903.091	8058
903.21	8115
903.328	8157
903.446	8145
903.565	8043
903.683	8111
903.801	8065
903.919	8103
904.038	8027
904.156	8012
904.274	8100
904.392	8046
904.51	8005
904.627	8031
904.745	8043
904.863	8058
904.981	7890
905.098	7803
905.216	7906
905.334	7940
905.451	7887
905.569	7830
905.686	7883
905.803	7887
905.921	7826
906.038	7864
906.155	7811
906.272	7700
906.389	7700
906.506	7575
906.623	7639
906.74	7586
906.857	7537
906.974	7556
907.091	7662
907.208	7723
907.324	7632
907.441	7540
907.557	7407
907.674	7472
907.79	7400
907.907	7422
908.023	7453
908.139	7472
908.256	7293
908.372	7339
908.488	7335
908.604	7213
908.72	7225
908.836	7263
908.952	7251
909.068	7285
909.184	7373
909.3	7129
909.415	7324
909.531	7278
909.647	7129
909.762	7137
909.878	7053
909.993	7091
910.108	7084
910.224	7053
910.339	7141
910.454	6985
910.57	6970
910.685	6939
910.8	7152
910.915	7095
911.03	7050
911.145	6856
911.259	6871
911.374	6894
911.489	6897
911.604	6764
911.718	6738
911.833	6711
911.947	6662
912.062	6604
912.176	6757
912.291	6753
912.405	6722
912.519	6779
912.633	6791
912.748	6757
912.862	6684
912.976	6620
913.09	6547
913.204	6582
913.318	6608
913.431	6658
913.545	6719
913.659	6738
913.772	6703
913.886	6608
914	6578
914.113	6620
914.226	6593
914.34	6627
914.453	6490
914.566	6631
914.68	6521
914.793	6544
914.906	6418
915.019	6422
915.132	6422
915.245	6433
915.358	6426
915.47	6388
915.583	6407
915.696	6460
915.809	6532
915.921	6559
916.034	6464
916.146	6327
916.259	6292
916.371	6483
916.483	6384
916.595	6384
916.708	6376
916.82	6407
916.932	6422
917.044	6388
917.156	6433
917.268	6350
917.38	6342
917.491	6308
917.603	6292
917.715	6369
917.826	6380
917.938	6342
918.049	6194
918.161	6334
918.272	6433
918.384	6418
918.495	6342
918.606	6254
918.717	6224
918.828	6289
918.939	6273
919.05	6186
919.161	6273
919.272	6121
919.383	6171
919.494	6251
919.604	6448
919.715	6277
919.826	6209
919.936	6308
920.047	6361
920.157	6273
920.267	6456
920.378	6266
920.488	6258
920.598	6433
920.708	6589
920.818	6483
920.928	6433
921.038	6582
921.148	6551
921.258	6353
921.368	6304
921.477	6175
921.587	6178
921.697	6129
921.806	6098
921.916	6114
922.025	5893
922.134	5958
922.244	5866
922.353	5954
922.462	5817
922.571	5786
922.68	5729
922.789	5710
922.898	5722
923.007	5714
923.116	5691
923.224	5657
923.333	5665
923.442	5634
923.55	5596
923.659	5589
923.767	5570
923.876	5535
923.984	5562
924.092	5516
924.201	5532
924.309	5585
924.417	5509
924.525	5501
924.633	5497
924.741	6273
924.849	5372
924.956	5471
925.064	5330
925.172	5330
925.279	5250
925.387	5326
925.494	5258
925.602	5486
925.709	5379
925.816	5280
925.924	5292
926.031	5357
926.138	5261
926.245	5315
926.352	5193
926.459	5307
926.566	5326
926.673	5185
926.779	5105
926.886	5132
926.993	5033
927.099	5045
927.206	5010
927.312	4930
927.419	5086
927.525	4946
927.631	4968
927.737	4892
927.843	4847
927.95	4790
928.056	4752
928.162	4812
928.267	4801
928.373	5353
928.479	4873
928.585	4660
928.69	4790
928.796	4774
928.901	4702
929.007	4558
929.112	4653
929.218	4672
929.323	4569
929.428	4611
929.533	4653
929.638	4516
929.743	4546
929.848	4512
929.953	4493
930.058	4394
930.163	4299
930.267	4367
930.372	4383
930.477	4314
930.581	4436
930.685	4375
930.79	4238
930.894	4257
930.998	4310
931.103	4341
931.207	4116
931.311	4101
931.415	4040
931.519	3892
931.623	3934
