Data from glass_V78500241_405.txt Node
Date: Wed Sep 01 19:17:18 CST 2021
User: usil
Spectrometer: V785-0024
Trigger mode: 0
Integration Time (sec): 4.000000E-1
Scans to average: 1
Nonlinearity correction enabled: false
Boxcar width: 0
Storing dark spectrum: false
XAxis mode: Wavelengths
Number of Pixels in Spectrum: 1024
>>>>>Begin Spectral Data<<<<<
801.071	3759
801.214	3781
801.356	3717
801.499	3762
801.641	3762
801.783	3797
801.926	3873
802.068	3823
802.211	3922
802.353	3915
802.496	3835
802.638	3915
802.78	3892
802.923	3956
803.065	3907
803.208	3869
803.35	3915
803.492	3953
803.635	3945
803.777	3835
803.919	3911
804.061	4124
804.204	4002
804.346	3926
804.488	3922
804.63	4021
804.773	3972
804.915	4029
805.057	4128
805.199	4051
805.341	4124
805.483	4177
805.626	4131
805.768	4154
805.91	4200
806.052	4246
806.194	4200
806.336	4375
806.478	4234
806.62	4188
806.762	4215
806.904	4280
807.046	4356
807.188	4223
807.33	4162
807.472	4246
807.614	4215
807.756	4310
807.898	4238
808.04	4196
808.182	4299
808.324	4314
808.465	4390
808.607	4493
808.749	4459
808.891	4523
809.033	4538
809.174	4394
809.316	4280
809.458	4249
809.6	4177
809.741	4177
809.883	4154
810.025	4230
810.166	4204
810.308	4242
810.45	4314
810.591	4276
810.733	4318
810.875	4546
811.016	4839
811.158	5124
811.299	5261
811.441	5322
811.582	5067
811.724	4653
811.865	4504
812.007	4474
812.148	4470
812.29	4413
812.431	4417
812.573	4409
812.714	4398
812.855	4440
812.997	4440
813.138	4527
813.279	4447
813.421	4405
813.562	4379
813.703	4398
813.845	4356
813.986	4265
814.127	4268
814.268	4238
814.41	4295
814.551	4291
814.692	4299
814.833	4257
814.974	4344
815.115	4383
815.256	4280
815.397	4246
815.539	4276
815.68	4173
815.821	4238
815.962	4299
816.103	4333
816.244	4230
816.385	4242
816.526	4306
816.666	4215
816.807	4150
816.948	4192
817.089	4147
817.23	4150
817.371	4090
817.512	4044
817.653	4074
817.793	4036
817.934	4017
818.075	4105
818.216	4139
818.356	4093
818.497	3983
818.638	3953
818.778	3934
818.919	3876
819.06	3865
819.2	3899
819.341	3918
819.481	3861
819.622	3918
819.762	4017
819.903	4006
820.043	3850
820.184	3835
820.324	3816
820.465	3899
820.605	3838
820.746	3903
820.886	3804
821.026	3956
821.167	3937
821.307	3998
821.447	3968
821.588	3968
821.728	4010
821.868	3953
822.008	3876
822.149	3892
822.289	3979
822.429	3808
822.569	3759
822.709	3793
822.849	3709
822.99	3762
823.13	3812
823.27	3838
823.41	3743
823.55	3759
823.69	3701
823.83	3793
823.97	3736
824.11	3641
824.25	3561
824.389	3698
824.529	3698
824.669	3629
824.809	3690
824.949	3797
825.089	3736
825.228	3679
825.368	3603
825.508	3561
825.648	3580
825.787	3652
825.927	3690
826.067	3644
826.206	3690
826.346	3785
826.485	3846
826.625	3888
826.765	3937
826.904	3854
827.044	3629
827.183	3561
827.323	3409
827.462	3500
827.601	3462
827.741	3462
827.88	3481
828.02	3412
828.159	3458
828.298	3477
828.437	3542
828.577	3473
828.716	3595
828.855	3545
828.994	3454
829.134	3363
829.273	3428
829.412	3378
829.551	3378
829.69	3370
829.829	3416
829.968	3515
830.107	3443
830.246	3466
830.385	3393
830.524	3367
830.663	3336
830.802	3253
830.941	3207
831.08	3199
831.219	3264
831.357	3302
831.496	3405
831.635	3268
831.774	3222
831.913	3245
832.051	3154
832.19	3131
832.329	3230
832.467	3173
832.606	3112
832.744	3173
832.883	3222
833.022	3165
833.16	3260
833.299	3321
833.437	3344
833.576	3382
833.714	3454
833.852	3443
833.991	3462
834.129	3477
834.267	3450
834.406	3458
834.544	3424
834.682	3397
834.821	3378
834.959	3591
835.097	3412
835.235	3526
835.373	3507
835.511	3515
835.65	3450
835.788	3523
835.926	3420
836.064	3378
836.202	3393
836.34	3549
836.478	3618
836.615	3572
836.753	3587
836.891	3648
837.029	3625
837.167	3610
837.305	3610
837.443	3564
837.58	3519
837.718	3580
837.856	3564
837.993	3564
838.131	3606
838.269	3595
838.406	3637
838.544	3591
838.681	3488
838.819	3481
838.956	3370
839.094	3397
839.231	3454
839.369	3519
839.506	3740
839.643	3694
839.781	3538
839.918	3454
840.055	3557
840.193	3519
840.33	3564
840.467	3538
840.604	3622
840.742	3808
840.879	3576
841.016	3606
841.153	3633
841.29	3789
841.427	3736
841.564	3720
841.701	3751
841.838	3694
841.975	3717
842.112	3736
842.249	3648
842.385	3652
842.522	3819
842.659	3694
842.796	3709
842.933	3728
843.069	3671
843.206	3766
843.343	3835
843.479	3789
843.616	3876
843.752	3682
843.889	3709
844.025	3880
844.162	3740
844.298	3823
844.435	3816
844.571	3755
844.708	3922
844.844	4044
844.98	4036
845.117	3994
845.253	3911
845.389	3926
845.525	3968
845.661	3979
845.798	3941
845.934	3998
846.07	3987
846.206	4051
846.342	4158
846.478	4097
846.614	3987
846.75	3956
846.886	3975
847.022	4036
847.158	3987
847.294	4021
847.429	4078
847.565	4036
847.701	4238
847.837	3907
847.972	3854
848.108	4059
848.244	3998
848.379	3857
848.515	3804
848.65	3808
848.786	3873
848.921	3896
849.057	3930
849.192	3941
849.328	3930
849.463	3911
849.598	3903
849.734	3907
849.869	3850
850.004	3812
850.14	3861
850.275	3827
850.41	3686
850.545	3747
850.68	3778
850.815	3831
850.95	3785
851.085	3972
851.22	3869
851.355	3842
851.49	3793
851.625	3812
851.76	3800
851.895	3705
852.03	3690
852.165	3888
852.299	3854
852.434	3892
852.569	3857
852.703	3911
852.838	3915
852.973	3998
853.107	4021
853.242	3892
853.376	3857
853.511	3823
853.645	3842
853.78	4006
853.914	3934
854.048	3911
854.183	3922
854.317	3960
854.451	4105
854.585	3960
854.72	3956
854.854	4093
854.988	3941
855.122	3968
855.256	3926
855.39	4006
855.524	4154
855.658	4090
855.792	4131
855.926	4162
856.06	4177
856.194	4211
856.327	4181
856.461	4120
856.595	4143
856.729	4169
856.862	4306
856.996	4219
857.13	4318
857.263	4257
857.397	4363
857.53	4295
857.664	4375
857.797	4383
857.931	4394
858.064	4394
858.197	4447
858.331	4413
858.464	4386
858.597	4360
858.731	4440
858.864	4500
858.997	4455
859.13	4523
859.263	4542
859.396	4550
859.529	4558
859.662	4577
859.795	4516
859.928	4622
860.061	4714
860.194	4744
860.327	4691
860.46	4656
860.592	4774
860.725	4733
860.858	4854
860.99	4672
861.123	4679
861.256	4702
861.388	4778
861.521	5486
861.653	4721
861.786	4694
861.918	4778
862.05	4809
862.183	4862
862.315	4908
862.447	4976
862.58	4908
862.712	4809
862.844	4786
862.976	4870
863.108	4908
863.24	5284
863.372	4831
863.504	4946
863.636	4892
863.768	4991
863.9	4991
864.032	4980
864.164	4949
864.296	5025
864.428	5102
864.559	5098
864.691	5086
864.823	5162
864.954	5090
865.086	5140
865.217	5140
865.349	5132
865.48	5113
865.612	5231
865.743	5284
865.875	5242
866.006	5216
866.137	5246
866.269	5261
866.4	5303
866.531	5216
866.662	5223
866.793	5318
866.924	5322
867.055	5337
867.186	5360
867.317	5307
867.448	5322
867.579	5395
867.71	5436
867.841	5364
867.972	5478
868.103	5505
868.233	5467
868.364	5535
868.495	5615
868.625	5691
868.756	5790
868.886	5672
869.017	5726
869.147	5870
869.278	5897
869.408	5745
869.539	5904
869.669	5958
869.799	5927
869.929	5980
870.06	6041
870.19	6266
870.32	6220
870.45	6262
870.58	6350
870.71	6414
870.84	6426
870.97	6407
871.1	6479
871.23	6620
871.36	6665
871.489	6711
871.619	6757
871.749	6833
871.879	6844
872.008	6981
872.138	7012
872.267	7038
872.397	7019
872.526	7000
872.656	7160
872.785	7255
872.915	7369
873.044	7544
873.173	7544
873.303	7658
873.432	7769
873.561	7792
873.69	7959
873.819	8024
873.948	8195
874.077	8336
874.206	8377
874.335	8507
874.464	8697
874.593	8883
874.722	8941
874.851	9077
874.979	9287
875.108	9325
875.237	9374
875.365	9450
875.494	9686
875.623	9835
875.751	9922
875.88	10074
876.008	10059
876.136	10299
876.265	10538
876.393	10618
876.521	10714
876.65	10869
876.778	10790
876.906	10961
877.034	10946
877.162	11025
877.29	11140
877.418	11296
877.546	11368
877.674	11429
877.802	11455
877.93	11619
878.058	11570
878.185	11589
878.313	11634
878.441	11722
878.568	11638
878.696	11767
878.824	11939
878.951	11923
879.079	12019
879.206	12083
879.333	12152
879.461	12038
879.588	12053
879.715	12079
879.842	12243
879.97	12011
880.097	11855
880.224	11847
880.351	11958
880.478	11912
880.605	11802
880.732	11851
880.859	12003
880.986	11832
881.112	11927
881.239	11748
881.366	11657
881.493	11611
881.619	11615
881.746	11551
881.872	11551
881.999	11497
882.125	11406
882.252	11627
882.378	11547
882.505	11570
882.631	11463
882.757	11292
882.883	11277
883.01	11174
883.136	11231
883.262	11136
883.388	11075
883.514	11185
883.64	11220
883.766	11166
883.892	11033
884.018	11064
884.143	11033
884.269	11151
884.395	10900
884.52	10850
884.646	10767
884.772	10710
884.897	10641
885.023	10675
885.148	10771
885.274	10812
885.399	10752
885.524	10702
885.65	10584
885.775	10618
885.9	10603
886.025	10607
886.15	10573
886.275	10493
886.4	10443
886.525	10382
886.65	10428
886.775	10352
886.9	10447
887.025	10451
887.149	10447
887.274	10192
887.399	10207
887.523	10109
887.648	10135
887.773	10082
887.897	10303
888.021	10173
888.146	10147
888.27	10219
888.395	10185
888.519	10211
888.643	10150
888.767	10211
888.891	10074
889.015	10029
889.139	10093
889.263	9975
889.387	10032
889.511	10131
889.635	10097
889.759	9972
889.883	10036
890.006	9964
890.13	10120
890.254	9968
890.377	10013
890.501	9892
890.624	9937
890.748	9857
890.871	9850
890.995	9789
891.118	9724
891.241	9770
891.364	9819
891.488	9918
891.611	9785
891.734	9717
891.857	9781
891.98	9679
892.103	9751
892.226	9720
892.349	9625
892.471	9557
892.594	9584
892.717	9603
892.839	9610
892.962	9644
893.085	9728
893.207	9660
893.33	9523
893.452	9462
893.575	9641
893.697	9481
893.819	9595
893.941	9606
894.064	9599
894.186	9428
894.308	9447
894.43	9492
894.552	9606
894.674	9511
894.796	9401
894.918	9428
895.04	9397
895.161	9310
895.283	9408
895.405	9211
895.526	9317
895.648	9222
895.769	9226
895.891	9253
896.012	9195
896.134	9226
896.255	9161
896.376	9150
896.498	9127
896.619	9116
896.74	9062
896.861	9154
896.982	9367
897.103	9291
897.224	9184
897.345	9123
897.466	8990
897.587	9108
897.708	9131
897.828	9062
897.949	8975
898.07	8849
898.19	8948
898.311	9005
898.431	8880
898.552	8883
898.672	8975
898.792	8975
898.913	8937
899.033	8823
899.153	8792
899.273	8632
899.393	8655
899.513	8754
899.633	8758
899.753	8796
899.873	8716
899.993	8739
900.113	8640
900.232	8689
900.352	8701
900.472	8621
900.591	8640
900.711	8629
900.83	8552
900.95	8720
901.069	8750
901.189	8590
901.308	8442
901.427	8377
901.546	8423
901.665	8412
901.784	8480
901.904	8419
902.023	8351
902.141	8286
902.26	8221
902.379	8290
902.498	8214
902.617	8229
902.735	8271
902.854	8176
902.973	8267
903.091	8081
903.21	8119
903.328	8126
903.446	8145
903.565	8123
903.683	8123
903.801	8069
903.919	8176
904.038	8191
904.156	8012
904.274	8088
904.392	8081
904.51	8126
904.627	8088
904.745	8073
904.863	8115
904.981	8001
905.098	7845
905.216	7845
905.334	7902
905.451	7879
905.569	7906
905.686	7921
905.803	7963
905.921	7811
906.038	7852
906.155	7868
906.272	7769
906.389	7704
906.506	7624
906.623	7655
906.74	7620
906.857	7529
906.974	7590
907.091	7708
907.208	7715
907.324	7651
907.441	7552
907.557	7434
907.674	7487
907.79	7415
907.907	7460
908.023	7430
908.139	7392
908.256	7426
908.372	7354
908.488	7388
908.604	7293
908.72	7259
908.836	7365
908.952	7247
909.068	7259
909.184	7343
909.3	7278
909.415	7297
909.531	7324
909.647	7080
909.762	7164
909.878	7110
909.993	7145
910.108	7107
910.224	7080
910.339	7114
910.454	7065
910.57	6977
910.685	6981
910.8	7225
910.915	7107
911.03	7088
911.145	6901
911.259	6916
911.374	6939
911.489	6833
911.604	6818
911.718	6776
911.833	6795
911.947	6681
912.062	6642
912.176	6711
912.291	6692
912.405	6711
912.519	6802
912.633	6840
912.748	6711
912.862	6700
912.976	6631
913.09	6574
913.204	6627
913.318	6662
913.431	6715
913.545	6707
913.659	6776
913.772	6650
913.886	6559
914	6536
914.113	6574
914.226	6593
914.34	6642
914.453	6540
914.566	6673
914.68	6479
914.793	6494
914.906	6452
915.019	6422
915.132	6388
915.245	6490
915.358	6494
915.47	6456
915.583	6471
915.696	6445
915.809	6509
915.921	6544
916.034	6441
916.146	6422
916.259	6426
916.371	6441
916.483	6452
916.595	6426
916.708	6429
916.82	6369
916.932	6346
917.044	6372
917.156	6445
917.268	6300
917.38	6369
917.491	6281
917.603	6369
917.715	6422
917.826	6384
917.938	6285
918.049	6224
918.161	6388
918.272	6376
918.384	6418
918.495	6327
918.606	6319
918.717	6216
918.828	6273
918.939	6304
919.05	6209
919.161	6239
919.272	6095
919.383	6155
919.494	6331
919.604	6414
919.715	6254
919.826	6209
919.936	6266
920.047	6353
920.157	6338
920.267	6486
920.378	6281
920.488	6289
920.598	6559
920.708	6536
920.818	6490
920.928	6483
921.038	6623
921.148	6642
921.258	6357
921.368	6323
921.477	6213
921.587	6171
921.697	6083
921.806	6186
921.916	6091
922.025	5961
922.134	5901
922.244	5908
922.353	5988
922.462	5878
922.571	5832
922.68	5748
922.789	5764
922.898	5680
923.007	5627
923.116	5722
923.224	5611
923.333	5699
923.442	5649
923.55	5581
923.659	5604
923.767	5611
923.876	5539
923.984	5619
924.092	5501
924.201	5581
924.309	5539
924.417	5551
924.525	5448
924.633	5486
924.741	6357
924.849	5360
924.956	5448
925.064	5395
925.172	5353
925.279	5330
925.387	5406
925.494	5334
925.602	5444
925.709	5376
925.816	5280
925.924	5349
926.031	5372
926.138	5330
926.245	5341
926.352	5220
926.459	5318
926.566	5315
926.673	5265
926.779	5155
926.886	5178
926.993	5041
927.099	4987
927.206	4946
927.312	4976
927.419	5018
927.525	4995
927.631	4934
927.737	4942
927.843	4820
927.95	4816
928.056	4812
928.162	4847
928.267	4900
928.373	5250
928.479	4923
928.585	4717
928.69	4763
928.796	4786
928.901	4714
929.007	4622
929.112	4683
929.218	4626
929.323	4588
929.428	4603
929.533	4656
929.638	4485
929.743	4519
929.848	4599
929.953	4523
930.058	4474
930.163	4360
930.267	4325
930.372	4398
930.477	4303
930.581	4508
930.685	4352
930.79	4257
930.894	4272
930.998	4287
931.103	4402
931.207	4105
931.311	4082
931.415	4044
931.519	3983
931.623	3960
