Data from glass_V78500241_1742.txt Node
Date: Wed Sep 01 19:26:34 CST 2021
User: usil
Spectrometer: V785-0024
Trigger mode: 0
Integration Time (sec): 4.000000E-1
Scans to average: 1
Nonlinearity correction enabled: false
Boxcar width: 0
Storing dark spectrum: false
XAxis mode: Wavelengths
Number of Pixels in Spectrum: 1024
>>>>>Begin Spectral Data<<<<<
801.071	3728
801.214	3736
801.356	3660
801.499	3747
801.641	3717
801.783	3766
801.926	3861
802.068	3804
802.211	3873
802.353	3903
802.496	3823
802.638	3896
802.78	3918
802.923	3937
803.065	3838
803.208	3816
803.35	3865
803.492	3884
803.635	3934
803.777	3793
803.919	3861
804.061	4166
804.204	3930
804.346	3945
804.488	3899
804.63	4059
804.773	3926
804.915	4017
805.057	4166
805.199	4029
805.341	4051
805.483	4173
805.626	4135
805.768	4112
805.91	4265
806.052	4238
806.194	4185
806.336	4352
806.478	4246
806.62	4162
806.762	4196
806.904	4295
807.046	4306
807.188	4200
807.33	4204
807.472	4249
807.614	4207
807.756	4268
807.898	4207
808.04	4204
808.182	4268
808.324	4291
808.465	4394
808.607	4459
808.749	4474
808.891	4474
809.033	4489
809.174	4398
809.316	4268
809.458	4227
809.6	4158
809.741	4162
809.883	4154
810.025	4192
810.166	4200
810.308	4246
810.45	4219
810.591	4242
810.733	4318
810.875	4512
811.016	4797
811.158	5132
811.299	5277
811.441	5288
811.582	5029
811.724	4710
811.865	4478
812.007	4424
812.148	4432
812.29	4432
812.431	4356
812.573	4432
812.714	4341
812.855	4424
812.997	4440
813.138	4497
813.279	4436
813.421	4367
813.562	4383
813.703	4314
813.845	4329
813.986	4268
814.127	4227
814.268	4291
814.41	4303
814.551	4276
814.692	4329
814.833	4253
814.974	4249
815.115	4352
815.256	4299
815.397	4287
815.539	4234
815.68	4204
815.821	4223
815.962	4303
816.103	4314
816.244	4234
816.385	4249
816.526	4257
816.666	4238
816.807	4109
816.948	4181
817.089	4173
817.23	4105
817.371	4036
817.512	4082
817.653	4067
817.793	4032
817.934	4032
818.075	4090
818.216	4090
818.356	4071
818.497	3972
818.638	3884
818.778	3896
818.919	3884
819.06	3827
819.2	3930
819.341	3846
819.481	3800
819.622	3915
819.762	4036
819.903	3979
820.043	3846
820.184	3812
820.324	3854
820.465	3865
820.605	3854
820.746	3892
820.886	3808
821.026	3953
821.167	3937
821.307	3987
821.447	3941
821.588	3964
821.728	3960
821.868	3983
822.008	3861
822.149	3941
822.289	3930
822.429	3804
822.569	3781
822.709	3842
822.849	3724
822.99	3667
823.13	3762
823.27	3732
823.41	3698
823.55	3755
823.69	3667
823.83	3713
823.97	3663
824.11	3568
824.25	3633
824.389	3660
824.529	3633
824.669	3656
824.809	3717
824.949	3728
825.089	3728
825.228	3698
825.368	3603
825.508	3580
825.648	3572
825.787	3595
825.927	3625
826.067	3629
826.206	3652
826.346	3800
826.485	3846
826.625	3831
826.765	3953
826.904	3816
827.044	3633
827.183	3534
827.323	3428
827.462	3477
827.601	3439
827.741	3401
827.88	3443
828.02	3389
828.159	3450
828.298	3477
828.437	3545
828.577	3462
828.716	3587
828.855	3519
828.994	3348
829.134	3370
829.273	3378
829.412	3340
829.551	3336
829.69	3359
829.829	3397
829.968	3507
830.107	3454
830.246	3469
830.385	3382
830.524	3340
830.663	3355
830.802	3256
830.941	3184
831.08	3184
831.219	3241
831.357	3249
831.496	3389
831.635	3302
831.774	3161
831.913	3203
832.051	3131
832.19	3089
832.329	3253
832.467	3100
832.606	3089
832.744	3173
832.883	3180
833.022	3203
833.16	3241
833.299	3287
833.437	3317
833.576	3397
833.714	3401
833.852	3431
833.991	3397
834.129	3500
834.267	3454
834.406	3424
834.544	3416
834.682	3416
834.821	3401
834.959	3561
835.097	3389
835.235	3534
835.373	3496
835.511	3496
835.65	3477
835.788	3507
835.926	3367
836.064	3382
836.202	3363
836.34	3542
836.478	3618
836.615	3572
836.753	3580
836.891	3667
837.029	3633
837.167	3606
837.305	3584
837.443	3553
837.58	3477
837.718	3637
837.856	3549
837.993	3557
838.131	3614
838.269	3576
838.406	3576
838.544	3603
838.681	3458
838.819	3420
838.956	3332
839.094	3363
839.231	3397
839.369	3511
839.506	3743
839.643	3652
839.781	3500
839.918	3496
840.055	3534
840.193	3538
840.33	3530
840.467	3553
840.604	3603
840.742	3793
840.879	3568
841.016	3504
841.153	3595
841.29	3736
841.427	3686
841.564	3713
841.701	3720
841.838	3682
841.975	3652
842.112	3701
842.249	3663
842.385	3603
842.522	3854
842.659	3671
842.796	3709
842.933	3690
843.069	3701
843.206	3690
843.343	3789
843.479	3774
843.616	3819
843.752	3667
843.889	3690
844.025	3869
844.162	3679
844.298	3823
844.435	3797
844.571	3759
844.708	3873
844.844	3972
844.98	3991
845.117	4036
845.253	3888
845.389	3873
845.525	3922
845.661	3983
845.798	3922
845.934	3979
846.07	3945
846.206	4055
846.342	4078
846.478	4078
846.614	3991
846.75	3903
846.886	3956
847.022	4040
847.158	3994
847.294	4006
847.429	4048
847.565	3991
847.701	4204
847.837	3907
847.972	3819
848.108	3945
848.244	3941
848.379	3857
848.515	3770
848.65	3797
848.786	3850
848.921	3880
849.057	3911
849.192	3930
849.328	3899
849.463	3937
849.598	3861
849.734	3899
849.869	3838
850.004	3793
850.14	3785
850.275	3789
850.41	3720
850.545	3747
850.68	3762
850.815	3797
850.95	3781
851.085	3987
851.22	3819
851.355	3835
851.49	3785
851.625	3800
851.76	3808
851.895	3751
852.03	3736
852.165	3831
852.299	3823
852.434	3896
852.569	3861
852.703	3854
852.838	3896
852.973	3998
853.107	3987
853.242	3896
853.376	3842
853.511	3759
853.645	3842
853.78	3911
853.914	3888
854.048	3857
854.183	3880
854.317	3983
854.451	4082
854.585	3922
854.72	3934
854.854	4029
854.988	3949
855.122	3991
855.256	3896
855.39	4029
855.524	4112
855.658	4124
855.792	4074
855.926	4128
856.06	4177
856.194	4238
856.327	4154
856.461	4139
856.595	4158
856.729	4173
856.862	4303
856.996	4242
857.13	4295
857.263	4322
857.397	4352
857.53	4257
857.664	4344
857.797	4409
857.931	4421
858.064	4367
858.197	4417
858.331	4383
858.464	4375
858.597	4337
858.731	4424
858.864	4455
858.997	4459
859.13	4493
859.263	4535
859.396	4569
859.529	4481
859.662	4523
859.795	4538
859.928	4596
860.061	4725
860.194	4706
860.327	4653
860.46	4687
860.592	4778
860.725	4786
860.858	4755
860.99	4683
861.123	4698
861.256	4702
861.388	4740
861.521	5478
861.653	4702
861.786	4733
861.918	4748
862.05	4790
862.183	4847
862.315	4850
862.447	4946
862.58	4938
862.712	4820
862.844	4782
862.976	4870
863.108	4870
863.24	5254
863.372	4850
863.504	4908
863.636	4938
863.768	4942
863.9	4938
864.032	4896
864.164	4987
864.296	5056
864.428	5109
864.559	5086
864.691	5098
864.823	5105
864.954	5094
865.086	5113
865.217	5098
865.349	5067
865.48	5216
865.612	5242
865.743	5296
865.875	5201
866.006	5140
866.137	5239
866.269	5208
866.4	5239
866.531	5273
866.662	5212
866.793	5242
866.924	5288
867.055	5398
867.186	5307
867.317	5284
867.448	5318
867.579	5417
867.71	5353
867.841	5349
867.972	5414
868.103	5474
868.233	5532
868.364	5467
868.495	5505
868.625	5703
868.756	5802
868.886	5653
869.017	5722
869.147	5813
869.278	5897
869.408	5836
869.539	5847
869.669	5935
869.799	5931
869.929	5984
870.06	5988
870.19	6152
870.32	6205
870.45	6296
870.58	6380
870.71	6441
870.84	6525
870.97	6418
871.1	6395
871.23	6646
871.36	6688
871.489	6696
871.619	6821
871.749	6787
871.879	6833
872.008	7019
872.138	6996
872.267	7023
872.397	6973
872.526	7012
872.656	7072
872.785	7198
872.915	7384
873.044	7601
873.173	7594
873.303	7636
873.432	7776
873.561	7849
873.69	7921
873.819	7959
873.948	8180
874.077	8256
874.206	8381
874.335	8419
874.464	8621
874.593	8941
874.722	8910
874.851	9116
874.979	9192
875.108	9359
875.237	9386
875.365	9428
875.494	9641
875.623	9774
875.751	9876
875.88	9956
876.008	10071
876.136	10238
876.265	10535
876.393	10687
876.521	10752
876.65	10835
876.778	10828
876.906	10999
877.034	10972
877.162	11098
877.29	11124
877.418	11315
877.546	11387
877.674	11463
877.802	11539
877.93	11524
878.058	11528
878.185	11649
878.313	11699
878.441	11790
878.568	11684
878.696	11767
878.824	11889
878.951	11984
879.079	12007
879.206	12114
879.333	12026
879.461	12022
879.588	12106
879.715	12087
879.842	12247
879.97	12121
880.097	11885
880.224	11882
880.351	11954
880.478	11889
880.605	11805
880.732	11794
880.859	11988
880.986	11745
881.112	11813
881.239	11805
881.366	11680
881.493	11615
881.619	11474
881.746	11600
881.872	11505
881.999	11611
882.125	11455
882.252	11455
882.378	11547
882.505	11566
882.631	11448
882.757	11269
882.883	11337
883.01	11280
883.136	11258
883.262	11071
883.388	11113
883.514	11121
883.64	11174
883.766	11147
883.892	11041
884.018	10965
884.143	11086
884.269	11147
884.395	10843
884.52	10736
884.646	10721
884.772	10755
884.897	10622
885.023	10691
885.148	10752
885.274	10801
885.399	10653
885.524	10584
885.65	10649
885.775	10573
885.9	10523
886.025	10626
886.15	10592
886.275	10371
886.4	10375
886.525	10371
886.65	10394
886.775	10257
886.9	10485
887.025	10519
887.149	10299
887.274	10272
887.399	10055
887.523	10188
887.648	10120
887.773	10093
887.897	10181
888.021	10276
888.146	10116
888.27	10246
888.395	10207
888.519	10143
888.643	10063
888.767	10192
888.891	9979
889.015	10032
889.139	10029
889.263	9964
889.387	10097
889.511	10048
889.635	10063
889.759	9983
889.883	9956
890.006	9987
890.13	10105
890.254	9869
890.377	9926
890.501	9869
890.624	9922
890.748	9861
890.871	9800
890.995	9736
891.118	9724
891.241	9740
891.364	9743
891.488	9861
891.611	9720
891.734	9797
891.857	9770
891.98	9698
892.103	9804
892.226	9785
892.349	9625
892.471	9549
892.594	9584
892.717	9641
892.839	9564
892.962	9606
893.085	9595
893.207	9595
893.33	9492
893.452	9538
893.575	9641
893.697	9603
893.819	9557
893.941	9644
894.064	9564
894.186	9412
894.308	9428
894.43	9538
894.552	9591
894.674	9519
894.796	9393
894.918	9359
895.04	9348
895.161	9348
895.283	9382
895.405	9218
895.526	9268
895.648	9260
895.769	9272
895.891	9264
896.012	9268
896.134	9241
896.255	9218
896.376	9146
896.498	9131
896.619	9176
896.74	9138
896.861	9123
896.982	9237
897.103	9340
897.224	9211
897.345	9085
897.466	9013
897.587	8979
897.708	9150
897.828	9055
897.949	8944
898.07	8899
898.19	8902
898.311	9020
898.431	8880
898.552	8906
898.672	8910
898.792	8956
898.913	8887
899.033	8788
899.153	8796
899.273	8689
899.393	8739
899.513	8746
899.633	8712
899.753	8670
899.873	8727
899.993	8743
900.113	8727
900.232	8644
900.352	8708
900.472	8617
900.591	8571
900.711	8587
900.83	8663
900.95	8670
901.069	8678
901.189	8606
901.308	8415
901.427	8377
901.546	8339
901.665	8454
901.784	8476
901.904	8446
902.023	8248
902.141	8210
902.26	8282
902.379	8332
902.498	8153
902.617	8221
902.735	8294
902.854	8313
902.973	8271
903.091	8103
903.21	8164
903.328	8176
903.446	8103
903.565	8084
903.683	8103
903.801	7967
903.919	8183
904.038	8142
904.156	8077
904.274	8092
904.392	8039
904.51	7993
904.627	7982
904.745	8031
904.863	8164
904.981	7955
905.098	7864
905.216	7894
905.334	7955
905.451	7864
905.569	7830
905.686	7860
905.803	7906
905.921	7795
906.038	7913
906.155	7738
906.272	7666
906.389	7715
906.506	7624
906.623	7639
906.74	7639
906.857	7556
906.974	7594
907.091	7753
907.208	7776
907.324	7647
907.441	7575
907.557	7441
907.674	7422
907.79	7419
907.907	7327
908.023	7403
908.139	7453
908.256	7453
908.372	7365
908.488	7362
908.604	7274
908.72	7240
908.836	7202
908.952	7316
909.068	7289
909.184	7289
909.3	7259
909.415	7247
909.531	7232
909.647	7110
909.762	7042
909.878	7103
909.993	7110
910.108	7088
910.224	7050
910.339	7008
910.454	7046
910.57	6981
910.685	6973
910.8	7164
910.915	7107
911.03	7031
911.145	6905
911.259	6875
911.374	6894
911.489	6829
911.604	6802
911.718	6654
911.833	6764
911.947	6646
912.062	6601
912.176	6738
912.291	6772
912.405	6665
912.519	6878
912.633	6814
912.748	6715
912.862	6715
912.976	6620
913.09	6429
913.204	6597
913.318	6570
913.431	6684
913.545	6650
913.659	6757
913.772	6662
913.886	6597
914	6570
914.113	6662
914.226	6593
914.34	6585
914.453	6467
914.566	6635
914.68	6467
914.793	6532
914.906	6422
915.019	6334
915.132	6372
915.245	6490
915.358	6460
915.47	6433
915.583	6475
915.696	6498
915.809	6597
915.921	6597
916.034	6388
916.146	6388
916.259	6407
916.371	6506
916.483	6426
916.595	6445
916.708	6391
916.82	6384
916.932	6361
917.044	6437
917.156	6426
917.268	6273
917.38	6319
917.491	6331
917.603	6399
917.715	6346
917.826	6403
917.938	6315
918.049	6201
918.161	6311
918.272	6437
918.384	6414
918.495	6323
918.606	6251
918.717	6205
918.828	6232
918.939	6277
919.05	6190
919.161	6258
919.272	6152
919.383	6175
919.494	6289
919.604	6429
919.715	6376
919.826	6155
919.936	6258
920.047	6342
920.157	6277
920.267	6479
920.378	6289
920.488	6270
920.598	6464
920.708	6570
920.818	6464
920.928	6426
921.038	6612
921.148	6582
921.258	6357
921.368	6338
921.477	6182
921.587	6205
921.697	6072
921.806	6171
921.916	6057
922.025	5908
922.134	5961
922.244	5889
922.353	5980
922.462	5802
922.571	5794
922.68	5733
922.789	5634
922.898	5661
923.007	5684
923.116	5710
923.224	5676
923.333	5665
923.442	5627
923.55	5600
923.659	5589
923.767	5627
923.876	5543
923.984	5608
924.092	5558
924.201	5577
924.309	5554
924.417	5539
924.525	5478
924.633	5490
924.741	6323
924.849	5337
924.956	5474
925.064	5383
925.172	5330
925.279	5265
925.387	5398
925.494	5376
925.602	5444
925.709	5379
925.816	5227
925.924	5280
926.031	5322
926.138	5349
926.245	5345
926.352	5204
926.459	5341
926.566	5318
926.673	5197
926.779	5109
926.886	5174
926.993	5029
927.099	5018
927.206	4995
927.312	4991
927.419	5029
927.525	5003
927.631	4999
927.737	4892
927.843	4870
927.95	4771
928.056	4831
928.162	4835
928.267	4831
928.373	5337
928.479	4866
928.585	4706
928.69	4786
928.796	4771
928.901	4698
929.007	4626
929.112	4672
929.218	4596
929.323	4592
929.428	4596
929.533	4702
929.638	4512
929.743	4508
929.848	4504
929.953	4470
930.058	4462
930.163	4306
930.267	4352
930.372	4428
930.477	4295
930.581	4459
930.685	4318
930.79	4253
930.894	4249
930.998	4230
931.103	4409
931.207	4131
931.311	4112
931.415	4063
931.519	3896
931.623	3930
