Data from glass_V78500241_1095.txt Node
Date: Wed Sep 01 19:22:05 CST 2021
User: usil
Spectrometer: V785-0024
Trigger mode: 0
Integration Time (sec): 4.000000E-1
Scans to average: 1
Nonlinearity correction enabled: false
Boxcar width: 0
Storing dark spectrum: false
XAxis mode: Wavelengths
Number of Pixels in Spectrum: 1024
>>>>>Begin Spectral Data<<<<<
801.071	3755
801.214	3740
801.356	3709
801.499	3732
801.641	3724
801.783	3762
801.926	3918
802.068	3819
802.211	3861
802.353	3869
802.496	3827
802.638	3854
802.78	3903
802.923	3918
803.065	3918
803.208	3888
803.35	3880
803.492	3873
803.635	3926
803.777	3812
803.919	3930
804.061	4166
804.204	3975
804.346	3968
804.488	3915
804.63	4071
804.773	3979
804.915	4067
805.057	4135
805.199	4021
805.341	4086
805.483	4147
805.626	4139
805.768	4162
805.91	4227
806.052	4230
806.194	4211
806.336	4348
806.478	4177
806.62	4169
806.762	4185
806.904	4268
807.046	4337
807.188	4227
807.33	4196
807.472	4257
807.614	4200
807.756	4287
807.898	4230
808.04	4246
808.182	4322
808.324	4333
808.465	4386
808.607	4470
808.749	4459
808.891	4504
809.033	4474
809.174	4424
809.316	4299
809.458	4268
809.6	4139
809.741	4169
809.883	4124
810.025	4211
810.166	4158
810.308	4223
810.45	4238
810.591	4230
810.733	4280
810.875	4538
811.016	4866
811.158	5090
811.299	5311
811.441	5303
811.582	5075
811.724	4759
811.865	4447
812.007	4466
812.148	4417
812.29	4428
812.431	4417
812.573	4398
812.714	4333
812.855	4424
812.997	4428
813.138	4489
813.279	4413
813.421	4440
813.562	4398
813.703	4371
813.845	4348
813.986	4299
814.127	4215
814.268	4272
814.41	4299
814.551	4253
814.692	4303
814.833	4272
814.974	4280
815.115	4314
815.256	4249
815.397	4234
815.539	4268
815.68	4242
815.821	4219
815.962	4356
816.103	4314
816.244	4284
816.385	4242
816.526	4291
816.666	4238
816.807	4101
816.948	4188
817.089	4162
817.23	4105
817.371	4055
817.512	4074
817.653	4101
817.793	4029
817.934	4086
818.075	4128
818.216	4093
818.356	4090
818.497	3994
818.638	3922
818.778	3930
818.919	3880
819.06	3915
819.2	3922
819.341	3873
819.481	3831
819.622	3926
819.762	4021
819.903	3968
820.043	3869
820.184	3842
820.324	3816
820.465	3873
820.605	3873
820.746	3896
820.886	3778
821.026	3941
821.167	3945
821.307	3983
821.447	3968
821.588	3968
821.728	3964
821.868	3934
822.008	3854
822.149	3968
822.289	3930
822.429	3789
822.569	3740
822.709	3816
822.849	3701
822.99	3743
823.13	3778
823.27	3770
823.41	3740
823.55	3717
823.69	3728
823.83	3732
823.97	3701
824.11	3629
824.25	3584
824.389	3629
824.529	3656
824.669	3644
824.809	3728
824.949	3736
825.089	3728
825.228	3778
825.368	3564
825.508	3564
825.648	3564
825.787	3633
825.927	3633
826.067	3671
826.206	3682
826.346	3747
826.485	3808
826.625	3892
826.765	3994
826.904	3854
827.044	3618
827.183	3496
827.323	3466
827.462	3507
827.601	3466
827.741	3447
827.88	3488
828.02	3355
828.159	3466
828.298	3511
828.437	3545
828.577	3485
828.716	3572
828.855	3515
828.994	3344
829.134	3370
829.273	3428
829.412	3367
829.551	3351
829.69	3336
829.829	3405
829.968	3485
830.107	3477
830.246	3454
830.385	3359
830.524	3344
830.663	3310
830.802	3260
830.941	3192
831.08	3207
831.219	3306
831.357	3241
831.496	3405
831.635	3237
831.774	3207
831.913	3173
832.051	3138
832.19	3199
832.329	3199
832.467	3127
832.606	3100
832.744	3157
832.883	3214
833.022	3207
833.16	3272
833.299	3313
833.437	3348
833.576	3389
833.714	3389
833.852	3447
833.991	3450
834.129	3492
834.267	3454
834.406	3405
834.544	3439
834.682	3420
834.821	3435
834.959	3580
835.097	3431
835.235	3557
835.373	3488
835.511	3538
835.65	3462
835.788	3496
835.926	3439
836.064	3374
836.202	3412
836.34	3618
836.478	3625
836.615	3549
836.753	3603
836.891	3603
837.029	3633
837.167	3603
837.305	3561
837.443	3557
837.58	3473
837.718	3622
837.856	3595
837.993	3542
838.131	3629
838.269	3622
838.406	3587
838.544	3557
838.681	3515
838.819	3473
838.956	3382
839.094	3409
839.231	3435
839.369	3504
839.506	3698
839.643	3644
839.781	3504
839.918	3492
840.055	3507
840.193	3538
840.33	3538
840.467	3576
840.604	3652
840.742	3808
840.879	3580
841.016	3599
841.153	3610
841.29	3759
841.427	3720
841.564	3709
841.701	3785
841.838	3671
841.975	3705
842.112	3732
842.249	3667
842.385	3648
842.522	3812
842.659	3682
842.796	3641
842.933	3732
843.069	3694
843.206	3713
843.343	3819
843.479	3766
843.616	3812
843.752	3705
843.889	3679
844.025	3888
844.162	3759
844.298	3865
844.435	3804
844.571	3793
844.708	3918
844.844	3975
844.98	4025
845.117	4010
845.253	3949
845.389	3911
845.525	3998
845.661	3979
845.798	3915
845.934	4010
846.07	3960
846.206	4040
846.342	4162
846.478	4097
846.614	3972
846.75	3892
846.886	3926
847.022	4051
847.158	3949
847.294	4029
847.429	4013
847.565	3964
847.701	4253
847.837	3903
847.972	3873
848.108	4006
848.244	3983
848.379	3888
848.515	3846
848.65	3876
848.786	3869
848.921	3835
849.057	3930
849.192	3922
849.328	3903
849.463	3960
849.598	3880
849.734	3903
849.869	3854
850.004	3804
850.14	3819
850.275	3823
850.41	3759
850.545	3800
850.68	3838
850.815	3762
850.95	3800
851.085	3930
851.22	3861
851.355	3854
851.49	3823
851.625	3804
851.76	3785
851.895	3759
852.03	3736
852.165	3808
852.299	3880
852.434	3922
852.569	3838
852.703	3903
852.838	3899
852.973	3987
853.107	3968
853.242	3903
853.376	3835
853.511	3781
853.645	3869
853.78	3964
853.914	3934
854.048	3911
854.183	3869
854.317	3964
854.451	4048
854.585	3937
854.72	3964
854.854	4074
854.988	3979
855.122	3987
855.256	3945
855.39	4032
855.524	4116
855.658	4082
855.792	4090
855.926	4147
856.06	4188
856.194	4185
856.327	4158
856.461	4169
856.595	4150
856.729	4196
856.862	4257
856.996	4265
857.13	4356
857.263	4348
857.397	4375
857.53	4261
857.664	4348
857.797	4383
857.931	4417
858.064	4394
858.197	4474
858.331	4405
858.464	4390
858.597	4394
858.731	4417
858.864	4481
858.997	4481
859.13	4561
859.263	4554
859.396	4550
859.529	4550
859.662	4485
859.795	4592
859.928	4637
860.061	4656
860.194	4729
860.327	4668
860.46	4683
860.592	4744
860.725	4767
860.858	4763
860.99	4710
861.123	4694
861.256	4729
861.388	4771
861.521	5383
861.653	4767
861.786	4683
861.918	4744
862.05	4797
862.183	4843
862.315	4938
862.447	4946
862.58	4873
862.712	4786
862.844	4809
862.976	4923
863.108	4839
863.24	5246
863.372	4854
863.504	4908
863.636	4911
863.768	4999
863.9	4965
864.032	4946
864.164	4961
864.296	5067
864.428	5079
864.559	5132
864.691	5136
864.823	5143
864.954	5071
865.086	5170
865.217	5105
865.349	5086
865.48	5181
865.612	5197
865.743	5299
865.875	5235
866.006	5174
866.137	5193
866.269	5299
866.4	5273
866.531	5284
866.662	5239
866.793	5288
866.924	5296
867.055	5303
867.186	5372
867.317	5315
867.448	5337
867.579	5406
867.71	5417
867.841	5337
867.972	5455
868.103	5520
868.233	5497
868.364	5459
868.495	5558
868.625	5691
868.756	5809
868.886	5676
869.017	5726
869.147	5824
869.278	5866
869.408	5809
869.539	5923
869.669	5904
869.799	5942
869.929	6011
870.06	6060
870.19	6209
870.32	6178
870.45	6311
870.58	6384
870.71	6467
870.84	6494
870.97	6418
871.1	6426
871.23	6654
871.36	6757
871.489	6673
871.619	6734
871.749	6859
871.879	6882
872.008	6993
872.138	6977
872.267	7012
872.397	7027
872.526	7118
872.656	7103
872.785	7206
872.915	7392
873.044	7506
873.173	7609
873.303	7655
873.432	7753
873.561	7932
873.69	7967
873.819	7978
873.948	8176
874.077	8229
874.206	8309
874.335	8476
874.464	8663
874.593	8910
874.722	8891
874.851	9108
874.979	9241
875.108	9386
875.237	9439
875.365	9454
875.494	9709
875.623	9873
875.751	9838
875.88	10006
876.008	10196
876.136	10272
876.265	10535
876.393	10672
876.521	10759
876.65	10816
876.778	10961
876.906	10862
877.034	10949
877.162	11086
877.29	11090
877.418	11303
877.546	11364
877.674	11474
877.802	11509
877.93	11429
878.058	11478
878.185	11562
878.313	11722
878.441	11729
878.568	11775
878.696	11718
878.824	11824
878.951	11939
879.079	12019
879.206	12136
879.333	12026
879.461	11980
879.588	12053
879.715	12114
879.842	12308
879.97	12117
880.097	11870
880.224	11958
880.351	11897
880.478	11965
880.605	11832
880.732	11714
880.859	12041
880.986	11866
881.112	11843
881.239	11695
881.366	11623
881.493	11684
881.619	11558
881.746	11554
881.872	11490
881.999	11562
882.125	11505
882.252	11585
882.378	11528
882.505	11535
882.631	11417
882.757	11265
882.883	11299
883.01	11296
883.136	11193
883.262	11075
883.388	11113
883.514	11193
883.64	11083
883.766	11113
883.892	11041
884.018	10953
884.143	11045
884.269	11071
884.395	10915
884.52	10782
884.646	10759
884.772	10714
884.897	10664
885.023	10721
885.148	10748
885.274	10740
885.399	10774
885.524	10611
885.65	10588
885.775	10615
885.9	10615
886.025	10546
886.15	10542
886.275	10508
886.4	10500
886.525	10421
886.65	10481
886.775	10394
886.9	10535
887.025	10558
887.149	10390
887.274	10306
887.399	10238
887.523	10166
887.648	10181
887.773	10120
887.897	10238
888.021	10219
888.146	10162
888.27	10204
888.395	10284
888.519	10185
888.643	10181
888.767	10207
888.891	10139
889.015	10021
889.139	10078
889.263	10017
889.387	10071
889.511	10124
889.635	10063
889.759	10063
889.883	10013
890.006	10101
890.13	10067
890.254	9934
890.377	9934
890.501	9846
890.624	9934
890.748	9949
890.871	9880
890.995	9861
891.118	9713
891.241	9770
891.364	9743
891.488	9812
891.611	9781
891.734	9755
891.857	9770
891.98	9736
892.103	9736
892.226	9778
892.349	9690
892.471	9549
892.594	9618
892.717	9584
892.839	9599
892.962	9549
893.085	9717
893.207	9584
893.33	9443
893.452	9549
893.575	9652
893.697	9466
893.819	9576
893.941	9667
894.064	9564
894.186	9447
894.308	9382
894.43	9591
894.552	9549
894.674	9458
894.796	9389
894.918	9279
895.04	9401
895.161	9386
895.283	9416
895.405	9310
895.526	9226
895.648	9306
895.769	9203
895.891	9264
896.012	9317
896.134	9253
896.255	9169
896.376	9123
896.498	9165
896.619	9211
896.74	9142
896.861	9146
896.982	9241
897.103	9355
897.224	9161
897.345	9112
897.466	8998
897.587	9017
897.708	9100
897.828	9043
897.949	8986
898.07	8921
898.19	8883
898.311	9070
898.431	8929
898.552	8933
898.672	8967
898.792	8941
898.913	8960
899.033	8819
899.153	8785
899.273	8708
899.393	8727
899.513	8735
899.633	8785
899.753	8777
899.873	8667
899.993	8731
900.113	8735
900.232	8762
900.352	8651
900.472	8655
900.591	8636
900.711	8640
900.83	8598
900.95	8659
901.069	8712
901.189	8621
901.308	8396
901.427	8381
901.546	8366
901.665	8396
901.784	8514
901.904	8336
902.023	8305
902.141	8221
902.26	8206
902.379	8263
902.498	8233
902.617	8218
902.735	8362
902.854	8240
902.973	8244
903.091	8153
903.21	8123
903.328	8149
903.446	8157
903.565	8062
903.683	8119
903.801	8065
903.919	8100
904.038	8157
904.156	7982
904.274	8081
904.392	8024
904.51	8084
904.627	8031
904.745	8100
904.863	8100
904.981	7974
905.098	7917
905.216	7864
905.334	7849
905.451	7913
905.569	7875
905.686	7955
905.803	7940
905.921	7784
906.038	7841
906.155	7830
906.272	7731
906.389	7731
906.506	7704
906.623	7670
906.74	7655
906.857	7575
906.974	7613
907.091	7662
907.208	7818
907.324	7582
907.441	7552
907.557	7476
907.674	7495
907.79	7365
907.907	7381
908.023	7434
908.139	7449
908.256	7388
908.372	7381
908.488	7441
908.604	7289
908.72	7145
908.836	7293
908.952	7221
909.068	7289
909.184	7324
909.3	7232
909.415	7221
909.531	7312
909.647	7088
909.762	7133
909.878	7084
909.993	7160
910.108	7156
910.224	7107
910.339	7171
910.454	7027
910.57	7023
910.685	7061
910.8	7179
910.915	7141
911.03	7069
911.145	6920
911.259	6859
911.374	6901
911.489	6844
911.604	6791
911.718	6776
911.833	6707
911.947	6665
912.062	6623
912.176	6749
912.291	6734
912.405	6741
912.519	6825
912.633	6837
912.748	6753
912.862	6662
912.976	6582
913.09	6559
913.204	6570
913.318	6604
913.431	6764
913.545	6654
913.659	6711
913.772	6662
913.886	6563
914	6544
914.113	6639
914.226	6650
914.34	6654
914.453	6506
914.566	6604
914.68	6536
914.793	6517
914.906	6483
915.019	6403
915.132	6357
915.245	6452
915.358	6475
915.47	6471
915.583	6483
915.696	6506
915.809	6498
915.921	6574
916.034	6403
916.146	6376
916.259	6380
916.371	6475
916.483	6456
916.595	6380
916.708	6403
916.82	6391
916.932	6388
917.044	6433
917.156	6426
917.268	6372
917.38	6346
917.491	6342
917.603	6319
917.715	6350
917.826	6475
917.938	6296
918.049	6224
918.161	6338
918.272	6369
918.384	6452
918.495	6346
918.606	6270
918.717	6213
918.828	6300
918.939	6285
919.05	6258
919.161	6285
919.272	6110
919.383	6098
919.494	6338
919.604	6448
919.715	6205
919.826	6254
919.936	6262
920.047	6391
920.157	6334
920.267	6506
920.378	6319
920.488	6247
920.598	6456
920.708	6555
920.818	6467
920.928	6445
921.038	6673
921.148	6521
921.258	6350
921.368	6338
921.477	6251
921.587	6228
921.697	6083
921.806	6254
921.916	6091
922.025	5958
922.134	5969
922.244	5878
922.353	5992
922.462	5901
922.571	5840
922.68	5695
922.789	5661
922.898	5699
923.007	5665
923.116	5714
923.224	5680
923.333	5691
923.442	5592
923.55	5634
923.659	5600
923.767	5634
923.876	5516
923.984	5615
924.092	5452
924.201	5585
924.309	5547
924.417	5570
924.525	5493
924.633	5474
924.741	6243
924.849	5376
924.956	5497
925.064	5376
925.172	5349
925.279	5372
925.387	5337
925.494	5368
925.602	5490
925.709	5360
925.816	5292
925.924	5296
926.031	5345
926.138	5322
926.245	5322
926.352	5227
926.459	5349
926.566	5322
926.673	5223
926.779	5143
926.886	5143
926.993	5025
927.099	4980
927.206	4949
927.312	4999
927.419	4991
927.525	4980
927.631	5018
927.737	4923
927.843	4870
927.95	4850
928.056	4850
928.162	4824
928.267	4904
928.373	5322
928.479	4839
928.585	4714
928.69	4759
928.796	4828
928.901	4725
929.007	4569
929.112	4691
929.218	4630
929.323	4577
929.428	4577
929.533	4679
929.638	4561
929.743	4561
929.848	4584
929.953	4527
930.058	4417
930.163	4325
930.267	4341
930.372	4432
930.477	4329
930.581	4519
930.685	4348
930.79	4246
930.894	4299
930.998	4249
931.103	4409
931.207	4135
931.311	4093
931.415	4074
931.519	3903
931.623	3956
