Data from glass_V78500241_2515.txt Node
Date: Wed Sep 01 19:31:56 CST 2021
User: usil
Spectrometer: V785-0024
Trigger mode: 0
Integration Time (sec): 4.000000E-1
Scans to average: 1
Nonlinearity correction enabled: false
Boxcar width: 0
Storing dark spectrum: false
XAxis mode: Wavelengths
Number of Pixels in Spectrum: 1024
>>>>>Begin Spectral Data<<<<<
801.071	3694
801.214	3747
801.356	3660
801.499	3747
801.641	3698
801.783	3789
801.926	3854
802.068	3857
802.211	3861
802.353	3888
802.496	3846
802.638	3884
802.78	3880
802.923	3915
803.065	3838
803.208	3835
803.35	3888
803.492	3850
803.635	3907
803.777	3827
803.919	3850
804.061	4093
804.204	3934
804.346	3941
804.488	3884
804.63	4063
804.773	3934
804.915	4017
805.057	4105
805.199	4048
805.341	4036
805.483	4169
805.626	4090
805.768	4120
805.91	4200
806.052	4188
806.194	4181
806.336	4348
806.478	4196
806.62	4169
806.762	4143
806.904	4261
807.046	4344
807.188	4188
807.33	4131
807.472	4211
807.614	4158
807.756	4219
807.898	4188
808.04	4177
808.182	4253
808.324	4337
808.465	4360
808.607	4455
808.749	4417
808.891	4470
809.033	4459
809.174	4363
809.316	4257
809.458	4238
809.6	4230
809.741	4128
809.883	4143
810.025	4242
810.166	4211
810.308	4185
810.45	4204
810.591	4219
810.733	4299
810.875	4493
811.016	4801
811.158	5159
811.299	5258
811.441	5239
811.582	5037
811.724	4660
811.865	4504
812.007	4455
812.148	4428
812.29	4413
812.431	4443
812.573	4443
812.714	4367
812.855	4409
812.997	4398
813.138	4451
813.279	4375
813.421	4360
813.562	4394
813.703	4367
813.845	4306
813.986	4223
814.127	4249
814.268	4234
814.41	4253
814.551	4287
814.692	4306
814.833	4257
814.974	4280
815.115	4314
815.256	4211
815.397	4249
815.539	4242
815.68	4169
815.821	4162
815.962	4341
816.103	4303
816.244	4200
816.385	4219
816.526	4261
816.666	4177
816.807	4086
816.948	4185
817.089	4143
817.23	4147
817.371	4048
817.512	4051
817.653	4101
817.793	4025
817.934	4059
818.075	4074
818.216	4090
818.356	4105
818.497	3975
818.638	3911
818.778	3926
818.919	3899
819.06	3876
819.2	3903
819.341	3842
819.481	3823
819.622	3930
819.762	3983
819.903	3945
820.043	3865
820.184	3816
820.324	3789
820.465	3899
820.605	3865
820.746	3819
820.886	3797
821.026	3918
821.167	3949
821.307	3972
821.447	4017
821.588	3911
821.728	3918
821.868	3922
822.008	3873
822.149	3911
822.289	3930
822.429	3785
822.569	3755
822.709	3781
822.849	3705
822.99	3686
823.13	3720
823.27	3766
823.41	3705
823.55	3751
823.69	3728
823.83	3743
823.97	3671
824.11	3591
824.25	3587
824.389	3660
824.529	3675
824.669	3591
824.809	3732
824.949	3789
825.089	3709
825.228	3713
825.368	3526
825.508	3584
825.648	3580
825.787	3584
825.927	3629
826.067	3629
826.206	3633
826.346	3747
826.485	3835
826.625	3827
826.765	3884
826.904	3861
827.044	3606
827.183	3584
827.323	3439
827.462	3477
827.601	3435
827.741	3454
827.88	3389
828.02	3344
828.159	3389
828.298	3477
828.437	3488
828.577	3500
828.716	3549
828.855	3450
828.994	3374
829.134	3344
829.273	3389
829.412	3294
829.551	3351
829.69	3370
829.829	3374
829.968	3526
830.107	3416
830.246	3412
830.385	3348
830.524	3367
830.663	3302
830.802	3211
830.941	3173
831.08	3199
831.219	3226
831.357	3245
831.496	3393
831.635	3264
831.774	3176
831.913	3157
832.051	3097
832.19	3173
832.329	3192
832.467	3123
832.606	3081
832.744	3150
832.883	3233
833.022	3169
833.16	3268
833.299	3313
833.437	3306
833.576	3317
833.714	3401
833.852	3431
833.991	3405
834.129	3466
834.267	3420
834.406	3389
834.544	3420
834.682	3401
834.821	3416
834.959	3496
835.097	3420
835.235	3538
835.373	3447
835.511	3534
835.65	3458
835.788	3488
835.926	3359
836.064	3374
836.202	3397
836.34	3553
836.478	3584
836.615	3564
836.753	3599
836.891	3591
837.029	3603
837.167	3572
837.305	3511
837.443	3549
837.58	3496
837.718	3561
837.856	3511
837.993	3526
838.131	3599
838.269	3542
838.406	3568
838.544	3564
838.681	3450
838.819	3454
838.956	3386
839.094	3370
839.231	3401
839.369	3515
839.506	3709
839.643	3671
839.781	3466
839.918	3450
840.055	3504
840.193	3515
840.33	3538
840.467	3599
840.604	3576
840.742	3816
840.879	3564
841.016	3580
841.153	3610
841.29	3755
841.427	3713
841.564	3660
841.701	3717
841.838	3717
841.975	3682
842.112	3698
842.249	3656
842.385	3587
842.522	3812
842.659	3694
842.796	3690
842.933	3690
843.069	3728
843.206	3728
843.343	3797
843.479	3781
843.616	3827
843.752	3679
843.889	3663
844.025	3831
844.162	3705
844.298	3854
844.435	3762
844.571	3781
844.708	3880
844.844	3956
844.98	3972
845.117	4021
845.253	3911
845.389	3934
845.525	3964
845.661	3960
845.798	3880
845.934	3979
846.07	3884
846.206	4071
846.342	4101
846.478	4082
846.614	3945
846.75	3911
846.886	3876
847.022	4063
847.158	3987
847.294	3975
847.429	4010
847.565	3937
847.701	4246
847.837	3857
847.972	3865
848.108	3998
848.244	3934
848.379	3869
848.515	3793
848.65	3816
848.786	3797
848.921	3842
849.057	3937
849.192	3918
849.328	3884
849.463	3907
849.598	3854
849.734	3854
849.869	3785
850.004	3781
850.14	3838
850.275	3778
850.41	3720
850.545	3766
850.68	3789
850.815	3808
850.95	3808
851.085	3896
851.22	3793
851.355	3823
851.49	3793
851.625	3804
851.76	3785
851.895	3720
852.03	3675
852.165	3778
852.299	3816
852.434	3873
852.569	3865
852.703	3880
852.838	3915
852.973	3987
853.107	3998
853.242	3873
853.376	3850
853.511	3724
853.645	3835
853.78	3960
853.914	3873
854.048	3873
854.183	3888
854.317	3926
854.451	4040
854.585	3937
854.72	3892
854.854	4059
854.988	3911
855.122	3994
855.256	3937
855.39	3983
855.524	4013
855.658	4093
855.792	4109
855.926	4109
856.06	4128
856.194	4234
856.327	4147
856.461	4112
856.595	4116
856.729	4116
856.862	4284
856.996	4230
857.13	4303
857.263	4299
857.397	4318
857.53	4272
857.664	4329
857.797	4417
857.931	4417
858.064	4360
858.197	4489
858.331	4405
858.464	4337
858.597	4352
858.731	4417
858.864	4481
858.997	4436
859.13	4481
859.263	4512
859.396	4542
859.529	4523
859.662	4523
859.795	4516
859.928	4618
860.061	4691
860.194	4748
860.327	4626
860.46	4653
860.592	4717
860.725	4702
860.858	4790
860.99	4668
861.123	4645
861.256	4683
861.388	4778
861.521	5372
861.653	4717
861.786	4679
861.918	4672
862.05	4774
862.183	4858
862.315	4862
862.447	4911
862.58	4873
862.712	4805
862.844	4763
862.976	4866
863.108	4835
863.24	5220
863.372	4812
863.504	4889
863.636	4870
863.768	5025
863.9	4965
864.032	4934
864.164	4953
864.296	4984
864.428	5052
864.559	5056
864.691	5071
864.823	5117
864.954	5083
865.086	5132
865.217	5083
865.349	5132
865.48	5162
865.612	5189
865.743	5284
865.875	5174
866.006	5166
866.137	5185
866.269	5239
866.4	5246
866.531	5235
866.662	5193
866.793	5212
866.924	5273
867.055	5357
867.186	5292
867.317	5273
867.448	5318
867.579	5376
867.71	5337
867.841	5376
867.972	5433
868.103	5474
868.233	5474
868.364	5486
868.495	5501
868.625	5661
868.756	5748
868.886	5684
869.017	5714
869.147	5866
869.278	5824
869.408	5821
869.539	5813
869.669	5942
869.799	5923
869.929	5958
870.06	6034
870.19	6262
870.32	6148
870.45	6258
870.58	6334
870.71	6429
870.84	6471
870.97	6437
871.1	6395
871.23	6582
871.36	6684
871.489	6639
871.619	6669
871.749	6791
871.879	6806
872.008	6985
872.138	6947
872.267	7023
872.397	6951
872.526	7000
872.656	7133
872.785	7213
872.915	7396
873.044	7487
873.173	7578
873.303	7715
873.432	7750
873.561	7894
873.69	7913
873.819	8016
873.948	8153
874.077	8168
874.206	8351
874.335	8366
874.464	8629
874.593	8868
874.722	8918
874.851	9123
874.979	9268
875.108	9268
875.237	9447
875.365	9496
875.494	9587
875.623	9789
875.751	9846
875.88	9975
876.008	10112
876.136	10227
876.265	10504
876.393	10634
876.521	10736
876.65	10820
876.778	10774
876.906	10965
877.034	10911
877.162	11105
877.29	11098
877.418	11265
877.546	11311
877.674	11452
877.802	11505
877.93	11490
878.058	11543
878.185	11562
878.313	11649
878.441	11748
878.568	11600
878.696	11802
878.824	11901
878.951	11923
879.079	11954
879.206	12148
879.333	12026
879.461	11996
879.588	11977
879.715	12057
879.842	12182
879.97	12083
880.097	11870
880.224	11866
880.351	11893
880.478	11771
880.605	11840
880.732	11843
880.859	11977
880.986	11790
881.112	11855
881.239	11733
881.366	11653
881.493	11604
881.619	11562
881.746	11596
881.872	11543
881.999	11520
882.125	11505
882.252	11486
882.378	11509
882.505	11573
882.631	11395
882.757	11261
882.883	11277
883.01	11341
883.136	11201
883.262	11071
883.388	11056
883.514	11220
883.64	11140
883.766	11174
883.892	11079
884.018	10976
884.143	10976
884.269	11121
884.395	10755
884.52	10812
884.646	10721
884.772	10752
884.897	10618
885.023	10679
885.148	10683
885.274	10805
885.399	10698
885.524	10664
885.65	10523
885.775	10535
885.9	10538
886.025	10546
886.15	10538
886.275	10443
886.4	10379
886.525	10440
886.65	10352
886.775	10417
886.9	10451
887.025	10554
887.149	10367
887.274	10246
887.399	10169
887.523	10116
887.648	10135
887.773	10150
887.897	10196
888.021	10173
888.146	10105
888.27	10234
888.395	10169
888.519	10166
888.643	10211
888.767	10173
888.891	10105
889.015	9979
889.139	10029
889.263	9994
889.387	10063
889.511	10086
889.635	10078
889.759	9903
889.883	10040
890.006	9998
890.13	10116
890.254	9930
890.377	9968
890.501	9907
890.624	9842
890.748	9918
890.871	9759
890.995	9751
891.118	9656
891.241	9736
891.364	9717
891.488	9854
891.611	9713
891.734	9720
891.857	9797
891.98	9770
892.103	9709
892.226	9675
892.349	9667
892.471	9515
892.594	9610
892.717	9587
892.839	9553
892.962	9587
893.085	9694
893.207	9606
893.33	9473
893.452	9469
893.575	9553
893.697	9519
893.819	9622
893.941	9606
894.064	9564
894.186	9447
894.308	9439
894.43	9526
894.552	9564
894.674	9447
894.796	9355
894.918	9336
895.04	9332
895.161	9325
895.283	9302
895.405	9214
895.526	9279
895.648	9245
895.769	9203
895.891	9226
896.012	9306
896.134	9157
896.255	9081
896.376	9116
896.498	9135
896.619	9142
896.74	9020
896.861	9154
896.982	9302
897.103	9256
897.224	9116
897.345	9074
897.466	9081
897.587	8994
897.708	9055
897.828	8982
897.949	8918
898.07	8834
898.19	8918
898.311	8979
898.431	8918
898.552	8861
898.672	8933
898.792	8902
898.913	8845
899.033	8754
899.153	8731
899.273	8720
899.393	8716
899.513	8724
899.633	8701
899.753	8766
899.873	8655
899.993	8735
900.113	8670
900.232	8670
900.352	8545
900.472	8575
900.591	8606
900.711	8571
900.83	8594
900.95	8670
901.069	8708
901.189	8499
901.308	8415
901.427	8366
901.546	8374
901.665	8492
901.784	8511
901.904	8408
902.023	8320
902.141	8183
902.26	8142
902.379	8339
902.498	8271
902.617	8214
902.735	8263
902.854	8263
902.973	8256
903.091	8142
903.21	8149
903.328	8149
903.446	8096
903.565	8062
903.683	8058
903.801	8077
903.919	8145
904.038	8126
904.156	8012
904.274	8088
904.392	8020
904.51	7993
904.627	8016
904.745	8100
904.863	8096
904.981	7898
905.098	7898
905.216	7807
905.334	7833
905.451	7902
905.569	7807
905.686	7913
905.803	7879
905.921	7799
906.038	7864
906.155	7772
906.272	7696
906.389	7723
906.506	7601
906.623	7559
906.74	7552
906.857	7464
906.974	7575
907.091	7643
907.208	7738
907.324	7677
907.441	7502
907.557	7392
907.674	7392
907.79	7358
907.907	7358
908.023	7396
908.139	7373
908.256	7343
908.372	7327
908.488	7324
908.604	7251
908.72	7213
908.836	7217
908.952	7225
909.068	7232
909.184	7282
909.3	7228
909.415	7263
909.531	7312
909.647	7031
909.762	7099
909.878	7061
909.993	7069
910.108	7118
910.224	7038
910.339	7069
910.454	6981
910.57	6935
910.685	6886
910.8	7183
910.915	7069
911.03	6958
911.145	6905
911.259	6840
911.374	6863
911.489	6783
911.604	6798
911.718	6745
911.833	6707
911.947	6642
912.062	6589
912.176	6673
912.291	6650
912.405	6719
912.519	6852
912.633	6795
912.748	6726
912.862	6726
912.976	6642
913.09	6563
913.204	6547
913.318	6555
913.431	6646
913.545	6623
913.659	6738
913.772	6627
913.886	6601
914	6551
914.113	6642
914.226	6642
914.34	6589
914.453	6475
914.566	6612
914.68	6494
914.793	6494
914.906	6467
915.019	6486
915.132	6350
915.245	6380
915.358	6437
915.47	6422
915.583	6426
915.696	6433
915.809	6525
915.921	6536
916.034	6350
916.146	6372
916.259	6380
916.371	6471
916.483	6437
916.595	6429
916.708	6426
916.82	6407
916.932	6319
917.044	6395
917.156	6410
917.268	6311
917.38	6391
917.491	6350
917.603	6304
917.715	6380
917.826	6410
917.938	6338
918.049	6235
918.161	6323
918.272	6384
918.384	6372
918.495	6304
918.606	6239
918.717	6247
918.828	6209
918.939	6270
919.05	6220
919.161	6258
919.272	6106
919.383	6148
919.494	6262
919.604	6418
919.715	6331
919.826	6190
919.936	6175
920.047	6281
920.157	6266
920.267	6460
920.378	6262
920.488	6289
920.598	6479
920.708	6479
920.818	6464
920.928	6464
921.038	6570
921.148	6532
921.258	6304
921.368	6292
921.477	6213
921.587	6148
921.697	6079
921.806	6125
921.916	6045
922.025	5935
922.134	5912
922.244	5847
922.353	5897
922.462	5779
922.571	5767
922.68	5691
922.789	5653
922.898	5672
923.007	5627
923.116	5707
923.224	5680
923.333	5566
923.442	5608
923.55	5581
923.659	5592
923.767	5661
923.876	5512
923.984	5623
924.092	5509
924.201	5509
924.309	5539
924.417	5497
924.525	5471
924.633	5490
924.741	6228
924.849	5318
924.956	5505
925.064	5326
925.172	5280
925.279	5299
925.387	5349
925.494	5341
925.602	5414
925.709	5337
925.816	5239
925.924	5231
926.031	5315
926.138	5337
926.245	5353
926.352	5227
926.459	5307
926.566	5299
926.673	5132
926.779	5132
926.886	5124
926.993	5006
927.099	4984
927.206	4980
927.312	4976
927.419	5037
927.525	4987
927.631	4961
927.737	4873
927.843	4862
927.95	4771
928.056	4843
928.162	4801
928.267	4824
928.373	5284
928.479	4828
928.585	4698
928.69	4812
928.796	4790
928.901	4687
929.007	4561
929.112	4653
929.218	4615
929.323	4645
929.428	4500
929.533	4615
929.638	4466
929.743	4489
929.848	4573
929.953	4485
930.058	4443
930.163	4325
930.267	4314
930.372	4470
930.477	4356
930.581	4432
930.685	4352
930.79	4242
930.894	4280
930.998	4276
931.103	4390
931.207	4162
931.311	4040
931.415	3994
931.519	3934
931.623	3956
