Data from glass_V78500241_1703.txt Node
Date: Wed Sep 01 19:26:18 CST 2021
User: usil
Spectrometer: V785-0024
Trigger mode: 0
Integration Time (sec): 4.000000E-1
Scans to average: 1
Nonlinearity correction enabled: false
Boxcar width: 0
Storing dark spectrum: false
XAxis mode: Wavelengths
Number of Pixels in Spectrum: 1024
>>>>>Begin Spectral Data<<<<<
801.071	3774
801.214	3743
801.356	3743
801.499	3724
801.641	3732
801.783	3770
801.926	3896
802.068	3842
802.211	3838
802.353	3873
802.496	3835
802.638	3884
802.78	3884
802.923	3953
803.065	3930
803.208	3838
803.35	3884
803.492	3888
803.635	3934
803.777	3819
803.919	3892
804.061	4150
804.204	4010
804.346	3915
804.488	3880
804.63	4013
804.773	3991
804.915	4013
805.057	4154
805.199	4063
805.341	4124
805.483	4158
805.626	4124
805.768	4162
805.91	4230
806.052	4284
806.194	4207
806.336	4314
806.478	4181
806.62	4177
806.762	4177
806.904	4253
807.046	4329
807.188	4215
807.33	4173
807.472	4211
807.614	4196
807.756	4291
807.898	4227
808.04	4227
808.182	4238
808.324	4325
808.465	4413
808.607	4440
808.749	4424
808.891	4459
809.033	4531
809.174	4409
809.316	4230
809.458	4287
809.6	4158
809.741	4150
809.883	4173
810.025	4192
810.166	4219
810.308	4169
810.45	4268
810.591	4230
810.733	4314
810.875	4554
811.016	4793
811.158	5136
811.299	5258
811.441	5265
811.582	5090
811.724	4687
811.865	4512
812.007	4440
812.148	4432
812.29	4436
812.431	4390
812.573	4398
812.714	4337
812.855	4459
812.997	4409
813.138	4447
813.279	4428
813.421	4371
813.562	4356
813.703	4333
813.845	4352
813.986	4272
814.127	4234
814.268	4227
814.41	4268
814.551	4242
814.692	4310
814.833	4291
814.974	4295
815.115	4333
815.256	4230
815.397	4223
815.539	4272
815.68	4204
815.821	4200
815.962	4325
816.103	4268
816.244	4223
816.385	4223
816.526	4272
816.666	4238
816.807	4090
816.948	4185
817.089	4173
817.23	4147
817.371	4029
817.512	4082
817.653	4082
817.793	4044
817.934	4071
818.075	4097
818.216	4051
818.356	4082
818.497	3975
818.638	3937
818.778	3907
818.919	3880
819.06	3838
819.2	3922
819.341	3850
819.481	3793
819.622	3918
819.762	3979
819.903	3987
820.043	3831
820.184	3827
820.324	3831
820.465	3823
820.605	3842
820.746	3884
820.886	3823
821.026	3934
821.167	3953
821.307	3934
821.447	4002
821.588	3949
821.728	3915
821.868	3922
822.008	3903
822.149	3930
822.289	3869
822.429	3755
822.569	3755
822.709	3762
822.849	3675
822.99	3713
823.13	3789
823.27	3759
823.41	3686
823.55	3724
823.69	3774
823.83	3774
823.97	3671
824.11	3606
824.25	3576
824.389	3690
824.529	3648
824.669	3644
824.809	3720
824.949	3740
825.089	3671
825.228	3648
825.368	3557
825.508	3538
825.648	3568
825.787	3603
825.927	3614
826.067	3625
826.206	3675
826.346	3823
826.485	3781
826.625	3861
826.765	3964
826.904	3797
827.044	3591
827.183	3564
827.323	3450
827.462	3504
827.601	3443
827.741	3424
827.88	3458
828.02	3386
828.159	3447
828.298	3481
828.437	3561
828.577	3507
828.716	3584
828.855	3485
828.994	3378
829.134	3359
829.273	3401
829.412	3336
829.551	3332
829.69	3359
829.829	3443
829.968	3523
830.107	3462
830.246	3443
830.385	3344
830.524	3348
830.663	3302
830.802	3283
830.941	3192
831.08	3214
831.219	3264
831.357	3279
831.496	3382
831.635	3230
831.774	3173
831.913	3226
832.051	3150
832.19	3131
832.329	3233
832.467	3131
832.606	3119
832.744	3180
832.883	3192
833.022	3180
833.16	3256
833.299	3264
833.437	3355
833.576	3359
833.714	3435
833.852	3386
833.991	3409
834.129	3439
834.267	3454
834.406	3386
834.544	3431
834.682	3466
834.821	3374
834.959	3584
835.097	3454
835.235	3542
835.373	3492
835.511	3481
835.65	3428
835.788	3458
835.926	3378
836.064	3370
836.202	3378
836.34	3584
836.478	3622
836.615	3576
836.753	3591
836.891	3576
837.029	3629
837.167	3564
837.305	3530
837.443	3561
837.58	3485
837.718	3625
837.856	3538
837.993	3504
838.131	3625
838.269	3564
838.406	3568
838.544	3599
838.681	3477
838.819	3458
838.956	3370
839.094	3416
839.231	3454
839.369	3523
839.506	3728
839.643	3622
839.781	3523
839.918	3515
840.055	3500
840.193	3530
840.33	3504
840.467	3591
840.604	3622
840.742	3789
840.879	3507
841.016	3572
841.153	3572
841.29	3747
841.427	3720
841.564	3724
841.701	3759
841.838	3690
841.975	3698
842.112	3732
842.249	3618
842.385	3652
842.522	3823
842.659	3663
842.796	3679
842.933	3713
843.069	3667
843.206	3701
843.343	3812
843.479	3781
843.616	3819
843.752	3675
843.889	3740
844.025	3854
844.162	3732
844.298	3873
844.435	3778
844.571	3797
844.708	3915
844.844	3968
844.98	3979
845.117	3991
845.253	3892
845.389	3907
845.525	3926
845.661	3960
845.798	3930
845.934	4006
846.07	3903
846.206	4090
846.342	4082
846.478	4051
846.614	3964
846.75	3945
846.886	3922
847.022	4051
847.158	3991
847.294	3994
847.429	4021
847.565	4006
847.701	4219
847.837	3903
847.972	3880
848.108	3991
848.244	3987
848.379	3857
848.515	3812
848.65	3823
848.786	3831
848.921	3884
849.057	3930
849.192	3956
849.328	3861
849.463	3922
849.598	3918
849.734	3903
849.869	3827
850.004	3785
850.14	3816
850.275	3781
850.41	3778
850.545	3793
850.68	3781
850.815	3816
850.95	3793
851.085	3922
851.22	3854
851.355	3823
851.49	3789
851.625	3797
851.76	3774
851.895	3766
852.03	3724
852.165	3789
852.299	3865
852.434	3892
852.569	3884
852.703	3888
852.838	3915
852.973	4032
853.107	3991
853.242	3903
853.376	3865
853.511	3766
853.645	3804
853.78	3934
853.914	3896
854.048	3888
854.183	3880
854.317	3941
854.451	4051
854.585	3930
854.72	3964
854.854	4048
854.988	3968
855.122	3991
855.256	3949
855.39	4021
855.524	4147
855.658	4059
855.792	4131
855.926	4086
856.06	4162
856.194	4177
856.327	4166
856.461	4101
856.595	4162
856.729	4223
856.862	4238
856.996	4200
857.13	4287
857.263	4371
857.397	4337
857.53	4284
857.664	4333
857.797	4383
857.931	4390
858.064	4409
858.197	4428
858.331	4379
858.464	4402
858.597	4329
858.731	4428
858.864	4447
858.997	4447
859.13	4516
859.263	4546
859.396	4577
859.529	4538
859.662	4512
859.795	4508
859.928	4599
860.061	4733
860.194	4748
860.327	4672
860.46	4634
860.592	4706
860.725	4740
860.858	4805
860.99	4717
861.123	4645
861.256	4691
861.388	4740
861.521	5402
861.653	4668
861.786	4694
861.918	4721
862.05	4793
862.183	4847
862.315	4881
862.447	4877
862.58	4835
862.712	4809
862.844	4763
862.976	4835
863.108	4831
863.24	5212
863.372	4847
863.504	4896
863.636	4892
863.768	4946
863.9	4942
864.032	4915
864.164	4953
864.296	5052
864.428	5060
864.559	5113
864.691	5079
864.823	5174
864.954	5102
865.086	5121
865.217	5143
865.349	5109
865.48	5155
865.612	5151
865.743	5277
865.875	5193
866.006	5170
866.137	5250
866.269	5254
866.4	5273
866.531	5299
866.662	5235
866.793	5235
866.924	5277
867.055	5326
867.186	5425
867.317	5379
867.448	5307
867.579	5387
867.71	5368
867.841	5360
867.972	5474
868.103	5490
868.233	5501
868.364	5516
868.495	5558
868.625	5623
868.756	5752
868.886	5665
869.017	5756
869.147	5870
869.278	5836
869.408	5813
869.539	5851
869.669	5912
869.799	5912
869.929	6003
870.06	6049
870.19	6216
870.32	6175
870.45	6323
870.58	6319
870.71	6369
870.84	6452
870.97	6422
871.1	6467
871.23	6589
871.36	6700
871.489	6654
871.619	6738
871.749	6749
871.879	6806
872.008	6932
872.138	7019
872.267	6985
872.397	6951
872.526	7038
872.656	7088
872.785	7259
872.915	7430
873.044	7510
873.173	7518
873.303	7597
873.432	7769
873.561	7883
873.69	7883
873.819	8039
873.948	8183
874.077	8267
874.206	8309
874.335	8495
874.464	8636
874.593	8845
874.722	8925
874.851	9081
874.979	9287
875.108	9291
875.237	9424
875.365	9557
875.494	9660
875.623	9854
875.751	9812
875.88	10010
876.008	10093
876.136	10242
876.265	10516
876.393	10706
876.521	10645
876.65	10847
876.778	10858
876.906	10873
877.034	10961
877.162	11029
877.29	11140
877.418	11296
877.546	11261
877.674	11482
877.802	11482
877.93	11528
878.058	11547
878.185	11535
878.313	11710
878.441	11691
878.568	11722
878.696	11760
878.824	11901
878.951	11950
879.079	12034
879.206	12171
879.333	12030
879.461	11992
879.588	12155
879.715	12159
879.842	12251
879.97	12163
880.097	11859
880.224	11958
880.351	11840
880.478	11840
880.605	11916
880.732	11870
880.859	12030
880.986	11855
881.112	11809
881.239	11794
881.366	11589
881.493	11581
881.619	11539
881.746	11543
881.872	11562
881.999	11467
882.125	11558
882.252	11558
882.378	11528
882.505	11573
882.631	11360
882.757	11208
882.883	11322
883.01	11284
883.136	11181
883.262	11121
883.388	11174
883.514	11242
883.64	11140
883.766	11086
883.892	11060
884.018	11010
884.143	11022
884.269	11231
884.395	10824
884.52	10831
884.646	10801
884.772	10641
884.897	10660
885.023	10649
885.148	10748
885.274	10786
885.399	10683
885.524	10527
885.65	10660
885.775	10565
885.9	10558
886.025	10577
886.15	10584
886.275	10451
886.4	10371
886.525	10318
886.65	10386
886.775	10348
886.9	10470
887.025	10558
887.149	10295
887.274	10200
887.399	10154
887.523	10128
887.648	10116
887.773	10147
887.897	10211
888.021	10131
888.146	10040
888.27	10238
888.395	10185
888.519	10181
888.643	10196
888.767	10196
888.891	10093
889.015	9991
889.139	9991
889.263	9918
889.387	10131
889.511	10029
889.635	10036
889.759	9888
889.883	9998
890.006	9956
890.13	10135
890.254	9911
890.377	10002
890.501	9892
890.624	9861
890.748	9922
890.871	9857
890.995	9724
891.118	9663
891.241	9751
891.364	9701
891.488	9884
891.611	9671
891.734	9724
891.857	9747
891.98	9732
892.103	9709
892.226	9736
892.349	9629
892.471	9515
892.594	9557
892.717	9633
892.839	9671
892.962	9584
893.085	9675
893.207	9557
893.33	9644
893.452	9530
893.575	9557
893.697	9504
893.819	9644
893.941	9625
894.064	9557
894.186	9374
894.308	9405
894.43	9580
894.552	9618
894.674	9549
894.796	9420
894.918	9408
895.04	9355
895.161	9306
895.283	9408
895.405	9237
895.526	9306
895.648	9298
895.769	9222
895.891	9325
896.012	9241
896.134	9233
896.255	9112
896.376	9077
896.498	9203
896.619	9173
896.74	9104
896.861	9047
896.982	9264
897.103	9363
897.224	9127
897.345	8994
897.466	8990
897.587	9032
897.708	9123
897.828	9043
897.949	8937
898.07	8899
898.19	8921
898.311	9009
898.431	8910
898.552	8933
898.672	8979
898.792	8975
898.913	8876
899.033	8834
899.153	8746
899.273	8644
899.393	8712
899.513	8712
899.633	8701
899.753	8693
899.873	8701
899.993	8693
900.113	8682
900.232	8667
900.352	8743
900.472	8686
900.591	8568
900.711	8682
900.83	8560
900.95	8716
901.069	8731
901.189	8587
901.308	8412
901.427	8377
901.546	8431
901.665	8438
901.784	8507
901.904	8343
902.023	8332
902.141	8233
902.26	8214
902.379	8279
902.498	8229
902.617	8233
902.735	8275
902.854	8267
902.973	8271
903.091	8039
903.21	8138
903.328	8183
903.446	8149
903.565	8069
903.683	8084
903.801	8005
903.919	8168
904.038	8134
904.156	8035
904.274	8065
904.392	8027
904.51	8054
904.627	8058
904.745	8100
904.863	8142
904.981	7944
905.098	7830
905.216	7811
905.334	7913
905.451	7868
905.569	7898
905.686	7860
905.803	7959
905.921	7723
906.038	7765
906.155	7852
906.272	7666
906.389	7746
906.506	7651
906.623	7632
906.74	7647
906.857	7480
906.974	7578
907.091	7658
907.208	7670
907.324	7639
907.441	7647
907.557	7426
907.674	7468
907.79	7411
907.907	7369
908.023	7430
908.139	7438
908.256	7312
908.372	7335
908.488	7324
908.604	7339
908.72	7285
908.836	7285
908.952	7285
909.068	7282
909.184	7297
909.3	7259
909.415	7346
909.531	7301
909.647	7179
909.762	7103
909.878	7046
909.993	7160
910.108	7088
910.224	7076
910.339	7099
910.454	7076
910.57	7004
910.685	6966
910.8	7149
910.915	7114
911.03	7027
911.145	6947
911.259	6909
911.374	6913
911.489	6833
911.604	6821
911.718	6707
911.833	6734
911.947	6627
912.062	6597
912.176	6726
912.291	6745
912.405	6719
912.519	6795
912.633	6810
912.748	6768
912.862	6753
912.976	6623
913.09	6551
913.204	6559
913.318	6658
913.431	6669
913.545	6589
913.659	6681
913.772	6627
913.886	6566
914	6570
914.113	6642
914.226	6646
914.34	6597
914.453	6559
914.566	6627
914.68	6513
914.793	6528
914.906	6418
915.019	6418
915.132	6403
915.245	6441
915.358	6353
915.47	6502
915.583	6433
915.696	6509
915.809	6536
915.921	6547
916.034	6464
916.146	6448
916.259	6391
916.371	6494
916.483	6426
916.595	6414
916.708	6437
916.82	6429
916.932	6395
917.044	6422
917.156	6334
917.268	6308
917.38	6308
917.491	6315
917.603	6353
917.715	6426
917.826	6464
917.938	6258
918.049	6251
918.161	6308
918.272	6483
918.384	6426
918.495	6315
918.606	6254
918.717	6178
918.828	6251
918.939	6327
919.05	6167
919.161	6285
919.272	6117
919.383	6155
919.494	6300
919.604	6422
919.715	6300
919.826	6201
919.936	6353
920.047	6334
920.157	6292
920.267	6437
920.378	6331
920.488	6323
920.598	6467
920.708	6551
920.818	6452
920.928	6475
921.038	6597
921.148	6563
921.258	6353
921.368	6319
921.477	6254
921.587	6197
921.697	6068
921.806	6224
921.916	6072
922.025	5954
922.134	5931
922.244	5874
922.353	5958
922.462	5855
922.571	5817
922.68	5680
922.789	5707
922.898	5764
923.007	5684
923.116	5710
923.224	5668
923.333	5611
923.442	5608
923.55	5581
923.659	5615
923.767	5608
923.876	5535
923.984	5581
924.092	5566
924.201	5577
924.309	5516
924.417	5535
924.525	5455
924.633	5482
924.741	6239
924.849	5311
924.956	5509
925.064	5303
925.172	5311
925.279	5311
925.387	5387
925.494	5337
925.602	5448
925.709	5368
925.816	5280
925.924	5337
926.031	5357
926.138	5318
926.245	5330
926.352	5250
926.459	5345
926.566	5303
926.673	5223
926.779	5109
926.886	5113
926.993	5041
927.099	5033
927.206	4938
927.312	4976
927.419	5064
927.525	4984
927.631	4995
927.737	4896
927.843	4877
927.95	4793
928.056	4835
928.162	4828
928.267	4866
928.373	5311
928.479	4824
928.585	4702
928.69	4771
928.796	4740
928.901	4679
929.007	4656
929.112	4706
929.218	4653
929.323	4599
929.428	4538
929.533	4668
929.638	4504
929.743	4558
929.848	4516
929.953	4466
930.058	4470
930.163	4325
930.267	4310
930.372	4443
930.477	4325
930.581	4459
930.685	4371
930.79	4276
930.894	4303
930.998	4215
931.103	4390
931.207	4116
931.311	4036
931.415	4021
931.519	3930
931.623	4036
