Data from glass_V78500241_1706.txt Node
Date: Wed Sep 01 19:26:19 CST 2021
User: usil
Spectrometer: V785-0024
Trigger mode: 0
Integration Time (sec): 4.000000E-1
Scans to average: 1
Nonlinearity correction enabled: false
Boxcar width: 0
Storing dark spectrum: false
XAxis mode: Wavelengths
Number of Pixels in Spectrum: 1024
>>>>>Begin Spectral Data<<<<<
801.071	3740
801.214	3740
801.356	3675
801.499	3743
801.641	3709
801.783	3778
801.926	3850
802.068	3804
802.211	3846
802.353	3918
802.496	3816
802.638	3892
802.78	3892
802.923	3953
803.065	3918
803.208	3838
803.35	3869
803.492	3903
803.635	3911
803.777	3785
803.919	3918
804.061	4124
804.204	3994
804.346	3983
804.488	3941
804.63	4032
804.773	3964
804.915	4006
805.057	4166
805.199	3991
805.341	4101
805.483	4124
805.626	4124
805.768	4063
805.91	4185
806.052	4181
806.194	4249
806.336	4352
806.478	4207
806.62	4207
806.762	4204
806.904	4284
807.046	4291
807.188	4227
807.33	4177
807.472	4268
807.614	4166
807.756	4310
807.898	4242
808.04	4158
808.182	4295
808.324	4310
808.465	4409
808.607	4474
808.749	4451
808.891	4466
809.033	4500
809.174	4413
809.316	4291
809.458	4234
809.6	4166
809.741	4128
809.883	4154
810.025	4188
810.166	4211
810.308	4181
810.45	4238
810.591	4246
810.733	4272
810.875	4489
811.016	4835
811.158	5178
811.299	5250
811.441	5292
811.582	5014
811.724	4702
811.865	4447
812.007	4493
812.148	4398
812.29	4440
812.431	4394
812.573	4394
812.714	4379
812.855	4409
812.997	4466
813.138	4531
813.279	4432
813.421	4337
813.562	4360
813.703	4284
813.845	4284
813.986	4303
814.127	4257
814.268	4249
814.41	4257
814.551	4211
814.692	4314
814.833	4310
814.974	4314
815.115	4375
815.256	4249
815.397	4253
815.539	4272
815.68	4215
815.821	4230
815.962	4329
816.103	4276
816.244	4230
816.385	4200
816.526	4272
816.666	4230
816.807	4116
816.948	4169
817.089	4192
817.23	4105
817.371	4082
817.512	4032
817.653	4147
817.793	4051
817.934	4059
818.075	4086
818.216	4105
818.356	4078
818.497	4002
818.638	3915
818.778	3884
818.919	3911
819.06	3869
819.2	3896
819.341	3876
819.481	3865
819.622	3899
819.762	4017
819.903	3953
820.043	3846
820.184	3827
820.324	3835
820.465	3873
820.605	3857
820.746	3838
820.886	3778
821.026	3926
821.167	3899
821.307	3964
821.447	4002
821.588	3994
821.728	3934
821.868	3960
822.008	3911
822.149	3949
822.289	3941
822.429	3762
822.569	3728
822.709	3785
822.849	3679
822.99	3759
823.13	3781
823.27	3740
823.41	3671
823.55	3766
823.69	3705
823.83	3728
823.97	3675
824.11	3622
824.25	3580
824.389	3629
824.529	3690
824.669	3618
824.809	3667
824.949	3774
825.089	3724
825.228	3724
825.368	3568
825.508	3591
825.648	3572
825.787	3584
825.927	3675
826.067	3637
826.206	3648
826.346	3781
826.485	3842
826.625	3816
826.765	3941
826.904	3869
827.044	3618
827.183	3530
827.323	3450
827.462	3458
827.601	3389
827.741	3401
827.88	3458
828.02	3389
828.159	3469
828.298	3477
828.437	3492
828.577	3466
828.716	3545
828.855	3458
828.994	3389
829.134	3389
829.273	3374
829.412	3370
829.551	3359
829.69	3348
829.829	3439
829.968	3507
830.107	3428
830.246	3431
830.385	3359
830.524	3313
830.663	3329
830.802	3214
830.941	3241
831.08	3188
831.219	3253
831.357	3249
831.496	3431
831.635	3214
831.774	3211
831.913	3211
832.051	3119
832.19	3142
832.329	3226
832.467	3150
832.606	3116
832.744	3184
832.883	3154
833.022	3192
833.16	3260
833.299	3329
833.437	3374
833.576	3393
833.714	3416
833.852	3481
833.991	3420
834.129	3462
834.267	3405
834.406	3424
834.544	3374
834.682	3405
834.821	3389
834.959	3564
835.097	3431
835.235	3511
835.373	3504
835.511	3488
835.65	3416
835.788	3473
835.926	3386
836.064	3363
836.202	3412
836.34	3561
836.478	3557
836.615	3496
836.753	3603
836.891	3633
837.029	3644
837.167	3572
837.305	3564
837.443	3530
837.58	3462
837.718	3561
837.856	3561
837.993	3526
838.131	3595
838.269	3542
838.406	3572
838.544	3595
838.681	3473
838.819	3454
838.956	3348
839.094	3412
839.231	3450
839.369	3515
839.506	3778
839.643	3610
839.781	3511
839.918	3481
840.055	3530
840.193	3511
840.33	3473
840.467	3610
840.604	3580
840.742	3812
840.879	3584
841.016	3572
841.153	3660
841.29	3713
841.427	3690
841.564	3686
841.701	3759
841.838	3709
841.975	3686
842.112	3701
842.249	3660
842.385	3606
842.522	3846
842.659	3690
842.796	3656
842.933	3675
843.069	3698
843.206	3679
843.343	3842
843.479	3781
843.616	3774
843.752	3671
843.889	3671
844.025	3876
844.162	3732
844.298	3884
844.435	3785
844.571	3819
844.708	3903
844.844	4029
844.98	3979
845.117	3972
845.253	3953
845.389	3892
845.525	3953
845.661	3979
845.798	3907
845.934	3979
846.07	3991
846.206	4002
846.342	4139
846.478	4116
846.614	3945
846.75	3907
846.886	3934
847.022	4071
847.158	3998
847.294	3979
847.429	3972
847.565	3987
847.701	4257
847.837	3873
847.972	3861
848.108	3987
848.244	3930
848.379	3838
848.515	3804
848.65	3819
848.786	3838
848.921	3888
849.057	3937
849.192	3941
849.328	3873
849.463	3918
849.598	3869
849.734	3827
849.869	3850
850.004	3740
850.14	3789
850.275	3827
850.41	3717
850.545	3755
850.68	3770
850.815	3816
850.95	3793
851.085	3846
851.22	3857
851.355	3823
851.49	3781
851.625	3766
851.76	3808
851.895	3751
852.03	3770
852.165	3781
852.299	3876
852.434	3903
852.569	3869
852.703	3869
852.838	3903
852.973	4006
853.107	3998
853.242	3926
853.376	3827
853.511	3778
853.645	3808
853.78	3960
853.914	3873
854.048	3880
854.183	3880
854.317	3972
854.451	4055
854.585	3956
854.72	3953
854.854	4071
854.988	3972
855.122	3968
855.256	3941
855.39	4006
855.524	4090
855.658	4078
855.792	4067
855.926	4124
856.06	4169
856.194	4268
856.327	4147
856.461	4105
856.595	4147
856.729	4166
856.862	4257
856.996	4246
857.13	4287
857.263	4341
857.397	4413
857.53	4253
857.664	4333
857.797	4405
857.931	4432
858.064	4386
858.197	4424
858.331	4360
858.464	4371
858.597	4352
858.731	4402
858.864	4481
858.997	4481
859.13	4523
859.263	4497
859.396	4565
859.529	4497
859.662	4527
859.795	4512
859.928	4607
860.061	4702
860.194	4752
860.327	4634
860.46	4668
860.592	4778
860.725	4771
860.858	4831
860.99	4733
861.123	4656
861.256	4649
861.388	4740
861.521	5357
861.653	4717
861.786	4687
861.918	4733
862.05	4831
862.183	4816
862.315	4919
862.447	4934
862.58	4889
862.712	4778
862.844	4778
862.976	4843
863.108	4854
863.24	5258
863.372	4801
863.504	4904
863.636	4908
863.768	4972
863.9	4946
864.032	4949
864.164	4911
864.296	5060
864.428	5121
864.559	5071
864.691	5128
864.823	5064
864.954	5090
865.086	5140
865.217	5128
865.349	5143
865.48	5227
865.612	5227
865.743	5299
865.875	5254
866.006	5178
866.137	5265
866.269	5204
866.4	5284
866.531	5246
866.662	5269
866.793	5296
866.924	5318
867.055	5311
867.186	5330
867.317	5414
867.448	5288
867.579	5368
867.71	5357
867.841	5387
867.972	5448
868.103	5467
868.233	5497
868.364	5532
868.495	5505
868.625	5691
868.756	5771
868.886	5657
869.017	5680
869.147	5851
869.278	5874
869.408	5813
869.539	5767
869.669	5893
869.799	5927
869.929	5958
870.06	6015
870.19	6175
870.32	6194
870.45	6209
870.58	6311
870.71	6437
870.84	6490
870.97	6506
871.1	6410
871.23	6627
871.36	6719
871.489	6604
871.619	6700
871.749	6760
871.879	6871
872.008	7034
872.138	6996
872.267	6935
872.397	6970
872.526	7065
872.656	7126
872.785	7221
872.915	7335
873.044	7578
873.173	7559
873.303	7670
873.432	7727
873.561	7887
873.69	7879
873.819	7970
873.948	8199
874.077	8206
874.206	8332
874.335	8488
874.464	8670
874.593	8880
874.722	8941
874.851	9104
874.979	9211
875.108	9370
875.237	9504
875.365	9466
875.494	9652
875.623	9781
875.751	9865
875.88	10048
876.008	10169
876.136	10291
876.265	10519
876.393	10675
876.521	10687
876.65	10809
876.778	10873
876.906	10816
877.034	10968
877.162	11086
877.29	11193
877.418	11261
877.546	11307
877.674	11402
877.802	11520
877.93	11570
878.058	11532
878.185	11566
878.313	11649
878.441	11668
878.568	11646
878.696	11855
878.824	11882
878.951	11954
879.079	11980
879.206	12102
879.333	12095
879.461	11965
879.588	12060
879.715	12114
879.842	12235
879.97	12053
880.097	11855
880.224	11821
880.351	11866
880.478	11923
880.605	11851
880.732	11737
880.859	11969
880.986	11783
881.112	11790
881.239	11684
881.366	11657
881.493	11630
881.619	11509
881.746	11535
881.872	11554
881.999	11524
882.125	11505
882.252	11463
882.378	11528
882.505	11570
882.631	11395
882.757	11250
882.883	11318
883.01	11315
883.136	11181
883.262	11227
883.388	11056
883.514	11201
883.64	11162
883.766	11128
883.892	11033
884.018	11048
884.143	11098
884.269	11071
884.395	10889
884.52	10774
884.646	10656
884.772	10710
884.897	10653
885.023	10710
885.148	10763
885.274	10790
885.399	10736
885.524	10596
885.65	10542
885.775	10618
885.9	10550
886.025	10672
886.15	10577
886.275	10470
886.4	10390
886.525	10405
886.65	10337
886.775	10306
886.9	10489
887.025	10508
887.149	10409
887.274	10268
887.399	10181
887.523	10177
887.648	10078
887.773	10135
887.897	10177
888.021	10268
888.146	10188
888.27	10169
888.395	10215
888.519	10169
888.643	10242
888.767	10147
888.891	10055
889.015	9930
889.139	9991
889.263	9953
889.387	10090
889.511	10112
889.635	10025
889.759	9930
889.883	10017
890.006	9979
890.13	10112
890.254	9930
890.377	9953
890.501	9899
890.624	9835
890.748	9861
890.871	9793
890.995	9816
891.118	9682
891.241	9759
891.364	9774
891.488	9732
891.611	9804
891.734	9759
891.857	9717
891.98	9762
892.103	9823
892.226	9682
892.349	9667
892.471	9542
892.594	9599
892.717	9606
892.839	9561
892.962	9648
893.085	9610
893.207	9568
893.33	9557
893.452	9492
893.575	9625
893.697	9511
893.819	9618
893.941	9622
894.064	9545
894.186	9447
894.308	9473
894.43	9618
894.552	9557
894.674	9534
894.796	9374
894.918	9405
895.04	9279
895.161	9351
895.283	9325
895.405	9256
895.526	9321
895.648	9218
895.769	9268
895.891	9245
896.012	9291
896.134	9245
896.255	9226
896.376	9119
896.498	9199
896.619	9222
896.74	9028
896.861	9043
896.982	9268
897.103	9321
897.224	9184
897.345	9112
897.466	8986
897.587	8994
897.708	9180
897.828	9070
897.949	8994
898.07	8925
898.19	8937
898.311	9028
898.431	8899
898.552	8899
898.672	8902
898.792	8876
898.913	8891
899.033	8762
899.153	8796
899.273	8720
899.393	8724
899.513	8743
899.633	8689
899.753	8705
899.873	8708
899.993	8750
900.113	8708
900.232	8754
900.352	8724
900.472	8590
900.591	8636
900.711	8655
900.83	8503
900.95	8655
901.069	8712
901.189	8610
901.308	8465
901.427	8381
901.546	8419
901.665	8457
901.784	8514
901.904	8374
902.023	8343
902.141	8343
902.26	8187
902.379	8271
902.498	8248
902.617	8164
902.735	8313
902.854	8294
902.973	8267
903.091	8126
903.21	8168
903.328	8161
903.446	8123
903.565	8077
903.683	8134
903.801	8062
903.919	8149
904.038	8069
904.156	8035
904.274	8054
904.392	8020
904.51	8046
904.627	8115
904.745	8096
904.863	8092
904.981	7883
905.098	7902
905.216	7906
905.334	7955
905.451	7913
905.569	7871
905.686	7909
905.803	7906
905.921	7833
906.038	7830
906.155	7792
906.272	7670
906.389	7670
906.506	7696
906.623	7639
906.74	7597
906.857	7563
906.974	7480
907.091	7666
907.208	7715
907.324	7655
907.441	7594
907.557	7434
907.674	7453
907.79	7419
907.907	7384
908.023	7426
908.139	7400
908.256	7365
908.372	7392
908.488	7350
908.604	7278
908.72	7194
908.836	7293
908.952	7259
909.068	7255
909.184	7259
909.3	7202
909.415	7266
909.531	7251
909.647	7103
909.762	7133
909.878	7084
909.993	7118
910.108	7046
910.224	7103
910.339	7103
910.454	7057
910.57	7027
910.685	6932
910.8	7206
910.915	7118
911.03	6973
911.145	6829
911.259	6894
911.374	6882
911.489	6878
911.604	6779
911.718	6703
911.833	6696
911.947	6684
912.062	6604
912.176	6684
912.291	6757
912.405	6749
912.519	6852
912.633	6837
912.748	6757
912.862	6719
912.976	6623
913.09	6517
913.204	6551
913.318	6551
913.431	6631
913.545	6662
913.659	6719
913.772	6616
913.886	6540
914	6585
914.113	6574
914.226	6627
914.34	6547
914.453	6441
914.566	6604
914.68	6551
914.793	6517
914.906	6433
915.019	6395
915.132	6350
915.245	6365
915.358	6403
915.47	6486
915.583	6426
915.696	6483
915.809	6517
915.921	6521
916.034	6395
916.146	6395
916.259	6380
916.371	6464
916.483	6490
916.595	6365
916.708	6384
916.82	6407
916.932	6399
917.044	6391
917.156	6391
917.268	6334
917.38	6350
917.491	6220
917.603	6410
917.715	6426
917.826	6346
917.938	6331
918.049	6262
918.161	6357
918.272	6410
918.384	6407
918.495	6350
918.606	6270
918.717	6186
918.828	6300
918.939	6216
919.05	6201
919.161	6281
919.272	6121
919.383	6159
919.494	6270
919.604	6437
919.715	6273
919.826	6251
919.936	6262
920.047	6331
920.157	6277
920.267	6388
920.378	6357
920.488	6296
920.598	6433
920.708	6544
920.818	6486
920.928	6521
921.038	6646
921.148	6559
921.258	6376
921.368	6266
921.477	6228
921.587	6194
921.697	6091
921.806	6194
921.916	6049
922.025	5973
922.134	5882
922.244	5866
922.353	5969
922.462	5821
922.571	5767
922.68	5710
922.789	5672
922.898	5786
923.007	5646
923.116	5745
923.224	5699
923.333	5665
923.442	5615
923.55	5596
923.659	5581
923.767	5596
923.876	5577
923.984	5623
924.092	5493
924.201	5577
924.309	5524
924.417	5566
924.525	5474
924.633	5493
924.741	6357
924.849	5398
924.956	5471
925.064	5395
925.172	5292
925.279	5288
925.387	5349
925.494	5303
925.602	5429
925.709	5410
925.816	5296
925.924	5296
926.031	5326
926.138	5299
926.245	5341
926.352	5216
926.459	5254
926.566	5345
926.673	5162
926.779	5105
926.886	5124
926.993	5033
927.099	5022
927.206	4987
927.312	4911
927.419	4999
927.525	4972
927.631	4987
927.737	4885
927.843	4892
927.95	4809
928.056	4752
928.162	4828
928.267	4858
928.373	5341
928.479	4862
928.585	4691
928.69	4782
928.796	4763
928.901	4729
929.007	4558
929.112	4675
929.218	4630
929.323	4607
929.428	4561
929.533	4691
929.638	4527
929.743	4527
929.848	4569
929.953	4497
930.058	4398
930.163	4352
930.267	4341
930.372	4451
930.477	4329
930.581	4478
930.685	4371
930.79	4234
930.894	4295
930.998	4230
931.103	4409
931.207	4097
931.311	4090
931.415	4044
931.519	3956
931.623	3975
