Data from glass_V78500241_399.txt Node
Date: Wed Sep 01 19:17:15 CST 2021
User: usil
Spectrometer: V785-0024
Trigger mode: 0
Integration Time (sec): 4.000000E-1
Scans to average: 1
Nonlinearity correction enabled: false
Boxcar width: 0
Storing dark spectrum: false
XAxis mode: Wavelengths
Number of Pixels in Spectrum: 1024
>>>>>Begin Spectral Data<<<<<
801.071	3717
801.214	3797
801.356	3717
801.499	3774
801.641	3743
801.783	3759
801.926	3896
802.068	3835
802.211	3884
802.353	3865
802.496	3827
802.638	3854
802.78	3918
802.923	3937
803.065	3896
803.208	3861
803.35	3869
803.492	3964
803.635	3960
803.777	3812
803.919	3899
804.061	4169
804.204	3949
804.346	4017
804.488	3945
804.63	4067
804.773	3987
804.915	4097
805.057	4192
805.199	4036
805.341	4116
805.483	4143
805.626	4135
805.768	4131
805.91	4204
806.052	4246
806.194	4257
806.336	4344
806.478	4200
806.62	4204
806.762	4158
806.904	4291
807.046	4333
807.188	4280
807.33	4181
807.472	4246
807.614	4219
807.756	4268
807.898	4265
808.04	4219
808.182	4276
808.324	4390
808.465	4325
808.607	4466
808.749	4432
808.891	4497
809.033	4512
809.174	4394
809.316	4249
809.458	4238
809.6	4207
809.741	4150
809.883	4128
810.025	4185
810.166	4200
810.308	4234
810.45	4238
810.591	4230
810.733	4314
810.875	4535
811.016	4828
811.158	5193
811.299	5288
811.441	5288
811.582	5067
811.724	4698
811.865	4462
812.007	4459
812.148	4440
812.29	4405
812.431	4383
812.573	4462
812.714	4398
812.855	4432
812.997	4383
813.138	4531
813.279	4428
813.421	4390
813.562	4413
813.703	4356
813.845	4352
813.986	4272
814.127	4242
814.268	4287
814.41	4272
814.551	4261
814.692	4386
814.833	4257
814.974	4337
815.115	4367
815.256	4246
815.397	4246
815.539	4261
815.68	4196
815.821	4242
815.962	4310
816.103	4276
816.244	4284
816.385	4257
816.526	4344
816.666	4246
816.807	4105
816.948	4207
817.089	4192
817.23	4185
817.371	4048
817.512	4055
817.653	4105
817.793	4040
817.934	4112
818.075	4112
818.216	4105
818.356	4086
818.497	3983
818.638	3949
818.778	3937
818.919	3937
819.06	3861
819.2	3937
819.341	3842
819.481	3846
819.622	3888
819.762	4051
819.903	3983
820.043	3873
820.184	3846
820.324	3823
820.465	3865
820.605	3922
820.746	3873
820.886	3869
821.026	3926
821.167	3949
821.307	4013
821.447	4013
821.588	3945
821.728	3987
821.868	3964
822.008	3896
822.149	3857
822.289	3953
822.429	3762
822.569	3694
822.709	3835
822.849	3766
822.99	3736
823.13	3770
823.27	3770
823.41	3766
823.55	3770
823.69	3747
823.83	3785
823.97	3717
824.11	3587
824.25	3633
824.389	3694
824.529	3656
824.669	3641
824.809	3682
824.949	3755
825.089	3751
825.228	3709
825.368	3584
825.508	3561
825.648	3553
825.787	3614
825.927	3591
826.067	3625
826.206	3667
826.346	3781
826.485	3876
826.625	3880
826.765	3960
826.904	3854
827.044	3660
827.183	3557
827.323	3450
827.462	3511
827.601	3439
827.741	3462
827.88	3428
828.02	3374
828.159	3450
828.298	3488
828.437	3584
828.577	3435
828.716	3580
828.855	3481
828.994	3405
829.134	3370
829.273	3409
829.412	3374
829.551	3367
829.69	3409
829.829	3431
829.968	3488
830.107	3466
830.246	3454
830.385	3382
830.524	3397
830.663	3355
830.802	3283
830.941	3245
831.08	3199
831.219	3279
831.357	3298
831.496	3454
831.635	3268
831.774	3203
831.913	3165
832.051	3142
832.19	3123
832.329	3207
832.467	3146
832.606	3112
832.744	3157
832.883	3127
833.022	3199
833.16	3268
833.299	3344
833.437	3363
833.576	3363
833.714	3386
833.852	3420
833.991	3458
834.129	3500
834.267	3443
834.406	3397
834.544	3458
834.682	3431
834.821	3428
834.959	3591
835.097	3435
835.235	3538
835.373	3511
835.511	3519
835.65	3504
835.788	3538
835.926	3374
836.064	3382
836.202	3439
836.34	3564
836.478	3618
836.615	3542
836.753	3614
836.891	3667
837.029	3652
837.167	3557
837.305	3622
837.443	3568
837.58	3557
837.718	3584
837.856	3534
837.993	3545
838.131	3580
838.269	3595
838.406	3610
838.544	3599
838.681	3492
838.819	3473
838.956	3389
839.094	3416
839.231	3447
839.369	3534
839.506	3732
839.643	3633
839.781	3500
839.918	3492
840.055	3523
840.193	3515
840.33	3549
840.467	3561
840.604	3606
840.742	3793
840.879	3557
841.016	3610
841.153	3580
841.29	3766
841.427	3751
841.564	3709
841.701	3751
841.838	3724
841.975	3705
842.112	3743
842.249	3682
842.385	3610
842.522	3880
842.659	3713
842.796	3694
842.933	3717
843.069	3717
843.206	3705
843.343	3819
843.479	3759
843.616	3854
843.752	3671
843.889	3686
844.025	3816
844.162	3675
844.298	3850
844.435	3797
844.571	3800
844.708	3922
844.844	4006
844.98	4002
845.117	4021
845.253	3975
845.389	3918
845.525	3983
845.661	3956
845.798	3945
845.934	4059
846.07	3937
846.206	4051
846.342	4128
846.478	4040
846.614	4002
846.75	3956
846.886	3873
847.022	4044
847.158	3979
847.294	3998
847.429	3994
847.565	4006
847.701	4249
847.837	3880
847.972	3857
848.108	4006
848.244	3941
848.379	3896
848.515	3838
848.65	3835
848.786	3846
848.921	3880
849.057	3892
849.192	3949
849.328	3907
849.463	3953
849.598	3880
849.734	3899
849.869	3869
850.004	3751
850.14	3842
850.275	3785
850.41	3778
850.545	3774
850.68	3797
850.815	3819
850.95	3797
851.085	3934
851.22	3896
851.355	3838
851.49	3774
851.625	3762
851.76	3816
851.895	3770
852.03	3751
852.165	3827
852.299	3838
852.434	3922
852.569	3850
852.703	3869
852.838	3960
852.973	4021
853.107	3994
853.242	3953
853.376	3854
853.511	3728
853.645	3865
853.78	3979
853.914	3937
854.048	3949
854.183	3903
854.317	3968
854.451	4097
854.585	3975
854.72	3945
854.854	4029
854.988	3922
855.122	4025
855.256	3934
855.39	4067
855.524	4112
855.658	4105
855.792	4109
855.926	4101
856.06	4150
856.194	4257
856.327	4158
856.461	4169
856.595	4185
856.729	4177
856.862	4306
856.996	4268
857.13	4325
857.263	4314
857.397	4428
857.53	4303
857.664	4341
857.797	4440
857.931	4462
858.064	4363
858.197	4531
858.331	4405
858.464	4344
858.597	4413
858.731	4470
858.864	4478
858.997	4500
859.13	4516
859.263	4497
859.396	4573
859.529	4538
859.662	4535
859.795	4516
859.928	4618
860.061	4748
860.194	4793
860.327	4664
860.46	4691
860.592	4752
860.725	4782
860.858	4778
860.99	4710
861.123	4694
861.256	4664
861.388	4801
861.521	5383
861.653	4774
861.786	4729
861.918	4759
862.05	4820
862.183	4835
862.315	4911
862.447	4911
862.58	4881
862.712	4793
862.844	4744
862.976	4850
863.108	4896
863.24	5254
863.372	4809
863.504	4919
863.636	4911
863.768	5010
863.9	4980
864.032	4957
864.164	4999
864.296	5041
864.428	5079
864.559	5162
864.691	5109
864.823	5124
864.954	5143
865.086	5189
865.217	5185
865.349	5121
865.48	5159
865.612	5208
865.743	5261
865.875	5181
866.006	5170
866.137	5239
866.269	5242
866.4	5277
866.531	5201
866.662	5258
866.793	5269
866.924	5303
867.055	5315
867.186	5368
867.317	5349
867.448	5258
867.579	5440
867.71	5387
867.841	5402
867.972	5482
868.103	5524
868.233	5554
868.364	5535
868.495	5554
868.625	5703
868.756	5805
868.886	5729
869.017	5775
869.147	5851
869.278	5920
869.408	5786
869.539	5901
869.669	5912
869.799	5901
869.929	5996
870.06	6011
870.19	6167
870.32	6140
870.45	6262
870.58	6338
870.71	6433
870.84	6506
870.97	6380
871.1	6441
871.23	6631
871.36	6635
871.489	6703
871.619	6741
871.749	6776
871.879	6867
872.008	7012
872.138	6993
872.267	6996
872.397	6985
872.526	7069
872.656	7091
872.785	7217
872.915	7358
873.044	7575
873.173	7609
873.303	7727
873.432	7780
873.561	7894
873.69	7959
873.819	8069
873.948	8126
874.077	8286
874.206	8377
874.335	8476
874.464	8701
874.593	8941
874.722	8906
874.851	9108
874.979	9233
875.108	9351
875.237	9408
875.365	9469
875.494	9682
875.623	9831
875.751	9873
875.88	10040
876.008	10177
876.136	10337
876.265	10527
876.393	10717
876.521	10717
876.65	10809
876.778	10885
876.906	10850
877.034	10995
877.162	11140
877.29	11147
877.418	11349
877.546	11334
877.674	11459
877.802	11551
877.93	11490
878.058	11600
878.185	11619
878.313	11710
878.441	11737
878.568	11661
878.696	11767
878.824	11836
878.951	11912
879.079	12072
879.206	12186
879.333	12019
879.461	11988
879.588	12049
879.715	12114
879.842	12213
879.97	12102
880.097	11897
880.224	11923
880.351	11916
880.478	11920
880.605	11878
880.732	11847
880.859	12019
880.986	11741
881.112	11821
881.239	11661
881.366	11733
881.493	11634
881.619	11570
881.746	11585
881.872	11505
881.999	11490
882.125	11414
882.252	11589
882.378	11486
882.505	11570
882.631	11387
882.757	11265
882.883	11334
883.01	11223
883.136	11216
883.262	11162
883.388	11102
883.514	11143
883.64	11132
883.766	11136
883.892	10949
884.018	10980
884.143	11094
884.269	11121
884.395	10896
884.52	10797
884.646	10824
884.772	10736
884.897	10588
885.023	10740
885.148	10778
885.274	10786
885.399	10710
885.524	10584
885.65	10622
885.775	10607
885.9	10577
886.025	10691
886.15	10527
886.275	10451
886.4	10523
886.525	10489
886.65	10386
886.775	10318
886.9	10436
887.025	10527
887.149	10322
887.274	10223
887.399	10207
887.523	10173
887.648	10169
887.773	10128
887.897	10284
888.021	10268
888.146	10101
888.27	10249
888.395	10238
888.519	10139
888.643	10188
888.767	10227
888.891	10154
889.015	10097
889.139	10082
889.263	9941
889.387	10105
889.511	10139
889.635	10086
889.759	9934
889.883	10013
890.006	10074
890.13	10147
890.254	9922
890.377	9979
890.501	9838
890.624	9865
890.748	9827
890.871	9861
890.995	9736
891.118	9709
891.241	9846
891.364	9785
891.488	9816
891.611	9717
891.734	9694
891.857	9781
891.98	9671
892.103	9724
892.226	9732
892.349	9637
892.471	9530
892.594	9557
892.717	9652
892.839	9652
892.962	9698
893.085	9743
893.207	9545
893.33	9496
893.452	9557
893.575	9614
893.697	9458
893.819	9591
893.941	9667
894.064	9576
894.186	9519
894.308	9367
894.43	9538
894.552	9568
894.674	9507
894.796	9348
894.918	9389
895.04	9340
895.161	9374
895.283	9359
895.405	9279
895.526	9302
895.648	9260
895.769	9199
895.891	9283
896.012	9230
896.134	9218
896.255	9195
896.376	9192
896.498	9165
896.619	9036
896.74	9066
896.861	9119
896.982	9329
897.103	9332
897.224	9195
897.345	9131
897.466	9039
897.587	9024
897.708	9184
897.828	9062
897.949	8960
898.07	8849
898.19	8967
898.311	9013
898.431	9017
898.552	8971
898.672	8990
898.792	9020
898.913	8910
899.033	8872
899.153	8739
899.273	8693
899.393	8682
899.513	8708
899.633	8735
899.753	8731
899.873	8701
899.993	8735
900.113	8754
900.232	8621
900.352	8689
900.472	8663
900.591	8594
900.711	8621
900.83	8613
900.95	8716
901.069	8712
901.189	8606
901.308	8461
901.427	8408
901.546	8446
901.665	8461
901.784	8469
901.904	8427
902.023	8339
902.141	8210
902.26	8218
902.379	8267
902.498	8233
902.617	8221
902.735	8313
902.854	8298
902.973	8256
903.091	8069
903.21	8164
903.328	8145
903.446	8142
903.565	8138
903.683	8065
903.801	8103
903.919	8123
904.038	8176
904.156	7993
904.274	8073
904.392	8008
904.51	8043
904.627	8046
904.745	8126
904.863	8024
904.981	7932
905.098	7913
905.216	7898
905.334	7928
905.451	7868
905.569	7864
905.686	7936
905.803	7906
905.921	7742
906.038	7928
906.155	7788
906.272	7750
906.389	7738
906.506	7689
906.623	7582
906.74	7666
906.857	7575
906.974	7586
907.091	7700
907.208	7753
907.324	7605
907.441	7651
907.557	7468
907.674	7480
907.79	7373
907.907	7438
908.023	7430
908.139	7365
908.256	7392
908.372	7422
908.488	7354
908.604	7339
908.72	7244
908.836	7259
908.952	7266
909.068	7266
909.184	7316
909.3	7263
909.415	7278
909.531	7305
909.647	7122
909.762	7152
909.878	7103
909.993	7164
910.108	7038
910.224	7088
910.339	7069
910.454	7110
910.57	7042
910.685	6977
910.8	7179
910.915	7095
911.03	7065
911.145	6970
911.259	6871
911.374	6867
911.489	6814
911.604	6814
911.718	6722
911.833	6753
911.947	6650
912.062	6563
912.176	6681
912.291	6738
912.405	6688
912.519	6875
912.633	6863
912.748	6738
912.862	6722
912.976	6616
913.09	6486
913.204	6570
913.318	6578
913.431	6692
913.545	6684
913.659	6688
913.772	6635
913.886	6540
914	6612
914.113	6616
914.226	6608
914.34	6658
914.453	6536
914.566	6612
914.68	6555
914.793	6547
914.906	6433
915.019	6399
915.132	6342
915.245	6422
915.358	6422
915.47	6403
915.583	6486
915.696	6494
915.809	6528
915.921	6559
916.034	6433
916.146	6448
916.259	6380
916.371	6513
916.483	6471
916.595	6437
916.708	6391
916.82	6403
916.932	6346
917.044	6334
917.156	6361
917.268	6308
917.38	6346
917.491	6319
917.603	6346
917.715	6388
917.826	6433
917.938	6353
918.049	6285
918.161	6350
918.272	6418
918.384	6426
918.495	6388
918.606	6277
918.717	6243
918.828	6342
918.939	6281
919.05	6213
919.161	6258
919.272	6155
919.383	6182
919.494	6315
919.604	6441
919.715	6258
919.826	6281
919.936	6239
920.047	6296
920.157	6331
920.267	6513
920.378	6369
920.488	6315
920.598	6429
920.708	6574
920.818	6456
920.928	6479
921.038	6681
921.148	6563
921.258	6350
921.368	6239
921.477	6235
921.587	6197
921.697	6121
921.806	6232
921.916	6072
922.025	5908
922.134	5977
922.244	5817
922.353	5916
922.462	5828
922.571	5844
922.68	5722
922.789	5665
922.898	5710
923.007	5638
923.116	5707
923.224	5657
923.333	5726
923.442	5623
923.55	5604
923.659	5566
923.767	5608
923.876	5532
923.984	5623
924.092	5551
924.201	5524
924.309	5493
924.417	5543
924.525	5516
924.633	5478
924.741	6334
924.849	5414
924.956	5482
925.064	5368
925.172	5273
925.279	5318
925.387	5372
925.494	5376
925.602	5372
925.709	5410
925.816	5277
925.924	5311
926.031	5337
926.138	5330
926.245	5357
926.352	5231
926.459	5311
926.566	5280
926.673	5201
926.779	5117
926.886	5166
926.993	5025
927.099	4968
927.206	4995
927.312	4961
927.419	5052
927.525	5060
927.631	4976
927.737	4934
927.843	4889
927.95	4801
928.056	4824
928.162	4870
928.267	4889
928.373	5277
928.479	4858
928.585	4721
928.69	4752
928.796	4786
928.901	4721
929.007	4599
929.112	4622
929.218	4664
929.323	4649
929.428	4584
929.533	4672
929.638	4519
929.743	4584
929.848	4580
929.953	4546
930.058	4462
930.163	4299
930.267	4363
930.372	4455
930.477	4360
930.581	4478
930.685	4360
930.79	4303
930.894	4242
930.998	4253
931.103	4409
931.207	4139
931.311	4112
931.415	4082
931.519	3945
931.623	3941
