Data from glass_V78500241_534.txt Node
Date: Wed Sep 01 19:18:12 CST 2021
User: usil
Spectrometer: V785-0024
Trigger mode: 0
Integration Time (sec): 4.000000E-1
Scans to average: 1
Nonlinearity correction enabled: false
Boxcar width: 0
Storing dark spectrum: false
XAxis mode: Wavelengths
Number of Pixels in Spectrum: 1024
>>>>>Begin Spectral Data<<<<<
801.071	3747
801.214	3762
801.356	3709
801.499	3800
801.641	3755
801.783	3800
801.926	3892
802.068	3861
802.211	3880
802.353	3903
802.496	3861
802.638	3918
802.78	3934
802.923	3972
803.065	3975
803.208	3896
803.35	3922
803.492	3896
803.635	3926
803.777	3835
803.919	3869
804.061	4211
804.204	3994
804.346	3949
804.488	3956
804.63	4051
804.773	3991
804.915	4040
805.057	4169
805.199	4090
805.341	4112
805.483	4219
805.626	4147
805.768	4124
805.91	4265
806.052	4242
806.194	4246
806.336	4379
806.478	4230
806.62	4196
806.762	4207
806.904	4249
807.046	4341
807.188	4207
807.33	4158
807.472	4257
807.614	4207
807.756	4272
807.898	4204
808.04	4253
808.182	4303
808.324	4333
808.465	4360
808.607	4512
808.749	4424
808.891	4489
809.033	4504
809.174	4443
809.316	4253
809.458	4242
809.6	4158
809.741	4181
809.883	4181
810.025	4207
810.166	4238
810.308	4227
810.45	4265
810.591	4253
810.733	4318
810.875	4478
811.016	4847
811.158	5170
811.299	5246
811.441	5303
811.582	5128
811.724	4721
811.865	4489
812.007	4466
812.148	4424
812.29	4428
812.431	4451
812.573	4428
812.714	4417
812.855	4451
812.997	4405
813.138	4474
813.279	4462
813.421	4409
813.562	4360
813.703	4344
813.845	4341
813.986	4230
814.127	4253
814.268	4291
814.41	4272
814.551	4287
814.692	4322
814.833	4295
814.974	4268
815.115	4314
815.256	4284
815.397	4261
815.539	4303
815.68	4185
815.821	4223
815.962	4356
816.103	4314
816.244	4227
816.385	4238
816.526	4306
816.666	4246
816.807	4124
816.948	4215
817.089	4166
817.23	4131
817.371	4090
817.512	4082
817.653	4086
817.793	4010
817.934	4036
818.075	4135
818.216	4074
818.356	4116
818.497	3983
818.638	3915
818.778	3949
818.919	3918
819.06	3857
819.2	3922
819.341	3865
819.481	3865
819.622	3941
819.762	4029
819.903	4002
820.043	3861
820.184	3838
820.324	3861
820.465	3899
820.605	3918
820.746	3884
820.886	3827
821.026	3926
821.167	3915
821.307	4013
821.447	3968
821.588	3975
821.728	3987
821.868	3975
822.008	3930
822.149	3899
822.289	3953
822.429	3778
822.569	3747
822.709	3755
822.849	3705
822.99	3728
823.13	3804
823.27	3774
823.41	3785
823.55	3755
823.69	3762
823.83	3720
823.97	3675
824.11	3622
824.25	3618
824.389	3698
824.529	3690
824.669	3671
824.809	3660
824.949	3762
825.089	3732
825.228	3755
825.368	3599
825.508	3606
825.648	3561
825.787	3625
825.927	3637
826.067	3641
826.206	3686
826.346	3789
826.485	3823
826.625	3823
826.765	3911
826.904	3835
827.044	3633
827.183	3538
827.323	3450
827.462	3504
827.601	3454
827.741	3450
827.88	3447
828.02	3431
828.159	3443
828.298	3511
828.437	3511
828.577	3481
828.716	3564
828.855	3481
828.994	3374
829.134	3389
829.273	3351
829.412	3370
829.551	3332
829.69	3382
829.829	3447
829.968	3538
830.107	3431
830.246	3443
830.385	3389
830.524	3344
830.663	3275
830.802	3260
830.941	3226
831.08	3241
831.219	3306
831.357	3268
831.496	3431
831.635	3218
831.774	3226
831.913	3199
832.051	3184
832.19	3173
832.329	3222
832.467	3150
832.606	3108
832.744	3176
832.883	3180
833.022	3173
833.16	3237
833.299	3340
833.437	3344
833.576	3405
833.714	3443
833.852	3435
833.991	3477
834.129	3488
834.267	3466
834.406	3393
834.544	3424
834.682	3439
834.821	3401
834.959	3599
835.097	3447
835.235	3549
835.373	3473
835.511	3462
835.65	3469
835.788	3477
835.926	3450
836.064	3389
836.202	3401
836.34	3564
836.478	3641
836.615	3549
836.753	3644
836.891	3686
837.029	3629
837.167	3595
837.305	3561
837.443	3542
837.58	3469
837.718	3584
837.856	3603
837.993	3549
838.131	3629
838.269	3595
838.406	3572
838.544	3576
838.681	3496
838.819	3477
838.956	3389
839.094	3344
839.231	3443
839.369	3526
839.506	3755
839.643	3610
839.781	3523
839.918	3466
840.055	3492
840.193	3564
840.33	3568
840.467	3599
840.604	3568
840.742	3808
840.879	3534
841.016	3580
841.153	3587
841.29	3743
841.427	3732
841.564	3793
841.701	3732
841.838	3713
841.975	3705
842.112	3717
842.249	3675
842.385	3648
842.522	3831
842.659	3690
842.796	3686
842.933	3743
843.069	3717
843.206	3717
843.343	3789
843.479	3819
843.616	3846
843.752	3644
843.889	3705
844.025	3873
844.162	3747
844.298	3876
844.435	3789
844.571	3793
844.708	3953
844.844	3998
844.98	4029
845.117	4006
845.253	3960
845.389	3896
845.525	3975
845.661	4017
845.798	3903
845.934	4013
846.07	3949
846.206	4044
846.342	4105
846.478	4048
846.614	3964
846.75	3960
846.886	3922
847.022	4029
847.158	3987
847.294	3998
847.429	4029
847.565	4051
847.701	4253
847.837	3896
847.972	3869
848.108	4044
848.244	3979
848.379	3888
848.515	3850
848.65	3838
848.786	3831
848.921	3922
849.057	3941
849.192	3983
849.328	3953
849.463	3915
849.598	3918
849.734	3869
849.869	3869
850.004	3789
850.14	3838
850.275	3774
850.41	3774
850.545	3766
850.68	3755
850.815	3838
850.95	3850
851.085	3956
851.22	3876
851.355	3812
851.49	3816
851.625	3778
851.76	3857
851.895	3740
852.03	3720
852.165	3781
852.299	3888
852.434	3930
852.569	3865
852.703	3911
852.838	3953
852.973	4010
853.107	3975
853.242	3941
853.376	3808
853.511	3838
853.645	3819
853.78	3975
853.914	3964
854.048	3896
854.183	3884
854.317	3991
854.451	4078
854.585	3991
854.72	3926
854.854	4048
854.988	3899
855.122	3979
855.256	3922
855.39	4029
855.524	4154
855.658	4097
855.792	4105
855.926	4150
856.06	4177
856.194	4177
856.327	4116
856.461	4196
856.595	4131
856.729	4192
856.862	4272
856.996	4257
857.13	4318
857.263	4333
857.397	4367
857.53	4272
857.664	4383
857.797	4367
857.931	4451
858.064	4417
858.197	4470
858.331	4443
858.464	4417
858.597	4356
858.731	4459
858.864	4455
858.997	4512
859.13	4504
859.263	4565
859.396	4580
859.529	4527
859.662	4527
859.795	4497
859.928	4615
860.061	4725
860.194	4778
860.327	4649
860.46	4656
860.592	4744
860.725	4771
860.858	4778
860.99	4664
861.123	4710
861.256	4710
861.388	4782
861.521	5509
861.653	4759
861.786	4706
861.918	4744
862.05	4809
862.183	4831
862.315	4919
862.447	4999
862.58	4873
862.712	4812
862.844	4782
862.976	4881
863.108	4930
863.24	5212
863.372	4870
863.504	4930
863.636	4892
863.768	5003
863.9	4972
864.032	4927
864.164	4980
864.296	5041
864.428	5121
864.559	5121
864.691	5185
864.823	5105
864.954	5128
865.086	5178
865.217	5094
865.349	5159
865.48	5216
865.612	5181
865.743	5296
865.875	5216
866.006	5201
866.137	5174
866.269	5315
866.4	5216
866.531	5277
866.662	5239
866.793	5273
866.924	5318
867.055	5353
867.186	5398
867.317	5357
867.448	5357
867.579	5383
867.71	5391
867.841	5406
867.972	5467
868.103	5512
868.233	5497
868.364	5547
868.495	5558
868.625	5668
868.756	5813
868.886	5642
869.017	5688
869.147	5840
869.278	5859
869.408	5779
869.539	5847
869.669	5946
869.799	5885
869.929	5996
870.06	6030
870.19	6155
870.32	6224
870.45	6296
870.58	6384
870.71	6448
870.84	6448
870.97	6422
871.1	6498
871.23	6711
871.36	6696
871.489	6738
871.619	6726
871.749	6825
871.879	6852
872.008	6989
872.138	6947
872.267	7004
872.397	7031
872.526	7065
872.656	7099
872.785	7251
872.915	7388
873.044	7544
873.173	7540
873.303	7715
873.432	7670
873.561	7879
873.69	7963
873.819	7970
873.948	8180
874.077	8309
874.206	8324
874.335	8480
874.464	8746
874.593	8944
874.722	8941
874.851	9093
874.979	9245
875.108	9408
875.237	9424
875.365	9428
875.494	9622
875.623	9800
875.751	9835
875.88	9975
876.008	10196
876.136	10310
876.265	10569
876.393	10767
876.521	10774
876.65	10866
876.778	10866
876.906	10877
877.034	10965
877.162	11174
877.29	11193
877.418	11277
877.546	11334
877.674	11433
877.802	11490
877.93	11566
878.058	11501
878.185	11554
878.313	11714
878.441	11745
878.568	11649
878.696	11809
878.824	11901
878.951	11973
879.079	12057
879.206	12155
879.333	12060
879.461	12022
879.588	12121
879.715	12175
879.842	12201
879.97	12072
880.097	11885
880.224	11893
880.351	11840
880.478	11874
880.605	11859
880.732	11805
880.859	11992
880.986	11878
881.112	11843
881.239	11680
881.366	11726
881.493	11608
881.619	11520
881.746	11547
881.872	11543
881.999	11532
882.125	11509
882.252	11539
882.378	11490
882.505	11604
882.631	11318
882.757	11299
882.883	11334
883.01	11269
883.136	11250
883.262	11117
883.388	11132
883.514	11216
883.64	11166
883.766	11143
883.892	11067
884.018	11048
884.143	11098
884.269	11025
884.395	10835
884.52	10793
884.646	10900
884.772	10687
884.897	10660
885.023	10637
885.148	10793
885.274	10778
885.399	10687
885.524	10656
885.65	10603
885.775	10531
885.9	10527
886.025	10584
886.15	10538
886.275	10436
886.4	10523
886.525	10360
886.65	10352
886.775	10371
886.9	10500
887.025	10466
887.149	10333
887.274	10242
887.399	10303
887.523	10211
887.648	10128
887.773	10169
887.897	10337
888.021	10322
888.146	10169
888.27	10295
888.395	10219
888.519	10230
888.643	10166
888.767	10238
888.891	10128
889.015	10082
889.139	10013
889.263	10055
889.387	10162
889.511	10135
889.635	10002
889.759	9987
889.883	10025
890.006	10048
890.13	10051
890.254	9956
890.377	10010
890.501	9873
890.624	9838
890.748	9835
890.871	9778
890.995	9740
891.118	9652
891.241	9740
891.364	9751
891.488	9831
891.611	9755
891.734	9713
891.857	9751
891.98	9671
892.103	9732
892.226	9728
892.349	9694
892.471	9549
892.594	9553
892.717	9538
892.839	9614
892.962	9641
893.085	9728
893.207	9488
893.33	9523
893.452	9564
893.575	9618
893.697	9511
893.819	9641
893.941	9663
894.064	9625
894.186	9443
894.308	9557
894.43	9572
894.552	9519
894.674	9519
894.796	9397
894.918	9367
895.04	9351
895.161	9458
895.283	9329
895.405	9291
895.526	9272
895.648	9222
895.769	9249
895.891	9237
896.012	9283
896.134	9195
896.255	9226
896.376	9173
896.498	9195
896.619	9176
896.74	9093
896.861	9093
896.982	9264
897.103	9325
897.224	9165
897.345	9062
897.466	8975
897.587	9036
897.708	9100
897.828	9028
897.949	8921
898.07	8895
898.19	8956
898.311	9077
898.431	8864
898.552	8918
898.672	8975
898.792	8998
898.913	9013
899.033	8773
899.153	8777
899.273	8670
899.393	8746
899.513	8826
899.633	8667
899.753	8724
899.873	8708
899.993	8754
900.113	8689
900.232	8724
900.352	8727
900.472	8590
900.591	8526
900.711	8552
900.83	8602
900.95	8743
901.069	8712
901.189	8571
901.308	8393
901.427	8400
901.546	8476
901.665	8476
901.784	8541
901.904	8415
902.023	8381
902.141	8275
902.26	8199
902.379	8317
902.498	8180
902.617	8195
902.735	8317
902.854	8324
902.973	8199
903.091	8145
903.21	8130
903.328	8172
903.446	8172
903.565	8138
903.683	8130
903.801	8092
903.919	8081
904.038	8210
904.156	8039
904.274	8111
904.392	8031
904.51	7955
904.627	8107
904.745	8069
904.863	8157
904.981	7921
905.098	7902
905.216	7860
905.334	7902
905.451	7925
905.569	7898
905.686	7978
905.803	7913
905.921	7803
906.038	7883
906.155	7860
906.272	7712
906.389	7681
906.506	7681
906.623	7655
906.74	7639
906.857	7651
906.974	7628
907.091	7689
907.208	7723
907.324	7636
907.441	7567
907.557	7540
907.674	7491
907.79	7396
907.907	7419
908.023	7476
908.139	7422
908.256	7434
908.372	7415
908.488	7392
908.604	7266
908.72	7213
908.836	7297
908.952	7289
909.068	7285
909.184	7312
909.3	7217
909.415	7305
909.531	7255
909.647	7126
909.762	7129
909.878	7118
909.993	7133
910.108	7069
910.224	7080
910.339	7122
910.454	7072
910.57	6993
910.685	7027
910.8	7175
910.915	7080
911.03	7069
911.145	6894
911.259	6844
911.374	6939
911.489	6840
911.604	6859
911.718	6753
911.833	6719
911.947	6639
912.062	6608
912.176	6703
912.291	6768
912.405	6741
912.519	6890
912.633	6818
912.748	6791
912.862	6707
912.976	6582
913.09	6551
913.204	6597
913.318	6597
913.431	6631
913.545	6673
913.659	6681
913.772	6669
913.886	6570
914	6627
914.113	6627
914.226	6620
914.34	6639
914.453	6525
914.566	6635
914.68	6540
914.793	6509
914.906	6410
915.019	6369
915.132	6437
915.245	6456
915.358	6369
915.47	6471
915.583	6475
915.696	6452
915.809	6570
915.921	6566
916.034	6460
916.146	6414
916.259	6403
916.371	6540
916.483	6486
916.595	6372
916.708	6448
916.82	6372
916.932	6399
917.044	6353
917.156	6399
917.268	6350
917.38	6346
917.491	6342
917.603	6334
917.715	6391
917.826	6464
917.938	6376
918.049	6289
918.161	6289
918.272	6471
918.384	6479
918.495	6384
918.606	6251
918.717	6273
918.828	6270
918.939	6296
919.05	6140
919.161	6251
919.272	6114
919.383	6148
919.494	6311
919.604	6441
919.715	6346
919.826	6205
919.936	6277
920.047	6338
920.157	6247
920.267	6471
920.378	6372
920.488	6285
920.598	6486
920.708	6585
920.818	6494
920.928	6506
921.038	6616
921.148	6623
921.258	6361
921.368	6369
921.477	6254
921.587	6178
921.697	6106
921.806	6152
921.916	6053
922.025	5942
922.134	5939
922.244	5821
922.353	5920
922.462	5908
922.571	5756
922.68	5699
922.789	5745
922.898	5676
923.007	5646
923.116	5752
923.224	5722
923.333	5653
923.442	5585
923.55	5577
923.659	5547
923.767	5718
923.876	5604
923.984	5604
924.092	5543
924.201	5566
924.309	5566
924.417	5558
924.525	5505
924.633	5505
924.741	6277
924.849	5376
924.956	5524
925.064	5353
925.172	5337
925.279	5326
925.387	5337
925.494	5311
925.602	5452
925.709	5444
925.816	5288
925.924	5341
926.031	5387
926.138	5318
926.245	5311
926.352	5254
926.459	5379
926.566	5337
926.673	5185
926.779	5170
926.886	5155
926.993	5041
927.099	4995
927.206	4980
927.312	4934
927.419	4995
927.525	4965
927.631	4953
927.737	4927
927.843	4854
927.95	4809
928.056	4774
928.162	4847
928.267	4923
928.373	5280
928.479	4839
928.585	4744
928.69	4748
928.796	4744
928.901	4687
929.007	4599
929.112	4687
929.218	4634
929.323	4637
929.428	4577
929.533	4672
929.638	4519
929.743	4550
929.848	4584
929.953	4500
930.058	4440
930.163	4341
930.267	4363
930.372	4440
930.477	4299
930.581	4485
930.685	4421
930.79	4253
930.894	4299
930.998	4276
931.103	4402
931.207	4090
931.311	4086
931.415	4071
931.519	3949
931.623	3918
