Data from glass_V78500241_1572.txt Node
Date: Wed Sep 01 19:25:23 CST 2021
User: usil
Spectrometer: V785-0024
Trigger mode: 0
Integration Time (sec): 4.000000E-1
Scans to average: 1
Nonlinearity correction enabled: false
Boxcar width: 0
Storing dark spectrum: false
XAxis mode: Wavelengths
Number of Pixels in Spectrum: 1024
>>>>>Begin Spectral Data<<<<<
801.071	3751
801.214	3778
801.356	3728
801.499	3732
801.641	3698
801.783	3774
801.926	3857
802.068	3819
802.211	3831
802.353	3857
802.496	3808
802.638	3896
802.78	3876
802.923	3922
803.065	3922
803.208	3876
803.35	3915
803.492	3918
803.635	3896
803.777	3800
803.919	3915
804.061	4128
804.204	3975
804.346	3899
804.488	3915
804.63	3998
804.773	3972
804.915	4067
805.057	4143
805.199	4025
805.341	4063
805.483	4090
805.626	4162
805.768	4112
805.91	4219
806.052	4230
806.194	4162
806.336	4337
806.478	4272
806.62	4158
806.762	4181
806.904	4272
807.046	4390
807.188	4204
807.33	4181
807.472	4246
807.614	4188
807.756	4215
807.898	4219
808.04	4234
808.182	4276
808.324	4310
808.465	4383
808.607	4447
808.749	4493
808.891	4421
809.033	4519
809.174	4394
809.316	4280
809.458	4272
809.6	4169
809.741	4158
809.883	4120
810.025	4249
810.166	4150
810.308	4211
810.45	4238
810.591	4253
810.733	4276
810.875	4493
811.016	4771
811.158	5174
811.299	5311
811.441	5273
811.582	5075
811.724	4725
811.865	4451
812.007	4455
812.148	4409
812.29	4421
812.431	4386
812.573	4428
812.714	4394
812.855	4402
812.997	4375
813.138	4485
813.279	4451
813.421	4409
813.562	4409
813.703	4341
813.845	4299
813.986	4219
814.127	4227
814.268	4249
814.41	4291
814.551	4265
814.692	4360
814.833	4272
814.974	4322
815.115	4333
815.256	4299
815.397	4196
815.539	4291
815.68	4246
815.821	4295
815.962	4318
816.103	4276
816.244	4223
816.385	4211
816.526	4227
816.666	4261
816.807	4131
816.948	4215
817.089	4135
817.23	4181
817.371	4036
817.512	4090
817.653	4093
817.793	4021
817.934	4025
818.075	4147
818.216	4048
818.356	4067
818.497	4013
818.638	3907
818.778	3899
818.919	3892
819.06	3861
819.2	3884
819.341	3880
819.481	3865
819.622	3857
819.762	4013
819.903	3991
820.043	3850
820.184	3850
820.324	3842
820.465	3880
820.605	3838
820.746	3854
820.886	3808
821.026	3918
821.167	3911
821.307	4010
821.447	3987
821.588	3926
821.728	3930
821.868	3975
822.008	3884
822.149	3918
822.289	3926
822.429	3778
822.569	3759
822.709	3831
822.849	3682
822.99	3732
823.13	3770
823.27	3766
823.41	3690
823.55	3724
823.69	3698
823.83	3709
823.97	3679
824.11	3625
824.25	3591
824.389	3648
824.529	3637
824.669	3633
824.809	3717
824.949	3781
825.089	3751
825.228	3667
825.368	3557
825.508	3591
825.648	3603
825.787	3618
825.927	3614
826.067	3622
826.206	3633
826.346	3804
826.485	3827
826.625	3876
826.765	3903
826.904	3804
827.044	3637
827.183	3515
827.323	3420
827.462	3481
827.601	3443
827.741	3439
827.88	3466
828.02	3382
828.159	3469
828.298	3523
828.437	3530
828.577	3450
828.716	3599
828.855	3466
828.994	3420
829.134	3370
829.273	3420
829.412	3363
829.551	3348
829.69	3412
829.829	3409
829.968	3504
830.107	3481
830.246	3458
830.385	3409
830.524	3359
830.663	3306
830.802	3249
830.941	3226
831.08	3203
831.219	3253
831.357	3287
831.496	3431
831.635	3241
831.774	3207
831.913	3222
832.051	3154
832.19	3138
832.329	3230
832.467	3127
832.606	3116
832.744	3157
832.883	3173
833.022	3195
833.16	3245
833.299	3294
833.437	3363
833.576	3386
833.714	3412
833.852	3481
833.991	3447
834.129	3515
834.267	3420
834.406	3378
834.544	3412
834.682	3458
834.821	3370
834.959	3584
835.097	3431
835.235	3523
835.373	3488
835.511	3492
835.65	3488
835.788	3492
835.926	3401
836.064	3355
836.202	3409
836.34	3572
836.478	3580
836.615	3572
836.753	3614
836.891	3603
837.029	3606
837.167	3580
837.305	3580
837.443	3584
837.58	3511
837.718	3637
837.856	3553
837.993	3523
838.131	3599
838.269	3625
838.406	3568
838.544	3561
838.681	3447
838.819	3450
838.956	3389
839.094	3393
839.231	3458
839.369	3538
839.506	3713
839.643	3641
839.781	3481
839.918	3447
840.055	3511
840.193	3523
840.33	3542
840.467	3530
840.604	3622
840.742	3804
840.879	3530
841.016	3584
841.153	3580
841.29	3717
841.427	3747
841.564	3709
841.701	3766
841.838	3709
841.975	3671
842.112	3713
842.249	3633
842.385	3618
842.522	3804
842.659	3663
842.796	3690
842.933	3724
843.069	3682
843.206	3713
843.343	3835
843.479	3774
843.616	3850
843.752	3686
843.889	3679
844.025	3854
844.162	3762
844.298	3873
844.435	3751
844.571	3800
844.708	3873
844.844	4029
844.98	3983
845.117	4010
845.253	3899
845.389	3884
845.525	3968
845.661	3934
845.798	3896
845.934	3972
846.07	3941
846.206	4029
846.342	4124
846.478	4093
846.614	3972
846.75	3941
846.886	3934
847.022	4044
847.158	3979
847.294	4017
847.429	4048
847.565	3964
847.701	4227
847.837	3880
847.972	3857
848.108	3953
848.244	3987
848.379	3850
848.515	3865
848.65	3812
848.786	3835
848.921	3873
849.057	3949
849.192	3899
849.328	3899
849.463	3865
849.598	3865
849.734	3876
849.869	3915
850.004	3736
850.14	3797
850.275	3762
850.41	3732
850.545	3774
850.68	3816
850.815	3762
850.95	3823
851.085	3987
851.22	3869
851.355	3819
851.49	3785
851.625	3816
851.76	3812
851.895	3724
852.03	3713
852.165	3800
852.299	3816
852.434	3888
852.569	3854
852.703	3888
852.838	3953
852.973	4002
853.107	4063
853.242	3915
853.376	3835
853.511	3804
853.645	3831
853.78	3960
853.914	3907
854.048	3918
854.183	3888
854.317	3903
854.451	4101
854.585	3949
854.72	3960
854.854	4021
854.988	3949
855.122	3956
855.256	3907
855.39	4036
855.524	4139
855.658	4124
855.792	4078
855.926	4093
856.06	4139
856.194	4185
856.327	4124
856.461	4101
856.595	4135
856.729	4162
856.862	4246
856.996	4272
857.13	4318
857.263	4341
857.397	4413
857.53	4303
857.664	4371
857.797	4394
857.931	4474
858.064	4421
858.197	4474
858.331	4424
858.464	4337
858.597	4360
858.731	4451
858.864	4424
858.997	4440
859.13	4504
859.263	4500
859.396	4538
859.529	4550
859.662	4561
859.795	4550
859.928	4577
860.061	4679
860.194	4729
860.327	4698
860.46	4637
860.592	4752
860.725	4714
860.858	4790
860.99	4675
861.123	4656
861.256	4691
861.388	4797
861.521	5497
861.653	4725
861.786	4706
861.918	4740
862.05	4790
862.183	4812
862.315	4927
862.447	5006
862.58	4881
862.712	4725
862.844	4763
862.976	4877
863.108	4843
863.24	5235
863.372	4828
863.504	4900
863.636	4885
863.768	4942
863.9	4957
864.032	4930
864.164	4984
864.296	5086
864.428	5113
864.559	5075
864.691	5132
864.823	5094
864.954	5155
865.086	5113
865.217	5124
865.349	5136
865.48	5143
865.612	5121
865.743	5288
865.875	5170
866.006	5223
866.137	5227
866.269	5235
866.4	5185
866.531	5277
866.662	5277
866.793	5265
866.924	5261
867.055	5353
867.186	5345
867.317	5414
867.448	5364
867.579	5421
867.71	5364
867.841	5341
867.972	5402
868.103	5448
868.233	5493
868.364	5551
868.495	5570
868.625	5714
868.756	5794
868.886	5668
869.017	5756
869.147	5882
869.278	5859
869.408	5809
869.539	5859
869.669	5961
869.799	5855
869.929	5954
870.06	6022
870.19	6232
870.32	6125
870.45	6270
870.58	6395
870.71	6433
870.84	6479
870.97	6471
871.1	6437
871.23	6654
871.36	6662
871.489	6646
871.619	6665
871.749	6798
871.879	6882
872.008	6989
872.138	6970
872.267	7031
872.397	6935
872.526	7042
872.656	7088
872.785	7221
872.915	7400
873.044	7544
873.173	7582
873.303	7613
873.432	7769
873.561	7871
873.69	7970
873.819	8054
873.948	8157
874.077	8286
874.206	8393
874.335	8476
874.464	8625
874.593	8807
874.722	8960
874.851	9192
874.979	9218
875.108	9344
875.237	9492
875.365	9469
875.494	9644
875.623	9831
875.751	9789
875.88	10044
876.008	10124
876.136	10287
876.265	10508
876.393	10736
876.521	10786
876.65	10782
876.778	10889
876.906	10889
877.034	10980
877.162	11079
877.29	11162
877.418	11254
877.546	11326
877.674	11482
877.802	11497
877.93	11482
878.058	11589
878.185	11562
878.313	11707
878.441	11653
878.568	11684
878.696	11805
878.824	11882
878.951	11965
879.079	11999
879.206	12110
879.333	12068
879.461	11980
879.588	12053
879.715	12095
879.842	12262
879.97	12102
880.097	11840
880.224	11847
880.351	11916
880.478	11874
880.605	11878
880.732	11794
880.859	12022
880.986	11802
881.112	11908
881.239	11710
881.366	11638
881.493	11608
881.619	11547
881.746	11551
881.872	11452
881.999	11490
882.125	11471
882.252	11589
882.378	11463
882.505	11627
882.631	11414
882.757	11231
882.883	11330
883.01	11189
883.136	11132
883.262	11090
883.388	11162
883.514	11277
883.64	11174
883.766	11121
883.892	10991
884.018	10934
884.143	11056
884.269	11124
884.395	10812
884.52	10824
884.646	10721
884.772	10721
884.897	10634
885.023	10736
885.148	10733
885.274	10801
885.399	10702
885.524	10660
885.65	10584
885.775	10584
885.9	10542
886.025	10573
886.15	10550
886.275	10447
886.4	10436
886.525	10360
886.65	10451
886.775	10318
886.9	10428
887.025	10645
887.149	10371
887.274	10219
887.399	10200
887.523	10158
887.648	10143
887.773	10128
887.897	10238
888.021	10230
888.146	10128
888.27	10246
888.395	10207
888.519	10196
888.643	10169
888.767	10162
888.891	10078
889.015	10044
889.139	10040
889.263	9991
889.387	10097
889.511	10135
889.635	10074
889.759	9960
889.883	9930
890.006	10067
890.13	10040
890.254	9972
890.377	9918
890.501	9884
890.624	9842
890.748	9903
890.871	9778
890.995	9762
891.118	9743
891.241	9759
891.364	9705
891.488	9827
891.611	9701
891.734	9751
891.857	9789
891.98	9717
892.103	9755
892.226	9713
892.349	9580
892.471	9553
892.594	9591
892.717	9648
892.839	9534
892.962	9618
893.085	9637
893.207	9622
893.33	9553
893.452	9507
893.575	9557
893.697	9500
893.819	9599
893.941	9614
894.064	9576
894.186	9443
894.308	9401
894.43	9458
894.552	9633
894.674	9500
894.796	9382
894.918	9340
895.04	9355
895.161	9393
895.283	9348
895.405	9272
895.526	9291
895.648	9275
895.769	9249
895.891	9218
896.012	9222
896.134	9165
896.255	9150
896.376	9192
896.498	9138
896.619	9070
896.74	9108
896.861	9051
896.982	9306
897.103	9393
897.224	9180
897.345	9039
897.466	9009
897.587	9058
897.708	9108
897.828	9009
897.949	8925
898.07	8864
898.19	8887
898.311	9020
898.431	8899
898.552	8895
898.672	8971
898.792	8963
898.913	8986
899.033	8815
899.153	8792
899.273	8697
899.393	8758
899.513	8746
899.633	8739
899.753	8758
899.873	8686
899.993	8762
900.113	8648
900.232	8625
900.352	8682
900.472	8606
900.591	8610
900.711	8583
900.83	8598
900.95	8655
901.069	8693
901.189	8644
901.308	8427
901.427	8374
901.546	8412
901.665	8438
901.784	8526
901.904	8469
902.023	8347
902.141	8210
902.26	8164
902.379	8332
902.498	8248
902.617	8244
902.735	8317
902.854	8298
902.973	8252
903.091	8119
903.21	8119
903.328	8142
903.446	8069
903.565	8081
903.683	8069
903.801	8012
903.919	8100
904.038	8164
904.156	8050
904.274	8130
904.392	8054
904.51	8043
904.627	8065
904.745	8027
904.863	8123
904.981	7906
905.098	7860
905.216	7841
905.334	7841
905.451	7849
905.569	7871
905.686	7925
905.803	7951
905.921	7704
906.038	7890
906.155	7753
906.272	7723
906.389	7704
906.506	7632
906.623	7643
906.74	7575
906.857	7544
906.974	7582
907.091	7696
907.208	7723
907.324	7639
907.441	7594
907.557	7457
907.674	7518
907.79	7411
907.907	7403
908.023	7472
908.139	7358
908.256	7441
908.372	7419
908.488	7327
908.604	7305
908.72	7263
908.836	7266
908.952	7247
909.068	7232
909.184	7293
909.3	7297
909.415	7327
909.531	7244
909.647	7069
909.762	7065
909.878	7069
909.993	7164
910.108	7133
910.224	7061
910.339	7122
910.454	7004
910.57	6947
910.685	6947
910.8	7152
910.915	7129
911.03	7012
911.145	6924
911.259	6905
911.374	6844
911.489	6806
911.604	6840
911.718	6696
911.833	6772
911.947	6646
912.062	6650
912.176	6677
912.291	6730
912.405	6707
912.519	6810
912.633	6829
912.748	6760
912.862	6646
912.976	6574
913.09	6540
913.204	6593
913.318	6639
913.431	6616
913.545	6635
913.659	6665
913.772	6669
913.886	6563
914	6593
914.113	6642
914.226	6639
914.34	6578
914.453	6525
914.566	6658
914.68	6502
914.793	6448
914.906	6422
915.019	6414
915.132	6395
915.245	6376
915.358	6407
915.47	6407
915.583	6479
915.696	6433
915.809	6536
915.921	6475
916.034	6414
916.146	6395
916.259	6410
916.371	6467
916.483	6448
916.595	6388
916.708	6429
916.82	6361
916.932	6365
917.044	6433
917.156	6331
917.268	6372
917.38	6350
917.491	6342
917.603	6422
917.715	6403
917.826	6399
917.938	6338
918.049	6270
918.161	6395
918.272	6452
918.384	6395
918.495	6323
918.606	6228
918.717	6270
918.828	6273
918.939	6273
919.05	6277
919.161	6243
919.272	6125
919.383	6159
919.494	6232
919.604	6407
919.715	6266
919.826	6190
919.936	6190
920.047	6380
920.157	6292
920.267	6445
920.378	6350
920.488	6262
920.598	6429
920.708	6570
920.818	6490
920.928	6525
921.038	6612
921.148	6582
921.258	6308
921.368	6338
921.477	6224
921.587	6190
921.697	6060
921.806	6228
921.916	6007
922.025	5950
922.134	5965
922.244	5901
922.353	5904
922.462	5828
922.571	5805
922.68	5691
922.789	5680
922.898	5707
923.007	5646
923.116	5688
923.224	5657
923.333	5688
923.442	5581
923.55	5528
923.659	5600
923.767	5562
923.876	5608
923.984	5611
924.092	5532
924.201	5532
924.309	5543
924.417	5520
924.525	5512
924.633	5543
924.741	6117
924.849	5383
924.956	5444
925.064	5307
925.172	5284
925.279	5315
925.387	5353
925.494	5357
925.602	5467
925.709	5379
925.816	5292
925.924	5334
926.031	5349
926.138	5299
926.245	5307
926.352	5140
926.459	5353
926.566	5330
926.673	5204
926.779	5140
926.886	5155
926.993	5045
927.099	4991
927.206	4949
927.312	4972
927.419	5025
927.525	4961
927.631	5014
927.737	4873
927.843	4885
927.95	4778
928.056	4850
928.162	4854
928.267	4831
928.373	5395
928.479	4809
928.585	4691
928.69	4797
928.796	4725
928.901	4702
929.007	4599
929.112	4675
929.218	4694
929.323	4603
929.428	4538
929.533	4660
929.638	4535
929.743	4546
929.848	4561
929.953	4527
930.058	4451
930.163	4299
930.267	4341
930.372	4459
930.477	4303
930.581	4485
930.685	4375
930.79	4211
930.894	4249
930.998	4261
931.103	4379
931.207	4154
931.311	4093
931.415	4055
931.519	3922
931.623	3941
