Data from glass_V78500241_349.txt Node
Date: Wed Sep 01 19:16:55 CST 2021
User: usil
Spectrometer: V785-0024
Trigger mode: 0
Integration Time (sec): 4.000000E-1
Scans to average: 1
Nonlinearity correction enabled: false
Boxcar width: 0
Storing dark spectrum: false
XAxis mode: Wavelengths
Number of Pixels in Spectrum: 1024
>>>>>Begin Spectral Data<<<<<
801.071	3728
801.214	3751
801.356	3690
801.499	3724
801.641	3724
801.783	3785
801.926	3850
802.068	3816
802.211	3861
802.353	3930
802.496	3850
802.638	3934
802.78	3911
802.923	3899
803.065	3930
803.208	3861
803.35	3880
803.492	3926
803.635	3937
803.777	3800
803.919	3869
804.061	4181
804.204	4025
804.346	3956
804.488	3930
804.63	4032
804.773	3983
804.915	4093
805.057	4166
805.199	4048
805.341	4078
805.483	4162
805.626	4112
805.768	4188
805.91	4211
806.052	4223
806.194	4162
806.336	4371
806.478	4188
806.62	4204
806.762	4211
806.904	4246
807.046	4367
807.188	4276
807.33	4223
807.472	4272
807.614	4219
807.756	4261
807.898	4227
808.04	4257
808.182	4299
808.324	4341
808.465	4405
808.607	4459
808.749	4478
808.891	4508
809.033	4474
809.174	4428
809.316	4261
809.458	4230
809.6	4139
809.741	4192
809.883	4131
810.025	4227
810.166	4207
810.308	4261
810.45	4219
810.591	4265
810.733	4344
810.875	4546
811.016	4820
811.158	5117
811.299	5277
811.441	5269
811.582	5075
811.724	4714
811.865	4474
812.007	4500
812.148	4447
812.29	4371
812.431	4447
812.573	4432
812.714	4360
812.855	4417
812.997	4447
813.138	4481
813.279	4478
813.421	4390
813.562	4413
813.703	4344
813.845	4329
813.986	4287
814.127	4215
814.268	4257
814.41	4299
814.551	4291
814.692	4360
814.833	4291
814.974	4299
815.115	4310
815.256	4242
815.397	4284
815.539	4249
815.68	4219
815.821	4192
815.962	4337
816.103	4291
816.244	4261
816.385	4238
816.526	4272
816.666	4238
816.807	4116
816.948	4177
817.089	4227
817.23	4158
817.371	4071
817.512	4059
817.653	4097
817.793	4010
817.934	4082
818.075	4093
818.216	4090
818.356	4097
818.497	4044
818.638	3892
818.778	3949
818.919	3922
819.06	3892
819.2	3968
819.341	3918
819.481	3884
819.622	3915
819.762	4044
819.903	3956
820.043	3880
820.184	3926
820.324	3819
820.465	3876
820.605	3892
820.746	3907
820.886	3816
821.026	3937
821.167	3926
821.307	3987
821.447	4013
821.588	3991
821.728	3979
821.868	3968
822.008	3865
822.149	3937
822.289	3949
822.429	3797
822.569	3766
822.709	3770
822.849	3705
822.99	3759
823.13	3747
823.27	3823
823.41	3766
823.55	3755
823.69	3789
823.83	3747
823.97	3686
824.11	3629
824.25	3603
824.389	3660
824.529	3694
824.669	3622
824.809	3698
824.949	3762
825.089	3751
825.228	3728
825.368	3599
825.508	3557
825.648	3610
825.787	3622
825.927	3705
826.067	3675
826.206	3705
826.346	3838
826.485	3926
826.625	3854
826.765	3953
826.904	3884
827.044	3580
827.183	3591
827.323	3431
827.462	3485
827.601	3466
827.741	3439
827.88	3485
828.02	3389
828.159	3447
828.298	3519
828.437	3557
828.577	3515
828.716	3603
828.855	3507
828.994	3393
829.134	3420
829.273	3450
829.412	3351
829.551	3332
829.69	3359
829.829	3443
829.968	3534
830.107	3462
830.246	3443
830.385	3405
830.524	3389
830.663	3336
830.802	3272
830.941	3218
831.08	3169
831.219	3241
831.357	3298
831.496	3424
831.635	3207
831.774	3222
831.913	3207
832.051	3165
832.19	3146
832.329	3184
832.467	3138
832.606	3135
832.744	3192
832.883	3211
833.022	3165
833.16	3253
833.299	3294
833.437	3340
833.576	3393
833.714	3397
833.852	3481
833.991	3477
834.129	3458
834.267	3439
834.406	3447
834.544	3424
834.682	3439
834.821	3416
834.959	3580
835.097	3431
835.235	3542
835.373	3492
835.511	3534
835.65	3462
835.788	3496
835.926	3382
836.064	3412
836.202	3378
836.34	3564
836.478	3629
836.615	3545
836.753	3625
836.891	3663
837.029	3618
837.167	3584
837.305	3568
837.443	3530
837.58	3496
837.718	3637
837.856	3568
837.993	3534
838.131	3622
838.269	3625
838.406	3591
838.544	3625
838.681	3500
838.819	3454
838.956	3367
839.094	3420
839.231	3454
839.369	3545
839.506	3762
839.643	3667
839.781	3538
839.918	3473
840.055	3606
840.193	3526
840.33	3542
840.467	3622
840.604	3633
840.742	3812
840.879	3591
841.016	3564
841.153	3614
841.29	3751
841.427	3690
841.564	3709
841.701	3740
841.838	3713
841.975	3679
842.112	3762
842.249	3637
842.385	3682
842.522	3835
842.659	3720
842.796	3717
842.933	3717
843.069	3675
843.206	3720
843.343	3823
843.479	3861
843.616	3846
843.752	3675
843.889	3751
844.025	3865
844.162	3720
844.298	3823
844.435	3819
844.571	3774
844.708	3964
844.844	3983
844.98	4013
845.117	4029
845.253	3930
845.389	3934
845.525	3987
845.661	3994
845.798	3911
845.934	3991
846.07	3998
846.206	4101
846.342	4143
846.478	4086
846.614	3979
846.75	3968
846.886	3953
847.022	4036
847.158	3998
847.294	4006
847.429	4040
847.565	4021
847.701	4249
847.837	3926
847.972	3873
848.108	3994
848.244	4006
848.379	3865
848.515	3854
848.65	3816
848.786	3850
848.921	3873
849.057	3949
849.192	3934
849.328	3960
849.463	3934
849.598	3884
849.734	3899
849.869	3861
850.004	3812
850.14	3827
850.275	3770
850.41	3793
850.545	3778
850.68	3804
850.815	3812
850.95	3804
851.085	3941
851.22	3896
851.355	3804
851.49	3827
851.625	3797
851.76	3808
851.895	3770
852.03	3720
852.165	3835
852.299	3876
852.434	3934
852.569	3899
852.703	3869
852.838	3930
852.973	3998
853.107	3994
853.242	3918
853.376	3861
853.511	3793
853.645	3831
853.78	3979
853.914	3956
854.048	3869
854.183	3873
854.317	3960
854.451	4093
854.585	3960
854.72	3953
854.854	4074
854.988	3953
855.122	3934
855.256	3934
855.39	4040
855.524	4097
855.658	4067
855.792	4116
855.926	4131
856.06	4207
856.194	4230
856.327	4147
856.461	4124
856.595	4162
856.729	4211
856.862	4310
856.996	4337
857.13	4337
857.263	4371
857.397	4333
857.53	4287
857.664	4348
857.797	4405
857.931	4447
858.064	4386
858.197	4432
858.331	4424
858.464	4402
858.597	4344
858.731	4447
858.864	4481
858.997	4436
859.13	4504
859.263	4588
859.396	4626
859.529	4538
859.662	4531
859.795	4569
859.928	4653
860.061	4694
860.194	4752
860.327	4626
860.46	4702
860.592	4786
860.725	4759
860.858	4748
860.99	4733
861.123	4675
861.256	4702
861.388	4828
861.521	5391
861.653	4672
861.786	4759
861.918	4790
862.05	4847
862.183	4904
862.315	4858
862.447	4942
862.58	4892
862.712	4801
862.844	4763
862.976	4896
863.108	4835
863.24	5254
863.372	4843
863.504	4946
863.636	4915
863.768	4980
863.9	4995
864.032	4938
864.164	4976
864.296	5048
864.428	5086
864.559	5113
864.691	5124
864.823	5162
864.954	5132
865.086	5159
865.217	5094
865.349	5124
865.48	5143
865.612	5181
865.743	5284
865.875	5204
866.006	5185
866.137	5231
866.269	5178
866.4	5250
866.531	5216
866.662	5239
866.793	5269
866.924	5299
867.055	5364
867.186	5372
867.317	5307
867.448	5353
867.579	5425
867.71	5360
867.841	5474
867.972	5429
868.103	5452
868.233	5478
868.364	5497
868.495	5604
868.625	5668
868.756	5813
868.886	5630
869.017	5726
869.147	5813
869.278	5813
869.408	5844
869.539	5855
869.669	5988
869.799	5904
869.929	6034
870.06	6026
870.19	6216
870.32	6251
870.45	6243
870.58	6365
870.71	6418
870.84	6426
870.97	6353
871.1	6437
871.23	6662
871.36	6692
871.489	6673
871.619	6749
871.749	6798
871.879	6856
872.008	6966
872.138	6935
872.267	7046
872.397	7008
872.526	7099
872.656	7107
872.785	7247
872.915	7419
873.044	7514
873.173	7556
873.303	7643
873.432	7704
873.561	7887
873.69	7951
873.819	8058
873.948	8244
874.077	8256
874.206	8347
874.335	8419
874.464	8667
874.593	8921
874.722	8918
874.851	9146
874.979	9313
875.108	9386
875.237	9405
875.365	9549
875.494	9671
875.623	9926
875.751	9804
875.88	10013
876.008	10093
876.136	10234
876.265	10558
876.393	10637
876.521	10653
876.65	10828
876.778	10881
876.906	10858
877.034	10915
877.162	11075
877.29	11162
877.418	11258
877.546	11379
877.674	11493
877.802	11455
877.93	11570
878.058	11535
878.185	11611
878.313	11668
878.441	11790
878.568	11672
878.696	11707
878.824	11840
878.951	11916
879.079	12060
879.206	12087
879.333	12163
879.461	12030
879.588	12106
879.715	12068
879.842	12300
879.97	12038
880.097	11885
880.224	11912
880.351	11847
880.478	11859
880.605	11870
880.732	11851
880.859	12076
880.986	11847
881.112	11897
881.239	11741
881.366	11699
881.493	11600
881.619	11558
881.746	11653
881.872	11497
881.999	11482
882.125	11478
882.252	11589
882.378	11452
882.505	11532
882.631	11349
882.757	11299
882.883	11391
883.01	11307
883.136	11204
883.262	11140
883.388	11128
883.514	11212
883.64	11239
883.766	11083
883.892	11029
884.018	10980
884.143	11083
884.269	11102
884.395	10877
884.52	10740
884.646	10809
884.772	10706
884.897	10656
885.023	10675
885.148	10755
885.274	10763
885.399	10687
885.524	10592
885.65	10596
885.775	10656
885.9	10592
886.025	10535
886.15	10588
886.275	10379
886.4	10409
886.525	10455
886.65	10405
886.775	10318
886.9	10493
887.025	10485
887.149	10325
887.274	10253
887.399	10230
887.523	10086
887.648	10120
887.773	10253
887.897	10287
888.021	10188
888.146	10131
888.27	10181
888.395	10196
888.519	10158
888.643	10230
888.767	10109
888.891	10101
889.015	10078
889.139	10116
889.263	9949
889.387	10143
889.511	10116
889.635	10059
889.759	10055
889.883	9945
890.006	9983
890.13	10131
890.254	9915
890.377	10036
890.501	9892
890.624	9888
890.748	9903
890.871	9774
890.995	9732
891.118	9675
891.241	9770
891.364	9797
891.488	9880
891.611	9766
891.734	9816
891.857	9751
891.98	9717
892.103	9785
892.226	9667
892.349	9701
892.471	9568
892.594	9545
892.717	9679
892.839	9595
892.962	9568
893.085	9644
893.207	9603
893.33	9496
893.452	9526
893.575	9637
893.697	9549
893.819	9584
893.941	9652
894.064	9584
894.186	9545
894.308	9439
894.43	9633
894.552	9652
894.674	9511
894.796	9363
894.918	9416
895.04	9272
895.161	9344
895.283	9344
895.405	9260
895.526	9340
895.648	9260
895.769	9188
895.891	9256
896.012	9317
896.134	9184
896.255	9123
896.376	9169
896.498	9161
896.619	9070
896.74	9074
896.861	9165
896.982	9249
897.103	9279
897.224	9245
897.345	9112
897.466	9032
897.587	8975
897.708	9150
897.828	9100
897.949	9043
898.07	8929
898.19	8918
898.311	9032
898.431	8883
898.552	8963
898.672	8986
898.792	8937
898.913	8895
899.033	8788
899.153	8769
899.273	8739
899.393	8689
899.513	8735
899.633	8781
899.753	8682
899.873	8682
899.993	8758
900.113	8705
900.232	8735
900.352	8655
900.472	8663
900.591	8579
900.711	8545
900.83	8568
900.95	8655
901.069	8701
901.189	8594
901.308	8412
901.427	8393
901.546	8488
901.665	8492
901.784	8537
901.904	8408
902.023	8324
902.141	8214
902.26	8202
902.379	8256
902.498	8191
902.617	8263
902.735	8362
902.854	8252
902.973	8187
903.091	8164
903.21	8225
903.328	8164
903.446	8119
903.565	8115
903.683	8153
903.801	8126
903.919	8180
904.038	8103
904.156	8005
904.274	8126
904.392	8088
904.51	8073
904.627	8035
904.745	8077
904.863	8145
904.981	7936
905.098	7902
905.216	7925
905.334	7826
905.451	7928
905.569	7841
905.686	7951
905.803	7898
905.921	7864
906.038	7868
906.155	7769
906.272	7795
906.389	7734
906.506	7666
906.623	7655
906.74	7601
906.857	7518
906.974	7575
907.091	7643
907.208	7723
907.324	7670
907.441	7567
907.557	7476
907.674	7460
907.79	7392
907.907	7362
908.023	7480
908.139	7426
908.256	7339
908.372	7369
908.488	7403
908.604	7305
908.72	7244
908.836	7259
908.952	7255
909.068	7247
909.184	7350
909.3	7289
909.415	7259
909.531	7305
909.647	7057
909.762	7190
909.878	7129
909.993	7099
910.108	7057
910.224	7038
910.339	7149
910.454	7118
910.57	7012
910.685	6985
910.8	7171
910.915	7118
911.03	7031
911.145	6924
911.259	6878
911.374	6920
911.489	6875
911.604	6886
911.718	6749
911.833	6745
911.947	6635
912.062	6593
912.176	6711
912.291	6700
912.405	6650
912.519	6760
912.633	6791
912.748	6745
912.862	6681
912.976	6650
913.09	6544
913.204	6589
913.318	6604
913.431	6673
913.545	6734
913.659	6776
913.772	6696
913.886	6570
914	6570
914.113	6654
914.226	6681
914.34	6635
914.453	6528
914.566	6627
914.68	6604
914.793	6536
914.906	6464
915.019	6509
915.132	6376
915.245	6429
915.358	6467
915.47	6448
915.583	6532
915.696	6414
915.809	6532
915.921	6566
916.034	6456
916.146	6399
916.259	6422
916.371	6422
916.483	6460
916.595	6327
916.708	6380
916.82	6433
916.932	6376
917.044	6384
917.156	6429
917.268	6296
917.38	6334
917.491	6292
917.603	6361
917.715	6376
917.826	6403
917.938	6353
918.049	6235
918.161	6327
918.272	6395
918.384	6429
918.495	6410
918.606	6273
918.717	6243
918.828	6243
918.939	6311
919.05	6213
919.161	6277
919.272	6190
919.383	6148
919.494	6308
919.604	6456
919.715	6289
919.826	6258
919.936	6270
920.047	6376
920.157	6213
920.267	6433
920.378	6311
920.488	6319
920.598	6418
920.708	6623
920.818	6445
920.928	6551
921.038	6616
921.148	6601
921.258	6353
921.368	6300
921.477	6277
921.587	6121
921.697	6117
921.806	6136
921.916	6030
922.025	5977
922.134	5961
922.244	5946
922.353	5950
922.462	5836
922.571	5783
922.68	5733
922.789	5657
922.898	5764
923.007	5642
923.116	5745
923.224	5691
923.333	5688
923.442	5627
923.55	5551
923.659	5596
923.767	5657
923.876	5592
923.984	5619
924.092	5474
924.201	5558
924.309	5543
924.417	5596
924.525	5509
924.633	5539
924.741	6308
924.849	5402
924.956	5497
925.064	5311
925.172	5303
925.279	5296
925.387	5353
925.494	5296
925.602	5421
925.709	5402
925.816	5246
925.924	5330
926.031	5376
926.138	5269
926.245	5318
926.352	5231
926.459	5345
926.566	5349
926.673	5242
926.779	5151
926.886	5094
926.993	5010
927.099	5048
927.206	4995
927.312	4934
927.419	5056
927.525	4991
927.631	5022
927.737	4870
927.843	4835
927.95	4809
928.056	4892
928.162	4820
928.267	4854
928.373	5242
928.479	4873
928.585	4714
928.69	4778
928.796	4801
928.901	4672
929.007	4611
929.112	4714
929.218	4641
929.323	4641
929.428	4588
929.533	4664
929.638	4527
929.743	4554
929.848	4607
929.953	4523
930.058	4436
930.163	4352
930.267	4367
930.372	4443
930.477	4318
930.581	4462
930.685	4337
930.79	4261
930.894	4295
930.998	4299
931.103	4405
931.207	4181
931.311	4090
931.415	4036
931.519	3903
931.623	3945
