Data from glass_V78500241_2412.txt Node
Date: Wed Sep 01 19:31:13 CST 2021
User: usil
Spectrometer: V785-0024
Trigger mode: 0
Integration Time (sec): 4.000000E-1
Scans to average: 1
Nonlinearity correction enabled: false
Boxcar width: 0
Storing dark spectrum: false
XAxis mode: Wavelengths
Number of Pixels in Spectrum: 1024
>>>>>Begin Spectral Data<<<<<
801.071	3728
801.214	3766
801.356	3740
801.499	3740
801.641	3713
801.783	3766
801.926	3869
802.068	3800
802.211	3842
802.353	3930
802.496	3823
802.638	3876
802.78	3846
802.923	3937
803.065	3907
803.208	3861
803.35	3857
803.492	3888
803.635	3896
803.777	3797
803.919	3876
804.061	4109
804.204	3945
804.346	3941
804.488	3827
804.63	4044
804.773	3979
804.915	4025
805.057	4116
805.199	4032
805.341	4101
805.483	4135
805.626	4139
805.768	4120
805.91	4200
806.052	4192
806.194	4215
806.336	4322
806.478	4238
806.62	4150
806.762	4135
806.904	4227
807.046	4291
807.188	4234
807.33	4150
807.472	4280
807.614	4185
807.756	4246
807.898	4169
808.04	4207
808.182	4230
808.324	4348
808.465	4375
808.607	4459
808.749	4474
808.891	4504
809.033	4478
809.174	4405
809.316	4200
809.458	4234
809.6	4128
809.741	4143
809.883	4124
810.025	4196
810.166	4234
810.308	4177
810.45	4200
810.591	4238
810.733	4303
810.875	4565
811.016	4847
811.158	5109
811.299	5242
811.441	5288
811.582	5041
811.724	4717
811.865	4508
812.007	4470
812.148	4417
812.29	4417
812.431	4398
812.573	4417
812.714	4341
812.855	4367
812.997	4424
813.138	4470
813.279	4447
813.421	4424
813.562	4398
813.703	4325
813.845	4299
813.986	4265
814.127	4162
814.268	4272
814.41	4280
814.551	4268
814.692	4280
814.833	4249
814.974	4303
815.115	4352
815.256	4207
815.397	4238
815.539	4295
815.68	4234
815.821	4188
815.962	4287
816.103	4284
816.244	4227
816.385	4215
816.526	4242
816.666	4147
816.807	4101
816.948	4158
817.089	4181
817.23	4131
817.371	4093
817.512	4078
817.653	4040
817.793	4055
817.934	4040
818.075	4090
818.216	4051
818.356	4051
818.497	3983
818.638	3922
818.778	3880
818.919	3873
819.06	3915
819.2	3911
819.341	3873
819.481	3819
819.622	3911
819.762	4013
819.903	3968
820.043	3846
820.184	3835
820.324	3785
820.465	3869
820.605	3838
820.746	3861
820.886	3861
821.026	3915
821.167	3880
821.307	3983
821.447	3968
821.588	3915
821.728	3956
821.868	3930
822.008	3827
822.149	3884
822.289	3949
822.429	3762
822.569	3709
822.709	3808
822.849	3690
822.99	3705
823.13	3743
823.27	3808
823.41	3671
823.55	3755
823.69	3717
823.83	3713
823.97	3652
824.11	3606
824.25	3606
824.389	3633
824.529	3652
824.669	3648
824.809	3701
824.949	3759
825.089	3713
825.228	3701
825.368	3584
825.508	3557
825.648	3557
825.787	3599
825.927	3629
826.067	3625
826.206	3618
826.346	3751
826.485	3827
826.625	3819
826.765	3945
826.904	3778
827.044	3618
827.183	3515
827.323	3447
827.462	3439
827.601	3443
827.741	3393
827.88	3397
828.02	3374
828.159	3378
828.298	3477
828.437	3542
828.577	3473
828.716	3587
828.855	3481
828.994	3378
829.134	3351
829.273	3409
829.412	3351
829.551	3348
829.69	3359
829.829	3420
829.968	3504
830.107	3431
830.246	3428
830.385	3405
830.524	3332
830.663	3291
830.802	3245
830.941	3226
831.08	3218
831.219	3233
831.357	3237
831.496	3378
831.635	3245
831.774	3169
831.913	3203
832.051	3154
832.19	3089
832.329	3207
832.467	3138
832.606	3070
832.744	3154
832.883	3184
833.022	3173
833.16	3237
833.299	3275
833.437	3313
833.576	3367
833.714	3378
833.852	3428
833.991	3416
834.129	3435
834.267	3424
834.406	3367
834.544	3443
834.682	3393
834.821	3447
834.959	3542
835.097	3416
835.235	3534
835.373	3485
835.511	3450
835.65	3485
835.788	3485
835.926	3378
836.064	3374
836.202	3397
836.34	3580
836.478	3637
836.615	3599
836.753	3557
836.891	3606
837.029	3606
837.167	3603
837.305	3538
837.443	3526
837.58	3504
837.718	3603
837.856	3542
837.993	3557
838.131	3584
838.269	3572
838.406	3603
838.544	3545
838.681	3416
838.819	3458
838.956	3382
839.094	3363
839.231	3477
839.369	3538
839.506	3732
839.643	3648
839.781	3488
839.918	3443
840.055	3485
840.193	3553
840.33	3542
840.467	3557
840.604	3580
840.742	3789
840.879	3511
841.016	3542
841.153	3564
841.29	3751
841.427	3732
841.564	3694
841.701	3701
841.838	3701
841.975	3641
842.112	3686
842.249	3641
842.385	3568
842.522	3812
842.659	3663
842.796	3709
842.933	3671
843.069	3675
843.206	3690
843.343	3793
843.479	3785
843.616	3740
843.752	3663
843.889	3679
844.025	3835
844.162	3732
844.298	3838
844.435	3804
844.571	3743
844.708	3857
844.844	3964
844.98	3972
845.117	4040
845.253	3915
845.389	3896
845.525	3949
845.661	3956
845.798	3896
845.934	4006
846.07	3956
846.206	4059
846.342	4051
846.478	4055
846.614	3975
846.75	3949
846.886	3876
847.022	4032
847.158	3979
847.294	4006
847.429	3983
847.565	3998
847.701	4227
847.837	3903
847.972	3846
848.108	3998
848.244	3937
848.379	3888
848.515	3759
848.65	3800
848.786	3831
848.921	3880
849.057	3930
849.192	3903
849.328	3907
849.463	3903
849.598	3869
849.734	3880
849.869	3827
850.004	3770
850.14	3781
850.275	3797
850.41	3759
850.545	3759
850.68	3747
850.815	3778
850.95	3751
851.085	3964
851.22	3884
851.355	3778
851.49	3759
851.625	3781
851.76	3789
851.895	3751
852.03	3717
852.165	3800
852.299	3854
852.434	3892
852.569	3869
852.703	3896
852.838	3896
852.973	3975
853.107	3994
853.242	3865
853.376	3823
853.511	3755
853.645	3850
853.78	3964
853.914	3896
854.048	3899
854.183	3903
854.317	3975
854.451	4067
854.585	3937
854.72	3960
854.854	4013
854.988	3941
855.122	3998
855.256	3892
855.39	4010
855.524	4112
855.658	4112
855.792	4071
855.926	4150
856.06	4169
856.194	4204
856.327	4128
856.461	4101
856.595	4124
856.729	4181
856.862	4219
856.996	4192
857.13	4318
857.263	4344
857.397	4379
857.53	4280
857.664	4402
857.797	4348
857.931	4413
858.064	4360
858.197	4470
858.331	4398
858.464	4371
858.597	4341
858.731	4421
858.864	4417
858.997	4455
859.13	4485
859.263	4527
859.396	4580
859.529	4508
859.662	4489
859.795	4508
859.928	4592
860.061	4679
860.194	4717
860.327	4672
860.46	4637
860.592	4721
860.725	4752
860.858	4736
860.99	4656
861.123	4733
861.256	4660
861.388	4733
861.521	5592
861.653	4691
861.786	4679
861.918	4740
862.05	4790
862.183	4824
862.315	4881
862.447	4900
862.58	4870
862.712	4790
862.844	4790
862.976	4835
863.108	4835
863.24	5132
863.372	4809
863.504	4896
863.636	4854
863.768	4919
863.9	4927
864.032	4915
864.164	4896
864.296	5010
864.428	5022
864.559	5071
864.691	5113
864.823	5124
864.954	5090
865.086	5109
865.217	5147
865.349	5113
865.48	5155
865.612	5162
865.743	5258
865.875	5147
866.006	5181
866.137	5201
866.269	5239
866.4	5189
866.531	5273
866.662	5227
866.793	5311
866.924	5277
867.055	5311
867.186	5376
867.317	5341
867.448	5299
867.579	5372
867.71	5345
867.841	5436
867.972	5387
868.103	5440
868.233	5467
868.364	5490
868.495	5589
868.625	5657
868.756	5718
868.886	5695
869.017	5665
869.147	5874
869.278	5802
869.408	5817
869.539	5805
869.669	5942
869.799	5927
869.929	5946
870.06	6026
870.19	6178
870.32	6095
870.45	6266
870.58	6350
870.71	6372
870.84	6467
870.97	6380
871.1	6422
871.23	6612
871.36	6631
871.489	6681
871.619	6707
871.749	6821
871.879	6859
872.008	6947
872.138	6966
872.267	6977
872.397	6977
872.526	7065
872.656	7107
872.785	7190
872.915	7362
873.044	7506
873.173	7540
873.303	7647
873.432	7746
873.561	7860
873.69	7906
873.819	7997
873.948	8088
874.077	8221
874.206	8313
874.335	8480
874.464	8640
874.593	8891
874.722	8861
874.851	9055
874.979	9173
875.108	9355
875.237	9447
875.365	9458
875.494	9603
875.623	9816
875.751	9850
875.88	10059
876.008	10166
876.136	10215
876.265	10474
876.393	10702
876.521	10702
876.65	10866
876.778	10843
876.906	10946
877.034	10938
877.162	11155
877.29	11086
877.418	11303
877.546	11307
877.674	11398
877.802	11440
877.93	11493
878.058	11543
878.185	11623
878.313	11554
878.441	11691
878.568	11691
878.696	11786
878.824	11809
878.951	11927
879.079	11992
879.206	12110
879.333	12026
879.461	11954
879.588	12041
879.715	12053
879.842	12178
879.97	12019
880.097	11775
880.224	11832
880.351	11851
880.478	11859
880.605	11843
880.732	11710
880.859	11977
880.986	11843
881.112	11809
881.239	11691
881.366	11627
881.493	11634
881.619	11592
881.746	11611
881.872	11577
881.999	11493
882.125	11455
882.252	11570
882.378	11543
882.505	11497
882.631	11356
882.757	11337
882.883	11246
883.01	11273
883.136	11189
883.262	11064
883.388	11067
883.514	11140
883.64	11185
883.766	11155
883.892	10987
884.018	10987
884.143	11071
884.269	11155
884.395	10847
884.52	10687
884.646	10805
884.772	10740
884.897	10634
885.023	10691
885.148	10748
885.274	10771
885.399	10687
885.524	10618
885.65	10546
885.775	10546
885.9	10531
886.025	10622
886.15	10550
886.275	10519
886.4	10379
886.525	10390
886.65	10382
886.775	10333
886.9	10367
887.025	10485
887.149	10386
887.274	10207
887.399	10265
887.523	10120
887.648	10143
887.773	10109
887.897	10227
888.021	10185
888.146	10135
888.27	10207
888.395	10158
888.519	10177
888.643	10147
888.767	10158
888.891	10036
889.015	9975
889.139	10074
889.263	9968
889.387	10040
889.511	10150
889.635	10048
889.759	9964
889.883	9975
890.006	10002
890.13	10078
890.254	9880
890.377	9937
890.501	9846
890.624	9842
890.748	9823
890.871	9728
890.995	9740
891.118	9709
891.241	9808
891.364	9774
891.488	9838
891.611	9770
891.734	9732
891.857	9793
891.98	9720
892.103	9713
892.226	9698
892.349	9622
892.471	9507
892.594	9591
892.717	9591
892.839	9618
892.962	9614
893.085	9641
893.207	9492
893.33	9485
893.452	9557
893.575	9633
893.697	9519
893.819	9648
893.941	9622
894.064	9667
894.186	9458
894.308	9405
894.43	9530
894.552	9603
894.674	9492
894.796	9367
894.918	9408
895.04	9275
895.161	9435
895.283	9344
895.405	9283
895.526	9287
895.648	9226
895.769	9192
895.891	9302
896.012	9310
896.134	9199
896.255	9207
896.376	9047
896.498	9218
896.619	9146
896.74	9062
896.861	8986
896.982	9211
897.103	9294
897.224	9112
897.345	9055
897.466	8994
897.587	8998
897.708	9154
897.828	9070
897.949	8948
898.07	8868
898.19	8906
898.311	8941
898.431	8864
898.552	8933
898.672	8982
898.792	8918
898.913	8971
899.033	8849
899.153	8746
899.273	8705
899.393	8659
899.513	8727
899.633	8716
899.753	8693
899.873	8663
899.993	8746
900.113	8640
900.232	8682
900.352	8636
900.472	8564
900.591	8488
900.711	8613
900.83	8522
900.95	8689
901.069	8648
901.189	8518
901.308	8488
901.427	8358
901.546	8415
901.665	8438
901.784	8495
901.904	8370
902.023	8370
902.141	8187
902.26	8210
902.379	8252
902.498	8248
902.617	8248
902.735	8240
902.854	8271
902.973	8290
903.091	8111
903.21	8123
903.328	8157
903.446	8069
903.565	8020
903.683	8088
903.801	8031
903.919	8119
904.038	8145
904.156	8046
904.274	8145
904.392	8054
904.51	8027
904.627	8069
904.745	8081
904.863	8069
904.981	7917
905.098	7879
905.216	7772
905.334	7909
905.451	7890
905.569	7849
905.686	7887
905.803	7947
905.921	7780
906.038	7845
906.155	7799
906.272	7666
906.389	7738
906.506	7624
906.623	7597
906.74	7575
906.857	7563
906.974	7518
907.091	7605
907.208	7670
907.324	7628
907.441	7624
907.557	7460
907.674	7460
907.79	7430
907.907	7411
908.023	7430
908.139	7495
908.256	7354
908.372	7335
908.488	7335
908.604	7285
908.72	7202
908.836	7274
908.952	7274
909.068	7240
909.184	7312
909.3	7236
909.415	7278
909.531	7293
909.647	7156
909.762	7065
909.878	7095
909.993	7076
910.108	7057
910.224	7034
910.339	7145
910.454	7004
910.57	6981
910.685	6901
910.8	7103
910.915	7122
911.03	7015
911.145	6928
911.259	6901
911.374	6856
911.489	6886
911.604	6798
911.718	6722
911.833	6760
911.947	6642
912.062	6601
912.176	6696
912.291	6719
912.405	6696
912.519	6871
912.633	6833
912.748	6741
912.862	6722
912.976	6601
913.09	6483
913.204	6608
913.318	6631
913.431	6650
913.545	6696
913.659	6734
913.772	6589
913.886	6544
914	6570
914.113	6582
914.226	6597
914.34	6563
914.453	6475
914.566	6521
914.68	6536
914.793	6547
914.906	6414
915.019	6372
915.132	6353
915.245	6395
915.358	6403
915.47	6372
915.583	6441
915.696	6467
915.809	6502
915.921	6502
916.034	6479
916.146	6418
916.259	6384
916.371	6509
916.483	6456
916.595	6338
916.708	6403
916.82	6357
916.932	6388
917.044	6407
917.156	6407
917.268	6243
917.38	6369
917.491	6296
917.603	6319
917.715	6380
917.826	6460
917.938	6270
918.049	6224
918.161	6308
918.272	6422
918.384	6429
918.495	6384
918.606	6289
918.717	6254
918.828	6205
918.939	6300
919.05	6159
919.161	6304
919.272	6114
919.383	6159
919.494	6232
919.604	6395
919.715	6273
919.826	6228
919.936	6239
920.047	6350
920.157	6258
920.267	6456
920.378	6289
920.488	6281
920.598	6441
920.708	6517
920.818	6486
920.928	6422
921.038	6620
921.148	6498
921.258	6304
921.368	6296
921.477	6247
921.587	6098
921.697	6030
921.806	6205
921.916	6045
922.025	5935
922.134	5882
922.244	5836
922.353	5969
922.462	5855
922.571	5786
922.68	5646
922.789	5684
922.898	5733
923.007	5642
923.116	5680
923.224	5691
923.333	5630
923.442	5558
923.55	5547
923.659	5608
923.767	5573
923.876	5543
923.984	5570
924.092	5478
924.201	5539
924.309	5532
924.417	5558
924.525	5509
924.633	5520
924.741	6289
924.849	5387
924.956	5474
925.064	5311
925.172	5311
925.279	5284
925.387	5349
925.494	5315
925.602	5410
925.709	5387
925.816	5269
925.924	5299
926.031	5330
926.138	5258
926.245	5318
926.352	5235
926.459	5345
926.566	5269
926.673	5193
926.779	5121
926.886	5159
926.993	5056
927.099	5010
927.206	4976
927.312	4984
927.419	5003
927.525	4972
927.631	4946
927.737	4892
927.843	4835
927.95	4816
928.056	4790
928.162	4752
928.267	4870
928.373	5242
928.479	4877
928.585	4660
928.69	4694
928.796	4771
928.901	4683
929.007	4577
929.112	4694
929.218	4634
929.323	4592
929.428	4584
929.533	4626
929.638	4527
929.743	4535
929.848	4550
929.953	4512
930.058	4432
930.163	4329
930.267	4352
930.372	4405
930.477	4314
930.581	4481
930.685	4348
930.79	4223
930.894	4261
930.998	4223
931.103	4344
931.207	4097
931.311	4090
931.415	4090
931.519	3945
931.623	3934
