Data from glass_V78500241_916.txt Node
Date: Wed Sep 01 19:20:50 CST 2021
User: usil
Spectrometer: V785-0024
Trigger mode: 0
Integration Time (sec): 4.000000E-1
Scans to average: 1
Nonlinearity correction enabled: false
Boxcar width: 0
Storing dark spectrum: false
XAxis mode: Wavelengths
Number of Pixels in Spectrum: 1024
>>>>>Begin Spectral Data<<<<<
801.071	3747
801.214	3778
801.356	3728
801.499	3728
801.641	3743
801.783	3747
801.926	3918
802.068	3823
802.211	3892
802.353	3850
802.496	3819
802.638	3838
802.78	3899
802.923	3926
803.065	3903
803.208	3880
803.35	3907
803.492	3915
803.635	3941
803.777	3827
803.919	3926
804.061	4135
804.204	3979
804.346	3945
804.488	3896
804.63	4013
804.773	3964
804.915	4017
805.057	4166
805.199	4055
805.341	4105
805.483	4150
805.626	4128
805.768	4067
805.91	4246
806.052	4257
806.194	4207
806.336	4337
806.478	4249
806.62	4196
806.762	4242
806.904	4268
807.046	4337
807.188	4223
807.33	4181
807.472	4234
807.614	4230
807.756	4318
807.898	4196
808.04	4242
808.182	4295
808.324	4356
808.465	4375
808.607	4481
808.749	4451
808.891	4451
809.033	4489
809.174	4428
809.316	4268
809.458	4257
809.6	4181
809.741	4150
809.883	4162
810.025	4204
810.166	4181
810.308	4272
810.45	4242
810.591	4249
810.733	4299
810.875	4519
811.016	4839
811.158	5143
811.299	5269
811.441	5269
811.582	5071
811.724	4717
811.865	4470
812.007	4451
812.148	4455
812.29	4413
812.431	4402
812.573	4417
812.714	4367
812.855	4402
812.997	4432
813.138	4512
813.279	4409
813.421	4447
813.562	4394
813.703	4318
813.845	4383
813.986	4268
814.127	4280
814.268	4310
814.41	4344
814.551	4265
814.692	4325
814.833	4268
814.974	4322
815.115	4348
815.256	4268
815.397	4234
815.539	4253
815.68	4207
815.821	4211
815.962	4299
816.103	4238
816.244	4257
816.385	4249
816.526	4276
816.666	4207
816.807	4105
816.948	4173
817.089	4150
817.23	4105
817.371	4044
817.512	4093
817.653	4051
817.793	4036
817.934	4086
818.075	4109
818.216	4097
818.356	4090
818.497	4006
818.638	3949
818.778	3915
818.919	3949
819.06	3899
819.2	3945
819.341	3884
819.481	3876
819.622	3945
819.762	4071
819.903	3983
820.043	3918
820.184	3854
820.324	3876
820.465	3896
820.605	3869
820.746	3861
820.886	3823
821.026	3911
821.167	3975
821.307	3983
821.447	4059
821.588	3907
821.728	3918
821.868	3953
822.008	3865
822.149	3945
822.289	3926
822.429	3819
822.569	3808
822.709	3816
822.849	3682
822.99	3736
823.13	3747
823.27	3785
823.41	3709
823.55	3755
823.69	3747
823.83	3759
823.97	3698
824.11	3606
824.25	3610
824.389	3652
824.529	3644
824.669	3656
824.809	3728
824.949	3751
825.089	3740
825.228	3736
825.368	3622
825.508	3584
825.648	3564
825.787	3622
825.927	3648
826.067	3633
826.206	3644
826.346	3827
826.485	3854
826.625	3896
826.765	3968
826.904	3861
827.044	3648
827.183	3557
827.323	3435
827.462	3496
827.601	3447
827.741	3393
827.88	3416
828.02	3370
828.159	3488
828.298	3492
828.437	3538
828.577	3500
828.716	3606
828.855	3458
828.994	3420
829.134	3374
829.273	3428
829.412	3351
829.551	3363
829.69	3378
829.829	3431
829.968	3504
830.107	3473
830.246	3447
830.385	3416
830.524	3344
830.663	3283
830.802	3256
830.941	3207
831.08	3245
831.219	3298
831.357	3264
831.496	3420
831.635	3218
831.774	3199
831.913	3203
832.051	3131
832.19	3176
832.329	3268
832.467	3154
832.606	3154
832.744	3180
832.883	3161
833.022	3195
833.16	3279
833.299	3325
833.437	3310
833.576	3401
833.714	3401
833.852	3439
833.991	3435
834.129	3469
834.267	3477
834.406	3405
834.544	3450
834.682	3424
834.821	3393
834.959	3549
835.097	3443
835.235	3530
835.373	3511
835.511	3534
835.65	3462
835.788	3507
835.926	3378
836.064	3370
836.202	3412
836.34	3576
836.478	3606
836.615	3549
836.753	3614
836.891	3625
837.029	3652
837.167	3614
837.305	3595
837.443	3538
837.58	3496
837.718	3641
837.856	3534
837.993	3534
838.131	3637
838.269	3591
838.406	3591
838.544	3606
838.681	3473
838.819	3473
838.956	3412
839.094	3405
839.231	3389
839.369	3587
839.506	3724
839.643	3587
839.781	3530
839.918	3481
840.055	3523
840.193	3557
840.33	3557
840.467	3564
840.604	3637
840.742	3823
840.879	3526
841.016	3648
841.153	3568
841.29	3755
841.427	3698
841.564	3728
841.701	3762
841.838	3705
841.975	3698
842.112	3728
842.249	3660
842.385	3641
842.522	3827
842.659	3675
842.796	3652
842.933	3705
843.069	3717
843.206	3736
843.343	3808
843.479	3816
843.616	3846
843.752	3690
843.889	3686
844.025	3892
844.162	3720
844.298	3869
844.435	3812
844.571	3797
844.708	3911
844.844	3949
844.98	4017
845.117	4021
845.253	3960
845.389	3888
845.525	4029
845.661	3987
845.798	3918
845.934	3968
846.07	3991
846.206	4071
846.342	4124
846.478	4063
846.614	3991
846.75	3922
846.886	3892
847.022	4025
847.158	3956
847.294	4036
847.429	4063
847.565	3987
847.701	4204
847.837	3911
847.972	3838
848.108	4002
848.244	3991
848.379	3838
848.515	3816
848.65	3797
848.786	3854
848.921	3865
849.057	3956
849.192	3972
849.328	3911
849.463	3918
849.598	3869
849.734	3876
849.869	3846
850.004	3846
850.14	3831
850.275	3793
850.41	3743
850.545	3785
850.68	3743
850.815	3800
850.95	3797
851.085	3975
851.22	3937
851.355	3846
851.49	3778
851.625	3835
851.76	3781
851.895	3781
852.03	3759
852.165	3808
852.299	3850
852.434	3930
852.569	3896
852.703	3911
852.838	3949
852.973	3975
853.107	4078
853.242	3922
853.376	3880
853.511	3743
853.645	3857
853.78	3994
853.914	3915
854.048	3922
854.183	3915
854.317	3953
854.451	4051
854.585	3934
854.72	3937
854.854	4032
854.988	3949
855.122	4036
855.256	3930
855.39	4029
855.524	4162
855.658	4093
855.792	4082
855.926	4131
856.06	4143
856.194	4238
856.327	4124
856.461	4128
856.595	4154
856.729	4211
856.862	4306
856.996	4211
857.13	4299
857.263	4344
857.397	4333
857.53	4318
857.664	4390
857.797	4436
857.931	4443
858.064	4402
858.197	4489
858.331	4405
858.464	4417
858.597	4402
858.731	4413
858.864	4440
858.997	4466
859.13	4504
859.263	4599
859.396	4558
859.529	4504
859.662	4504
859.795	4516
859.928	4637
860.061	4702
860.194	4725
860.327	4702
860.46	4664
860.592	4729
860.725	4759
860.858	4759
860.99	4714
861.123	4698
861.256	4710
861.388	4771
861.521	5528
861.653	4698
861.786	4725
861.918	4767
862.05	4828
862.183	4812
862.315	4870
862.447	4934
862.58	4900
862.712	4839
862.844	4763
862.976	4896
863.108	4892
863.24	5151
863.372	4858
863.504	4957
863.636	4877
863.768	4991
863.9	4972
864.032	4957
864.164	4927
864.296	5025
864.428	5090
864.559	5102
864.691	5098
864.823	5143
864.954	5136
865.086	5117
865.217	5109
865.349	5094
865.48	5140
865.612	5189
865.743	5330
865.875	5239
866.006	5220
866.137	5212
866.269	5296
866.4	5258
866.531	5265
866.662	5231
866.793	5315
866.924	5265
867.055	5376
867.186	5398
867.317	5345
867.448	5299
867.579	5337
867.71	5429
867.841	5368
867.972	5452
868.103	5474
868.233	5467
868.364	5543
868.495	5570
868.625	5649
868.756	5836
868.886	5661
869.017	5786
869.147	5855
869.278	5874
869.408	5870
869.539	5866
869.669	5942
869.799	5908
869.929	5996
870.06	6034
870.19	6190
870.32	6167
870.45	6247
870.58	6289
870.71	6437
870.84	6479
870.97	6441
871.1	6464
871.23	6646
871.36	6711
871.489	6681
871.619	6741
871.749	6795
871.879	6844
872.008	7012
872.138	6981
872.267	6989
872.397	7053
872.526	7012
872.656	7080
872.785	7213
872.915	7365
873.044	7548
873.173	7590
873.303	7666
873.432	7734
873.561	7890
873.69	7902
873.819	8001
873.948	8161
874.077	8214
874.206	8343
874.335	8412
874.464	8712
874.593	8906
874.722	8910
874.851	9116
874.979	9294
875.108	9313
875.237	9538
875.365	9542
875.494	9690
875.623	9797
875.751	9823
875.88	9998
876.008	10116
876.136	10242
876.265	10493
876.393	10763
876.521	10763
876.65	10847
876.778	10915
876.906	11003
877.034	10991
877.162	11094
877.29	11189
877.418	11258
877.546	11406
877.674	11448
877.802	11482
877.93	11452
878.058	11585
878.185	11554
878.313	11608
878.441	11752
878.568	11718
878.696	11805
878.824	11901
878.951	11961
879.079	12045
879.206	12175
879.333	12030
879.461	12003
879.588	12095
879.715	12068
879.842	12258
879.97	12041
880.097	11908
880.224	11893
880.351	11920
880.478	11927
880.605	11897
880.732	11874
880.859	12038
880.986	11771
881.112	11847
881.239	11741
881.366	11684
881.493	11649
881.619	11539
881.746	11551
881.872	11539
881.999	11455
882.125	11512
882.252	11516
882.378	11516
882.505	11467
882.631	11398
882.757	11288
882.883	11311
883.01	11322
883.136	11212
883.262	11037
883.388	11098
883.514	11113
883.64	11193
883.766	11124
883.892	10908
884.018	10942
884.143	11105
884.269	11109
884.395	10885
884.52	10801
884.646	10812
884.772	10809
884.897	10691
885.023	10755
885.148	10744
885.274	10744
885.399	10778
885.524	10683
885.65	10588
885.775	10561
885.9	10531
886.025	10702
886.15	10580
886.275	10470
886.4	10440
886.525	10436
886.65	10390
886.775	10363
886.9	10409
887.025	10523
887.149	10382
887.274	10306
887.399	10238
887.523	10143
887.648	10147
887.773	10109
887.897	10253
888.021	10204
888.146	10067
888.27	10158
888.395	10238
888.519	10166
888.643	10188
888.767	10249
888.891	10067
889.015	10002
889.139	10055
889.263	10006
889.387	10101
889.511	10135
889.635	10169
889.759	9972
889.883	9975
890.006	9994
890.13	10120
890.254	10002
890.377	9968
890.501	9857
890.624	9968
890.748	9934
890.871	9838
890.995	9713
891.118	9728
891.241	9819
891.364	9724
891.488	9812
891.611	9785
891.734	9740
891.857	9808
891.98	9675
892.103	9740
892.226	9686
892.349	9641
892.471	9515
892.594	9618
892.717	9587
892.839	9633
892.962	9614
893.085	9629
893.207	9686
893.33	9504
893.452	9500
893.575	9564
893.697	9519
893.819	9584
893.941	9606
894.064	9648
894.186	9450
894.308	9389
894.43	9530
894.552	9614
894.674	9496
894.796	9363
894.918	9393
895.04	9367
895.161	9329
895.283	9401
895.405	9264
895.526	9260
895.648	9275
895.769	9302
895.891	9306
896.012	9310
896.134	9272
896.255	9074
896.376	9192
896.498	9104
896.619	9051
896.74	9150
896.861	9116
896.982	9256
897.103	9325
897.224	9116
897.345	9070
897.466	9066
897.587	9009
897.708	9077
897.828	9058
897.949	8941
898.07	8868
898.19	8941
898.311	9028
898.431	8899
898.552	8948
898.672	8990
898.792	8990
898.913	8887
899.033	8800
899.153	8724
899.273	8659
899.393	8655
899.513	8686
899.633	8739
899.753	8758
899.873	8670
899.993	8720
900.113	8708
900.232	8670
900.352	8674
900.472	8659
900.591	8560
900.711	8587
900.83	8552
900.95	8670
901.069	8739
901.189	8522
901.308	8495
901.427	8473
901.546	8415
901.665	8473
901.784	8533
901.904	8438
902.023	8427
902.141	8294
902.26	8180
902.379	8244
902.498	8256
902.617	8256
902.735	8225
902.854	8256
902.973	8343
903.091	8126
903.21	8157
903.328	8176
903.446	8084
903.565	8172
903.683	8153
903.801	8092
903.919	8107
904.038	8164
904.156	8031
904.274	8096
904.392	8058
904.51	8050
904.627	8084
904.745	8062
904.863	8149
904.981	7928
905.098	7849
905.216	7871
905.334	7913
905.451	7917
905.569	7970
905.686	7906
905.803	7967
905.921	7780
906.038	7940
906.155	7795
906.272	7738
906.389	7685
906.506	7715
906.623	7693
906.74	7559
906.857	7483
906.974	7643
907.091	7738
907.208	7696
907.324	7636
907.441	7605
907.557	7552
907.674	7426
907.79	7449
907.907	7396
908.023	7453
908.139	7483
908.256	7415
908.372	7400
908.488	7365
908.604	7206
908.72	7316
908.836	7289
908.952	7247
909.068	7285
909.184	7384
909.3	7270
909.415	7274
909.531	7278
909.647	7076
909.762	7175
909.878	7129
909.993	7160
910.108	7080
910.224	7103
910.339	7057
910.454	7057
910.57	6989
910.685	6924
910.8	7213
910.915	7050
911.03	7023
911.145	6935
911.259	6932
911.374	6897
911.489	6863
911.604	6829
911.718	6768
911.833	6719
911.947	6620
912.062	6597
912.176	6722
912.291	6703
912.405	6730
912.519	6806
912.633	6852
912.748	6802
912.862	6719
912.976	6601
913.09	6528
913.204	6623
913.318	6623
913.431	6772
913.545	6650
913.659	6772
913.772	6692
913.886	6578
914	6559
914.113	6601
914.226	6620
914.34	6677
914.453	6559
914.566	6601
914.68	6589
914.793	6525
914.906	6452
915.019	6414
915.132	6422
915.245	6437
915.358	6418
915.47	6445
915.583	6494
915.696	6486
915.809	6582
915.921	6547
916.034	6433
916.146	6426
916.259	6399
916.371	6471
916.483	6410
916.595	6433
916.708	6410
916.82	6410
916.932	6361
917.044	6441
917.156	6407
917.268	6323
917.38	6346
917.491	6327
917.603	6361
917.715	6456
917.826	6376
917.938	6319
918.049	6285
918.161	6365
918.272	6486
918.384	6460
918.495	6395
918.606	6251
918.717	6266
918.828	6273
918.939	6266
919.05	6262
919.161	6209
919.272	6121
919.383	6205
919.494	6281
919.604	6452
919.715	6327
919.826	6216
919.936	6270
920.047	6331
920.157	6342
920.267	6407
920.378	6346
920.488	6270
920.598	6498
920.708	6593
920.818	6490
920.928	6475
921.038	6639
921.148	6555
921.258	6388
921.368	6334
921.477	6304
921.587	6209
921.697	6140
921.806	6171
921.916	6087
922.025	5961
922.134	5893
922.244	5908
922.353	5958
922.462	5817
922.571	5844
922.68	5729
922.789	5619
922.898	5695
923.007	5638
923.116	5737
923.224	5676
923.333	5627
923.442	5642
923.55	5577
923.659	5600
923.767	5672
923.876	5532
923.984	5653
924.092	5562
924.201	5577
924.309	5589
924.417	5558
924.525	5474
924.633	5543
924.741	6117
924.849	5402
924.956	5478
925.064	5379
925.172	5280
925.279	5296
925.387	5330
925.494	5288
925.602	5452
925.709	5387
925.816	5292
925.924	5364
926.031	5345
926.138	5239
926.245	5364
926.352	5178
926.459	5318
926.566	5353
926.673	5220
926.779	5162
926.886	5147
926.993	5003
927.099	5006
927.206	5010
927.312	4984
927.419	5056
927.525	4930
927.631	4968
927.737	4930
927.843	4896
927.95	4812
928.056	4809
928.162	4877
928.267	4835
928.373	5318
928.479	4873
928.585	4710
928.69	4721
928.796	4740
928.901	4702
929.007	4577
929.112	4721
929.218	4683
929.323	4645
929.428	4558
929.533	4694
929.638	4554
929.743	4538
929.848	4531
929.953	4516
930.058	4474
930.163	4299
930.267	4379
930.372	4455
930.477	4333
930.581	4489
930.685	4394
930.79	4268
930.894	4325
930.998	4287
931.103	4421
931.207	4139
931.311	4059
931.415	4048
931.519	3918
931.623	3968
