Data from glass_V78500241_2491.txt Node
Date: Wed Sep 01 19:31:46 CST 2021
User: usil
Spectrometer: V785-0024
Trigger mode: 0
Integration Time (sec): 4.000000E-1
Scans to average: 1
Nonlinearity correction enabled: false
Boxcar width: 0
Storing dark spectrum: false
XAxis mode: Wavelengths
Number of Pixels in Spectrum: 1024
>>>>>Begin Spectral Data<<<<<
801.071	3698
801.214	3732
801.356	3663
801.499	3682
801.641	3720
801.783	3740
801.926	3838
802.068	3835
802.211	3827
802.353	3876
802.496	3857
802.638	3846
802.78	3930
802.923	3869
803.065	3922
803.208	3827
803.35	3880
803.492	3884
803.635	3873
803.777	3762
803.919	3876
804.061	4150
804.204	3968
804.346	3934
804.488	3896
804.63	3979
804.773	3994
804.915	3991
805.057	4116
805.199	4029
805.341	4063
805.483	4162
805.626	4116
805.768	4116
805.91	4227
806.052	4223
806.194	4166
806.336	4322
806.478	4196
806.62	4188
806.762	4150
806.904	4268
807.046	4356
807.188	4166
807.33	4154
807.472	4227
807.614	4166
807.756	4242
807.898	4215
808.04	4238
808.182	4303
808.324	4363
808.465	4386
808.607	4470
808.749	4459
808.891	4459
809.033	4546
809.174	4413
809.316	4223
809.458	4257
809.6	4139
809.741	4101
809.883	4139
810.025	4181
810.166	4181
810.308	4234
810.45	4204
810.591	4227
810.733	4234
810.875	4512
811.016	4801
811.158	5147
811.299	5239
811.441	5284
811.582	5064
811.724	4664
811.865	4443
812.007	4500
812.148	4409
812.29	4413
812.431	4409
812.573	4383
812.714	4402
812.855	4424
812.997	4356
813.138	4459
813.279	4402
813.421	4371
813.562	4341
813.703	4303
813.845	4299
813.986	4249
814.127	4173
814.268	4219
814.41	4265
814.551	4249
814.692	4344
814.833	4287
814.974	4280
815.115	4280
815.256	4261
815.397	4215
815.539	4200
815.68	4147
815.821	4207
815.962	4341
816.103	4314
816.244	4207
816.385	4253
816.526	4261
816.666	4196
816.807	4105
816.948	4169
817.089	4192
817.23	4124
817.371	4025
817.512	4002
817.653	4074
817.793	4036
817.934	4029
818.075	4086
818.216	4036
818.356	4051
818.497	3956
818.638	3956
818.778	3861
818.919	3888
819.06	3827
819.2	3888
819.341	3808
819.481	3823
819.622	3903
819.762	3972
819.903	3953
820.043	3838
820.184	3804
820.324	3816
820.465	3873
820.605	3880
820.746	3850
820.886	3766
821.026	3930
821.167	3915
821.307	3968
821.447	3987
821.588	3979
821.728	3922
821.868	3941
822.008	3854
822.149	3907
822.289	3888
822.429	3766
822.569	3770
822.709	3789
822.849	3652
822.99	3705
823.13	3720
823.27	3747
823.41	3709
823.55	3705
823.69	3701
823.83	3736
823.97	3686
824.11	3568
824.25	3572
824.389	3622
824.529	3667
824.669	3610
824.809	3690
824.949	3732
825.089	3736
825.228	3694
825.368	3603
825.508	3538
825.648	3564
825.787	3576
825.927	3625
826.067	3610
826.206	3671
826.346	3766
826.485	3831
826.625	3827
826.765	3915
826.904	3785
827.044	3580
827.183	3507
827.323	3424
827.462	3507
827.601	3450
827.741	3405
827.88	3447
828.02	3386
828.159	3412
828.298	3496
828.437	3492
828.577	3431
828.716	3530
828.855	3507
828.994	3393
829.134	3313
829.273	3378
829.412	3317
829.551	3306
829.69	3351
829.829	3424
829.968	3488
830.107	3481
830.246	3431
830.385	3378
830.524	3332
830.663	3310
830.802	3199
830.941	3184
831.08	3176
831.219	3207
831.357	3249
831.496	3424
831.635	3233
831.774	3176
831.913	3173
832.051	3100
832.19	3173
832.329	3161
832.467	3150
832.606	3089
832.744	3154
832.883	3157
833.022	3184
833.16	3226
833.299	3279
833.437	3325
833.576	3363
833.714	3393
833.852	3401
833.991	3443
834.129	3454
834.267	3420
834.406	3370
834.544	3435
834.682	3424
834.821	3389
834.959	3572
835.097	3386
835.235	3542
835.373	3485
835.511	3492
835.65	3447
835.788	3488
835.926	3386
836.064	3389
836.202	3367
836.34	3561
836.478	3606
836.615	3526
836.753	3587
836.891	3591
837.029	3595
837.167	3564
837.305	3545
837.443	3545
837.58	3511
837.718	3603
837.856	3511
837.993	3545
838.131	3553
838.269	3542
838.406	3534
838.544	3599
838.681	3473
838.819	3428
838.956	3336
839.094	3382
839.231	3450
839.369	3523
839.506	3698
839.643	3603
839.781	3466
839.918	3454
840.055	3496
840.193	3492
840.33	3561
840.467	3576
840.604	3599
840.742	3762
840.879	3511
841.016	3542
841.153	3572
841.29	3713
841.427	3728
841.564	3713
841.701	3694
841.838	3663
841.975	3667
842.112	3724
842.249	3656
842.385	3614
842.522	3819
842.659	3656
842.796	3671
842.933	3705
843.069	3690
843.206	3690
843.343	3819
843.479	3709
843.616	3812
843.752	3675
843.889	3701
844.025	3812
844.162	3675
844.298	3876
844.435	3762
844.571	3778
844.708	3876
844.844	3937
844.98	3930
845.117	4013
845.253	3899
845.389	3896
845.525	3926
845.661	3956
845.798	3918
845.934	3975
846.07	3941
846.206	4063
846.342	4120
846.478	4029
846.614	3960
846.75	3892
846.886	3888
847.022	4021
847.158	3949
847.294	3972
847.429	3994
847.565	3987
847.701	4253
847.837	3888
847.972	3823
848.108	3991
848.244	3937
848.379	3846
848.515	3789
848.65	3812
848.786	3797
848.921	3838
849.057	3911
849.192	3907
849.328	3892
849.463	3922
849.598	3892
849.734	3838
849.869	3819
850.004	3800
850.14	3785
850.275	3770
850.41	3736
850.545	3736
850.68	3747
850.815	3770
850.95	3812
851.085	3945
851.22	3838
851.355	3789
851.49	3789
851.625	3774
851.76	3812
851.895	3720
852.03	3774
852.165	3804
852.299	3808
852.434	3907
852.569	3816
852.703	3865
852.838	3926
852.973	3979
853.107	3975
853.242	3854
853.376	3831
853.511	3797
853.645	3812
853.78	3953
853.914	3907
854.048	3934
854.183	3827
854.317	3934
854.451	4002
854.585	3934
854.72	3956
854.854	4021
854.988	3899
855.122	4021
855.256	3918
855.39	4021
855.524	4116
855.658	4116
855.792	4150
855.926	4158
856.06	4173
856.194	4181
856.327	4135
856.461	4109
856.595	4143
856.729	4211
856.862	4272
856.996	4284
857.13	4306
857.263	4295
857.397	4329
857.53	4280
857.664	4337
857.797	4367
857.931	4405
858.064	4348
858.197	4455
858.331	4417
858.464	4363
858.597	4352
858.731	4421
858.864	4436
858.997	4390
859.13	4535
859.263	4565
859.396	4588
859.529	4500
859.662	4508
859.795	4493
859.928	4561
860.061	4733
860.194	4702
860.327	4702
860.46	4641
860.592	4736
860.725	4767
860.858	4748
860.99	4687
861.123	4664
861.256	4672
861.388	4793
861.521	5532
861.653	4641
861.786	4706
861.918	4744
862.05	4801
862.183	4824
862.315	4862
862.447	4889
862.58	4873
862.712	4809
862.844	4782
862.976	4843
863.108	4847
863.24	5265
863.372	4839
863.504	4953
863.636	4896
863.768	4908
863.9	4957
864.032	4896
864.164	4934
864.296	4976
864.428	5079
864.559	5067
864.691	5098
864.823	5105
864.954	5113
865.086	5056
865.217	5113
865.349	5094
865.48	5109
865.612	5162
865.743	5280
865.875	5174
866.006	5166
866.137	5250
866.269	5204
866.4	5185
866.531	5242
866.662	5227
866.793	5261
866.924	5235
867.055	5315
867.186	5364
867.317	5311
867.448	5334
867.579	5357
867.71	5383
867.841	5372
867.972	5463
868.103	5471
868.233	5463
868.364	5490
868.495	5573
868.625	5665
868.756	5767
868.886	5688
869.017	5688
869.147	5866
869.278	5870
869.408	5771
869.539	5813
869.669	5897
869.799	5893
869.929	5908
870.06	5965
870.19	6194
870.32	6167
870.45	6228
870.58	6296
870.71	6429
870.84	6471
870.97	6452
871.1	6429
871.23	6646
871.36	6684
871.489	6703
871.619	6696
871.749	6806
871.879	6867
872.008	6954
872.138	6924
872.267	6989
872.397	6977
872.526	6962
872.656	7168
872.785	7190
872.915	7415
873.044	7502
873.173	7597
873.303	7693
873.432	7738
873.561	7826
873.69	7833
873.819	8005
873.948	8180
874.077	8237
874.206	8301
874.335	8427
874.464	8636
874.593	8785
874.722	8979
874.851	9093
874.979	9230
875.108	9408
875.237	9439
875.365	9496
875.494	9564
875.623	9785
875.751	9747
875.88	9964
876.008	10169
876.136	10295
876.265	10485
876.393	10698
876.521	10763
876.65	10828
876.778	10858
876.906	10934
877.034	10980
877.162	11048
877.29	11201
877.418	11220
877.546	11425
877.674	11543
877.802	11455
877.93	11524
878.058	11474
878.185	11570
878.313	11718
878.441	11748
878.568	11733
878.696	11809
878.824	11901
878.951	11870
879.079	11973
879.206	12072
879.333	12053
879.461	11973
879.588	12098
879.715	12003
879.842	12167
879.97	12041
880.097	11821
880.224	11939
880.351	11912
880.478	11821
880.605	11764
880.732	11764
880.859	11923
880.986	11821
881.112	11764
881.239	11710
881.366	11707
881.493	11558
881.619	11478
881.746	11642
881.872	11611
881.999	11528
882.125	11505
882.252	11520
882.378	11516
882.505	11589
882.631	11326
882.757	11315
882.883	11258
883.01	11261
883.136	11121
883.262	11174
883.388	11075
883.514	11151
883.64	11037
883.766	11098
883.892	11022
884.018	10938
884.143	11067
884.269	11094
884.395	10850
884.52	10725
884.646	10801
884.772	10752
884.897	10645
885.023	10714
885.148	10691
885.274	10733
885.399	10645
885.524	10664
885.65	10565
885.775	10527
885.9	10523
886.025	10558
886.15	10523
886.275	10440
886.4	10356
886.525	10371
886.65	10295
886.775	10447
886.9	10519
887.025	10447
887.149	10291
887.274	10246
887.399	10188
887.523	10211
887.648	10139
887.773	10090
887.897	10249
888.021	10227
888.146	10139
888.27	10158
888.395	10211
888.519	10185
888.643	10120
888.767	10196
888.891	10143
889.015	9968
889.139	9968
889.263	9926
889.387	10078
889.511	10036
889.635	10105
889.759	9968
889.883	9979
890.006	9994
890.13	10078
890.254	9964
890.377	9941
890.501	9808
890.624	9907
890.748	9873
890.871	9835
890.995	9720
891.118	9720
891.241	9751
891.364	9728
891.488	9804
891.611	9751
891.734	9724
891.857	9770
891.98	9633
892.103	9675
892.226	9705
892.349	9644
892.471	9557
892.594	9523
892.717	9648
892.839	9572
892.962	9515
893.085	9656
893.207	9580
893.33	9473
893.452	9580
893.575	9679
893.697	9439
893.819	9637
893.941	9644
894.064	9523
894.186	9412
894.308	9412
894.43	9485
894.552	9545
894.674	9542
894.796	9367
894.918	9317
895.04	9367
895.161	9397
895.283	9272
895.405	9180
895.526	9256
895.648	9260
895.769	9222
895.891	9283
896.012	9226
896.134	9195
896.255	9169
896.376	9146
896.498	9074
896.619	9138
896.74	9173
896.861	9161
896.982	9184
897.103	9329
897.224	9154
897.345	9100
897.466	8994
897.587	8986
897.708	9085
897.828	8921
897.949	8891
898.07	8868
898.19	8872
898.311	9013
898.431	8857
898.552	8887
898.672	8975
898.792	8937
898.913	8944
899.033	8746
899.153	8743
899.273	8746
899.393	8682
899.513	8746
899.633	8705
899.753	8777
899.873	8705
899.993	8720
900.113	8701
900.232	8712
900.352	8674
900.472	8503
900.591	8556
900.711	8651
900.83	8590
900.95	8689
901.069	8697
901.189	8545
901.308	8415
901.427	8366
901.546	8434
901.665	8370
901.784	8511
901.904	8450
902.023	8343
902.141	8218
902.26	8233
902.379	8294
902.498	8263
902.617	8214
902.735	8202
902.854	8317
902.973	8195
903.091	8024
903.21	8054
903.328	8164
903.446	8050
903.565	8069
903.683	8092
903.801	8016
903.919	8092
904.038	8107
904.156	8024
904.274	8100
904.392	8001
904.51	7974
904.627	8035
904.745	8024
904.863	8046
904.981	7921
905.098	7856
905.216	7837
905.334	7852
905.451	7879
905.569	7852
905.686	7890
905.803	7913
905.921	7765
906.038	7826
906.155	7769
906.272	7727
906.389	7704
906.506	7658
906.623	7571
906.74	7582
906.857	7548
906.974	7548
907.091	7643
907.208	7696
907.324	7666
907.441	7575
907.557	7381
907.674	7426
907.79	7411
907.907	7426
908.023	7403
908.139	7430
908.256	7373
908.372	7343
908.488	7324
908.604	7198
908.72	7270
908.836	7297
908.952	7202
909.068	7168
909.184	7240
909.3	7305
909.415	7289
909.531	7312
909.647	7088
909.762	7118
909.878	7080
909.993	7149
910.108	7084
910.224	7114
910.339	7137
910.454	7004
910.57	6981
910.685	6943
910.8	7160
910.915	7095
911.03	7038
911.145	6905
911.259	6848
911.374	6844
911.489	6783
911.604	6795
911.718	6700
911.833	6703
911.947	6658
912.062	6559
912.176	6673
912.291	6665
912.405	6749
912.519	6798
912.633	6802
912.748	6741
912.862	6673
912.976	6509
913.09	6517
913.204	6608
913.318	6578
913.431	6673
913.545	6688
913.659	6741
913.772	6623
913.886	6551
914	6578
914.113	6585
914.226	6616
914.34	6570
914.453	6498
914.566	6597
914.68	6460
914.793	6502
914.906	6395
915.019	6369
915.132	6391
915.245	6391
915.358	6403
915.47	6418
915.583	6399
915.696	6460
915.809	6540
915.921	6528
916.034	6452
916.146	6369
916.259	6388
916.371	6479
916.483	6426
916.595	6365
916.708	6380
916.82	6369
916.932	6407
917.044	6403
917.156	6380
917.268	6319
917.38	6380
917.491	6304
917.603	6346
917.715	6361
917.826	6399
917.938	6239
918.049	6300
918.161	6281
918.272	6380
918.384	6452
918.495	6331
918.606	6194
918.717	6197
918.828	6262
918.939	6296
919.05	6163
919.161	6342
919.272	6095
919.383	6117
919.494	6315
919.604	6331
919.715	6205
919.826	6228
919.936	6239
920.047	6319
920.157	6239
920.267	6448
920.378	6357
920.488	6304
920.598	6429
920.708	6506
920.818	6426
920.928	6479
921.038	6604
921.148	6616
921.258	6372
921.368	6254
921.477	6213
921.587	6133
921.697	6057
921.806	6102
921.916	6045
922.025	5912
922.134	5904
922.244	5904
922.353	5961
922.462	5817
922.571	5805
922.68	5646
922.789	5676
922.898	5729
923.007	5619
923.116	5668
923.224	5676
923.333	5653
923.442	5577
923.55	5566
923.659	5604
923.767	5630
923.876	5520
923.984	5566
924.092	5547
924.201	5562
924.309	5562
924.417	5554
924.525	5444
924.633	5493
924.741	6285
924.849	5337
924.956	5436
925.064	5341
925.172	5330
925.279	5307
925.387	5330
925.494	5360
925.602	5448
925.709	5398
925.816	5231
925.924	5299
926.031	5337
926.138	5258
926.245	5269
926.352	5220
926.459	5330
926.566	5273
926.673	5162
926.779	5143
926.886	5181
926.993	5045
927.099	4999
927.206	4961
927.312	4915
927.419	5010
927.525	4984
927.631	5029
927.737	4896
927.843	4850
927.95	4725
928.056	4801
928.162	4812
928.267	4850
928.373	5258
928.479	4866
928.585	4679
928.69	4729
928.796	4771
928.901	4668
929.007	4607
929.112	4645
929.218	4615
929.323	4611
929.428	4527
929.533	4694
929.638	4516
929.743	4485
929.848	4565
929.953	4565
930.058	4470
930.163	4322
930.267	4322
930.372	4428
930.477	4287
930.581	4432
930.685	4363
930.79	4246
930.894	4268
930.998	4261
931.103	4402
931.207	4139
931.311	4036
931.415	4044
931.519	3926
931.623	3949
