Data from glass_V78500241_2604.txt Node
Date: Wed Sep 01 19:32:33 CST 2021
User: usil
Spectrometer: V785-0024
Trigger mode: 0
Integration Time (sec): 4.000000E-1
Scans to average: 1
Nonlinearity correction enabled: false
Boxcar width: 0
Storing dark spectrum: false
XAxis mode: Wavelengths
Number of Pixels in Spectrum: 1024
>>>>>Begin Spectral Data<<<<<
801.071	3732
801.214	3751
801.356	3717
801.499	3690
801.641	3717
801.783	3736
801.926	3823
802.068	3831
802.211	3804
802.353	3835
802.496	3857
802.638	3884
802.78	3922
802.923	3956
803.065	3869
803.208	3869
803.35	3831
803.492	3873
803.635	3899
803.777	3846
803.919	3888
804.061	4112
804.204	3972
804.346	3964
804.488	3876
804.63	4044
804.773	3975
804.915	4044
805.057	4131
805.199	4040
805.341	4017
805.483	4105
805.626	4139
805.768	4090
805.91	4162
806.052	4238
806.194	4192
806.336	4325
806.478	4188
806.62	4166
806.762	4211
806.904	4219
807.046	4325
807.188	4150
807.33	4154
807.472	4230
807.614	4158
807.756	4253
807.898	4173
808.04	4192
808.182	4249
808.324	4367
808.465	4344
808.607	4421
808.749	4409
808.891	4405
809.033	4527
809.174	4383
809.316	4253
809.458	4192
809.6	4147
809.741	4169
809.883	4143
810.025	4162
810.166	4192
810.308	4242
810.45	4242
810.591	4227
810.733	4238
810.875	4519
811.016	4805
811.158	5117
811.299	5235
811.441	5246
811.582	5029
811.724	4630
811.865	4455
812.007	4455
812.148	4413
812.29	4421
812.431	4424
812.573	4386
812.714	4394
812.855	4428
812.997	4424
813.138	4459
813.279	4390
813.421	4348
813.562	4386
813.703	4299
813.845	4329
813.986	4257
814.127	4238
814.268	4223
814.41	4280
814.551	4257
814.692	4337
814.833	4242
814.974	4257
815.115	4306
815.256	4268
815.397	4257
815.539	4219
815.68	4177
815.821	4219
815.962	4329
816.103	4276
816.244	4272
816.385	4227
816.526	4291
816.666	4181
816.807	4059
816.948	4139
817.089	4131
817.23	4143
817.371	4017
817.512	4025
817.653	4093
817.793	4021
817.934	4051
818.075	4078
818.216	4010
818.356	4063
818.497	4006
818.638	3873
818.778	3915
818.919	3896
819.06	3861
819.2	3896
819.341	3903
819.481	3850
819.622	3888
819.762	3994
819.903	3941
820.043	3838
820.184	3835
820.324	3812
820.465	3903
820.605	3896
820.746	3876
820.886	3827
821.026	3922
821.167	3896
821.307	3964
821.447	3975
821.588	3918
821.728	3926
821.868	3945
822.008	3873
822.149	3892
822.289	3857
822.429	3789
822.569	3762
822.709	3774
822.849	3686
822.99	3724
823.13	3732
823.27	3755
823.41	3701
823.55	3736
823.69	3747
823.83	3751
823.97	3682
824.11	3587
824.25	3564
824.389	3644
824.529	3660
824.669	3610
824.809	3698
824.949	3774
825.089	3698
825.228	3652
825.368	3591
825.508	3572
825.648	3580
825.787	3572
825.927	3637
826.067	3667
826.206	3686
826.346	3766
826.485	3819
826.625	3812
826.765	3964
826.904	3831
827.044	3584
827.183	3549
827.323	3405
827.462	3428
827.601	3428
827.741	3374
827.88	3435
828.02	3325
828.159	3416
828.298	3443
828.437	3485
828.577	3462
828.716	3576
828.855	3477
828.994	3382
829.134	3344
829.273	3393
829.412	3329
829.551	3344
829.69	3367
829.829	3409
829.968	3488
830.107	3428
830.246	3428
830.385	3382
830.524	3355
830.663	3294
830.802	3264
830.941	3195
831.08	3237
831.219	3237
831.357	3222
831.496	3397
831.635	3237
831.774	3192
831.913	3184
832.051	3108
832.19	3142
832.329	3207
832.467	3161
832.606	3123
832.744	3146
832.883	3169
833.022	3188
833.16	3272
833.299	3298
833.437	3310
833.576	3389
833.714	3424
833.852	3420
833.991	3431
834.129	3447
834.267	3424
834.406	3378
834.544	3416
834.682	3443
834.821	3439
834.959	3545
835.097	3367
835.235	3519
835.373	3485
835.511	3469
835.65	3420
835.788	3458
835.926	3378
836.064	3405
836.202	3359
836.34	3568
836.478	3591
836.615	3526
836.753	3580
836.891	3622
837.029	3564
837.167	3622
837.305	3549
837.443	3549
837.58	3485
837.718	3568
837.856	3526
837.993	3488
838.131	3610
838.269	3530
838.406	3606
838.544	3561
838.681	3443
838.819	3431
838.956	3374
839.094	3351
839.231	3439
839.369	3488
839.506	3717
839.643	3618
839.781	3435
839.918	3462
840.055	3530
840.193	3515
840.33	3526
840.467	3530
840.604	3549
840.742	3797
840.879	3526
841.016	3549
841.153	3564
841.29	3762
841.427	3686
841.564	3701
841.701	3686
841.838	3720
841.975	3679
842.112	3698
842.249	3591
842.385	3599
842.522	3800
842.659	3641
842.796	3682
842.933	3641
843.069	3682
843.206	3656
843.343	3819
843.479	3785
843.616	3774
843.752	3660
843.889	3641
844.025	3819
844.162	3747
844.298	3850
844.435	3778
844.571	3770
844.708	3922
844.844	3956
844.98	3968
845.117	3964
845.253	3892
845.389	3918
845.525	3903
845.661	3964
845.798	3907
845.934	4006
846.07	3945
846.206	4051
846.342	4093
846.478	4010
846.614	3972
846.75	3930
846.886	3922
847.022	4025
847.158	3972
847.294	4010
847.429	3994
847.565	3998
847.701	4227
847.837	3857
847.972	3861
848.108	3979
848.244	3998
848.379	3823
848.515	3793
848.65	3823
848.786	3808
848.921	3835
849.057	3934
849.192	3922
849.328	3915
849.463	3926
849.598	3865
849.734	3865
849.869	3869
850.004	3770
850.14	3831
850.275	3770
850.41	3751
850.545	3728
850.68	3762
850.815	3778
850.95	3762
851.085	3873
851.22	3857
851.355	3797
851.49	3785
851.625	3743
851.76	3831
851.895	3701
852.03	3667
852.165	3766
852.299	3819
852.434	3873
852.569	3888
852.703	3899
852.838	3922
852.973	3949
853.107	3972
853.242	3892
853.376	3800
853.511	3740
853.645	3812
853.78	3972
853.914	3873
854.048	3861
854.183	3884
854.317	3911
854.451	4025
854.585	3956
854.72	3918
854.854	4029
854.988	3903
855.122	3983
855.256	3869
855.39	3994
855.524	4082
855.658	4090
855.792	4082
855.926	4139
856.06	4150
856.194	4227
856.327	4135
856.461	4097
856.595	4147
856.729	4173
856.862	4238
856.996	4284
857.13	4265
857.263	4299
857.397	4310
857.53	4287
857.664	4318
857.797	4379
857.931	4386
858.064	4386
858.197	4436
858.331	4375
858.464	4424
858.597	4310
858.731	4405
858.864	4390
858.997	4424
859.13	4508
859.263	4546
859.396	4599
859.529	4519
859.662	4519
859.795	4474
859.928	4615
860.061	4675
860.194	4698
860.327	4683
860.46	4637
860.592	4725
860.725	4725
860.858	4733
860.99	4714
861.123	4634
861.256	4710
861.388	4763
861.521	5334
861.653	4710
861.786	4698
861.918	4733
862.05	4782
862.183	4809
862.315	4892
862.447	4965
862.58	4900
862.712	4790
862.844	4771
862.976	4866
863.108	4828
863.24	5155
863.372	4854
863.504	4896
863.636	4885
863.768	4995
863.9	4995
864.032	4919
864.164	4972
864.296	5052
864.428	5090
864.559	5109
864.691	5067
864.823	5132
864.954	5105
865.086	5155
865.217	5067
865.349	5079
865.48	5143
865.612	5185
865.743	5261
865.875	5216
866.006	5174
866.137	5239
866.269	5246
866.4	5235
866.531	5242
866.662	5269
866.793	5231
866.924	5265
867.055	5307
867.186	5318
867.317	5296
867.448	5250
867.579	5341
867.71	5330
867.841	5379
867.972	5433
868.103	5482
868.233	5509
868.364	5482
868.495	5516
868.625	5634
868.756	5779
868.886	5684
869.017	5714
869.147	5828
869.278	5847
869.408	5817
869.539	5824
869.669	5927
869.799	5889
869.929	6015
870.06	6003
870.19	6205
870.32	6144
870.45	6205
870.58	6350
870.71	6433
870.84	6456
870.97	6365
871.1	6433
871.23	6608
871.36	6688
871.489	6635
871.619	6700
871.749	6772
871.879	6825
872.008	6924
872.138	6996
872.267	7012
872.397	6996
872.526	6989
872.656	7080
872.785	7141
872.915	7354
873.044	7506
873.173	7628
873.303	7594
873.432	7693
873.561	7765
873.69	7841
873.819	8043
873.948	8134
874.077	8309
874.206	8339
874.335	8480
874.464	8712
874.593	8861
874.722	8883
874.851	9146
874.979	9195
875.108	9370
875.237	9355
875.365	9519
875.494	9595
875.623	9850
875.751	9797
875.88	10067
876.008	10173
876.136	10192
876.265	10478
876.393	10634
876.521	10736
876.65	10824
876.778	10854
876.906	10911
877.034	10927
877.162	11052
877.29	11124
877.418	11288
877.546	11311
877.674	11509
877.802	11417
877.93	11570
878.058	11604
878.185	11554
878.313	11596
878.441	11821
878.568	11695
878.696	11802
878.824	11821
878.951	11897
879.079	12114
879.206	12098
879.333	12049
879.461	11969
879.588	12194
879.715	12083
879.842	12190
879.97	12102
880.097	11802
880.224	11878
880.351	11855
880.478	11954
880.605	11843
880.732	11794
880.859	12007
880.986	11893
881.112	11775
881.239	11722
881.366	11634
881.493	11604
881.619	11505
881.746	11532
881.872	11589
881.999	11493
882.125	11486
882.252	11528
882.378	11570
882.505	11543
882.631	11372
882.757	11299
882.883	11334
883.01	11250
883.136	11220
883.262	11037
883.388	10984
883.514	11212
883.64	11166
883.766	11094
883.892	11006
884.018	11022
884.143	10991
884.269	11155
884.395	10812
884.52	10679
884.646	10793
884.772	10740
884.897	10641
885.023	10668
885.148	10691
885.274	10793
885.399	10736
885.524	10565
885.65	10588
885.775	10565
885.9	10504
886.025	10668
886.15	10588
886.275	10500
886.4	10390
886.525	10394
886.65	10360
886.775	10322
886.9	10478
887.025	10580
887.149	10318
887.274	10257
887.399	10242
887.523	10169
887.648	10048
887.773	10135
887.897	10246
888.021	10215
888.146	10131
888.27	10200
888.395	10230
888.519	10090
888.643	10143
888.767	10219
888.891	10071
889.015	9983
889.139	10086
889.263	10044
889.387	10071
889.511	10093
889.635	10086
889.759	9968
889.883	9930
890.006	9968
890.13	10131
890.254	9949
890.377	10044
890.501	9888
890.624	9888
890.748	9857
890.871	9789
890.995	9728
891.118	9663
891.241	9690
891.364	9759
891.488	9835
891.611	9766
891.734	9705
891.857	9781
891.98	9648
892.103	9660
892.226	9679
892.349	9724
892.471	9580
892.594	9606
892.717	9568
892.839	9561
892.962	9614
893.085	9637
893.207	9504
893.33	9469
893.452	9526
893.575	9599
893.697	9519
893.819	9610
893.941	9656
894.064	9564
894.186	9439
894.308	9412
894.43	9504
894.552	9561
894.674	9507
894.796	9355
894.918	9340
895.04	9344
895.161	9317
895.283	9325
895.405	9256
895.526	9268
895.648	9218
895.769	9192
895.891	9218
896.012	9363
896.134	9165
896.255	9150
896.376	9116
896.498	9207
896.619	9081
896.74	9039
896.861	9070
896.982	9226
897.103	9287
897.224	9157
897.345	9039
897.466	9039
897.587	8982
897.708	9116
897.828	9077
897.949	8944
898.07	8910
898.19	8918
898.311	8967
898.431	8902
898.552	8910
898.672	8982
898.792	8982
898.913	8834
899.033	8766
899.153	8788
899.273	8746
899.393	8758
899.513	8807
899.633	8724
899.753	8762
899.873	8682
899.993	8739
900.113	8651
900.232	8640
900.352	8659
900.472	8587
900.591	8526
900.711	8579
900.83	8545
900.95	8644
901.069	8712
901.189	8568
901.308	8415
901.427	8396
901.546	8434
901.665	8465
901.784	8446
901.904	8370
902.023	8320
902.141	8248
902.26	8164
902.379	8305
902.498	8199
902.617	8229
902.735	8313
902.854	8202
902.973	8290
903.091	8130
903.21	8134
903.328	8145
903.446	8096
903.565	8115
903.683	8065
903.801	8005
903.919	8024
904.038	8142
904.156	8020
904.274	8046
904.392	8016
904.51	8008
904.627	8016
904.745	7967
904.863	8149
904.981	7890
905.098	7898
905.216	7902
905.334	7868
905.451	7917
905.569	7860
905.686	7940
905.803	7921
905.921	7753
906.038	7856
906.155	7826
906.272	7723
906.389	7693
906.506	7704
906.623	7616
906.74	7597
906.857	7540
906.974	7571
907.091	7628
907.208	7693
907.324	7605
907.441	7575
907.557	7411
907.674	7434
907.79	7369
907.907	7464
908.023	7457
908.139	7419
908.256	7362
908.372	7358
908.488	7305
908.604	7247
908.72	7217
908.836	7217
908.952	7282
909.068	7225
909.184	7274
909.3	7247
909.415	7324
909.531	7240
909.647	7114
909.762	7091
909.878	7034
909.993	7084
910.108	7046
910.224	7080
910.339	7061
910.454	7031
910.57	6958
910.685	6920
910.8	7152
910.915	7156
911.03	7012
911.145	6916
911.259	6875
911.374	6909
911.489	6810
911.604	6825
911.718	6688
911.833	6715
911.947	6665
912.062	6582
912.176	6688
912.291	6757
912.405	6688
912.519	6806
912.633	6829
912.748	6692
912.862	6734
912.976	6646
913.09	6486
913.204	6525
913.318	6627
913.431	6662
913.545	6726
913.659	6707
913.772	6608
913.886	6593
914	6471
914.113	6639
914.226	6650
914.34	6570
914.453	6570
914.566	6563
914.68	6452
914.793	6540
914.906	6388
915.019	6384
915.132	6334
915.245	6395
915.358	6452
915.47	6422
915.583	6471
915.696	6452
915.809	6498
915.921	6570
916.034	6464
916.146	6414
916.259	6376
916.371	6418
916.483	6441
916.595	6380
916.708	6376
916.82	6384
916.932	6342
917.044	6384
917.156	6346
917.268	6346
917.38	6327
917.491	6308
917.603	6361
917.715	6365
917.826	6414
917.938	6254
918.049	6220
918.161	6327
918.272	6395
918.384	6395
918.495	6372
918.606	6254
918.717	6224
918.828	6266
918.939	6304
919.05	6175
919.161	6232
919.272	6175
919.383	6140
919.494	6270
919.604	6429
919.715	6304
919.826	6205
919.936	6190
920.047	6369
920.157	6289
920.267	6422
920.378	6281
920.488	6232
920.598	6437
920.708	6559
920.818	6479
920.928	6448
921.038	6566
921.148	6593
921.258	6353
921.368	6247
921.477	6213
921.587	6136
921.697	6110
921.806	6144
921.916	6030
922.025	5939
922.134	5859
922.244	5855
922.353	5916
922.462	5870
922.571	5828
922.68	5695
922.789	5649
922.898	5703
923.007	5634
923.116	5657
923.224	5707
923.333	5638
923.442	5501
923.55	5532
923.659	5535
923.767	5668
923.876	5585
923.984	5573
924.092	5516
924.201	5570
924.309	5512
924.417	5535
924.525	5471
924.633	5448
924.741	6228
924.849	5345
924.956	5444
925.064	5387
925.172	5337
925.279	5315
925.387	5322
925.494	5337
925.602	5440
925.709	5395
925.816	5223
925.924	5330
926.031	5364
926.138	5277
926.245	5318
926.352	5235
926.459	5345
926.566	5315
926.673	5185
926.779	5117
926.886	5117
926.993	5056
927.099	4953
927.206	4965
927.312	4976
927.419	5018
927.525	4972
927.631	4953
927.737	4873
927.843	4873
927.95	4774
928.056	4801
928.162	4805
928.267	4900
928.373	5341
928.479	4850
928.585	4691
928.69	4736
928.796	4748
928.901	4679
929.007	4611
929.112	4641
929.218	4615
929.323	4542
929.428	4538
929.533	4641
929.638	4558
929.743	4516
929.848	4588
929.953	4478
930.058	4474
930.163	4291
930.267	4383
930.372	4424
930.477	4276
930.581	4470
930.685	4310
930.79	4246
930.894	4253
930.998	4234
931.103	4344
931.207	4124
931.311	4105
931.415	4059
931.519	3960
931.623	3960
