Data from glass_V78500241_188.txt Node
Date: Wed Sep 01 19:15:48 CST 2021
User: usil
Spectrometer: V785-0024
Trigger mode: 0
Integration Time (sec): 4.000000E-1
Scans to average: 1
Nonlinearity correction enabled: false
Boxcar width: 0
Storing dark spectrum: false
XAxis mode: Wavelengths
Number of Pixels in Spectrum: 1024
>>>>>Begin Spectral Data<<<<<
801.071	3743
801.214	3781
801.356	3755
801.499	3751
801.641	3781
801.783	3827
801.926	3876
802.068	3880
802.211	3880
802.353	3892
802.496	3873
802.638	3911
802.78	3907
802.923	3953
803.065	3930
803.208	3827
803.35	3873
803.492	3884
803.635	3903
803.777	3842
803.919	3876
804.061	4112
804.204	3926
804.346	3941
804.488	3930
804.63	4029
804.773	3972
804.915	4021
805.057	4154
805.199	4040
805.341	4093
805.483	4147
805.626	4109
805.768	4139
805.91	4211
806.052	4272
806.194	4169
806.336	4428
806.478	4238
806.62	4192
806.762	4185
806.904	4249
807.046	4329
807.188	4234
807.33	4192
807.472	4230
807.614	4188
807.756	4257
807.898	4242
808.04	4192
808.182	4299
808.324	4344
808.465	4329
808.607	4428
808.749	4485
808.891	4478
809.033	4512
809.174	4447
809.316	4287
809.458	4253
809.6	4169
809.741	4150
809.883	4128
810.025	4230
810.166	4234
810.308	4272
810.45	4276
810.591	4211
810.733	4306
810.875	4569
811.016	4828
811.158	5121
811.299	5326
811.441	5265
811.582	5083
811.724	4725
811.865	4523
812.007	4485
812.148	4440
812.29	4394
812.431	4417
812.573	4417
812.714	4390
812.855	4390
812.997	4424
813.138	4538
813.279	4459
813.421	4375
813.562	4356
813.703	4291
813.845	4337
813.986	4261
814.127	4211
814.268	4310
814.41	4295
814.551	4249
814.692	4375
814.833	4257
814.974	4295
815.115	4375
815.256	4227
815.397	4303
815.539	4287
815.68	4230
815.821	4166
815.962	4322
816.103	4246
816.244	4196
816.385	4284
816.526	4306
816.666	4173
816.807	4112
816.948	4207
817.089	4185
817.23	4131
817.371	4105
817.512	4082
817.653	4112
817.793	4074
817.934	4051
818.075	4116
818.216	4082
818.356	4090
818.497	4025
818.638	3922
818.778	3926
818.919	3930
819.06	3907
819.2	3964
819.341	3861
819.481	3812
819.622	3922
819.762	4025
819.903	3968
820.043	3873
820.184	3865
820.324	3823
820.465	3899
820.605	3884
820.746	3896
820.886	3831
821.026	3930
821.167	3926
821.307	3998
821.447	3964
821.588	3945
821.728	3945
821.868	3922
822.008	3903
822.149	3941
822.289	3960
822.429	3781
822.569	3781
822.709	3816
822.849	3713
822.99	3755
823.13	3770
823.27	3800
823.41	3705
823.55	3789
823.69	3747
823.83	3770
823.97	3663
824.11	3606
824.25	3629
824.389	3652
824.529	3724
824.669	3637
824.809	3720
824.949	3812
825.089	3736
825.228	3740
825.368	3633
825.508	3576
825.648	3580
825.787	3625
825.927	3682
826.067	3618
826.206	3713
826.346	3850
826.485	3880
826.625	3876
826.765	3960
826.904	3846
827.044	3648
827.183	3572
827.323	3454
827.462	3473
827.601	3439
827.741	3420
827.88	3447
828.02	3348
828.159	3462
828.298	3538
828.437	3511
828.577	3496
828.716	3584
828.855	3488
828.994	3367
829.134	3370
829.273	3428
829.412	3389
829.551	3321
829.69	3367
829.829	3466
829.968	3534
830.107	3428
830.246	3462
830.385	3386
830.524	3317
830.663	3329
830.802	3249
830.941	3173
831.08	3237
831.219	3294
831.357	3302
831.496	3416
831.635	3249
831.774	3218
831.913	3188
832.051	3161
832.19	3169
832.329	3249
832.467	3150
832.606	3100
832.744	3207
832.883	3203
833.022	3161
833.16	3264
833.299	3359
833.437	3340
833.576	3332
833.714	3363
833.852	3443
833.991	3462
834.129	3492
834.267	3488
834.406	3420
834.544	3431
834.682	3439
834.821	3424
834.959	3606
835.097	3454
835.235	3549
835.373	3504
835.511	3557
835.65	3481
835.788	3534
835.926	3416
836.064	3420
836.202	3374
836.34	3572
836.478	3622
836.615	3557
836.753	3610
836.891	3633
837.029	3599
837.167	3629
837.305	3561
837.443	3542
837.58	3488
837.718	3641
837.856	3561
837.993	3572
838.131	3591
838.269	3572
838.406	3633
838.544	3599
838.681	3466
838.819	3496
838.956	3416
839.094	3424
839.231	3466
839.369	3603
839.506	3740
839.643	3660
839.781	3492
839.918	3515
840.055	3526
840.193	3542
840.33	3561
840.467	3568
840.604	3599
840.742	3846
840.879	3584
841.016	3564
841.153	3618
841.29	3789
841.427	3736
841.564	3762
841.701	3759
841.838	3728
841.975	3736
842.112	3736
842.249	3656
842.385	3690
842.522	3835
842.659	3671
842.796	3701
842.933	3747
843.069	3736
843.206	3705
843.343	3842
843.479	3804
843.616	3816
843.752	3641
843.889	3686
844.025	3857
844.162	3766
844.298	3880
844.435	3793
844.571	3793
844.708	3899
844.844	4017
844.98	4051
845.117	4029
845.253	3979
845.389	3926
845.525	3968
845.661	4010
845.798	3899
845.934	4032
846.07	3937
846.206	4074
846.342	4154
846.478	4074
846.614	3930
846.75	3968
846.886	3934
847.022	4044
847.158	3960
847.294	4025
847.429	4059
847.565	4021
847.701	4261
847.837	3922
847.972	3873
848.108	3979
848.244	3975
848.379	3876
848.515	3854
848.65	3857
848.786	3846
848.921	3903
849.057	3968
849.192	3960
849.328	3918
849.463	3945
849.598	3907
849.734	3861
849.869	3869
850.004	3827
850.14	3865
850.275	3812
850.41	3759
850.545	3747
850.68	3770
850.815	3884
850.95	3838
851.085	3975
851.22	3911
851.355	3831
851.49	3797
851.625	3808
851.76	3800
851.895	3778
852.03	3705
852.165	3816
852.299	3892
852.434	3945
852.569	3857
852.703	3903
852.838	3953
852.973	3983
853.107	4032
853.242	3926
853.376	3896
853.511	3789
853.645	3857
853.78	4025
853.914	3892
854.048	3911
854.183	3865
854.317	4040
854.451	4093
854.585	4002
854.72	3960
854.854	4044
854.988	3949
855.122	3994
855.256	3964
855.39	4013
855.524	4097
855.658	4116
855.792	4105
855.926	4173
856.06	4188
856.194	4215
856.327	4185
856.461	4112
856.595	4124
856.729	4215
856.862	4303
856.996	4276
857.13	4329
857.263	4383
857.397	4363
857.53	4333
857.664	4325
857.797	4371
857.931	4447
858.064	4402
858.197	4447
858.331	4421
858.464	4379
858.597	4352
858.731	4375
858.864	4481
858.997	4466
859.13	4500
859.263	4542
859.396	4580
859.529	4542
859.662	4565
859.795	4535
859.928	4618
860.061	4790
860.194	4771
860.327	4702
860.46	4641
860.592	4763
860.725	4759
860.858	4812
860.99	4698
861.123	4687
861.256	4679
861.388	4771
861.521	5398
861.653	4710
861.786	4698
861.918	4748
862.05	4831
862.183	4877
862.315	4862
862.447	4930
862.58	4889
862.712	4850
862.844	4824
862.976	4854
863.108	4927
863.24	5231
863.372	4858
863.504	4984
863.636	4904
863.768	4980
863.9	5003
864.032	4953
864.164	4953
864.296	5014
864.428	5075
864.559	5109
864.691	5136
864.823	5162
864.954	5113
865.086	5204
865.217	5162
865.349	5136
865.48	5185
865.612	5170
865.743	5311
865.875	5261
866.006	5201
866.137	5258
866.269	5273
866.4	5273
866.531	5250
866.662	5189
866.793	5273
866.924	5265
867.055	5360
867.186	5368
867.317	5288
867.448	5357
867.579	5334
867.71	5410
867.841	5452
867.972	5421
868.103	5452
868.233	5512
868.364	5474
868.495	5520
868.625	5756
868.756	5783
868.886	5684
869.017	5783
869.147	5863
869.278	5828
869.408	5855
869.539	5794
869.669	5920
869.799	5885
869.929	5996
870.06	6076
870.19	6266
870.32	6209
870.45	6258
870.58	6357
870.71	6467
870.84	6521
870.97	6395
871.1	6418
871.23	6623
871.36	6681
871.489	6665
871.619	6757
871.749	6837
871.879	6871
872.008	7065
872.138	7019
872.267	6970
872.397	7031
872.526	7042
872.656	7122
872.785	7228
872.915	7400
873.044	7563
873.173	7548
873.303	7708
873.432	7788
873.561	7898
873.69	7925
873.819	8020
873.948	8191
874.077	8267
874.206	8366
874.335	8518
874.464	8670
874.593	8910
874.722	8963
874.851	9055
874.979	9249
875.108	9420
875.237	9412
875.365	9473
875.494	9679
875.623	9857
875.751	9865
875.88	10032
876.008	10135
876.136	10272
876.265	10527
876.393	10748
876.521	10725
876.65	10793
876.778	10824
876.906	10896
877.034	10946
877.162	11079
877.29	11117
877.418	11193
877.546	11372
877.674	11425
877.802	11474
877.93	11524
878.058	11608
878.185	11547
878.313	11630
878.441	11878
878.568	11695
878.696	11840
878.824	11916
878.951	12003
879.079	12087
879.206	12125
879.333	12106
879.461	12057
879.588	12136
879.715	12133
879.842	12114
879.97	12022
880.097	11931
880.224	11916
880.351	11920
880.478	11923
880.605	11889
880.732	11904
880.859	12057
880.986	11798
881.112	11817
881.239	11657
881.366	11722
881.493	11589
881.619	11562
881.746	11611
881.872	11490
881.999	11562
882.125	11471
882.252	11528
882.378	11501
882.505	11577
882.631	11341
882.757	11337
882.883	11360
883.01	11204
883.136	11231
883.262	11166
883.388	11025
883.514	11189
883.64	11189
883.766	11033
883.892	10957
884.018	10980
884.143	11006
884.269	11159
884.395	10820
884.52	10778
884.646	10847
884.772	10805
884.897	10683
885.023	10660
885.148	10717
885.274	10778
885.399	10721
885.524	10599
885.65	10569
885.775	10599
885.9	10645
886.025	10516
886.15	10516
886.275	10489
886.4	10337
886.525	10344
886.65	10390
886.775	10421
886.9	10527
887.025	10527
887.149	10363
887.274	10284
887.399	10219
887.523	10276
887.648	10188
887.773	10074
887.897	10287
888.021	10204
888.146	10173
888.27	10261
888.395	10207
888.519	10185
888.643	10158
888.767	10162
888.891	10010
889.015	9987
889.139	10078
889.263	9983
889.387	10139
889.511	10059
889.635	10105
889.759	10013
889.883	10032
890.006	10074
890.13	10078
890.254	9888
890.377	9922
890.501	9838
890.624	9861
890.748	9918
890.871	9884
890.995	9766
891.118	9701
891.241	9781
891.364	9781
891.488	9876
891.611	9690
891.734	9804
891.857	9732
891.98	9755
892.103	9827
892.226	9762
892.349	9701
892.471	9587
892.594	9644
892.717	9675
892.839	9545
892.962	9587
893.085	9591
893.207	9538
893.33	9534
893.452	9507
893.575	9656
893.697	9507
893.819	9545
893.941	9660
894.064	9580
894.186	9431
894.308	9408
894.43	9564
894.552	9580
894.674	9526
894.796	9348
894.918	9504
895.04	9332
895.161	9359
895.283	9351
895.405	9332
895.526	9317
895.648	9222
895.769	9241
895.891	9351
896.012	9192
896.134	9165
896.255	9222
896.376	9104
896.498	9161
896.619	9146
896.74	9074
896.861	9074
896.982	9313
897.103	9310
897.224	9230
897.345	9093
897.466	9020
897.587	8986
897.708	9093
897.828	8986
897.949	8975
898.07	8883
898.19	8933
898.311	9062
898.431	8895
898.552	8948
898.672	8948
898.792	9005
898.913	8994
899.033	8853
899.153	8739
899.273	8708
899.393	8773
899.513	8766
899.633	8781
899.753	8750
899.873	8720
899.993	8834
900.113	8705
900.232	8705
900.352	8640
900.472	8689
900.591	8568
900.711	8632
900.83	8587
900.95	8686
901.069	8724
901.189	8610
901.308	8419
901.427	8415
901.546	8438
901.665	8461
901.784	8488
901.904	8400
902.023	8332
902.141	8244
902.26	8229
902.379	8301
902.498	8218
902.617	8294
902.735	8309
902.854	8343
902.973	8240
903.091	8119
903.21	8142
903.328	8202
903.446	8134
903.565	8081
903.683	8096
903.801	8081
903.919	8206
904.038	8081
904.156	8027
904.274	8168
904.392	8020
904.51	8039
904.627	8024
904.745	8142
904.863	8084
904.981	7963
905.098	7902
905.216	7890
905.334	7833
905.451	7883
905.569	7860
905.686	7936
905.803	7951
905.921	7811
906.038	7947
906.155	7792
906.272	7738
906.389	7765
906.506	7632
906.623	7670
906.74	7639
906.857	7563
906.974	7601
907.091	7639
907.208	7769
907.324	7689
907.441	7624
907.557	7453
907.674	7457
907.79	7449
907.907	7400
908.023	7434
908.139	7506
908.256	7369
908.372	7400
908.488	7293
908.604	7236
908.72	7232
908.836	7247
908.952	7266
909.068	7247
909.184	7305
909.3	7259
909.415	7270
909.531	7316
909.647	7133
909.762	7126
909.878	7107
909.993	7145
910.108	7099
910.224	7095
910.339	7133
910.454	7019
910.57	7008
910.685	6935
910.8	7171
910.915	7164
911.03	7046
911.145	6954
911.259	6913
911.374	6840
911.489	6844
911.604	6859
911.718	6760
911.833	6662
911.947	6719
912.062	6604
912.176	6768
912.291	6696
912.405	6692
912.519	6859
912.633	6875
912.748	6726
912.862	6726
912.976	6715
913.09	6559
913.204	6582
913.318	6642
913.431	6730
913.545	6696
913.659	6745
913.772	6658
913.886	6593
914	6498
914.113	6612
914.226	6616
914.34	6646
914.453	6517
914.566	6540
914.68	6547
914.793	6513
914.906	6464
915.019	6441
915.132	6380
915.245	6414
915.358	6513
915.47	6448
915.583	6494
915.696	6429
915.809	6544
915.921	6544
916.034	6464
916.146	6433
916.259	6380
916.371	6483
916.483	6471
916.595	6395
916.708	6407
916.82	6338
916.932	6361
917.044	6410
917.156	6448
917.268	6296
917.38	6346
917.491	6319
917.603	6407
917.715	6380
917.826	6433
917.938	6369
918.049	6254
918.161	6372
918.272	6338
918.384	6448
918.495	6289
918.606	6270
918.717	6247
918.828	6331
918.939	6239
919.05	6171
919.161	6228
919.272	6121
919.383	6186
919.494	6338
919.604	6475
919.715	6315
919.826	6163
919.936	6300
920.047	6422
920.157	6334
920.267	6448
920.378	6270
920.488	6308
920.598	6467
920.708	6582
920.818	6502
920.928	6483
921.038	6578
921.148	6612
921.258	6350
921.368	6350
921.477	6232
921.587	6167
921.697	6087
921.806	6163
921.916	6079
922.025	5973
922.134	5904
922.244	5897
922.353	5992
922.462	5821
922.571	5824
922.68	5733
922.789	5748
922.898	5745
923.007	5619
923.116	5722
923.224	5748
923.333	5668
923.442	5608
923.55	5585
923.659	5630
923.767	5611
923.876	5600
923.984	5600
924.092	5535
924.201	5577
924.309	5600
924.417	5592
924.525	5562
924.633	5551
924.741	6159
924.849	5326
924.956	5471
925.064	5349
925.172	5357
925.279	5326
925.387	5368
925.494	5322
925.602	5398
925.709	5444
925.816	5280
925.924	5341
926.031	5357
926.138	5353
926.245	5364
926.352	5246
926.459	5360
926.566	5398
926.673	5189
926.779	5159
926.886	5121
926.993	5045
927.099	4991
927.206	4972
927.312	4965
927.419	4968
927.525	4953
927.631	4984
927.737	4942
927.843	4896
927.95	4805
928.056	4812
928.162	4835
928.267	4889
928.373	5265
928.479	4885
928.585	4694
928.69	4763
928.796	4774
928.901	4725
929.007	4618
929.112	4710
929.218	4687
929.323	4649
929.428	4626
929.533	4660
929.638	4550
929.743	4554
929.848	4565
929.953	4527
930.058	4508
930.163	4367
930.267	4303
930.372	4478
930.477	4329
930.581	4504
930.685	4413
930.79	4257
930.894	4333
930.998	4295
931.103	4424
931.207	4128
931.311	4143
931.415	4036
931.519	3941
931.623	3972
