Data from glass_V78500241_1136.txt Node
Date: Wed Sep 01 19:22:22 CST 2021
User: usil
Spectrometer: V785-0024
Trigger mode: 0
Integration Time (sec): 4.000000E-1
Scans to average: 1
Nonlinearity correction enabled: false
Boxcar width: 0
Storing dark spectrum: false
XAxis mode: Wavelengths
Number of Pixels in Spectrum: 1024
>>>>>Begin Spectral Data<<<<<
801.071	3713
801.214	3755
801.356	3747
801.499	3766
801.641	3781
801.783	3778
801.926	3869
802.068	3819
802.211	3869
802.353	3899
802.496	3808
802.638	3876
802.78	3915
802.923	3949
803.065	3911
803.208	3876
803.35	3899
803.492	3915
803.635	3937
803.777	3812
803.919	3892
804.061	4112
804.204	3911
804.346	3941
804.488	3915
804.63	4055
804.773	3968
804.915	4032
805.057	4166
805.199	4021
805.341	4131
805.483	4162
805.626	4150
805.768	4112
805.91	4246
806.052	4196
806.194	4234
806.336	4333
806.478	4215
806.62	4147
806.762	4215
806.904	4272
807.046	4348
807.188	4215
807.33	4192
807.472	4253
807.614	4196
807.756	4249
807.898	4238
808.04	4238
808.182	4284
808.324	4322
808.465	4379
808.607	4489
808.749	4497
808.891	4470
809.033	4485
809.174	4447
809.316	4257
809.458	4249
809.6	4162
809.741	4162
809.883	4158
810.025	4238
810.166	4227
810.308	4196
810.45	4234
810.591	4272
810.733	4253
810.875	4542
811.016	4881
811.158	5147
811.299	5258
811.441	5334
811.582	5014
811.724	4755
811.865	4470
812.007	4493
812.148	4451
812.29	4417
812.431	4421
812.573	4394
812.714	4409
812.855	4462
812.997	4394
813.138	4481
813.279	4390
813.421	4428
813.562	4363
813.703	4363
813.845	4367
813.986	4299
814.127	4238
814.268	4276
814.41	4318
814.551	4284
814.692	4299
814.833	4246
814.974	4299
815.115	4341
815.256	4253
815.397	4227
815.539	4261
815.68	4242
815.821	4188
815.962	4310
816.103	4322
816.244	4276
816.385	4227
816.526	4276
816.666	4265
816.807	4071
816.948	4135
817.089	4188
817.23	4109
817.371	4078
817.512	4097
817.653	4025
817.793	4032
817.934	4036
818.075	4090
818.216	4051
818.356	4116
818.497	3987
818.638	3972
818.778	3884
818.919	3915
819.06	3884
819.2	3953
819.341	3857
819.481	3816
819.622	3926
819.762	4029
819.903	4010
820.043	3907
820.184	3854
820.324	3850
820.465	3934
820.605	3857
820.746	3907
820.886	3808
821.026	3922
821.167	3960
821.307	3964
821.447	3964
821.588	3911
821.728	3994
821.868	3934
822.008	3846
822.149	3937
822.289	3953
822.429	3793
822.569	3793
822.709	3778
822.849	3694
822.99	3724
823.13	3797
823.27	3797
823.41	3755
823.55	3778
823.69	3751
823.83	3728
823.97	3690
824.11	3648
824.25	3625
824.389	3682
824.529	3667
824.669	3652
824.809	3663
824.949	3751
825.089	3713
825.228	3736
825.368	3576
825.508	3564
825.648	3584
825.787	3633
825.927	3663
826.067	3625
826.206	3667
826.346	3800
826.485	3831
826.625	3892
826.765	3968
826.904	3812
827.044	3644
827.183	3545
827.323	3431
827.462	3473
827.601	3409
827.741	3439
827.88	3504
828.02	3409
828.159	3454
828.298	3530
828.437	3545
828.577	3485
828.716	3618
828.855	3488
828.994	3401
829.134	3370
829.273	3405
829.412	3351
829.551	3332
829.69	3355
829.829	3412
829.968	3511
830.107	3450
830.246	3458
830.385	3367
830.524	3351
830.663	3325
830.802	3253
830.941	3237
831.08	3184
831.219	3283
831.357	3283
831.496	3374
831.635	3260
831.774	3207
831.913	3203
832.051	3161
832.19	3180
832.329	3226
832.467	3127
832.606	3119
832.744	3226
832.883	3154
833.022	3176
833.16	3298
833.299	3313
833.437	3389
833.576	3370
833.714	3389
833.852	3439
833.991	3401
834.129	3477
834.267	3466
834.406	3405
834.544	3386
834.682	3405
834.821	3454
834.959	3587
835.097	3409
835.235	3511
835.373	3450
835.511	3534
835.65	3435
835.788	3454
835.926	3382
836.064	3386
836.202	3409
836.34	3561
836.478	3599
836.615	3542
836.753	3641
836.891	3633
837.029	3599
837.167	3580
837.305	3561
837.443	3572
837.58	3519
837.718	3584
837.856	3599
837.993	3534
838.131	3580
838.269	3591
838.406	3564
838.544	3610
838.681	3488
838.819	3477
838.956	3348
839.094	3393
839.231	3454
839.369	3534
839.506	3747
839.643	3614
839.781	3454
839.918	3477
840.055	3511
840.193	3580
840.33	3526
840.467	3549
840.604	3599
840.742	3747
840.879	3542
841.016	3553
841.153	3591
841.29	3751
841.427	3698
841.564	3713
841.701	3751
841.838	3705
841.975	3682
842.112	3720
842.249	3614
842.385	3633
842.522	3838
842.659	3698
842.796	3690
842.933	3717
843.069	3709
843.206	3724
843.343	3857
843.479	3785
843.616	3831
843.752	3667
843.889	3663
844.025	3838
844.162	3747
844.298	3846
844.435	3797
844.571	3797
844.708	3922
844.844	4029
844.98	4071
845.117	4006
845.253	3915
845.389	3922
845.525	3998
845.661	4017
845.798	3949
845.934	4032
846.07	3987
846.206	4044
846.342	4131
846.478	4048
846.614	3972
846.75	3922
846.886	3922
847.022	3979
847.158	3991
847.294	3998
847.429	4010
847.565	4010
847.701	4207
847.837	3899
847.972	3888
848.108	3975
848.244	3953
848.379	3850
848.515	3846
848.65	3804
848.786	3831
848.921	3888
849.057	3968
849.192	3945
849.328	3876
849.463	3926
849.598	3915
849.734	3876
849.869	3857
850.004	3793
850.14	3770
850.275	3766
850.41	3717
850.545	3789
850.68	3816
850.815	3823
850.95	3785
851.085	3934
851.22	3896
851.355	3835
851.49	3816
851.625	3816
851.76	3755
851.895	3755
852.03	3728
852.165	3812
852.299	3846
852.434	3907
852.569	3888
852.703	3918
852.838	3949
852.973	4029
853.107	3994
853.242	3907
853.376	3865
853.511	3816
853.645	3831
853.78	3975
853.914	3846
854.048	3934
854.183	3915
854.317	3945
854.451	4036
854.585	3972
854.72	3941
854.854	4063
854.988	3953
855.122	4059
855.256	3899
855.39	4032
855.524	4135
855.658	4097
855.792	4109
855.926	4143
856.06	4169
856.194	4204
856.327	4188
856.461	4135
856.595	4188
856.729	4166
856.862	4268
856.996	4246
857.13	4295
857.263	4379
857.397	4383
857.53	4280
857.664	4363
857.797	4402
857.931	4474
858.064	4405
858.197	4481
858.331	4421
858.464	4371
858.597	4348
858.731	4447
858.864	4451
858.997	4436
859.13	4542
859.263	4527
859.396	4561
859.529	4512
859.662	4512
859.795	4527
859.928	4565
860.061	4729
860.194	4782
860.327	4675
860.46	4668
860.592	4736
860.725	4736
860.858	4805
860.99	4675
861.123	4694
861.256	4656
861.388	4782
861.521	5410
861.653	4664
861.786	4706
861.918	4729
862.05	4820
862.183	4854
862.315	4885
862.447	4923
862.58	4923
862.712	4824
862.844	4793
862.976	4915
863.108	4877
863.24	5246
863.372	4862
863.504	4881
863.636	4911
863.768	4976
863.9	4946
864.032	4923
864.164	4961
864.296	5045
864.428	5128
864.559	5140
864.691	5143
864.823	5083
864.954	5113
865.086	5132
865.217	5128
865.349	5151
865.48	5220
865.612	5201
865.743	5318
865.875	5231
866.006	5204
866.137	5216
866.269	5231
866.4	5273
866.531	5208
866.662	5261
866.793	5231
866.924	5296
867.055	5376
867.186	5318
867.317	5357
867.448	5326
867.579	5383
867.71	5353
867.841	5406
867.972	5501
868.103	5414
868.233	5478
868.364	5501
868.495	5524
868.625	5760
868.756	5840
868.886	5661
869.017	5710
869.147	5878
869.278	5901
869.408	5783
869.539	5832
869.669	5920
869.799	5942
869.929	5958
870.06	5977
870.19	6152
870.32	6194
870.45	6266
870.58	6353
870.71	6429
870.84	6509
870.97	6471
871.1	6471
871.23	6684
871.36	6715
871.489	6711
871.619	6741
871.749	6837
871.879	6875
872.008	7046
872.138	6985
872.267	7008
872.397	6935
872.526	7065
872.656	7057
872.785	7190
872.915	7430
873.044	7544
873.173	7597
873.303	7609
873.432	7780
873.561	7921
873.69	7883
873.819	8092
873.948	8138
874.077	8248
874.206	8385
874.335	8476
874.464	8659
874.593	8819
874.722	8925
874.851	9093
874.979	9272
875.108	9386
875.237	9370
875.365	9420
875.494	9709
875.623	9854
875.751	9846
875.88	9991
876.008	10169
876.136	10204
876.265	10565
876.393	10752
876.521	10740
876.65	10831
876.778	10839
876.906	10942
877.034	11010
877.162	11105
877.29	11216
877.418	11337
877.546	11372
877.674	11471
877.802	11425
877.93	11547
878.058	11615
878.185	11615
878.313	11642
878.441	11752
878.568	11741
878.696	11794
878.824	11866
878.951	11923
879.079	12011
879.206	12171
879.333	11992
879.461	11965
879.588	12095
879.715	12125
879.842	12205
879.97	12045
880.097	11870
880.224	11908
880.351	11874
880.478	11821
880.605	11843
880.732	11889
880.859	11999
880.986	11786
881.112	11927
881.239	11699
881.366	11699
881.493	11672
881.619	11619
881.746	11596
881.872	11596
881.999	11608
882.125	11478
882.252	11547
882.378	11539
882.505	11539
882.631	11433
882.757	11360
882.883	11391
883.01	11326
883.136	11155
883.262	11136
883.388	11048
883.514	11201
883.64	11132
883.766	11193
883.892	11018
884.018	10972
884.143	10995
884.269	11170
884.395	10782
884.52	10740
884.646	10763
884.772	10725
884.897	10736
885.023	10683
885.148	10656
885.274	10714
885.399	10736
885.524	10630
885.65	10554
885.775	10634
885.9	10596
886.025	10588
886.15	10603
886.275	10440
886.4	10421
886.525	10428
886.65	10379
886.775	10375
886.9	10440
887.025	10531
887.149	10337
887.274	10246
887.399	10211
887.523	10207
887.648	10207
887.773	10093
887.897	10200
888.021	10268
888.146	10169
888.27	10261
888.395	10215
888.519	10200
888.643	10188
888.767	10162
888.891	10105
889.015	9975
889.139	10059
889.263	9911
889.387	10154
889.511	10059
889.635	10097
889.759	10002
889.883	10025
890.006	10071
890.13	10101
890.254	9983
890.377	9979
890.501	9854
890.624	9953
890.748	9934
890.871	9827
890.995	9720
891.118	9755
891.241	9740
891.364	9713
891.488	9876
891.611	9736
891.734	9808
891.857	9778
891.98	9751
892.103	9717
892.226	9747
892.349	9690
892.471	9584
892.594	9587
892.717	9614
892.839	9622
892.962	9644
893.085	9698
893.207	9595
893.33	9504
893.452	9500
893.575	9530
893.697	9496
893.819	9625
893.941	9580
894.064	9671
894.186	9447
894.308	9435
894.43	9496
894.552	9557
894.674	9515
894.796	9412
894.918	9348
895.04	9405
895.161	9431
895.283	9291
895.405	9260
895.526	9283
895.648	9226
895.769	9233
895.891	9275
896.012	9310
896.134	9306
896.255	9154
896.376	9150
896.498	9173
896.619	9135
896.74	9043
896.861	9104
896.982	9249
897.103	9348
897.224	9123
897.345	9085
897.466	9032
897.587	9036
897.708	9097
897.828	9055
897.949	8979
898.07	8887
898.19	8937
898.311	9070
898.431	8864
898.552	8979
898.672	8960
898.792	8979
898.913	8838
899.033	8857
899.153	8785
899.273	8659
899.393	8716
899.513	8750
899.633	8762
899.753	8762
899.873	8758
899.993	8762
900.113	8701
900.232	8716
900.352	8716
900.472	8686
900.591	8560
900.711	8590
900.83	8575
900.95	8625
901.069	8579
901.189	8560
901.308	8473
901.427	8442
901.546	8465
901.665	8541
901.784	8511
901.904	8377
902.023	8282
902.141	8164
902.26	8206
902.379	8294
902.498	8256
902.617	8202
902.735	8244
902.854	8271
902.973	8332
903.091	8130
903.21	8073
903.328	8119
903.446	8069
903.565	8142
903.683	8138
903.801	8084
903.919	8088
904.038	8134
904.156	8031
904.274	8043
904.392	8058
904.51	8077
904.627	8103
904.745	8065
904.863	8107
904.981	7947
905.098	7879
905.216	7879
905.334	7978
905.451	7879
905.569	7871
905.686	7928
905.803	7947
905.921	7757
906.038	7913
906.155	7814
906.272	7658
906.389	7693
906.506	7666
906.623	7624
906.74	7594
906.857	7548
906.974	7533
907.091	7681
907.208	7769
907.324	7708
907.441	7495
907.557	7457
907.674	7499
907.79	7449
907.907	7434
908.023	7495
908.139	7430
908.256	7365
908.372	7415
908.488	7316
908.604	7221
908.72	7263
908.836	7270
908.952	7270
909.068	7255
909.184	7316
909.3	7373
909.415	7301
909.531	7324
909.647	7141
909.762	7206
909.878	7103
909.993	7122
910.108	7084
910.224	7042
910.339	7149
910.454	7046
910.57	7008
910.685	6954
910.8	7183
910.915	7065
911.03	7133
911.145	6890
911.259	6894
911.374	6981
911.489	6878
911.604	6798
911.718	6749
911.833	6726
911.947	6703
912.062	6620
912.176	6745
912.291	6741
912.405	6741
912.519	6818
912.633	6840
912.748	6745
912.862	6760
912.976	6623
913.09	6532
913.204	6627
913.318	6620
913.431	6707
913.545	6684
913.659	6779
913.772	6650
913.886	6623
914	6589
914.113	6551
914.226	6654
914.34	6608
914.453	6494
914.566	6650
914.68	6555
914.793	6544
914.906	6376
915.019	6448
915.132	6357
915.245	6441
915.358	6441
915.47	6521
915.583	6502
915.696	6494
915.809	6574
915.921	6574
916.034	6437
916.146	6422
916.259	6376
916.371	6464
916.483	6479
916.595	6391
916.708	6403
916.82	6407
916.932	6445
917.044	6388
917.156	6407
917.268	6289
917.38	6346
917.491	6323
917.603	6346
917.715	6395
917.826	6418
917.938	6296
918.049	6209
918.161	6357
918.272	6448
918.384	6334
918.495	6350
918.606	6273
918.717	6228
918.828	6285
918.939	6270
919.05	6190
919.161	6292
919.272	6167
919.383	6167
919.494	6342
919.604	6452
919.715	6323
919.826	6167
919.936	6296
920.047	6338
920.157	6289
920.267	6502
920.378	6334
920.488	6323
920.598	6517
920.708	6544
920.818	6407
920.928	6441
921.038	6623
921.148	6593
921.258	6338
921.368	6277
921.477	6224
921.587	6194
921.697	6064
921.806	6182
921.916	6098
922.025	5958
922.134	5980
922.244	5954
922.353	5942
922.462	5878
922.571	5798
922.68	5745
922.789	5729
922.898	5718
923.007	5665
923.116	5722
923.224	5703
923.333	5695
923.442	5657
923.55	5596
923.659	5581
923.767	5649
923.876	5615
923.984	5634
924.092	5528
924.201	5585
924.309	5520
924.417	5570
924.525	5497
924.633	5501
924.741	6308
924.849	5425
924.956	5505
925.064	5345
925.172	5322
925.279	5337
925.387	5345
925.494	5349
925.602	5391
925.709	5406
925.816	5303
925.924	5326
926.031	5353
926.138	5254
926.245	5299
926.352	5185
926.459	5341
926.566	5341
926.673	5223
926.779	5204
926.886	5086
926.993	5029
927.099	5018
927.206	4972
927.312	5041
927.419	4987
927.525	4961
927.631	4980
927.737	4934
927.843	4862
927.95	4786
928.056	4824
928.162	4892
928.267	4873
928.373	5330
928.479	4858
928.585	4683
928.69	4767
928.796	4778
928.901	4683
929.007	4622
929.112	4706
929.218	4615
929.323	4634
929.428	4580
929.533	4626
929.638	4546
929.743	4538
929.848	4573
929.953	4497
930.058	4447
930.163	4325
930.267	4352
930.372	4440
930.477	4325
930.581	4474
930.685	4394
930.79	4276
930.894	4310
930.998	4234
931.103	4421
931.207	4124
931.311	4128
931.415	4086
931.519	3937
931.623	3918
