Data from glass_V78500241_734.txt Node
Date: Wed Sep 01 19:19:35 CST 2021
User: usil
Spectrometer: V785-0024
Trigger mode: 0
Integration Time (sec): 4.000000E-1
Scans to average: 1
Nonlinearity correction enabled: false
Boxcar width: 0
Storing dark spectrum: false
XAxis mode: Wavelengths
Number of Pixels in Spectrum: 1024
>>>>>Begin Spectral Data<<<<<
801.071	3755
801.214	3774
801.356	3736
801.499	3766
801.641	3740
801.783	3797
801.926	3869
802.068	3831
802.211	3835
802.353	3892
802.496	3808
802.638	3907
802.78	3873
802.923	3892
803.065	3896
803.208	3861
803.35	3915
803.492	3934
803.635	3880
803.777	3873
803.919	3861
804.061	4143
804.204	3945
804.346	3968
804.488	3968
804.63	4032
804.773	3975
804.915	4044
805.057	4150
805.199	4055
805.341	4074
805.483	4173
805.626	4166
805.768	4109
805.91	4215
806.052	4242
806.194	4223
806.336	4363
806.478	4230
806.62	4173
806.762	4211
806.904	4291
807.046	4344
807.188	4234
807.33	4234
807.472	4268
807.614	4223
807.756	4272
807.898	4280
808.04	4227
808.182	4318
808.324	4333
808.465	4402
808.607	4459
808.749	4531
808.891	4466
809.033	4531
809.174	4413
809.316	4246
809.458	4246
809.6	4150
809.741	4158
809.883	4169
810.025	4215
810.166	4192
810.308	4230
810.45	4211
810.591	4238
810.733	4265
810.875	4497
811.016	4824
811.158	5147
811.299	5318
811.441	5273
811.582	5071
811.724	4736
811.865	4493
812.007	4459
812.148	4421
812.29	4417
812.431	4432
812.573	4386
812.714	4371
812.855	4424
812.997	4409
813.138	4497
813.279	4455
813.421	4424
813.562	4417
813.703	4367
813.845	4386
813.986	4238
814.127	4276
814.268	4249
814.41	4253
814.551	4303
814.692	4329
814.833	4276
814.974	4276
815.115	4333
815.256	4257
815.397	4223
815.539	4284
815.68	4188
815.821	4238
815.962	4348
816.103	4306
816.244	4219
816.385	4230
816.526	4268
816.666	4196
816.807	4105
816.948	4169
817.089	4177
817.23	4128
817.371	4063
817.512	4063
817.653	4109
817.793	4059
817.934	4029
818.075	4124
818.216	4101
818.356	4082
818.497	4002
818.638	3968
818.778	3964
818.919	3915
819.06	3850
819.2	3960
819.341	3918
819.481	3850
819.622	3922
819.762	4032
819.903	3987
820.043	3880
820.184	3869
820.324	3831
820.465	3846
820.605	3896
820.746	3884
820.886	3808
821.026	3953
821.167	3937
821.307	3998
821.447	4002
821.588	4002
821.728	3953
821.868	3964
822.008	3892
822.149	3918
822.289	3949
822.429	3774
822.569	3800
822.709	3823
822.849	3698
822.99	3747
823.13	3808
823.27	3816
823.41	3713
823.55	3770
823.69	3732
823.83	3800
823.97	3701
824.11	3580
824.25	3587
824.389	3637
824.529	3652
824.669	3656
824.809	3743
824.949	3759
825.089	3778
825.228	3694
825.368	3622
825.508	3568
825.648	3587
825.787	3603
825.927	3633
826.067	3599
826.206	3698
826.346	3816
826.485	3842
826.625	3892
826.765	3945
826.904	3896
827.044	3629
827.183	3557
827.323	3447
827.462	3511
827.601	3443
827.741	3466
827.88	3485
828.02	3382
828.159	3492
828.298	3545
828.437	3538
828.577	3469
828.716	3641
828.855	3530
828.994	3386
829.134	3412
829.273	3424
829.412	3359
829.551	3302
829.69	3355
829.829	3447
829.968	3511
830.107	3443
830.246	3477
830.385	3393
830.524	3382
830.663	3329
830.802	3268
830.941	3207
831.08	3237
831.219	3306
831.357	3291
831.496	3431
831.635	3256
831.774	3218
831.913	3218
832.051	3173
832.19	3142
832.329	3226
832.467	3146
832.606	3127
832.744	3203
832.883	3188
833.022	3180
833.16	3317
833.299	3287
833.437	3329
833.576	3370
833.714	3435
833.852	3504
833.991	3466
834.129	3488
834.267	3435
834.406	3435
834.544	3443
834.682	3435
834.821	3443
834.959	3599
835.097	3443
835.235	3549
835.373	3519
835.511	3507
835.65	3469
835.788	3492
835.926	3401
836.064	3382
836.202	3409
836.34	3648
836.478	3610
836.615	3557
836.753	3584
836.891	3652
837.029	3656
837.167	3580
837.305	3584
837.443	3542
837.58	3542
837.718	3610
837.856	3564
837.993	3572
838.131	3572
838.269	3622
838.406	3591
838.544	3564
838.681	3515
838.819	3488
838.956	3393
839.094	3409
839.231	3450
839.369	3545
839.506	3766
839.643	3622
839.781	3504
839.918	3469
840.055	3511
840.193	3511
840.33	3545
840.467	3568
840.604	3614
840.742	3854
840.879	3526
841.016	3564
841.153	3606
841.29	3774
841.427	3694
841.564	3732
841.701	3762
841.838	3713
841.975	3652
842.112	3713
842.249	3641
842.385	3641
842.522	3827
842.659	3698
842.796	3641
842.933	3694
843.069	3701
843.206	3720
843.343	3831
843.479	3759
843.616	3838
843.752	3679
843.889	3682
844.025	3884
844.162	3728
844.298	3861
844.435	3808
844.571	3816
844.708	3892
844.844	4036
844.98	3991
845.117	3983
845.253	3930
845.389	3880
845.525	3975
845.661	4002
845.798	3903
845.934	4021
846.07	3979
846.206	4051
846.342	4116
846.478	4048
846.614	3994
846.75	3937
846.886	3949
847.022	4074
847.158	3972
847.294	4055
847.429	4032
847.565	3994
847.701	4268
847.837	3896
847.972	3918
848.108	4021
848.244	3972
848.379	3857
848.515	3781
848.65	3812
848.786	3861
848.921	3949
849.057	3899
849.192	3960
849.328	3926
849.463	3926
849.598	3896
849.734	3861
849.869	3869
850.004	3774
850.14	3800
850.275	3789
850.41	3724
850.545	3781
850.68	3755
850.815	3831
850.95	3804
851.085	3903
851.22	3888
851.355	3819
851.49	3800
851.625	3831
851.76	3797
851.895	3770
852.03	3728
852.165	3789
852.299	3850
852.434	3918
852.569	3865
852.703	3907
852.838	3918
852.973	4017
853.107	4025
853.242	3884
853.376	3884
853.511	3819
853.645	3880
853.78	4013
853.914	3899
854.048	3903
854.183	3896
854.317	3972
854.451	4055
854.585	3975
854.72	3953
854.854	4051
854.988	3956
855.122	4029
855.256	3972
855.39	4021
855.524	4097
855.658	4093
855.792	4116
855.926	4169
856.06	4185
856.194	4223
856.327	4131
856.461	4158
856.595	4162
856.729	4181
856.862	4268
856.996	4230
857.13	4268
857.263	4318
857.397	4363
857.53	4314
857.664	4352
857.797	4447
857.931	4481
858.064	4409
858.197	4474
858.331	4402
858.464	4417
858.597	4367
858.731	4428
858.864	4493
858.997	4447
859.13	4531
859.263	4542
859.396	4588
859.529	4523
859.662	4554
859.795	4535
859.928	4615
860.061	4717
860.194	4717
860.327	4672
860.46	4656
860.592	4736
860.725	4774
860.858	4778
860.99	4656
861.123	4710
861.256	4740
861.388	4782
861.521	5368
861.653	4740
861.786	4702
861.918	4752
862.05	4847
862.183	4873
862.315	4889
862.447	4949
862.58	4927
862.712	4820
862.844	4778
862.976	4870
863.108	4866
863.24	5254
863.372	4824
863.504	4938
863.636	4915
863.768	4991
863.9	4968
864.032	4953
864.164	4938
864.296	5090
864.428	5128
864.559	5128
864.691	5109
864.823	5170
864.954	5083
865.086	5102
865.217	5143
865.349	5102
865.48	5181
865.612	5223
865.743	5307
865.875	5208
866.006	5170
866.137	5242
866.269	5212
866.4	5235
866.531	5280
866.662	5284
866.793	5273
866.924	5277
867.055	5376
867.186	5364
867.317	5334
867.448	5315
867.579	5360
867.71	5387
867.841	5398
867.972	5448
868.103	5501
868.233	5474
868.364	5497
868.495	5501
868.625	5630
868.756	5794
868.886	5710
869.017	5752
869.147	5908
869.278	5878
869.408	5840
869.539	5832
869.669	5901
869.799	5961
869.929	5942
870.06	6049
870.19	6175
870.32	6186
870.45	6273
870.58	6334
870.71	6437
870.84	6429
870.97	6460
871.1	6433
871.23	6650
871.36	6692
871.489	6684
871.619	6760
871.749	6856
871.879	6909
872.008	6970
872.138	6951
872.267	7012
872.397	6993
872.526	7107
872.656	7099
872.785	7175
872.915	7346
873.044	7552
873.173	7575
873.303	7643
873.432	7738
873.561	7841
873.69	7856
873.819	8058
873.948	8176
874.077	8286
874.206	8339
874.335	8434
874.464	8697
874.593	8872
874.722	8918
874.851	9180
874.979	9306
875.108	9393
875.237	9462
875.365	9420
875.494	9644
875.623	9869
875.751	9899
875.88	10055
876.008	10109
876.136	10253
876.265	10519
876.393	10774
876.521	10759
876.65	10820
876.778	10915
876.906	10881
877.034	11052
877.162	11094
877.29	11124
877.418	11216
877.546	11414
877.674	11425
877.802	11532
877.93	11566
878.058	11623
878.185	11566
878.313	11615
878.441	11767
878.568	11756
878.696	11897
878.824	11920
878.951	11901
879.079	11958
879.206	12197
879.333	12091
879.461	12022
879.588	12133
879.715	12038
879.842	12251
879.97	12072
880.097	11866
880.224	11996
880.351	11779
880.478	11931
880.605	11843
880.732	11805
880.859	11893
880.986	11920
881.112	11824
881.239	11748
881.366	11661
881.493	11627
881.619	11509
881.746	11638
881.872	11551
881.999	11455
882.125	11532
882.252	11592
882.378	11516
882.505	11634
882.631	11376
882.757	11292
882.883	11372
883.01	11360
883.136	11105
883.262	11094
883.388	11140
883.514	11189
883.64	11140
883.766	11124
883.892	11132
884.018	11010
884.143	11147
884.269	11170
884.395	10869
884.52	10843
884.646	10797
884.772	10782
884.897	10679
885.023	10714
885.148	10710
885.274	10725
885.399	10748
885.524	10603
885.65	10611
885.775	10599
885.9	10531
886.025	10592
886.15	10569
886.275	10459
886.4	10451
886.525	10436
886.65	10432
886.775	10382
886.9	10542
887.025	10542
887.149	10363
887.274	10227
887.399	10367
887.523	10185
887.648	10181
887.773	10048
887.897	10219
888.021	10196
888.146	10185
888.27	10257
888.395	10169
888.519	10249
888.643	10177
888.767	10173
888.891	10147
889.015	9998
889.139	10105
889.263	9987
889.387	10078
889.511	10154
889.635	10048
889.759	10021
889.883	10036
890.006	10017
890.13	10128
890.254	9979
890.377	10010
890.501	9854
890.624	9922
890.748	9926
890.871	9747
890.995	9800
891.118	9755
891.241	9793
891.364	9759
891.488	9850
891.611	9778
891.734	9732
891.857	9819
891.98	9762
892.103	9778
892.226	9774
892.349	9690
892.471	9557
892.594	9526
892.717	9656
892.839	9507
892.962	9610
893.085	9701
893.207	9622
893.33	9519
893.452	9492
893.575	9606
893.697	9507
893.819	9568
893.941	9686
894.064	9652
894.186	9389
894.308	9515
894.43	9488
894.552	9553
894.674	9485
894.796	9454
894.918	9370
895.04	9386
895.161	9393
895.283	9351
895.405	9211
895.526	9264
895.648	9214
895.769	9211
895.891	9256
896.012	9321
896.134	9218
896.255	9161
896.376	9195
896.498	9180
896.619	9165
896.74	9005
896.861	9173
896.982	9332
897.103	9287
897.224	9157
897.345	9055
897.466	8994
897.587	9081
897.708	9116
897.828	8990
897.949	8990
898.07	8864
898.19	8979
898.311	8971
898.431	8963
898.552	8914
898.672	8948
898.792	8891
898.913	8937
899.033	8800
899.153	8716
899.273	8678
899.393	8766
899.513	8811
899.633	8731
899.753	8731
899.873	8693
899.993	8735
900.113	8686
900.232	8727
900.352	8712
900.472	8621
900.591	8556
900.711	8606
900.83	8541
900.95	8766
901.069	8724
901.189	8568
901.308	8427
901.427	8404
901.546	8469
901.665	8476
901.784	8530
901.904	8400
902.023	8332
902.141	8259
902.26	8142
902.379	8263
902.498	8233
902.617	8199
902.735	8328
902.854	8256
902.973	8233
903.091	8134
903.21	8142
903.328	8183
903.446	8107
903.565	8062
903.683	8172
903.801	8031
903.919	8111
904.038	8180
904.156	8020
904.274	8088
904.392	8054
904.51	7970
904.627	8081
904.745	8081
904.863	8058
904.981	7967
905.098	7909
905.216	7879
905.334	7967
905.451	7955
905.569	7894
905.686	7913
905.803	7963
905.921	7856
906.038	7909
906.155	7868
906.272	7712
906.389	7658
906.506	7655
906.623	7708
906.74	7689
906.857	7552
906.974	7624
907.091	7601
907.208	7708
907.324	7685
907.441	7514
907.557	7464
907.674	7464
907.79	7415
907.907	7430
908.023	7407
908.139	7514
908.256	7457
908.372	7384
908.488	7426
908.604	7285
908.72	7282
908.836	7308
908.952	7327
909.068	7274
909.184	7343
909.3	7289
909.415	7305
909.531	7339
909.647	7107
909.762	7129
909.878	7122
909.993	7114
910.108	7129
910.224	7069
910.339	7145
910.454	7118
910.57	6962
910.685	6951
910.8	7160
910.915	7160
911.03	7008
911.145	6882
911.259	6943
911.374	6863
911.489	6791
911.604	6814
911.718	6726
911.833	6814
911.947	6650
912.062	6631
912.176	6700
912.291	6696
912.405	6688
912.519	6875
912.633	6840
912.748	6757
912.862	6715
912.976	6658
913.09	6555
913.204	6563
913.318	6642
913.431	6669
913.545	6684
913.659	6715
913.772	6627
913.886	6604
914	6604
914.113	6627
914.226	6639
914.34	6665
914.453	6445
914.566	6635
914.68	6544
914.793	6559
914.906	6483
915.019	6410
915.132	6319
915.245	6403
915.358	6422
915.47	6452
915.583	6471
915.696	6509
915.809	6566
915.921	6608
916.034	6467
916.146	6399
916.259	6376
916.371	6460
916.483	6486
916.595	6441
916.708	6433
916.82	6429
916.932	6426
917.044	6369
917.156	6369
917.268	6311
917.38	6331
917.491	6350
917.603	6357
917.715	6403
917.826	6426
917.938	6327
918.049	6308
918.161	6346
918.272	6395
918.384	6441
918.495	6342
918.606	6232
918.717	6232
918.828	6258
918.939	6292
919.05	6247
919.161	6273
919.272	6095
919.383	6190
919.494	6289
919.604	6426
919.715	6273
919.826	6247
919.936	6243
920.047	6342
920.157	6232
920.267	6464
920.378	6308
920.488	6235
920.598	6448
920.708	6566
920.818	6513
920.928	6532
921.038	6631
921.148	6525
921.258	6410
921.368	6323
921.477	6205
921.587	6155
921.697	6087
921.806	6205
921.916	6114
922.025	5965
922.134	5916
922.244	5889
922.353	5931
922.462	5828
922.571	5836
922.68	5733
922.789	5722
922.898	5752
923.007	5646
923.116	5726
923.224	5684
923.333	5646
923.442	5653
923.55	5604
923.659	5516
923.767	5600
923.876	5570
923.984	5570
924.092	5512
924.201	5547
924.309	5543
924.417	5585
924.525	5497
924.633	5528
924.741	6129
924.849	5368
924.956	5455
925.064	5383
925.172	5353
925.279	5303
925.387	5379
925.494	5318
925.602	5459
925.709	5433
925.816	5376
925.924	5391
926.031	5353
926.138	5280
926.245	5337
926.352	5216
926.459	5322
926.566	5368
926.673	5181
926.779	5185
926.886	5121
926.993	5056
927.099	5014
927.206	4957
927.312	4999
927.419	5052
927.525	4957
927.631	4995
927.737	4949
927.843	4809
927.95	4790
928.056	4847
928.162	4877
928.267	4835
928.373	5345
928.479	4809
928.585	4675
928.69	4809
928.796	4759
928.901	4714
929.007	4607
929.112	4683
929.218	4645
929.323	4618
929.428	4535
929.533	4668
929.638	4535
929.743	4546
929.848	4565
929.953	4531
930.058	4447
930.163	4314
930.267	4363
930.372	4455
930.477	4276
930.581	4497
930.685	4341
930.79	4276
930.894	4310
930.998	4204
931.103	4436
931.207	4093
931.311	4124
931.415	4071
931.519	3983
931.623	3956
