Data from glass_V78500241_1873.txt Node
Date: Wed Sep 01 19:27:29 CST 2021
User: usil
Spectrometer: V785-0024
Trigger mode: 0
Integration Time (sec): 4.000000E-1
Scans to average: 1
Nonlinearity correction enabled: false
Boxcar width: 0
Storing dark spectrum: false
XAxis mode: Wavelengths
Number of Pixels in Spectrum: 1024
>>>>>Begin Spectral Data<<<<<
801.071	3732
801.214	3759
801.356	3740
801.499	3732
801.641	3694
801.783	3789
801.926	3827
802.068	3823
802.211	3857
802.353	3899
802.496	3865
802.638	3896
802.78	3888
802.923	3907
803.065	3922
803.208	3873
803.35	3835
803.492	3903
803.635	3907
803.777	3781
803.919	3903
804.061	4154
804.204	3934
804.346	3930
804.488	3907
804.63	3987
804.773	4013
804.915	4032
805.057	4177
805.199	4090
805.341	4074
805.483	4116
805.626	4139
805.768	4078
805.91	4166
806.052	4207
806.194	4227
806.336	4344
806.478	4227
806.62	4158
806.762	4169
806.904	4238
807.046	4303
807.188	4215
807.33	4154
807.472	4223
807.614	4158
807.756	4211
807.898	4207
808.04	4219
808.182	4253
808.324	4344
808.465	4428
808.607	4443
808.749	4451
808.891	4447
809.033	4470
809.174	4344
809.316	4249
809.458	4249
809.6	4150
809.741	4143
809.883	4128
810.025	4158
810.166	4192
810.308	4215
810.45	4257
810.591	4230
810.733	4291
810.875	4497
811.016	4797
811.158	5102
811.299	5223
811.441	5273
811.582	5048
811.724	4694
811.865	4485
812.007	4470
812.148	4459
812.29	4478
812.431	4421
812.573	4375
812.714	4398
812.855	4421
812.997	4394
813.138	4519
813.279	4451
813.421	4402
813.562	4379
813.703	4318
813.845	4333
813.986	4276
814.127	4227
814.268	4272
814.41	4268
814.551	4249
814.692	4341
814.833	4272
814.974	4348
815.115	4322
815.256	4192
815.397	4185
815.539	4257
815.68	4162
815.821	4185
815.962	4333
816.103	4227
816.244	4249
816.385	4223
816.526	4287
816.666	4207
816.807	4082
816.948	4196
817.089	4169
817.23	4067
817.371	4063
817.512	4051
817.653	4078
817.793	4032
817.934	4044
818.075	4124
818.216	4067
818.356	4063
818.497	4002
818.638	3903
818.778	3907
818.919	3880
819.06	3854
819.2	3884
819.341	3823
819.481	3873
819.622	3934
819.762	4021
819.903	3937
820.043	3846
820.184	3846
820.324	3846
820.465	3842
820.605	3876
820.746	3835
820.886	3831
821.026	3953
821.167	3888
821.307	3972
821.447	3983
821.588	3949
821.728	3949
821.868	3945
822.008	3865
822.149	3892
822.289	3911
822.429	3812
822.569	3732
822.709	3808
822.849	3694
822.99	3720
823.13	3759
823.27	3774
823.41	3724
823.55	3736
823.69	3732
823.83	3740
823.97	3682
824.11	3603
824.25	3606
824.389	3606
824.529	3641
824.669	3622
824.809	3732
824.949	3770
825.089	3751
825.228	3701
825.368	3576
825.508	3564
825.648	3568
825.787	3595
825.927	3652
826.067	3610
826.206	3656
826.346	3778
826.485	3827
826.625	3861
826.765	3918
826.904	3831
827.044	3633
827.183	3553
827.323	3416
827.462	3488
827.601	3447
827.741	3431
827.88	3450
828.02	3348
828.159	3450
828.298	3447
828.437	3542
828.577	3454
828.716	3587
828.855	3469
828.994	3397
829.134	3325
829.273	3409
829.412	3374
829.551	3321
829.69	3389
829.829	3439
829.968	3553
830.107	3462
830.246	3420
830.385	3397
830.524	3359
830.663	3302
830.802	3268
830.941	3214
831.08	3146
831.219	3283
831.357	3226
831.496	3378
831.635	3264
831.774	3195
831.913	3218
832.051	3165
832.19	3142
832.329	3184
832.467	3119
832.606	3123
832.744	3150
832.883	3230
833.022	3184
833.16	3226
833.299	3298
833.437	3329
833.576	3329
833.714	3374
833.852	3462
833.991	3420
834.129	3488
834.267	3450
834.406	3412
834.544	3439
834.682	3431
834.821	3409
834.959	3572
835.097	3386
835.235	3580
835.373	3488
835.511	3485
835.65	3450
835.788	3477
835.926	3405
836.064	3355
836.202	3397
836.34	3580
836.478	3603
836.615	3545
836.753	3545
836.891	3633
837.029	3644
837.167	3576
837.305	3561
837.443	3545
837.58	3511
837.718	3591
837.856	3561
837.993	3507
838.131	3587
838.269	3584
838.406	3576
838.544	3557
838.681	3420
838.819	3454
838.956	3367
839.094	3367
839.231	3450
839.369	3500
839.506	3717
839.643	3591
839.781	3507
839.918	3504
840.055	3542
840.193	3511
840.33	3549
840.467	3538
840.604	3603
840.742	3785
840.879	3530
841.016	3584
841.153	3587
841.29	3717
841.427	3698
841.564	3694
841.701	3732
841.838	3671
841.975	3660
842.112	3694
842.249	3641
842.385	3625
842.522	3816
842.659	3751
842.796	3705
842.933	3709
843.069	3709
843.206	3656
843.343	3789
843.479	3774
843.616	3831
843.752	3671
843.889	3686
844.025	3907
844.162	3686
844.298	3861
844.435	3736
844.571	3800
844.708	3876
844.844	3956
844.98	4006
845.117	3945
845.253	3941
845.389	3911
845.525	3979
845.661	3975
845.798	3899
845.934	3994
846.07	3880
846.206	4063
846.342	4143
846.478	4044
846.614	3987
846.75	3915
846.886	3869
847.022	4040
847.158	3930
847.294	3987
847.429	4029
847.565	3968
847.701	4192
847.837	3888
847.972	3896
848.108	3979
848.244	3964
848.379	3846
848.515	3831
848.65	3819
848.786	3854
848.921	3880
849.057	3918
849.192	3937
849.328	3911
849.463	3869
849.598	3915
849.734	3907
849.869	3816
850.004	3816
850.14	3816
850.275	3812
850.41	3762
850.545	3751
850.68	3762
850.815	3785
850.95	3797
851.085	3956
851.22	3869
851.355	3850
851.49	3736
851.625	3812
851.76	3766
851.895	3736
852.03	3740
852.165	3785
852.299	3831
852.434	3903
852.569	3873
852.703	3861
852.838	3922
852.973	3998
853.107	3968
853.242	3880
853.376	3873
853.511	3774
853.645	3835
853.78	3991
853.914	3865
854.048	3888
854.183	3903
854.317	3907
854.451	4051
854.585	3949
854.72	3964
854.854	4017
854.988	3930
855.122	3994
855.256	3922
855.39	4010
855.524	4158
855.658	4071
855.792	4101
855.926	4093
856.06	4185
856.194	4185
856.327	4143
856.461	4143
856.595	4200
856.729	4154
856.862	4287
856.996	4227
857.13	4295
857.263	4348
857.397	4360
857.53	4265
857.664	4295
857.797	4379
857.931	4402
858.064	4386
858.197	4417
858.331	4402
858.464	4356
858.597	4348
858.731	4481
858.864	4459
858.997	4447
859.13	4478
859.263	4542
859.396	4569
859.529	4531
859.662	4516
859.795	4538
859.928	4622
860.061	4672
860.194	4744
860.327	4637
860.46	4645
860.592	4721
860.725	4778
860.858	4714
860.99	4733
861.123	4653
861.256	4721
861.388	4774
861.521	5417
861.653	4725
861.786	4702
861.918	4744
862.05	4797
862.183	4820
862.315	4866
862.447	4896
862.58	4889
862.712	4805
862.844	4778
862.976	4885
863.108	4877
863.24	5162
863.372	4782
863.504	4904
863.636	4870
863.768	4942
863.9	4927
864.032	4877
864.164	4915
864.296	4995
864.428	5086
864.559	5124
864.691	5117
864.823	5136
864.954	5181
865.086	5147
865.217	5113
865.349	5128
865.48	5159
865.612	5212
865.743	5288
865.875	5220
866.006	5170
866.137	5250
866.269	5292
866.4	5254
866.531	5250
866.662	5280
866.793	5288
866.924	5273
867.055	5341
867.186	5387
867.317	5299
867.448	5292
867.579	5337
867.71	5307
867.841	5379
867.972	5429
868.103	5448
868.233	5467
868.364	5471
868.495	5547
868.625	5688
868.756	5813
868.886	5657
869.017	5771
869.147	5859
869.278	5855
869.408	5786
869.539	5844
869.669	5961
869.799	5874
869.929	5958
870.06	5999
870.19	6178
870.32	6216
870.45	6228
870.58	6308
870.71	6372
870.84	6479
870.97	6391
871.1	6410
871.23	6669
871.36	6692
871.489	6635
871.619	6734
871.749	6764
871.879	6863
872.008	6985
872.138	6943
872.267	6939
872.397	7012
872.526	7031
872.656	7046
872.785	7187
872.915	7297
873.044	7518
873.173	7548
873.303	7616
873.432	7765
873.561	7868
873.69	7940
873.819	7974
873.948	8183
874.077	8259
874.206	8298
874.335	8484
874.464	8659
874.593	8800
874.722	8887
874.851	9112
874.979	9237
875.108	9340
875.237	9412
875.365	9454
875.494	9675
875.623	9876
875.751	9781
875.88	10059
876.008	10109
876.136	10276
876.265	10527
876.393	10641
876.521	10626
876.65	10843
876.778	10831
876.906	10862
877.034	10980
877.162	11041
877.29	11185
877.418	11299
877.546	11349
877.674	11421
877.802	11452
877.93	11471
878.058	11532
878.185	11646
878.313	11577
878.441	11729
878.568	11710
878.696	11832
878.824	11809
878.951	11977
879.079	12019
879.206	12155
879.333	12038
879.461	11954
879.588	12110
879.715	12053
879.842	12235
879.97	12049
880.097	11916
880.224	11836
880.351	11828
880.478	11824
880.605	11767
880.732	11798
880.859	12022
880.986	11805
881.112	11866
881.239	11771
881.366	11688
881.493	11558
881.619	11516
881.746	11547
881.872	11611
881.999	11577
882.125	11505
882.252	11615
882.378	11505
882.505	11600
882.631	11330
882.757	11364
882.883	11277
883.01	11231
883.136	11166
883.262	11117
883.388	11067
883.514	11128
883.64	11208
883.766	11140
883.892	11003
884.018	10999
884.143	11140
884.269	11052
884.395	10835
884.52	10698
884.646	10816
884.772	10714
884.897	10645
885.023	10744
885.148	10717
885.274	10698
885.399	10721
885.524	10630
885.65	10554
885.775	10554
885.9	10512
886.025	10538
886.15	10558
886.275	10459
886.4	10405
886.525	10382
886.65	10432
886.775	10310
886.9	10394
887.025	10554
887.149	10325
887.274	10261
887.399	10211
887.523	10097
887.648	10093
887.773	10162
887.897	10234
888.021	10230
888.146	10128
888.27	10253
888.395	10131
888.519	10173
888.643	10135
888.767	10219
888.891	9987
889.015	10059
889.139	10036
889.263	9915
889.387	10051
889.511	10162
889.635	10090
889.759	9968
889.883	10002
890.006	9960
890.13	10101
890.254	9930
890.377	9941
890.501	9850
890.624	9903
890.748	9915
890.871	9827
890.995	9709
891.118	9660
891.241	9774
891.364	9751
891.488	9778
891.611	9743
891.734	9732
891.857	9759
891.98	9759
892.103	9732
892.226	9698
892.349	9709
892.471	9534
892.594	9500
892.717	9656
892.839	9530
892.962	9603
893.085	9671
893.207	9599
893.33	9500
893.452	9496
893.575	9580
893.697	9454
893.819	9587
893.941	9633
894.064	9622
894.186	9420
894.308	9458
894.43	9515
894.552	9625
894.674	9526
894.796	9329
894.918	9370
895.04	9306
895.161	9408
895.283	9272
895.405	9249
895.526	9332
895.648	9272
895.769	9241
895.891	9279
896.012	9256
896.134	9199
896.255	9207
896.376	9207
896.498	9135
896.619	9127
896.74	9081
896.861	9081
896.982	9268
897.103	9344
897.224	9100
897.345	9077
897.466	8986
897.587	8971
897.708	9024
897.828	9070
897.949	8899
898.07	8891
898.19	8925
898.311	8960
898.431	8838
898.552	8944
898.672	8986
898.792	8887
898.913	8952
899.033	8807
899.153	8750
899.273	8606
899.393	8701
899.513	8769
899.633	8727
899.753	8746
899.873	8735
899.993	8678
900.113	8762
900.232	8655
900.352	8613
900.472	8590
900.591	8568
900.711	8602
900.83	8492
900.95	8629
901.069	8769
901.189	8552
901.308	8511
901.427	8377
901.546	8415
901.665	8389
901.784	8514
901.904	8324
902.023	8377
902.141	8233
902.26	8263
902.379	8199
902.498	8248
902.617	8199
902.735	8294
902.854	8252
902.973	8221
903.091	8134
903.21	8145
903.328	8172
903.446	8142
903.565	8024
903.683	8088
903.801	8027
903.919	8073
904.038	8149
904.156	8024
904.274	8001
904.392	7993
904.51	8024
904.627	7986
904.745	8084
904.863	8119
904.981	7898
905.098	7852
905.216	7875
905.334	7860
905.451	7871
905.569	7871
905.686	7898
905.803	7818
905.921	7738
906.038	7826
906.155	7719
906.272	7746
906.389	7757
906.506	7616
906.623	7620
906.74	7601
906.857	7544
906.974	7601
907.091	7655
907.208	7670
907.324	7685
907.441	7525
907.557	7422
907.674	7537
907.79	7445
907.907	7400
908.023	7438
908.139	7445
908.256	7358
908.372	7377
908.488	7320
908.604	7335
908.72	7175
908.836	7270
908.952	7255
909.068	7247
909.184	7365
909.3	7236
909.415	7343
909.531	7289
909.647	7114
909.762	7095
909.878	7042
909.993	7091
910.108	7114
910.224	7156
910.339	7126
910.454	6981
910.57	7015
910.685	7004
910.8	7126
910.915	7091
911.03	6993
911.145	6913
911.259	6928
911.374	6875
911.489	6863
911.604	6829
911.718	6726
911.833	6673
911.947	6703
912.062	6585
912.176	6684
912.291	6642
912.405	6730
912.519	6795
912.633	6859
912.748	6734
912.862	6642
912.976	6608
913.09	6582
913.204	6604
913.318	6635
913.431	6707
913.545	6715
913.659	6681
913.772	6616
913.886	6570
914	6574
914.113	6585
914.226	6627
914.34	6570
914.453	6528
914.566	6623
914.68	6490
914.793	6506
914.906	6429
915.019	6380
915.132	6380
915.245	6338
915.358	6433
915.47	6498
915.583	6429
915.696	6475
915.809	6498
915.921	6532
916.034	6452
916.146	6407
916.259	6357
916.371	6486
916.483	6437
916.595	6372
916.708	6372
916.82	6437
916.932	6384
917.044	6365
917.156	6384
917.268	6315
917.38	6334
917.491	6319
917.603	6346
917.715	6365
917.826	6380
917.938	6346
918.049	6258
918.161	6353
918.272	6464
918.384	6376
918.495	6346
918.606	6243
918.717	6262
918.828	6266
918.939	6285
919.05	6213
919.161	6262
919.272	6038
919.383	6144
919.494	6273
919.604	6486
919.715	6213
919.826	6220
919.936	6235
920.047	6429
920.157	6228
920.267	6433
920.378	6311
920.488	6308
920.598	6395
920.708	6528
920.818	6475
920.928	6426
921.038	6627
921.148	6555
921.258	6308
921.368	6289
921.477	6216
921.587	6194
921.697	6041
921.806	6205
921.916	6117
922.025	6007
922.134	5908
922.244	5859
922.353	5931
922.462	5828
922.571	5832
922.68	5691
922.789	5668
922.898	5703
923.007	5592
923.116	5634
923.224	5707
923.333	5672
923.442	5592
923.55	5562
923.659	5532
923.767	5630
923.876	5543
923.984	5627
924.092	5497
924.201	5600
924.309	5532
924.417	5516
924.525	5543
924.633	5474
924.741	6273
924.849	5349
924.956	5486
925.064	5364
925.172	5280
925.279	5349
925.387	5349
925.494	5284
925.602	5337
925.709	5421
925.816	5296
925.924	5299
926.031	5383
926.138	5315
926.245	5345
926.352	5235
926.459	5269
926.566	5353
926.673	5170
926.779	5098
926.886	5048
926.993	4999
927.099	5041
927.206	4976
927.312	5003
927.419	5037
927.525	4957
927.631	4923
927.737	4881
927.843	4881
927.95	4740
928.056	4809
928.162	4809
928.267	4801
928.373	5277
928.479	4801
928.585	4675
928.69	4748
928.796	4759
928.901	4714
929.007	4611
929.112	4626
929.218	4649
929.323	4554
929.428	4558
929.533	4622
929.638	4512
929.743	4561
929.848	4569
929.953	4500
930.058	4443
930.163	4363
930.267	4314
930.372	4428
930.477	4276
930.581	4440
930.685	4371
930.79	4265
930.894	4272
930.998	4303
931.103	4386
931.207	4097
931.311	4067
931.415	4002
931.519	3880
931.623	3949
