Data from glass_V78500241_717.txt Node
Date: Wed Sep 01 19:19:28 CST 2021
User: usil
Spectrometer: V785-0024
Trigger mode: 0
Integration Time (sec): 4.000000E-1
Scans to average: 1
Nonlinearity correction enabled: false
Boxcar width: 0
Storing dark spectrum: false
XAxis mode: Wavelengths
Number of Pixels in Spectrum: 1024
>>>>>Begin Spectral Data<<<<<
801.071	3751
801.214	3793
801.356	3736
801.499	3774
801.641	3709
801.783	3766
801.926	3812
802.068	3865
802.211	3865
802.353	3911
802.496	3838
802.638	3880
802.78	3930
802.923	3918
803.065	3964
803.208	3857
803.35	3922
803.492	3918
803.635	3922
803.777	3808
803.919	3873
804.061	4162
804.204	3983
804.346	3960
804.488	3945
804.63	4025
804.773	3979
804.915	4006
805.057	4158
805.199	4067
805.341	4097
805.483	4112
805.626	4120
805.768	4150
805.91	4227
806.052	4280
806.194	4257
806.336	4337
806.478	4215
806.62	4143
806.762	4211
806.904	4238
807.046	4348
807.188	4223
807.33	4188
807.472	4234
807.614	4192
807.756	4253
807.898	4230
808.04	4177
808.182	4287
808.324	4344
808.465	4417
808.607	4478
808.749	4417
808.891	4493
809.033	4527
809.174	4379
809.316	4314
809.458	4223
809.6	4154
809.741	4162
809.883	4116
810.025	4230
810.166	4223
810.308	4253
810.45	4272
810.591	4257
810.733	4310
810.875	4512
811.016	4900
811.158	5143
811.299	5292
811.441	5299
811.582	5128
811.724	4736
811.865	4489
812.007	4432
812.148	4443
812.29	4413
812.431	4443
812.573	4371
812.714	4409
812.855	4398
812.997	4474
813.138	4546
813.279	4421
813.421	4409
813.562	4375
813.703	4322
813.845	4341
813.986	4261
814.127	4200
814.268	4261
814.41	4284
814.551	4246
814.692	4295
814.833	4291
814.974	4322
815.115	4348
815.256	4291
815.397	4211
815.539	4306
815.68	4272
815.821	4215
815.962	4333
816.103	4318
816.244	4276
816.385	4230
816.526	4310
816.666	4196
816.807	4097
816.948	4173
817.089	4166
817.23	4128
817.371	4086
817.512	4036
817.653	4086
817.793	4086
817.934	4093
818.075	4128
818.216	4051
818.356	4093
818.497	3968
818.638	3903
818.778	3915
818.919	3899
819.06	3819
819.2	3899
819.341	3797
819.481	3823
819.622	3979
819.762	4044
819.903	3937
820.043	3846
820.184	3842
820.324	3865
820.465	3896
820.605	3896
820.746	3880
820.886	3819
821.026	3979
821.167	3949
821.307	3964
821.447	4032
821.588	3941
821.728	3918
821.868	3953
822.008	3907
822.149	3888
822.289	3953
822.429	3789
822.569	3804
822.709	3812
822.849	3747
822.99	3732
823.13	3762
823.27	3789
823.41	3709
823.55	3732
823.69	3759
823.83	3701
823.97	3690
824.11	3622
824.25	3644
824.389	3663
824.529	3709
824.669	3652
824.809	3732
824.949	3781
825.089	3793
825.228	3690
825.368	3584
825.508	3561
825.648	3561
825.787	3599
825.927	3667
826.067	3641
826.206	3652
826.346	3804
826.485	3842
826.625	3823
826.765	3941
826.904	3884
827.044	3606
827.183	3534
827.323	3454
827.462	3523
827.601	3473
827.741	3469
827.88	3488
828.02	3367
828.159	3439
828.298	3488
828.437	3549
828.577	3530
828.716	3641
828.855	3504
828.994	3412
829.134	3351
829.273	3412
829.412	3374
829.551	3351
829.69	3393
829.829	3469
829.968	3530
830.107	3454
830.246	3469
830.385	3397
830.524	3386
830.663	3329
830.802	3302
830.941	3207
831.08	3214
831.219	3283
831.357	3283
831.496	3405
831.635	3260
831.774	3176
831.913	3192
832.051	3135
832.19	3150
832.329	3211
832.467	3127
832.606	3131
832.744	3207
832.883	3192
833.022	3233
833.16	3291
833.299	3321
833.437	3332
833.576	3428
833.714	3397
833.852	3435
833.991	3428
834.129	3504
834.267	3431
834.406	3443
834.544	3431
834.682	3450
834.821	3443
834.959	3603
835.097	3431
835.235	3561
835.373	3477
835.511	3538
835.65	3504
835.788	3477
835.926	3409
836.064	3416
836.202	3450
836.34	3564
836.478	3603
836.615	3603
836.753	3587
836.891	3644
837.029	3663
837.167	3561
837.305	3515
837.443	3538
837.58	3515
837.718	3603
837.856	3591
837.993	3576
838.131	3656
838.269	3572
838.406	3561
838.544	3641
838.681	3477
838.819	3473
838.956	3389
839.094	3439
839.231	3443
839.369	3504
839.506	3747
839.643	3618
839.781	3538
839.918	3473
840.055	3534
840.193	3515
840.33	3534
840.467	3561
840.604	3618
840.742	3800
840.879	3576
841.016	3549
841.153	3599
841.29	3762
841.427	3698
841.564	3740
841.701	3766
841.838	3728
841.975	3648
842.112	3736
842.249	3622
842.385	3629
842.522	3838
842.659	3667
842.796	3682
842.933	3701
843.069	3698
843.206	3682
843.343	3808
843.479	3800
843.616	3819
843.752	3705
843.889	3698
844.025	3865
844.162	3709
844.298	3854
844.435	3785
844.571	3816
844.708	3930
844.844	4002
844.98	4059
845.117	4048
845.253	3930
845.389	3930
845.525	3983
845.661	3968
845.798	3979
845.934	3998
846.07	3960
846.206	4055
846.342	4131
846.478	4078
846.614	3994
846.75	3941
846.886	3953
847.022	4036
847.158	3953
847.294	3998
847.429	4044
847.565	3983
847.701	4265
847.837	3896
847.972	3835
848.108	3998
848.244	3956
848.379	3892
848.515	3835
848.65	3831
848.786	3888
848.921	3880
849.057	3972
849.192	3956
849.328	3880
849.463	3926
849.598	3876
849.734	3899
849.869	3861
850.004	3831
850.14	3823
850.275	3789
850.41	3770
850.545	3759
850.68	3781
850.815	3789
850.95	3789
851.085	3915
851.22	3884
851.355	3823
851.49	3816
851.625	3854
851.76	3785
851.895	3713
852.03	3751
852.165	3823
852.299	3888
852.434	3949
852.569	3873
852.703	3926
852.838	3937
852.973	3998
853.107	4010
853.242	3857
853.376	3842
853.511	3812
853.645	3884
853.78	3983
853.914	3884
854.048	3926
854.183	3918
854.317	3937
854.451	4086
854.585	3945
854.72	3972
854.854	4067
854.988	3930
855.122	4032
855.256	3983
855.39	4040
855.524	4097
855.658	4109
855.792	4093
855.926	4139
856.06	4219
856.194	4169
856.327	4162
856.461	4116
856.595	4166
856.729	4147
856.862	4268
856.996	4265
857.13	4306
857.263	4360
857.397	4356
857.53	4303
857.664	4371
857.797	4424
857.931	4443
858.064	4421
858.197	4474
858.331	4379
858.464	4371
858.597	4333
858.731	4443
858.864	4493
858.997	4451
859.13	4531
859.263	4561
859.396	4615
859.529	4531
859.662	4561
859.795	4519
859.928	4558
860.061	4782
860.194	4740
860.327	4634
860.46	4656
860.592	4710
860.725	4763
860.858	4786
860.99	4710
861.123	4710
861.256	4694
861.388	4786
861.521	5391
861.653	4736
861.786	4744
861.918	4771
862.05	4816
862.183	4797
862.315	4904
862.447	4946
862.58	4885
862.712	4812
862.844	4782
862.976	4877
863.108	4881
863.24	5235
863.372	4843
863.504	4930
863.636	4862
863.768	4930
863.9	5006
864.032	4953
864.164	4946
864.296	5033
864.428	5045
864.559	5162
864.691	5105
864.823	5162
864.954	5136
865.086	5155
865.217	5201
865.349	5128
865.48	5197
865.612	5197
865.743	5334
865.875	5162
866.006	5166
866.137	5296
866.269	5231
866.4	5288
866.531	5292
866.662	5284
866.793	5223
866.924	5288
867.055	5349
867.186	5364
867.317	5318
867.448	5322
867.579	5414
867.71	5402
867.841	5391
867.972	5512
868.103	5520
868.233	5512
868.364	5497
868.495	5543
868.625	5695
868.756	5764
868.886	5665
869.017	5707
869.147	5844
869.278	5901
869.408	5878
869.539	5897
869.669	5935
869.799	5897
869.929	6030
870.06	6026
870.19	6220
870.32	6220
870.45	6266
870.58	6342
870.71	6467
870.84	6536
870.97	6410
871.1	6445
871.23	6650
871.36	6650
871.489	6722
871.619	6726
871.749	6741
871.879	6886
872.008	7057
872.138	7065
872.267	7107
872.397	6913
872.526	7076
872.656	7118
872.785	7198
872.915	7350
873.044	7506
873.173	7525
873.303	7685
873.432	7734
873.561	7917
873.69	7959
873.819	8050
873.948	8240
874.077	8259
874.206	8275
874.335	8431
874.464	8739
874.593	8834
874.722	8876
874.851	9081
874.979	9272
875.108	9428
875.237	9367
875.365	9534
875.494	9698
875.623	9800
875.751	9816
875.88	10051
876.008	10207
876.136	10230
876.265	10409
876.393	10706
876.521	10736
876.65	10801
876.778	10843
876.906	10930
877.034	11075
877.162	11143
877.29	11147
877.418	11239
877.546	11299
877.674	11497
877.802	11471
877.93	11490
878.058	11615
878.185	11501
878.313	11672
878.441	11790
878.568	11619
878.696	11798
878.824	11840
878.951	11931
879.079	11992
879.206	12079
879.333	12057
879.461	11965
879.588	12205
879.715	12098
879.842	12220
879.97	12068
880.097	11889
880.224	11851
880.351	11855
880.478	11942
880.605	11760
880.732	11798
880.859	12045
880.986	11897
881.112	11901
881.239	11672
881.366	11657
881.493	11615
881.619	11532
881.746	11608
881.872	11554
881.999	11520
882.125	11532
882.252	11493
882.378	11490
882.505	11577
882.631	11376
882.757	11273
882.883	11345
883.01	11280
883.136	11231
883.262	11124
883.388	11121
883.514	11117
883.64	11124
883.766	11124
883.892	10927
884.018	10991
884.143	11018
884.269	11090
884.395	10858
884.52	10771
884.646	10774
884.772	10729
884.897	10721
885.023	10778
885.148	10771
885.274	10793
885.399	10653
885.524	10577
885.65	10584
885.775	10656
885.9	10588
886.025	10596
886.15	10584
886.275	10485
886.4	10413
886.525	10360
886.65	10409
886.775	10413
886.9	10497
887.025	10550
887.149	10413
887.274	10234
887.399	10158
887.523	10158
887.648	10093
887.773	10131
887.897	10268
888.021	10234
888.146	10162
888.27	10154
888.395	10242
888.519	10291
888.643	10215
888.767	10150
888.891	10097
889.015	10044
889.139	10029
889.263	10002
889.387	9979
889.511	10055
889.635	10093
889.759	10006
889.883	10036
890.006	10044
890.13	10101
890.254	9972
890.377	9949
890.501	9831
890.624	9842
890.748	9934
890.871	9808
890.995	9785
891.118	9660
891.241	9838
891.364	9740
891.488	9804
891.611	9778
891.734	9755
891.857	9831
891.98	9747
892.103	9835
892.226	9698
892.349	9656
892.471	9545
892.594	9622
892.717	9625
892.839	9606
892.962	9580
893.085	9686
893.207	9633
893.33	9595
893.452	9549
893.575	9591
893.697	9504
893.819	9663
893.941	9614
894.064	9667
894.186	9454
894.308	9416
894.43	9568
894.552	9633
894.674	9553
894.796	9367
894.918	9374
895.04	9355
895.161	9351
895.283	9340
895.405	9165
895.526	9249
895.648	9275
895.769	9226
895.891	9355
896.012	9291
896.134	9275
896.255	9188
896.376	9104
896.498	9222
896.619	9146
896.74	9032
896.861	9100
896.982	9245
897.103	9249
897.224	9138
897.345	9074
897.466	9097
897.587	9032
897.708	9142
897.828	8967
897.949	8941
898.07	8857
898.19	8910
898.311	9074
898.431	8902
898.552	9009
898.672	8967
898.792	8956
898.913	8933
899.033	8857
899.153	8766
899.273	8636
899.393	8724
899.513	8716
899.633	8697
899.753	8712
899.873	8724
899.993	8727
900.113	8693
900.232	8689
900.352	8689
900.472	8636
900.591	8583
900.711	8541
900.83	8606
900.95	8682
901.069	8716
901.189	8613
901.308	8488
901.427	8393
901.546	8446
901.665	8427
901.784	8549
901.904	8454
902.023	8374
902.141	8279
902.26	8229
902.379	8267
902.498	8237
902.617	8279
902.735	8343
902.854	8271
902.973	8259
903.091	8134
903.21	8180
903.328	8138
903.446	8138
903.565	8111
903.683	8111
903.801	8202
903.919	8119
904.038	8176
904.156	8001
904.274	8100
904.392	7982
904.51	8035
904.627	8073
904.745	8111
904.863	8115
904.981	7951
905.098	7830
905.216	7921
905.334	7879
905.451	7921
905.569	7940
905.686	7913
905.803	7883
905.921	7795
906.038	7845
906.155	7807
906.272	7746
906.389	7814
906.506	7632
906.623	7647
906.74	7651
906.857	7605
906.974	7636
907.091	7719
907.208	7746
907.324	7681
907.441	7647
907.557	7457
907.674	7419
907.79	7468
907.907	7377
908.023	7487
908.139	7403
908.256	7354
908.372	7381
908.488	7335
908.604	7285
908.72	7255
908.836	7255
908.952	7270
909.068	7297
909.184	7384
909.3	7301
909.415	7266
909.531	7255
909.647	7175
909.762	7126
909.878	7080
909.993	7168
910.108	7129
910.224	7095
910.339	7110
910.454	7061
910.57	7061
910.685	7004
910.8	7206
910.915	7129
911.03	7008
911.145	6909
911.259	6924
911.374	6924
911.489	6871
911.604	6852
911.718	6787
911.833	6757
911.947	6688
912.062	6627
912.176	6700
912.291	6684
912.405	6681
912.519	6783
912.633	6787
912.748	6783
912.862	6753
912.976	6612
913.09	6578
913.204	6601
913.318	6612
913.431	6673
913.545	6665
913.659	6711
913.772	6642
913.886	6578
914	6616
914.113	6593
914.226	6639
914.34	6631
914.453	6502
914.566	6597
914.68	6479
914.793	6475
914.906	6399
915.019	6418
915.132	6422
915.245	6456
915.358	6422
915.47	6441
915.583	6464
915.696	6525
915.809	6528
915.921	6544
916.034	6471
916.146	6429
916.259	6391
916.371	6486
916.483	6464
916.595	6388
916.708	6410
916.82	6429
916.932	6342
917.044	6323
917.156	6353
917.268	6331
917.38	6334
917.491	6338
917.603	6365
917.715	6407
917.826	6441
917.938	6315
918.049	6216
918.161	6361
918.272	6395
918.384	6410
918.495	6407
918.606	6281
918.717	6254
918.828	6308
918.939	6315
919.05	6262
919.161	6266
919.272	6110
919.383	6155
919.494	6395
919.604	6407
919.715	6334
919.826	6201
919.936	6251
920.047	6353
920.157	6281
920.267	6467
920.378	6331
920.488	6277
920.598	6456
920.708	6585
920.818	6467
920.928	6467
921.038	6635
921.148	6582
921.258	6357
921.368	6289
921.477	6220
921.587	6201
921.697	6136
921.806	6190
921.916	6110
922.025	5901
922.134	5946
922.244	5878
922.353	5935
922.462	5851
922.571	5798
922.68	5748
922.789	5657
922.898	5726
923.007	5630
923.116	5707
923.224	5699
923.333	5695
923.442	5661
923.55	5642
923.659	5608
923.767	5638
923.876	5592
923.984	5638
924.092	5493
924.201	5566
924.309	5585
924.417	5512
924.525	5535
924.633	5406
924.741	6159
924.849	5429
924.956	5452
925.064	5376
925.172	5334
925.279	5345
925.387	5402
925.494	5311
925.602	5440
925.709	5433
925.816	5334
925.924	5345
926.031	5330
926.138	5318
926.245	5322
926.352	5288
926.459	5258
926.566	5330
926.673	5220
926.779	5109
926.886	5143
926.993	5037
927.099	5029
927.206	4972
927.312	4957
927.419	5033
927.525	4995
927.631	4957
927.737	4885
927.843	4900
927.95	4771
928.056	4820
928.162	4790
928.267	4862
928.373	5330
928.479	4850
928.585	4683
928.69	4702
928.796	4790
928.901	4729
929.007	4615
929.112	4660
929.218	4622
929.323	4596
929.428	4573
929.533	4725
929.638	4569
929.743	4580
929.848	4538
929.953	4523
930.058	4428
930.163	4322
930.267	4375
930.372	4485
930.477	4306
930.581	4481
930.685	4447
930.79	4257
930.894	4303
930.998	4227
931.103	4436
931.207	4169
931.311	4051
931.415	4051
931.519	3941
931.623	3930
