Data from glass_V78500241_34.txt Node
Date: Wed Sep 01 19:14:44 CST 2021
User: usil
Spectrometer: V785-0024
Trigger mode: 0
Integration Time (sec): 4.000000E-1
Scans to average: 1
Nonlinearity correction enabled: false
Boxcar width: 0
Storing dark spectrum: false
XAxis mode: Wavelengths
Number of Pixels in Spectrum: 1024
>>>>>Begin Spectral Data<<<<<
801.071	3755
801.214	3743
801.356	3724
801.499	3751
801.641	3717
801.783	3789
801.926	3880
802.068	3907
802.211	3854
802.353	3892
802.496	3831
802.638	3884
802.78	3937
802.923	3972
803.065	3896
803.208	3861
803.35	3903
803.492	3941
803.635	3953
803.777	3816
803.919	3918
804.061	4188
804.204	3987
804.346	3941
804.488	3937
804.63	4063
804.773	3964
804.915	4025
805.057	4131
805.199	4048
805.341	4093
805.483	4154
805.626	4139
805.768	4143
805.91	4246
806.052	4257
806.194	4227
806.336	4398
806.478	4227
806.62	4207
806.762	4200
806.904	4265
807.046	4360
807.188	4219
807.33	4246
807.472	4246
807.614	4230
807.756	4287
807.898	4219
808.04	4276
808.182	4295
808.324	4337
808.465	4363
808.607	4466
808.749	4531
808.891	4462
809.033	4516
809.174	4405
809.316	4310
809.458	4227
809.6	4169
809.741	4154
809.883	4158
810.025	4204
810.166	4234
810.308	4253
810.45	4246
810.591	4253
810.733	4295
810.875	4523
811.016	4847
811.158	5113
811.299	5288
811.441	5258
811.582	5029
811.724	4687
811.865	4470
812.007	4497
812.148	4481
812.29	4413
812.431	4470
812.573	4421
812.714	4356
812.855	4436
812.997	4417
813.138	4474
813.279	4390
813.421	4424
813.562	4348
813.703	4325
813.845	4348
813.986	4253
814.127	4227
814.268	4272
814.41	4310
814.551	4284
814.692	4375
814.833	4295
814.974	4268
815.115	4344
815.256	4295
815.397	4284
815.539	4276
815.68	4253
815.821	4204
815.962	4284
816.103	4253
816.244	4295
816.385	4234
816.526	4299
816.666	4177
816.807	4078
816.948	4196
817.089	4200
817.23	4128
817.371	4078
817.512	4078
817.653	4090
817.793	4048
817.934	4078
818.075	4139
818.216	4097
818.356	4158
818.497	4051
818.638	3934
818.778	3899
818.919	3884
819.06	3876
819.2	3915
819.341	3918
819.481	3869
819.622	3918
819.762	4040
819.903	3949
820.043	3903
820.184	3876
820.324	3846
820.465	3884
820.605	3888
820.746	3899
820.886	3846
821.026	3941
821.167	3934
821.307	4006
821.447	4013
821.588	4010
821.728	3979
821.868	3941
822.008	3846
822.149	3937
822.289	3953
822.429	3831
822.569	3774
822.709	3823
822.849	3724
822.99	3747
823.13	3808
823.27	3804
823.41	3732
823.55	3781
823.69	3747
823.83	3762
823.97	3728
824.11	3591
824.25	3561
824.389	3656
824.529	3705
824.669	3667
824.809	3747
824.949	3743
825.089	3743
825.228	3728
825.368	3595
825.508	3595
825.648	3557
825.787	3644
825.927	3671
826.067	3637
826.206	3713
826.346	3762
826.485	3846
826.625	3880
826.765	3930
826.904	3899
827.044	3648
827.183	3530
827.323	3447
827.462	3481
827.601	3454
827.741	3488
827.88	3462
828.02	3370
828.159	3443
828.298	3496
828.437	3481
828.577	3481
828.716	3610
828.855	3538
828.994	3420
829.134	3424
829.273	3401
829.412	3378
829.551	3344
829.69	3363
829.829	3420
829.968	3519
830.107	3439
830.246	3477
830.385	3382
830.524	3363
830.663	3321
830.802	3272
830.941	3222
831.08	3249
831.219	3268
831.357	3294
831.496	3469
831.635	3233
831.774	3199
831.913	3188
832.051	3154
832.19	3184
832.329	3230
832.467	3085
832.606	3146
832.744	3203
832.883	3184
833.022	3211
833.16	3291
833.299	3313
833.437	3386
833.576	3348
833.714	3405
833.852	3439
833.991	3439
834.129	3507
834.267	3466
834.406	3412
834.544	3458
834.682	3405
834.821	3420
834.959	3606
835.097	3424
835.235	3526
835.373	3485
835.511	3504
835.65	3492
835.788	3481
835.926	3424
836.064	3393
836.202	3435
836.34	3580
836.478	3622
836.615	3523
836.753	3595
836.891	3682
837.029	3644
837.167	3576
837.305	3568
837.443	3564
837.58	3526
837.718	3606
837.856	3576
837.993	3564
838.131	3637
838.269	3591
838.406	3572
838.544	3625
838.681	3466
838.819	3500
838.956	3435
839.094	3428
839.231	3466
839.369	3519
839.506	3743
839.643	3686
839.781	3492
839.918	3500
840.055	3534
840.193	3580
840.33	3568
840.467	3576
840.604	3610
840.742	3797
840.879	3564
841.016	3599
841.153	3606
841.29	3755
841.427	3705
841.564	3720
841.701	3770
841.838	3743
841.975	3690
842.112	3755
842.249	3671
842.385	3656
842.522	3827
842.659	3720
842.796	3698
842.933	3762
843.069	3705
843.206	3732
843.343	3869
843.479	3819
843.616	3812
843.752	3720
843.889	3675
844.025	3850
844.162	3705
844.298	3854
844.435	3789
844.571	3785
844.708	3930
844.844	4036
844.98	4063
845.117	4071
845.253	3941
845.389	3930
845.525	3991
845.661	4021
845.798	3956
845.934	3991
846.07	3964
846.206	4086
846.342	4112
846.478	4086
846.614	4010
846.75	3930
846.886	3911
847.022	4025
847.158	4021
847.294	4036
847.429	4048
847.565	3983
847.701	4261
847.837	3968
847.972	3903
848.108	4059
848.244	3994
848.379	3915
848.515	3861
848.65	3804
848.786	3854
848.921	3892
849.057	3899
849.192	3937
849.328	3953
849.463	3903
849.598	3918
849.734	3888
849.869	3880
850.004	3827
850.14	3854
850.275	3842
850.41	3747
850.545	3774
850.68	3755
850.815	3804
850.95	3823
851.085	3964
851.22	3884
851.355	3854
851.49	3835
851.625	3800
851.76	3816
851.895	3747
852.03	3740
852.165	3804
852.299	3808
852.434	3964
852.569	3857
852.703	3876
852.838	3922
852.973	3979
853.107	3994
853.242	3884
853.376	3842
853.511	3808
853.645	3838
853.78	4017
853.914	3941
854.048	3873
854.183	3922
854.317	3926
854.451	4074
854.585	3949
854.72	3991
854.854	4124
854.988	3937
855.122	4032
855.256	3922
855.39	4071
855.524	4150
855.658	4116
855.792	4086
855.926	4177
856.06	4188
856.194	4223
856.327	4109
856.461	4112
856.595	4162
856.729	4276
856.862	4284
856.996	4246
857.13	4303
857.263	4325
857.397	4390
857.53	4314
857.664	4337
857.797	4383
857.931	4409
858.064	4379
858.197	4478
858.331	4428
858.464	4409
858.597	4375
858.731	4455
858.864	4478
858.997	4489
859.13	4550
859.263	4561
859.396	4596
859.529	4489
859.662	4596
859.795	4569
859.928	4630
860.061	4725
860.194	4702
860.327	4649
860.46	4660
860.592	4778
860.725	4786
860.858	4778
860.99	4710
861.123	4710
861.256	4717
861.388	4774
861.521	5398
861.653	4706
861.786	4752
861.918	4767
862.05	4816
862.183	4873
862.315	4850
862.447	4908
862.58	4908
862.712	4805
862.844	4801
862.976	4911
863.108	4919
863.24	5220
863.372	4877
863.504	4953
863.636	4930
863.768	4911
863.9	4972
864.032	4900
864.164	4923
864.296	5056
864.428	5071
864.559	5140
864.691	5105
864.823	5143
864.954	5090
865.086	5132
865.217	5159
865.349	5121
865.48	5155
865.612	5220
865.743	5330
865.875	5201
866.006	5197
866.137	5258
866.269	5185
866.4	5269
866.531	5261
866.662	5239
866.793	5223
866.924	5307
867.055	5353
867.186	5368
867.317	5357
867.448	5315
867.579	5406
867.71	5410
867.841	5379
867.972	5463
868.103	5516
868.233	5516
868.364	5497
868.495	5512
868.625	5661
868.756	5817
868.886	5710
869.017	5714
869.147	5908
869.278	5939
869.408	5840
869.539	5832
869.669	5973
869.799	5897
869.929	5992
870.06	6041
870.19	6186
870.32	6209
870.45	6258
870.58	6350
870.71	6475
870.84	6509
870.97	6448
871.1	6429
871.23	6677
871.36	6726
871.489	6623
871.619	6760
871.749	6810
871.879	6928
872.008	7027
872.138	6973
872.267	7042
872.397	6970
872.526	7038
872.656	7145
872.785	7270
872.915	7426
873.044	7525
873.173	7506
873.303	7696
873.432	7792
873.561	7803
873.69	7951
873.819	7967
873.948	8134
874.077	8275
874.206	8320
874.335	8454
874.464	8651
874.593	8941
874.722	8861
874.851	9157
874.979	9268
875.108	9370
875.237	9424
875.365	9492
875.494	9625
875.623	9755
875.751	9865
875.88	10002
876.008	10147
876.136	10249
876.265	10519
876.393	10660
876.521	10759
876.65	10831
876.778	10896
876.906	10942
877.034	10980
877.162	11067
877.29	11109
877.418	11372
877.546	11330
877.674	11360
877.802	11596
877.93	11493
878.058	11528
878.185	11608
878.313	11661
878.441	11745
878.568	11638
878.696	11786
878.824	11954
878.951	11954
879.079	11946
879.206	12216
879.333	12133
879.461	12091
879.588	12106
879.715	12068
879.842	12273
879.97	12060
880.097	11832
880.224	11874
880.351	11920
880.478	11904
880.605	11863
880.732	11855
880.859	12038
880.986	11847
881.112	11847
881.239	11718
881.366	11710
881.493	11661
881.619	11528
881.746	11668
881.872	11497
881.999	11547
882.125	11528
882.252	11539
882.378	11482
882.505	11589
882.631	11402
882.757	11364
882.883	11280
883.01	11246
883.136	11242
883.262	11113
883.388	11079
883.514	11109
883.64	11181
883.766	11079
883.892	10965
884.018	11010
884.143	11079
884.269	11102
884.395	10889
884.52	10797
884.646	10752
884.772	10809
884.897	10679
885.023	10774
885.148	10694
885.274	10694
885.399	10694
885.524	10714
885.65	10554
885.775	10599
885.9	10630
886.025	10664
886.15	10577
886.275	10447
886.4	10386
886.525	10424
886.65	10405
886.775	10261
886.9	10478
887.025	10546
887.149	10398
887.274	10177
887.399	10188
887.523	10200
887.648	10120
887.773	10135
887.897	10234
888.021	10211
888.146	10093
888.27	10234
888.395	10181
888.519	10188
888.643	10181
888.767	10223
888.891	10082
889.015	10063
889.139	10063
889.263	9975
889.387	10093
889.511	10150
889.635	10013
889.759	9964
889.883	9968
890.006	10017
890.13	10139
890.254	9991
890.377	9983
890.501	9869
890.624	9903
890.748	9911
890.871	9827
890.995	9724
891.118	9728
891.241	9804
891.364	9728
891.488	9816
891.611	9728
891.734	9762
891.857	9781
891.98	9785
892.103	9873
892.226	9675
892.349	9648
892.471	9553
892.594	9648
892.717	9663
892.839	9648
892.962	9557
893.085	9641
893.207	9572
893.33	9519
893.452	9538
893.575	9576
893.697	9572
893.819	9656
893.941	9644
894.064	9610
894.186	9424
894.308	9408
894.43	9553
894.552	9610
894.674	9504
894.796	9405
894.918	9397
895.04	9378
895.161	9389
895.283	9351
895.405	9321
895.526	9279
895.648	9253
895.769	9176
895.891	9241
896.012	9272
896.134	9310
896.255	9241
896.376	9116
896.498	9169
896.619	9097
896.74	9135
896.861	9104
896.982	9268
897.103	9256
897.224	9142
897.345	9032
897.466	8990
897.587	9036
897.708	9093
897.828	9066
897.949	8914
898.07	8914
898.19	8906
898.311	9165
898.431	8857
898.552	8933
898.672	9001
898.792	8941
898.913	8941
899.033	8796
899.153	8769
899.273	8659
899.393	8701
899.513	8762
899.633	8758
899.753	8701
899.873	8667
899.993	8720
900.113	8697
900.232	8724
900.352	8667
900.472	8617
900.591	8625
900.711	8655
900.83	8594
900.95	8629
901.069	8746
901.189	8587
901.308	8526
901.427	8454
901.546	8476
901.665	8514
901.784	8511
901.904	8469
902.023	8336
902.141	8267
902.26	8233
902.379	8301
902.498	8271
902.617	8259
902.735	8294
902.854	8237
902.973	8259
903.091	8130
903.21	8187
903.328	8221
903.446	8138
903.565	8119
903.683	8134
903.801	8054
903.919	8111
904.038	8107
904.156	8043
904.274	8046
904.392	8081
904.51	8046
904.627	8001
904.745	8096
904.863	8077
904.981	7917
905.098	7833
905.216	7955
905.334	7879
905.451	7906
905.569	7917
905.686	7951
905.803	7936
905.921	7837
906.038	7928
906.155	7803
906.272	7731
906.389	7727
906.506	7628
906.623	7700
906.74	7643
906.857	7514
906.974	7628
907.091	7674
907.208	7723
907.324	7662
907.441	7597
907.557	7419
907.674	7384
907.79	7430
907.907	7438
908.023	7468
908.139	7426
908.256	7381
908.372	7422
908.488	7350
908.604	7266
908.72	7236
908.836	7293
908.952	7217
909.068	7240
909.184	7308
909.3	7263
909.415	7278
909.531	7316
909.647	7175
909.762	7110
909.878	7095
909.993	7156
910.108	7088
910.224	7110
910.339	7107
910.454	7057
910.57	6977
910.685	6958
910.8	7209
910.915	7141
911.03	7034
911.145	6928
911.259	6901
911.374	6844
911.489	6859
911.604	6848
911.718	6719
911.833	6730
911.947	6700
912.062	6559
912.176	6692
912.291	6715
912.405	6658
912.519	6833
912.633	6897
912.748	6734
912.862	6665
912.976	6585
913.09	6585
913.204	6585
913.318	6650
913.431	6700
913.545	6707
913.659	6719
913.772	6650
913.886	6593
914	6608
914.113	6677
914.226	6642
914.34	6642
914.453	6521
914.566	6612
914.68	6563
914.793	6574
914.906	6433
915.019	6433
915.132	6376
915.245	6433
915.358	6460
915.47	6452
915.583	6483
915.696	6445
915.809	6570
915.921	6570
916.034	6388
916.146	6418
916.259	6426
916.371	6475
916.483	6483
916.595	6441
916.708	6467
916.82	6403
916.932	6353
917.044	6433
917.156	6380
917.268	6285
917.38	6338
917.491	6403
917.603	6380
917.715	6388
917.826	6475
917.938	6376
918.049	6228
918.161	6334
918.272	6388
918.384	6445
918.495	6342
918.606	6304
918.717	6201
918.828	6266
918.939	6296
919.05	6190
919.161	6300
919.272	6106
919.383	6190
919.494	6338
919.604	6410
919.715	6281
919.826	6197
919.936	6258
920.047	6338
920.157	6289
920.267	6475
920.378	6342
920.488	6323
920.598	6452
920.708	6616
920.818	6498
920.928	6521
921.038	6681
921.148	6650
921.258	6369
921.368	6350
921.477	6273
921.587	6163
921.697	6087
921.806	6197
921.916	6072
922.025	5984
922.134	5969
922.244	5912
922.353	5954
922.462	5821
922.571	5847
922.68	5710
922.789	5691
922.898	5691
923.007	5596
923.116	5779
923.224	5657
923.333	5672
923.442	5600
923.55	5608
923.659	5589
923.767	5661
923.876	5562
923.984	5596
924.092	5535
924.201	5543
924.309	5551
924.417	5539
924.525	5505
924.633	5501
924.741	6300
924.849	5425
924.956	5528
925.064	5357
925.172	5315
925.279	5273
925.387	5383
925.494	5337
925.602	5417
925.709	5410
925.816	5311
925.924	5341
926.031	5372
926.138	5326
926.245	5315
926.352	5280
926.459	5341
926.566	5360
926.673	5277
926.779	5174
926.886	5121
926.993	5071
927.099	5010
927.206	4968
927.312	5025
927.419	5022
927.525	4984
927.631	4965
927.737	4915
927.843	4824
927.95	4790
928.056	4835
928.162	4835
928.267	4877
928.373	5395
928.479	4877
928.585	4687
928.69	4797
928.796	4771
928.901	4714
929.007	4603
929.112	4683
929.218	4653
929.323	4569
929.428	4634
929.533	4740
929.638	4516
929.743	4523
929.848	4554
929.953	4512
930.058	4462
930.163	4303
930.267	4363
930.372	4428
930.477	4265
930.581	4485
930.685	4371
930.79	4272
930.894	4295
930.998	4219
931.103	4398
931.207	4139
931.311	4093
931.415	4063
931.519	3934
931.623	3983
