Data from glass_V78500241_243.txt Node
Date: Wed Sep 01 19:16:11 CST 2021
User: usil
Spectrometer: V785-0024
Trigger mode: 0
Integration Time (sec): 4.000000E-1
Scans to average: 1
Nonlinearity correction enabled: false
Boxcar width: 0
Storing dark spectrum: false
XAxis mode: Wavelengths
Number of Pixels in Spectrum: 1024
>>>>>Begin Spectral Data<<<<<
801.071	3800
801.214	3804
801.356	3759
801.499	3740
801.641	3747
801.783	3835
801.926	3896
802.068	3823
802.211	3888
802.353	3884
802.496	3865
802.638	3888
802.78	3941
802.923	3956
803.065	3911
803.208	3846
803.35	3899
803.492	3918
803.635	3930
803.777	3823
803.919	3930
804.061	4181
804.204	3991
804.346	3994
804.488	3972
804.63	4059
804.773	3987
804.915	4055
805.057	4173
805.199	4040
805.341	4109
805.483	4139
805.626	4135
805.768	4131
805.91	4230
806.052	4234
806.194	4257
806.336	4394
806.478	4207
806.62	4173
806.762	4188
806.904	4310
807.046	4310
807.188	4234
807.33	4215
807.472	4204
807.614	4234
807.756	4268
807.898	4230
808.04	4219
808.182	4322
808.324	4322
808.465	4367
808.607	4470
808.749	4440
808.891	4470
809.033	4497
809.174	4409
809.316	4276
809.458	4253
809.6	4154
809.741	4147
809.883	4169
810.025	4242
810.166	4211
810.308	4230
810.45	4207
810.591	4234
810.733	4303
810.875	4569
811.016	4816
811.158	5102
811.299	5261
811.441	5296
811.582	5121
811.724	4725
811.865	4512
812.007	4519
812.148	4428
812.29	4409
812.431	4413
812.573	4421
812.714	4394
812.855	4383
812.997	4462
813.138	4474
813.279	4451
813.421	4344
813.562	4417
813.703	4344
813.845	4352
813.986	4268
814.127	4238
814.268	4280
814.41	4253
814.551	4223
814.692	4383
814.833	4356
814.974	4268
815.115	4409
815.256	4261
815.397	4246
815.539	4318
815.68	4204
815.821	4257
815.962	4352
816.103	4265
816.244	4227
816.385	4253
816.526	4291
816.666	4204
816.807	4135
816.948	4200
817.089	4230
817.23	4105
817.371	4048
817.512	4055
817.653	4086
817.793	4071
817.934	4044
818.075	4162
818.216	4074
818.356	4109
818.497	4029
818.638	3918
818.778	3850
818.919	3918
819.06	3835
819.2	3915
819.341	3899
819.481	3842
819.622	3896
819.762	4051
819.903	4013
820.043	3880
820.184	3827
820.324	3865
820.465	3896
820.605	3907
820.746	3934
820.886	3770
821.026	3934
821.167	3911
821.307	3998
821.447	4006
821.588	3960
821.728	3949
821.868	3987
822.008	3937
822.149	3896
822.289	3941
822.429	3781
822.569	3778
822.709	3812
822.849	3709
822.99	3698
823.13	3774
823.27	3789
823.41	3720
823.55	3740
823.69	3759
823.83	3770
823.97	3698
824.11	3622
824.25	3641
824.389	3701
824.529	3637
824.669	3675
824.809	3720
824.949	3778
825.089	3717
825.228	3740
825.368	3564
825.508	3553
825.648	3576
825.787	3606
825.927	3682
826.067	3660
826.206	3694
826.346	3781
826.485	3854
826.625	3857
826.765	3979
826.904	3835
827.044	3622
827.183	3538
827.323	3409
827.462	3504
827.601	3481
827.741	3447
827.88	3485
828.02	3367
828.159	3458
828.298	3500
828.437	3538
828.577	3458
828.716	3618
828.855	3534
828.994	3424
829.134	3397
829.273	3393
829.412	3416
829.551	3310
829.69	3382
829.829	3466
829.968	3572
830.107	3469
830.246	3473
830.385	3416
830.524	3367
830.663	3325
830.802	3245
830.941	3161
831.08	3188
831.219	3268
831.357	3287
831.496	3412
831.635	3237
831.774	3214
831.913	3192
832.051	3119
832.19	3184
832.329	3233
832.467	3142
832.606	3112
832.744	3188
832.883	3218
833.022	3211
833.16	3294
833.299	3291
833.437	3340
833.576	3412
833.714	3386
833.852	3469
833.991	3469
834.129	3473
834.267	3450
834.406	3439
834.544	3424
834.682	3431
834.821	3454
834.959	3599
835.097	3447
835.235	3538
835.373	3488
835.511	3519
835.65	3496
835.788	3519
835.926	3439
836.064	3409
836.202	3458
836.34	3584
836.478	3603
836.615	3538
836.753	3610
836.891	3686
837.029	3671
837.167	3568
837.305	3587
837.443	3542
837.58	3519
837.718	3587
837.856	3564
837.993	3534
838.131	3599
838.269	3595
838.406	3587
838.544	3637
838.681	3443
838.819	3447
838.956	3389
839.094	3435
839.231	3428
839.369	3496
839.506	3736
839.643	3644
839.781	3504
839.918	3504
840.055	3564
840.193	3523
840.33	3576
840.467	3561
840.604	3644
840.742	3816
840.879	3591
841.016	3580
841.153	3572
841.29	3789
841.427	3690
841.564	3724
841.701	3751
841.838	3709
841.975	3713
842.112	3728
842.249	3686
842.385	3656
842.522	3800
842.659	3720
842.796	3682
842.933	3690
843.069	3713
843.206	3724
843.343	3816
843.479	3846
843.616	3850
843.752	3717
843.889	3686
844.025	3880
844.162	3682
844.298	3888
844.435	3831
844.571	3797
844.708	3922
844.844	4048
844.98	4063
845.117	4021
845.253	3918
845.389	3972
845.525	3956
845.661	3968
845.798	3934
845.934	4025
846.07	3972
846.206	4097
846.342	4143
846.478	4093
846.614	3960
846.75	3945
846.886	3945
847.022	4029
847.158	3991
847.294	3987
847.429	4044
847.565	4021
847.701	4272
847.837	3941
847.972	3926
848.108	3991
848.244	3998
848.379	3857
848.515	3869
848.65	3842
848.786	3846
848.921	3880
849.057	3911
849.192	3960
849.328	3884
849.463	3941
849.598	3892
849.734	3899
849.869	3869
850.004	3842
850.14	3816
850.275	3812
850.41	3774
850.545	3762
850.68	3804
850.815	3812
850.95	3842
851.085	3972
851.22	3869
851.355	3838
851.49	3850
851.625	3781
851.76	3823
851.895	3759
852.03	3755
852.165	3835
852.299	3835
852.434	3918
852.569	3915
852.703	3922
852.838	3945
852.973	4032
853.107	4063
853.242	3915
853.376	3918
853.511	3797
853.645	3835
853.78	3945
853.914	3922
854.048	3880
854.183	3896
854.317	3987
854.451	4128
854.585	3949
854.72	3960
854.854	4101
854.988	3953
855.122	4040
855.256	3907
855.39	4071
855.524	4139
855.658	4124
855.792	4082
855.926	4162
856.06	4192
856.194	4238
856.327	4135
856.461	4169
856.595	4204
856.729	4185
856.862	4280
856.996	4246
857.13	4325
857.263	4318
857.397	4325
857.53	4306
857.664	4386
857.797	4424
857.931	4459
858.064	4371
858.197	4470
858.331	4428
858.464	4367
858.597	4344
858.731	4459
858.864	4504
858.997	4466
859.13	4538
859.263	4565
859.396	4573
859.529	4546
859.662	4542
859.795	4523
859.928	4615
860.061	4763
860.194	4759
860.327	4664
860.46	4634
860.592	4748
860.725	4797
860.858	4831
860.99	4733
861.123	4717
861.256	4706
861.388	4782
861.521	5421
861.653	4675
861.786	4752
861.918	4733
862.05	4835
862.183	4866
862.315	4938
862.447	4908
862.58	4908
862.712	4774
862.844	4759
862.976	4896
863.108	4862
863.24	5197
863.372	4877
863.504	4904
863.636	4908
863.768	4999
863.9	4953
864.032	4892
864.164	4961
864.296	5094
864.428	5090
864.559	5132
864.691	5109
864.823	5147
864.954	5132
865.086	5124
865.217	5155
865.349	5086
865.48	5178
865.612	5193
865.743	5303
865.875	5132
866.006	5197
866.137	5277
866.269	5220
866.4	5246
866.531	5227
866.662	5261
866.793	5254
866.924	5296
867.055	5379
867.186	5349
867.317	5307
867.448	5334
867.579	5395
867.71	5402
867.841	5474
867.972	5425
868.103	5417
868.233	5497
868.364	5501
868.495	5589
868.625	5680
868.756	5813
868.886	5718
869.017	5741
869.147	5855
869.278	5912
869.408	5779
869.539	5828
869.669	5904
869.799	5908
869.929	6038
870.06	6057
870.19	6171
870.32	6178
870.45	6319
870.58	6376
870.71	6403
870.84	6433
870.97	6437
871.1	6460
871.23	6662
871.36	6722
871.489	6658
871.619	6779
871.749	6821
871.879	6897
872.008	6981
872.138	7008
872.267	7072
872.397	6989
872.526	7050
872.656	7057
872.785	7225
872.915	7362
873.044	7548
873.173	7571
873.303	7647
873.432	7738
873.561	7852
873.69	7890
873.819	8084
873.948	8142
874.077	8252
874.206	8404
874.335	8484
874.464	8716
874.593	8880
874.722	8998
874.851	9108
874.979	9264
875.108	9469
875.237	9473
875.365	9450
875.494	9648
875.623	9835
875.751	9835
875.88	10071
876.008	10158
876.136	10238
876.265	10489
876.393	10607
876.521	10755
876.65	10896
876.778	10904
876.906	10934
877.034	10919
877.162	11067
877.29	11151
877.418	11307
877.546	11387
877.674	11459
877.802	11452
877.93	11474
878.058	11493
878.185	11532
878.313	11760
878.441	11767
878.568	11676
878.696	11767
878.824	11866
878.951	11901
879.079	11958
879.206	12091
879.333	12053
879.461	11973
879.588	12057
879.715	12068
879.842	12216
879.97	12106
880.097	11920
880.224	11908
880.351	11908
880.478	11889
880.605	11790
880.732	11779
880.859	12114
880.986	11847
881.112	11866
881.239	11726
881.366	11630
881.493	11649
881.619	11570
881.746	11547
881.872	11543
881.999	11543
882.125	11528
882.252	11547
882.378	11497
882.505	11516
882.631	11387
882.757	11307
882.883	11246
883.01	11254
883.136	11197
883.262	11090
883.388	11033
883.514	11197
883.64	11166
883.766	11136
883.892	11022
884.018	11018
884.143	11071
884.269	11162
884.395	10911
884.52	10729
884.646	10801
884.772	10710
884.897	10694
885.023	10668
885.148	10774
885.274	10744
885.399	10736
885.524	10630
885.65	10611
885.775	10618
885.9	10523
886.025	10542
886.15	10615
886.275	10596
886.4	10405
886.525	10409
886.65	10310
886.775	10356
886.9	10500
887.025	10561
887.149	10371
887.274	10265
887.399	10219
887.523	10147
887.648	10192
887.773	10181
887.897	10280
888.021	10207
888.146	10093
888.27	10196
888.395	10207
888.519	10200
888.643	10147
888.767	10207
888.891	10109
889.015	9937
889.139	10093
889.263	10055
889.387	10105
889.511	10181
889.635	10139
889.759	9949
889.883	10006
890.006	9956
890.13	10124
890.254	9899
890.377	9994
890.501	9838
890.624	9850
890.748	9937
890.871	9831
890.995	9743
891.118	9690
891.241	9747
891.364	9747
891.488	9751
891.611	9736
891.734	9751
891.857	9736
891.98	9759
892.103	9770
892.226	9759
892.349	9755
892.471	9526
892.594	9614
892.717	9492
892.839	9606
892.962	9580
893.085	9682
893.207	9534
893.33	9496
893.452	9504
893.575	9568
893.697	9473
893.819	9648
893.941	9629
894.064	9584
894.186	9469
894.308	9485
894.43	9576
894.552	9587
894.674	9564
894.796	9336
894.918	9374
895.04	9367
895.161	9359
895.283	9332
895.405	9275
895.526	9294
895.648	9237
895.769	9310
895.891	9298
896.012	9241
896.134	9230
896.255	9150
896.376	9161
896.498	9218
896.619	9154
896.74	9104
896.861	9104
896.982	9302
897.103	9336
897.224	9195
897.345	9066
897.466	9028
897.587	9081
897.708	9097
897.828	9024
897.949	9047
898.07	8891
898.19	8914
898.311	9005
898.431	8971
898.552	8941
898.672	8998
898.792	8941
898.913	8883
899.033	8857
899.153	8758
899.273	8651
899.393	8724
899.513	8834
899.633	8724
899.753	8735
899.873	8766
899.993	8758
900.113	8655
900.232	8667
900.352	8754
900.472	8575
900.591	8568
900.711	8625
900.83	8602
900.95	8686
901.069	8701
901.189	8590
901.308	8469
901.427	8381
901.546	8404
901.665	8518
901.784	8503
901.904	8434
902.023	8301
902.141	8244
902.26	8240
902.379	8286
902.498	8210
902.617	8202
902.735	8343
902.854	8313
902.973	8320
903.091	8153
903.21	8161
903.328	8126
903.446	8161
903.565	8111
903.683	8050
903.801	8039
903.919	8084
904.038	8202
904.156	8024
904.274	8081
904.392	7989
904.51	8008
904.627	8073
904.745	8081
904.863	8084
904.981	8001
905.098	7932
905.216	7818
905.334	7906
905.451	7871
905.569	7894
905.686	7951
905.803	7951
905.921	7772
906.038	7856
906.155	7822
906.272	7788
906.389	7708
906.506	7571
906.623	7643
906.74	7548
906.857	7556
906.974	7571
907.091	7666
907.208	7719
907.324	7696
907.441	7605
907.557	7438
907.674	7396
907.79	7438
907.907	7415
908.023	7499
908.139	7453
908.256	7381
908.372	7362
908.488	7403
908.604	7278
908.72	7187
908.836	7244
908.952	7339
909.068	7251
909.184	7369
909.3	7316
909.415	7331
909.531	7308
909.647	7084
909.762	7152
909.878	7103
909.993	7122
910.108	7099
910.224	7183
910.339	7099
910.454	7057
910.57	7042
910.685	6966
910.8	7183
910.915	7084
911.03	7038
911.145	6932
911.259	6806
911.374	6981
911.489	6787
911.604	6825
911.718	6703
911.833	6726
911.947	6673
912.062	6639
912.176	6711
912.291	6776
912.405	6715
912.519	6840
912.633	6867
912.748	6787
912.862	6722
912.976	6688
913.09	6490
913.204	6585
913.318	6578
913.431	6719
913.545	6700
913.659	6681
913.772	6650
913.886	6574
914	6555
914.113	6650
914.226	6673
914.34	6589
914.453	6517
914.566	6627
914.68	6551
914.793	6597
914.906	6399
915.019	6437
915.132	6426
915.245	6441
915.358	6464
915.47	6448
915.583	6437
915.696	6578
915.809	6551
915.921	6555
916.034	6460
916.146	6467
916.259	6426
916.371	6475
916.483	6475
916.595	6391
916.708	6441
916.82	6429
916.932	6369
917.044	6365
917.156	6388
917.268	6342
917.38	6338
917.491	6338
917.603	6376
917.715	6452
917.826	6403
917.938	6323
918.049	6243
918.161	6346
918.272	6486
918.384	6464
918.495	6391
918.606	6266
918.717	6216
918.828	6254
918.939	6334
919.05	6235
919.161	6251
919.272	6186
919.383	6175
919.494	6353
919.604	6384
919.715	6361
919.826	6235
919.936	6247
920.047	6346
920.157	6304
920.267	6452
920.378	6323
920.488	6311
920.598	6479
920.708	6525
920.818	6502
920.928	6513
921.038	6673
921.148	6566
921.258	6357
921.368	6346
921.477	6239
921.587	6235
921.697	6083
921.806	6228
921.916	6022
922.025	5988
922.134	5969
922.244	5882
922.353	5939
922.462	5844
922.571	5798
922.68	5741
922.789	5714
922.898	5699
923.007	5642
923.116	5703
923.224	5688
923.333	5680
923.442	5619
923.55	5627
923.659	5562
923.767	5634
923.876	5581
923.984	5619
924.092	5535
924.201	5581
924.309	5535
924.417	5581
924.525	5528
924.633	5478
924.741	6292
924.849	5436
924.956	5490
925.064	5391
925.172	5318
925.279	5318
925.387	5364
925.494	5349
925.602	5402
925.709	5452
925.816	5277
925.924	5299
926.031	5353
926.138	5391
926.245	5379
926.352	5242
926.459	5322
926.566	5353
926.673	5208
926.779	5181
926.886	5140
926.993	5067
927.099	5029
927.206	4999
927.312	4927
927.419	5037
927.525	5014
927.631	5064
927.737	4930
927.843	4889
927.95	4778
928.056	4782
928.162	4816
928.267	4862
928.373	5254
928.479	4854
928.585	4672
928.69	4782
928.796	4797
928.901	4702
929.007	4599
929.112	4717
929.218	4573
929.323	4645
929.428	4634
929.533	4698
929.638	4542
929.743	4535
929.848	4584
929.953	4523
930.058	4470
930.163	4356
930.267	4371
930.372	4447
930.477	4325
930.581	4470
930.685	4409
930.79	4230
930.894	4249
930.998	4215
931.103	4432
931.207	4090
931.311	4067
931.415	4116
931.519	3945
931.623	3930
