Data from glass_V78500241_83.txt Node
Date: Wed Sep 01 19:15:04 CST 2021
User: usil
Spectrometer: V785-0024
Trigger mode: 0
Integration Time (sec): 4.000000E-1
Scans to average: 1
Nonlinearity correction enabled: false
Boxcar width: 0
Storing dark spectrum: false
XAxis mode: Wavelengths
Number of Pixels in Spectrum: 1024
>>>>>Begin Spectral Data<<<<<
801.071	3740
801.214	3736
801.356	3698
801.499	3759
801.641	3755
801.783	3785
801.926	3838
802.068	3819
802.211	3915
802.353	3903
802.496	3812
802.638	3899
802.78	3934
802.923	3941
803.065	3873
803.208	3880
803.35	3918
803.492	3903
803.635	3915
803.777	3838
803.919	3911
804.061	4166
804.204	3991
804.346	3949
804.488	3911
804.63	4063
804.773	3956
804.915	4017
805.057	4166
805.199	4086
805.341	4082
805.483	4135
805.626	4128
805.768	4188
805.91	4196
806.052	4268
806.194	4257
806.336	4371
806.478	4253
806.62	4173
806.762	4181
806.904	4295
807.046	4383
807.188	4196
807.33	4215
807.472	4265
807.614	4211
807.756	4337
807.898	4223
808.04	4234
808.182	4329
808.324	4379
808.465	4398
808.607	4493
808.749	4497
808.891	4481
809.033	4504
809.174	4398
809.316	4303
809.458	4261
809.6	4181
809.741	4124
809.883	4162
810.025	4246
810.166	4204
810.308	4265
810.45	4257
810.591	4261
810.733	4314
810.875	4561
811.016	4847
811.158	5151
811.299	5239
811.441	5288
811.582	5079
811.724	4763
811.865	4481
812.007	4497
812.148	4455
812.29	4462
812.431	4436
812.573	4447
812.714	4405
812.855	4428
812.997	4451
813.138	4497
813.279	4417
813.421	4367
813.562	4367
813.703	4337
813.845	4341
813.986	4314
814.127	4265
814.268	4272
814.41	4280
814.551	4261
814.692	4325
814.833	4291
814.974	4318
815.115	4390
815.256	4246
815.397	4249
815.539	4215
815.68	4207
815.821	4261
815.962	4360
816.103	4295
816.244	4265
816.385	4219
816.526	4291
816.666	4219
816.807	4101
816.948	4200
817.089	4139
817.23	4131
817.371	4048
817.512	4116
817.653	4078
817.793	4074
817.934	4051
818.075	4109
818.216	4112
818.356	4086
818.497	4002
818.638	3915
818.778	3949
818.919	3922
819.06	3869
819.2	3926
819.341	3880
819.481	3880
819.622	3930
819.762	4055
819.903	3979
820.043	3903
820.184	3842
820.324	3854
820.465	3888
820.605	3888
820.746	3918
820.886	3850
821.026	3979
821.167	3956
821.307	4032
821.447	3972
821.588	3994
821.728	3968
821.868	3972
822.008	3915
822.149	3945
822.289	3926
822.429	3728
822.569	3785
822.709	3857
822.849	3755
822.99	3774
823.13	3755
823.27	3781
823.41	3762
823.55	3736
823.69	3736
823.83	3747
823.97	3690
824.11	3644
824.25	3625
824.389	3614
824.529	3701
824.669	3660
824.809	3770
824.949	3778
825.089	3747
825.228	3701
825.368	3633
825.508	3576
825.648	3595
825.787	3633
825.927	3675
826.067	3637
826.206	3675
826.346	3774
826.485	3816
826.625	3869
826.765	3949
826.904	3857
827.044	3587
827.183	3511
827.323	3473
827.462	3481
827.601	3450
827.741	3409
827.88	3485
828.02	3431
828.159	3469
828.298	3507
828.437	3561
828.577	3485
828.716	3595
828.855	3542
828.994	3393
829.134	3412
829.273	3424
829.412	3348
829.551	3367
829.69	3374
829.829	3435
829.968	3542
830.107	3492
830.246	3447
830.385	3393
830.524	3344
830.663	3298
830.802	3283
830.941	3249
831.08	3218
831.219	3287
831.357	3313
831.496	3420
831.635	3279
831.774	3226
831.913	3192
832.051	3131
832.19	3127
832.329	3237
832.467	3127
832.606	3112
832.744	3173
832.883	3184
833.022	3192
833.16	3256
833.299	3317
833.437	3389
833.576	3405
833.714	3405
833.852	3443
833.991	3454
834.129	3458
834.267	3435
834.406	3416
834.544	3431
834.682	3420
834.821	3412
834.959	3587
835.097	3435
835.235	3542
835.373	3492
835.511	3519
835.65	3473
835.788	3507
835.926	3409
836.064	3416
836.202	3424
836.34	3587
836.478	3656
836.615	3557
836.753	3599
836.891	3652
837.029	3637
837.167	3587
837.305	3572
837.443	3568
837.58	3526
837.718	3595
837.856	3542
837.993	3564
838.131	3629
838.269	3637
838.406	3606
838.544	3587
838.681	3454
838.819	3488
838.956	3397
839.094	3382
839.231	3416
839.369	3599
839.506	3751
839.643	3648
839.781	3492
839.918	3492
840.055	3526
840.193	3504
840.33	3553
840.467	3610
840.604	3618
840.742	3861
840.879	3549
841.016	3549
841.153	3637
841.29	3781
841.427	3724
841.564	3736
841.701	3766
841.838	3720
841.975	3705
842.112	3766
842.249	3652
842.385	3679
842.522	3823
842.659	3713
842.796	3667
842.933	3732
843.069	3724
843.206	3682
843.343	3812
843.479	3732
843.616	3869
843.752	3709
843.889	3705
844.025	3915
844.162	3724
844.298	3865
844.435	3797
844.571	3804
844.708	3907
844.844	3991
844.98	4006
845.117	4040
845.253	3930
845.389	3903
845.525	3972
845.661	3983
845.798	3949
845.934	4029
846.07	3972
846.206	4074
846.342	4128
846.478	4044
846.614	4048
846.75	3926
846.886	3968
847.022	4074
847.158	3949
847.294	4002
847.429	4029
847.565	4010
847.701	4230
847.837	3930
847.972	3896
848.108	4025
848.244	4036
848.379	3873
848.515	3778
848.65	3812
848.786	3842
848.921	3842
849.057	3964
849.192	3915
849.328	3926
849.463	3899
849.598	3888
849.734	3899
849.869	3869
850.004	3789
850.14	3793
850.275	3785
850.41	3778
850.545	3785
850.68	3789
850.815	3823
850.95	3778
851.085	3937
851.22	3857
851.355	3884
851.49	3804
851.625	3835
851.76	3827
851.895	3766
852.03	3732
852.165	3747
852.299	3827
852.434	3896
852.569	3880
852.703	3850
852.838	3960
852.973	4040
853.107	4021
853.242	3907
853.376	3865
853.511	3816
853.645	3823
853.78	4006
853.914	3956
854.048	3899
854.183	3907
854.317	3953
854.451	4044
854.585	3926
854.72	3953
854.854	4086
854.988	3987
855.122	4010
855.256	3956
855.39	4044
855.524	4135
855.658	4097
855.792	4082
855.926	4097
856.06	4177
856.194	4238
856.327	4154
856.461	4177
856.595	4173
856.729	4192
856.862	4295
856.996	4276
857.13	4322
857.263	4356
857.397	4367
857.53	4306
857.664	4356
857.797	4386
857.931	4474
858.064	4443
858.197	4478
858.331	4451
858.464	4398
858.597	4367
858.731	4451
858.864	4466
858.997	4462
859.13	4519
859.263	4607
859.396	4592
859.529	4542
859.662	4558
859.795	4538
859.928	4592
860.061	4759
860.194	4767
860.327	4675
860.46	4672
860.592	4744
860.725	4755
860.858	4805
860.99	4698
861.123	4721
861.256	4656
861.388	4801
861.521	5425
861.653	4717
861.786	4702
861.918	4702
862.05	4828
862.183	4831
862.315	4877
862.447	4965
862.58	4885
862.712	4847
862.844	4755
862.976	4915
863.108	4847
863.24	5330
863.372	4793
863.504	4946
863.636	4850
863.768	4991
863.9	4957
864.032	4934
864.164	4987
864.296	5041
864.428	5086
864.559	5147
864.691	5124
864.823	5159
864.954	5151
865.086	5181
865.217	5098
865.349	5136
865.48	5201
865.612	5242
865.743	5292
865.875	5239
866.006	5178
866.137	5223
866.269	5288
866.4	5303
866.531	5231
866.662	5223
866.793	5269
866.924	5326
867.055	5337
867.186	5345
867.317	5372
867.448	5398
867.579	5326
867.71	5398
867.841	5429
867.972	5467
868.103	5524
868.233	5509
868.364	5497
868.495	5532
868.625	5611
868.756	5790
868.886	5707
869.017	5748
869.147	5844
869.278	5844
869.408	5828
869.539	5809
869.669	5935
869.799	5992
869.929	5935
870.06	6072
870.19	6190
870.32	6167
870.45	6281
870.58	6342
870.71	6456
870.84	6513
870.97	6452
871.1	6422
871.23	6662
871.36	6696
871.489	6707
871.619	6745
871.749	6829
871.879	6825
872.008	6981
872.138	7000
872.267	7031
872.397	6977
872.526	7061
872.656	7084
872.785	7225
872.915	7430
873.044	7529
873.173	7620
873.303	7647
873.432	7750
873.561	7898
873.69	7902
873.819	7989
873.948	8096
874.077	8294
874.206	8336
874.335	8434
874.464	8674
874.593	8815
874.722	8914
874.851	9127
874.979	9218
875.108	9386
875.237	9443
875.365	9397
875.494	9679
875.623	9854
875.751	9789
875.88	9968
876.008	10147
876.136	10230
876.265	10443
876.393	10698
876.521	10736
876.65	10824
876.778	10854
876.906	10892
877.034	10999
877.162	11071
877.29	11140
877.418	11280
877.546	11334
877.674	11497
877.802	11509
877.93	11570
878.058	11554
878.185	11524
878.313	11680
878.441	11726
878.568	11665
878.696	11836
878.824	11752
878.951	11916
879.079	11980
879.206	12110
879.333	12098
879.461	12007
879.588	12106
879.715	12136
879.842	12220
879.97	12045
880.097	11920
880.224	11950
880.351	11821
880.478	11824
880.605	11863
880.732	11843
880.859	11996
880.986	11901
881.112	11935
881.239	11752
881.366	11699
881.493	11653
881.619	11611
881.746	11558
881.872	11493
881.999	11440
882.125	11512
882.252	11532
882.378	11554
882.505	11573
882.631	11345
882.757	11334
882.883	11360
883.01	11303
883.136	11193
883.262	11128
883.388	11147
883.514	11113
883.64	11246
883.766	11121
883.892	11022
884.018	11045
884.143	11045
884.269	11060
884.395	10854
884.52	10748
884.646	10786
884.772	10786
884.897	10618
885.023	10668
885.148	10721
885.274	10793
885.399	10744
885.524	10626
885.65	10637
885.775	10565
885.9	10561
886.025	10603
886.15	10577
886.275	10470
886.4	10455
886.525	10424
886.65	10386
886.775	10375
886.9	10462
887.025	10538
887.149	10344
887.274	10265
887.399	10257
887.523	10143
887.648	10154
887.773	10169
887.897	10314
888.021	10188
888.146	10143
888.27	10268
888.395	10299
888.519	10200
888.643	10162
888.767	10219
888.891	10025
889.015	10025
889.139	10139
889.263	10010
889.387	10021
889.511	10116
889.635	10063
889.759	9892
889.883	9926
890.006	10021
890.13	10093
890.254	9956
890.377	9964
890.501	9857
890.624	9835
890.748	9960
890.871	9888
890.995	9743
891.118	9720
891.241	9743
891.364	9743
891.488	9816
891.611	9694
891.734	9747
891.857	9831
891.98	9701
892.103	9667
892.226	9717
892.349	9736
892.471	9599
892.594	9625
892.717	9622
892.839	9576
892.962	9622
893.085	9629
893.207	9625
893.33	9591
893.452	9553
893.575	9648
893.697	9466
893.819	9595
893.941	9637
894.064	9561
894.186	9443
894.308	9416
894.43	9564
894.552	9614
894.674	9488
894.796	9386
894.918	9435
895.04	9344
895.161	9367
895.283	9332
895.405	9268
895.526	9287
895.648	9188
895.769	9233
895.891	9306
896.012	9268
896.134	9154
896.255	9165
896.376	9070
896.498	9138
896.619	9154
896.74	9104
896.861	9154
896.982	9321
897.103	9268
897.224	9169
897.345	9089
897.466	9009
897.587	9017
897.708	9089
897.828	9009
897.949	8921
898.07	8895
898.19	8956
898.311	9028
898.431	8906
898.552	8971
898.672	8906
898.792	8948
898.913	8967
899.033	8800
899.153	8823
899.273	8571
899.393	8712
899.513	8807
899.633	8724
899.753	8758
899.873	8716
899.993	8727
900.113	8781
900.232	8708
900.352	8731
900.472	8640
900.591	8537
900.711	8632
900.83	8579
900.95	8674
901.069	8667
901.189	8564
901.308	8488
901.427	8381
901.546	8476
901.665	8499
901.784	8522
901.904	8480
902.023	8301
902.141	8233
902.26	8225
902.379	8313
902.498	8199
902.617	8256
902.735	8248
902.854	8279
902.973	8248
903.091	8084
903.21	8115
903.328	8157
903.446	8145
903.565	8088
903.683	8172
903.801	8058
903.919	8096
904.038	8084
904.156	8043
904.274	8024
904.392	8031
904.51	8069
904.627	8088
904.745	8103
904.863	8084
904.981	7963
905.098	7833
905.216	7932
905.334	7917
905.451	7944
905.569	7928
905.686	7951
905.803	7989
905.921	7784
906.038	7909
906.155	7841
906.272	7746
906.389	7769
906.506	7655
906.623	7620
906.74	7655
906.857	7582
906.974	7597
907.091	7700
907.208	7704
907.324	7666
907.441	7540
907.557	7529
907.674	7449
907.79	7426
907.907	7445
908.023	7441
908.139	7388
908.256	7373
908.372	7407
908.488	7415
908.604	7289
908.72	7255
908.836	7354
908.952	7282
909.068	7285
909.184	7339
909.3	7228
909.415	7377
909.531	7305
909.647	7129
909.762	7179
909.878	7145
909.993	7179
910.108	7084
910.224	7065
910.339	7107
910.454	7023
910.57	7031
910.685	6920
910.8	7194
910.915	7099
911.03	7038
911.145	6966
911.259	6897
911.374	6962
911.489	6840
911.604	6806
911.718	6760
911.833	6738
911.947	6700
912.062	6646
912.176	6703
912.291	6802
912.405	6753
912.519	6882
912.633	6886
912.748	6768
912.862	6757
912.976	6604
913.09	6521
913.204	6681
913.318	6620
913.431	6696
913.545	6734
913.659	6753
913.772	6631
913.886	6608
914	6551
914.113	6623
914.226	6692
914.34	6681
914.453	6540
914.566	6635
914.68	6544
914.793	6563
914.906	6471
915.019	6422
915.132	6429
915.245	6429
915.358	6475
915.47	6486
915.583	6494
915.696	6486
915.809	6551
915.921	6601
916.034	6475
916.146	6395
916.259	6433
916.371	6502
916.483	6475
916.595	6452
916.708	6426
916.82	6467
916.932	6452
917.044	6395
917.156	6407
917.268	6342
917.38	6350
917.491	6388
917.603	6407
917.715	6429
917.826	6475
917.938	6380
918.049	6270
918.161	6296
918.272	6445
918.384	6464
918.495	6384
918.606	6251
918.717	6190
918.828	6266
918.939	6308
919.05	6281
919.161	6247
919.272	6155
919.383	6194
919.494	6277
919.604	6467
919.715	6289
919.826	6197
919.936	6235
920.047	6308
920.157	6273
920.267	6494
920.378	6338
920.488	6251
920.598	6460
920.708	6566
920.818	6467
920.928	6452
921.038	6620
921.148	6532
921.258	6388
921.368	6289
921.477	6216
921.587	6186
921.697	6110
921.806	6228
921.916	6057
922.025	5973
922.134	5931
922.244	5897
922.353	5920
922.462	5855
922.571	5828
922.68	5661
922.789	5707
922.898	5764
923.007	5634
923.116	5691
923.224	5672
923.333	5691
923.442	5589
923.55	5554
923.659	5642
923.767	5642
923.876	5592
923.984	5627
924.092	5509
924.201	5573
924.309	5551
924.417	5577
924.525	5474
924.633	5543
924.741	6258
924.849	5372
924.956	5509
925.064	5417
925.172	5357
925.279	5349
925.387	5402
925.494	5349
925.602	5448
925.709	5391
925.816	5341
925.924	5330
926.031	5429
926.138	5341
926.245	5341
926.352	5258
926.459	5322
926.566	5387
926.673	5239
926.779	5143
926.886	5071
926.993	5071
927.099	5025
927.206	4949
927.312	5022
927.419	5033
927.525	4938
927.631	5048
927.737	4934
927.843	4877
927.95	4763
928.056	4843
928.162	4870
928.267	4870
928.373	5372
928.479	4911
928.585	4710
928.69	4767
928.796	4782
928.901	4721
929.007	4618
929.112	4702
929.218	4607
929.323	4618
929.428	4584
929.533	4740
929.638	4516
929.743	4546
929.848	4565
929.953	4489
930.058	4485
930.163	4333
930.267	4386
930.372	4443
930.477	4306
930.581	4500
930.685	4356
930.79	4291
930.894	4287
930.998	4261
931.103	4390
931.207	4143
931.311	4021
931.415	4032
931.519	3918
931.623	3953
