Data from glass_V78500241_1383.txt Node
Date: Wed Sep 01 19:24:05 CST 2021
User: usil
Spectrometer: V785-0024
Trigger mode: 0
Integration Time (sec): 4.000000E-1
Scans to average: 1
Nonlinearity correction enabled: false
Boxcar width: 0
Storing dark spectrum: false
XAxis mode: Wavelengths
Number of Pixels in Spectrum: 1024
>>>>>Begin Spectral Data<<<<<
801.071	3743
801.214	3724
801.356	3713
801.499	3724
801.641	3740
801.783	3732
801.926	3850
802.068	3800
802.211	3835
802.353	3888
802.496	3819
802.638	3884
802.78	3915
802.923	3937
803.065	3876
803.208	3842
803.35	3861
803.492	3911
803.635	3899
803.777	3835
803.919	3956
804.061	4131
804.204	3979
804.346	3953
804.488	3918
804.63	4048
804.773	3994
804.915	4013
805.057	4128
805.199	4059
805.341	4067
805.483	4166
805.626	4143
805.768	4131
805.91	4215
806.052	4238
806.194	4207
806.336	4352
806.478	4238
806.62	4158
806.762	4196
806.904	4219
807.046	4344
807.188	4207
807.33	4192
807.472	4230
807.614	4200
807.756	4284
807.898	4215
808.04	4246
808.182	4272
808.324	4318
808.465	4333
808.607	4443
808.749	4459
808.891	4466
809.033	4481
809.174	4405
809.316	4291
809.458	4246
809.6	4128
809.741	4135
809.883	4162
810.025	4200
810.166	4223
810.308	4215
810.45	4246
810.591	4246
810.733	4295
810.875	4535
811.016	4850
811.158	5132
811.299	5254
811.441	5322
811.582	5056
811.724	4672
811.865	4497
812.007	4440
812.148	4447
812.29	4432
812.431	4402
812.573	4424
812.714	4394
812.855	4424
812.997	4413
813.138	4519
813.279	4383
813.421	4402
813.562	4386
813.703	4299
813.845	4356
813.986	4230
814.127	4204
814.268	4265
814.41	4284
814.551	4238
814.692	4325
814.833	4276
814.974	4299
815.115	4394
815.256	4246
815.397	4249
815.539	4280
815.68	4211
815.821	4249
815.962	4310
816.103	4242
816.244	4284
816.385	4200
816.526	4268
816.666	4207
816.807	4135
816.948	4204
817.089	4181
817.23	4116
817.371	4048
817.512	4051
817.653	4071
817.793	4071
817.934	4071
818.075	4120
818.216	4082
818.356	4097
818.497	4010
818.638	3857
818.778	3960
818.919	3884
819.06	3884
819.2	3903
819.341	3854
819.481	3819
819.622	3911
819.762	4017
819.903	3915
820.043	3873
820.184	3880
820.324	3816
820.465	3888
820.605	3850
820.746	3869
820.886	3781
821.026	3926
821.167	3949
821.307	3983
821.447	3968
821.588	3975
821.728	3964
821.868	3926
822.008	3892
822.149	3907
822.289	3956
822.429	3747
822.569	3740
822.709	3789
822.849	3736
822.99	3774
823.13	3747
823.27	3766
823.41	3724
823.55	3724
823.69	3705
823.83	3819
823.97	3679
824.11	3622
824.25	3629
824.389	3641
824.529	3644
824.669	3629
824.809	3740
824.949	3747
825.089	3743
825.228	3663
825.368	3564
825.508	3606
825.648	3580
825.787	3641
825.927	3641
826.067	3614
826.206	3671
826.346	3797
826.485	3827
826.625	3838
826.765	3953
826.904	3823
827.044	3652
827.183	3500
827.323	3462
827.462	3458
827.601	3447
827.741	3409
827.88	3458
828.02	3370
828.159	3473
828.298	3462
828.437	3530
828.577	3500
828.716	3614
828.855	3485
828.994	3378
829.134	3348
829.273	3397
829.412	3374
829.551	3313
829.69	3344
829.829	3473
829.968	3553
830.107	3428
830.246	3443
830.385	3389
830.524	3344
830.663	3291
830.802	3260
830.941	3188
831.08	3192
831.219	3317
831.357	3245
831.496	3378
831.635	3256
831.774	3195
831.913	3211
832.051	3150
832.19	3123
832.329	3211
832.467	3142
832.606	3089
832.744	3116
832.883	3192
833.022	3218
833.16	3275
833.299	3329
833.437	3351
833.576	3389
833.714	3420
833.852	3431
833.991	3466
834.129	3500
834.267	3420
834.406	3420
834.544	3424
834.682	3447
834.821	3416
834.959	3606
835.097	3428
835.235	3538
835.373	3454
835.511	3549
835.65	3412
835.788	3462
835.926	3386
836.064	3393
836.202	3367
836.34	3564
836.478	3618
836.615	3500
836.753	3606
836.891	3637
837.029	3606
837.167	3614
837.305	3564
837.443	3545
837.58	3526
837.718	3564
837.856	3553
837.993	3538
838.131	3603
838.269	3599
838.406	3584
838.544	3580
838.681	3496
838.819	3492
838.956	3374
839.094	3424
839.231	3435
839.369	3542
839.506	3720
839.643	3679
839.781	3485
839.918	3469
840.055	3564
840.193	3549
840.33	3534
840.467	3553
840.604	3584
840.742	3816
840.879	3580
841.016	3572
841.153	3568
841.29	3762
841.427	3686
841.564	3762
841.701	3747
841.838	3717
841.975	3694
842.112	3728
842.249	3629
842.385	3682
842.522	3819
842.659	3724
842.796	3709
842.933	3690
843.069	3709
843.206	3720
843.343	3800
843.479	3804
843.616	3823
843.752	3625
843.889	3682
844.025	3899
844.162	3701
844.298	3869
844.435	3793
844.571	3819
844.708	3915
844.844	4025
844.98	4086
845.117	4002
845.253	3956
845.389	3892
845.525	3949
845.661	4002
845.798	3937
845.934	4010
846.07	3968
846.206	4109
846.342	4131
846.478	4063
846.614	3960
846.75	3934
846.886	3907
847.022	4036
847.158	4021
847.294	4048
847.429	4059
847.565	3983
847.701	4299
847.837	3865
847.972	3857
848.108	3972
848.244	3987
848.379	3880
848.515	3827
848.65	3831
848.786	3842
848.921	3869
849.057	3934
849.192	3911
849.328	3930
849.463	3934
849.598	3918
849.734	3869
849.869	3831
850.004	3751
850.14	3804
850.275	3793
850.41	3743
850.545	3759
850.68	3778
850.815	3831
850.95	3812
851.085	3937
851.22	3846
851.355	3888
851.49	3793
851.625	3797
851.76	3812
851.895	3724
852.03	3770
852.165	3808
852.299	3850
852.434	3918
852.569	3861
852.703	3854
852.838	3937
852.973	4036
853.107	4006
853.242	3915
853.376	3857
853.511	3816
853.645	3838
853.78	3949
853.914	3861
854.048	3926
854.183	3865
854.317	3941
854.451	4063
854.585	3968
854.72	3953
854.854	4055
854.988	3956
855.122	3956
855.256	3934
855.39	4010
855.524	4086
855.658	4116
855.792	4139
855.926	4158
856.06	4181
856.194	4219
856.327	4139
856.461	4162
856.595	4177
856.729	4169
856.862	4284
856.996	4196
857.13	4280
857.263	4341
857.397	4348
857.53	4329
857.664	4363
857.797	4409
857.931	4375
858.064	4440
858.197	4466
858.331	4371
858.464	4379
858.597	4402
858.731	4417
858.864	4455
858.997	4424
859.13	4519
859.263	4535
859.396	4626
859.529	4504
859.662	4527
859.795	4523
859.928	4637
860.061	4729
860.194	4759
860.327	4668
860.46	4630
860.592	4759
860.725	4782
860.858	4778
860.99	4698
861.123	4729
861.256	4702
861.388	4790
861.521	5284
861.653	4752
861.786	4679
861.918	4748
862.05	4790
862.183	4854
862.315	4919
862.447	4889
862.58	4911
862.712	4828
862.844	4767
862.976	4858
863.108	4904
863.24	5181
863.372	4812
863.504	4877
863.636	4965
863.768	4987
863.9	4957
864.032	4946
864.164	4987
864.296	5029
864.428	5071
864.559	5083
864.691	5113
864.823	5136
864.954	5090
865.086	5151
865.217	5140
865.349	5071
865.48	5181
865.612	5204
865.743	5284
865.875	5197
866.006	5239
866.137	5201
866.269	5273
866.4	5208
866.531	5223
866.662	5239
866.793	5307
866.924	5254
867.055	5410
867.186	5368
867.317	5288
867.448	5315
867.579	5387
867.71	5417
867.841	5391
867.972	5452
868.103	5474
868.233	5516
868.364	5512
868.495	5573
868.625	5653
868.756	5813
868.886	5653
869.017	5729
869.147	5821
869.278	5817
869.408	5802
869.539	5874
869.669	5878
869.799	5950
869.929	6003
870.06	6064
870.19	6178
870.32	6155
870.45	6262
870.58	6350
870.71	6410
870.84	6471
870.97	6407
871.1	6426
871.23	6563
871.36	6707
871.489	6646
871.619	6787
871.749	6878
871.879	6848
872.008	6966
872.138	6966
872.267	6970
872.397	6985
872.526	7057
872.656	7084
872.785	7202
872.915	7339
873.044	7506
873.173	7575
873.303	7586
873.432	7776
873.561	7902
873.69	7902
873.819	8012
873.948	8157
874.077	8248
874.206	8351
874.335	8438
874.464	8659
874.593	8895
874.722	8876
874.851	9104
874.979	9253
875.108	9428
875.237	9481
875.365	9469
875.494	9599
875.623	9835
875.751	9880
875.88	10048
876.008	10093
876.136	10299
876.265	10592
876.393	10702
876.521	10767
876.65	10805
876.778	10812
876.906	11014
877.034	10984
877.162	11052
877.29	11162
877.418	11277
877.546	11318
877.674	11440
877.802	11520
877.93	11467
878.058	11562
878.185	11566
878.313	11554
878.441	11843
878.568	11737
878.696	11832
878.824	11946
878.951	11961
879.079	12030
879.206	12175
879.333	12095
879.461	12022
879.588	12083
879.715	12015
879.842	12232
879.97	12098
880.097	11878
880.224	11843
880.351	11878
880.478	11939
880.605	11912
880.732	11878
880.859	12041
880.986	11885
881.112	11912
881.239	11760
881.366	11665
881.493	11551
881.619	11528
881.746	11535
881.872	11573
881.999	11566
882.125	11436
882.252	11604
882.378	11474
882.505	11608
882.631	11395
882.757	11284
882.883	11311
883.01	11360
883.136	11151
883.262	11075
883.388	11048
883.514	11170
883.64	11204
883.766	11064
883.892	11006
884.018	10930
884.143	11022
884.269	11025
884.395	10843
884.52	10736
884.646	10824
884.772	10698
884.897	10626
885.023	10714
885.148	10759
885.274	10771
885.399	10691
885.524	10618
885.65	10649
885.775	10599
885.9	10535
886.025	10599
886.15	10554
886.275	10500
886.4	10363
886.525	10470
886.65	10436
886.775	10356
886.9	10470
887.025	10584
887.149	10360
887.274	10227
887.399	10249
887.523	10215
887.648	10158
887.773	10177
887.897	10207
888.021	10238
888.146	10093
888.27	10284
888.395	10246
888.519	10204
888.643	10055
888.767	10071
888.891	10040
889.015	10010
889.139	9994
889.263	9930
889.387	10051
889.511	10124
889.635	10010
889.759	9918
889.883	9979
890.006	10006
890.13	10116
890.254	9964
890.377	9930
890.501	9888
890.624	9930
890.748	9911
890.871	9778
890.995	9770
891.118	9717
891.241	9766
891.364	9819
891.488	9819
891.611	9724
891.734	9740
891.857	9759
891.98	9652
892.103	9789
892.226	9736
892.349	9701
892.471	9519
892.594	9625
892.717	9652
892.839	9648
892.962	9572
893.085	9682
893.207	9599
893.33	9564
893.452	9538
893.575	9644
893.697	9496
893.819	9625
893.941	9625
894.064	9618
894.186	9458
894.308	9428
894.43	9572
894.552	9656
894.674	9637
894.796	9386
894.918	9492
895.04	9359
895.161	9386
895.283	9340
895.405	9249
895.526	9291
895.648	9249
895.769	9272
895.891	9260
896.012	9260
896.134	9233
896.255	9146
896.376	9135
896.498	9104
896.619	9131
896.74	9066
896.861	9089
896.982	9272
897.103	9287
897.224	9154
897.345	9070
897.466	8986
897.587	9047
897.708	9146
897.828	9001
897.949	8937
898.07	8804
898.19	8925
898.311	9058
898.431	8929
898.552	8910
898.672	8994
898.792	8876
898.913	8902
899.033	8792
899.153	8773
899.273	8678
899.393	8762
899.513	8773
899.633	8670
899.753	8697
899.873	8731
899.993	8659
900.113	8678
900.232	8651
900.352	8632
900.472	8632
900.591	8587
900.711	8552
900.83	8575
900.95	8663
901.069	8708
901.189	8594
901.308	8427
901.427	8263
901.546	8370
901.665	8434
901.784	8514
901.904	8332
902.023	8244
902.141	8252
902.26	8157
902.379	8328
902.498	8191
902.617	8271
902.735	8286
902.854	8328
902.973	8259
903.091	8134
903.21	8172
903.328	8153
903.446	8168
903.565	8161
903.683	8180
903.801	8005
903.919	8115
904.038	8123
904.156	7978
904.274	8119
904.392	8012
904.51	8062
904.627	8058
904.745	8062
904.863	8100
904.981	7894
905.098	7906
905.216	7864
905.334	7932
905.451	7841
905.569	7856
905.686	7951
905.803	7951
905.921	7788
906.038	7883
906.155	7769
906.272	7704
906.389	7750
906.506	7647
906.623	7666
906.74	7616
906.857	7575
906.974	7605
907.091	7677
907.208	7719
907.324	7708
907.441	7586
907.557	7499
907.674	7510
907.79	7377
907.907	7460
908.023	7453
908.139	7445
908.256	7392
908.372	7381
908.488	7388
908.604	7209
908.72	7183
908.836	7297
908.952	7259
909.068	7209
909.184	7354
909.3	7285
909.415	7305
909.531	7259
909.647	7118
909.762	7126
909.878	7076
909.993	7179
910.108	7190
910.224	7110
910.339	7114
910.454	7053
910.57	7012
910.685	6947
910.8	7164
910.915	7122
911.03	7008
911.145	6924
911.259	6916
911.374	6840
911.489	6916
911.604	6795
911.718	6741
911.833	6738
911.947	6711
912.062	6601
912.176	6738
912.291	6738
912.405	6715
912.519	6833
912.633	6821
912.748	6776
912.862	6707
912.976	6639
913.09	6563
913.204	6627
913.318	6563
913.431	6639
913.545	6722
913.659	6764
913.772	6616
913.886	6578
914	6620
914.113	6604
914.226	6601
914.34	6608
914.453	6494
914.566	6650
914.68	6506
914.793	6517
914.906	6426
915.019	6403
915.132	6372
915.245	6448
915.358	6513
915.47	6445
915.583	6437
915.696	6479
915.809	6559
915.921	6540
916.034	6456
916.146	6391
916.259	6380
916.371	6490
916.483	6498
916.595	6426
916.708	6418
916.82	6391
916.932	6376
917.044	6433
917.156	6323
917.268	6311
917.38	6350
917.491	6304
917.603	6353
917.715	6365
917.826	6399
917.938	6327
918.049	6258
918.161	6296
918.272	6365
918.384	6437
918.495	6346
918.606	6289
918.717	6281
918.828	6281
918.939	6232
919.05	6281
919.161	6266
919.272	6159
919.383	6163
919.494	6350
919.604	6407
919.715	6323
919.826	6220
919.936	6300
920.047	6380
920.157	6311
920.267	6467
920.378	6334
920.488	6327
920.598	6388
920.708	6555
920.818	6441
920.928	6426
921.038	6612
921.148	6525
921.258	6407
921.368	6384
921.477	6190
921.587	6178
921.697	6106
921.806	6152
921.916	6091
922.025	5999
922.134	5950
922.244	5859
922.353	5942
922.462	5897
922.571	5802
922.68	5741
922.789	5649
922.898	5665
923.007	5718
923.116	5688
923.224	5722
923.333	5718
923.442	5638
923.55	5600
923.659	5581
923.767	5619
923.876	5551
923.984	5596
924.092	5516
924.201	5535
924.309	5490
924.417	5535
924.525	5474
924.633	5493
924.741	6258
924.849	5349
924.956	5490
925.064	5372
925.172	5318
925.279	5254
925.387	5345
925.494	5341
925.602	5452
925.709	5357
925.816	5299
925.924	5334
926.031	5318
926.138	5315
926.245	5391
926.352	5212
926.459	5330
926.566	5307
926.673	5258
926.779	5159
926.886	5079
926.993	5014
927.099	5003
927.206	4980
927.312	4946
927.419	4987
927.525	4987
927.631	4976
927.737	4911
927.843	4889
927.95	4793
928.056	4774
928.162	4843
928.267	4828
928.373	5242
928.479	4881
928.585	4679
928.69	4767
928.796	4782
928.901	4744
929.007	4550
929.112	4664
929.218	4653
929.323	4603
929.428	4592
929.533	4637
929.638	4500
929.743	4550
929.848	4542
929.953	4500
930.058	4451
930.163	4341
930.267	4379
930.372	4421
930.477	4322
930.581	4455
930.685	4383
930.79	4268
930.894	4310
930.998	4234
931.103	4417
931.207	4150
931.311	4067
931.415	4021
931.519	3911
931.623	3945
