Data from glass_V78500241_1451.txt Node
Date: Wed Sep 01 19:24:33 CST 2021
User: usil
Spectrometer: V785-0024
Trigger mode: 0
Integration Time (sec): 4.000000E-1
Scans to average: 1
Nonlinearity correction enabled: false
Boxcar width: 0
Storing dark spectrum: false
XAxis mode: Wavelengths
Number of Pixels in Spectrum: 1024
>>>>>Begin Spectral Data<<<<<
801.071	3766
801.214	3720
801.356	3682
801.499	3736
801.641	3755
801.783	3766
801.926	3854
802.068	3808
802.211	3861
802.353	3838
802.496	3873
802.638	3937
802.78	3915
802.923	3968
803.065	3934
803.208	3869
803.35	3861
803.492	3930
803.635	3911
803.777	3819
803.919	3884
804.061	4147
804.204	3983
804.346	3991
804.488	3930
804.63	4074
804.773	3926
804.915	4040
805.057	4128
805.199	4082
805.341	4078
805.483	4131
805.626	4131
805.768	4116
805.91	4234
806.052	4227
806.194	4227
806.336	4356
806.478	4246
806.62	4139
806.762	4211
806.904	4284
807.046	4314
807.188	4200
807.33	4173
807.472	4234
807.614	4215
807.756	4280
807.898	4207
808.04	4196
808.182	4299
808.324	4310
808.465	4348
808.607	4455
808.749	4447
808.891	4485
809.033	4527
809.174	4413
809.316	4246
809.458	4234
809.6	4200
809.741	4162
809.883	4150
810.025	4211
810.166	4207
810.308	4242
810.45	4234
810.591	4261
810.733	4310
810.875	4516
811.016	4797
811.158	5105
811.299	5254
811.441	5265
811.582	5052
811.724	4725
811.865	4478
812.007	4466
812.148	4466
812.29	4402
812.431	4447
812.573	4383
812.714	4386
812.855	4421
812.997	4390
813.138	4478
813.279	4447
813.421	4394
813.562	4398
813.703	4337
813.845	4299
813.986	4207
814.127	4196
814.268	4249
814.41	4284
814.551	4299
814.692	4341
814.833	4249
814.974	4299
815.115	4329
815.256	4272
815.397	4261
815.539	4253
815.68	4230
815.821	4192
815.962	4329
816.103	4253
816.244	4230
816.385	4234
816.526	4314
816.666	4238
816.807	4128
816.948	4181
817.089	4166
817.23	4093
817.371	4063
817.512	4021
817.653	4067
817.793	4051
817.934	4021
818.075	4124
818.216	4116
818.356	4063
818.497	4002
818.638	3968
818.778	3918
818.919	3884
819.06	3884
819.2	3915
819.341	3899
819.481	3838
819.622	3937
819.762	4006
819.903	3934
820.043	3842
820.184	3857
820.324	3854
820.465	3884
820.605	3846
820.746	3907
820.886	3789
821.026	3911
821.167	3926
821.307	3937
821.447	3987
821.588	3956
821.728	3945
821.868	3960
822.008	3873
822.149	3934
822.289	3934
822.429	3789
822.569	3793
822.709	3808
822.849	3717
822.99	3720
823.13	3804
823.27	3797
823.41	3698
823.55	3743
823.69	3728
823.83	3728
823.97	3686
824.11	3603
824.25	3599
824.389	3637
824.529	3679
824.669	3606
824.809	3747
824.949	3800
825.089	3759
825.228	3720
825.368	3568
825.508	3595
825.648	3572
825.787	3591
825.927	3614
826.067	3610
826.206	3663
826.346	3831
826.485	3831
826.625	3842
826.765	3930
826.904	3797
827.044	3622
827.183	3504
827.323	3416
827.462	3477
827.601	3416
827.741	3416
827.88	3409
828.02	3363
828.159	3454
828.298	3492
828.437	3549
828.577	3469
828.716	3580
828.855	3496
828.994	3405
829.134	3332
829.273	3367
829.412	3340
829.551	3313
829.69	3359
829.829	3447
829.968	3519
830.107	3416
830.246	3443
830.385	3389
830.524	3336
830.663	3291
830.802	3294
830.941	3176
831.08	3199
831.219	3279
831.357	3241
831.496	3397
831.635	3222
831.774	3192
831.913	3184
832.051	3119
832.19	3116
832.329	3245
832.467	3142
832.606	3116
832.744	3192
832.883	3184
833.022	3214
833.16	3233
833.299	3302
833.437	3348
833.576	3420
833.714	3397
833.852	3450
833.991	3496
834.129	3466
834.267	3462
834.406	3397
834.544	3462
834.682	3420
834.821	3351
834.959	3584
835.097	3382
835.235	3545
835.373	3466
835.511	3523
835.65	3473
835.788	3447
835.926	3409
836.064	3374
836.202	3450
836.34	3542
836.478	3618
836.615	3534
836.753	3587
836.891	3606
837.029	3660
837.167	3595
837.305	3526
837.443	3530
837.58	3507
837.718	3595
837.856	3542
837.993	3564
838.131	3549
838.269	3591
838.406	3576
838.544	3568
838.681	3496
838.819	3466
838.956	3367
839.094	3374
839.231	3450
839.369	3496
839.506	3724
839.643	3584
839.781	3519
839.918	3439
840.055	3557
840.193	3530
840.33	3523
840.467	3576
840.604	3584
840.742	3827
840.879	3553
841.016	3591
841.153	3606
841.29	3732
841.427	3728
841.564	3751
841.701	3743
841.838	3698
841.975	3682
842.112	3755
842.249	3633
842.385	3660
842.522	3812
842.659	3701
842.796	3701
842.933	3682
843.069	3671
843.206	3709
843.343	3854
843.479	3770
843.616	3812
843.752	3675
843.889	3759
844.025	3896
844.162	3717
844.298	3876
844.435	3785
844.571	3785
844.708	3861
844.844	3998
844.98	3964
845.117	4048
845.253	3903
845.389	3896
845.525	3972
845.661	3937
845.798	3926
845.934	4071
846.07	3964
846.206	4021
846.342	4116
846.478	4029
846.614	3998
846.75	3949
846.886	3968
847.022	4017
847.158	3983
847.294	4013
847.429	4002
847.565	3998
847.701	4280
847.837	3896
847.972	3819
848.108	3968
848.244	3937
848.379	3850
848.515	3842
848.65	3804
848.786	3850
848.921	3861
849.057	3941
849.192	3975
849.328	3960
849.463	3960
849.598	3865
849.734	3850
849.869	3831
850.004	3835
850.14	3827
850.275	3751
850.41	3686
850.545	3789
850.68	3804
850.815	3808
850.95	3827
851.085	3941
851.22	3884
851.355	3842
851.49	3838
851.625	3785
851.76	3823
851.895	3724
852.03	3732
852.165	3789
852.299	3835
852.434	3892
852.569	3899
852.703	3865
852.838	3987
852.973	3975
853.107	3994
853.242	3907
853.376	3861
853.511	3812
853.645	3850
853.78	3953
853.914	3880
854.048	3903
854.183	3892
854.317	3991
854.451	4055
854.585	3979
854.72	3934
854.854	4051
854.988	3880
855.122	4002
855.256	3949
855.39	4017
855.524	4120
855.658	4124
855.792	4135
855.926	4109
856.06	4135
856.194	4204
856.327	4120
856.461	4173
856.595	4166
856.729	4173
856.862	4303
856.996	4257
857.13	4318
857.263	4310
857.397	4306
857.53	4337
857.664	4337
857.797	4371
857.931	4481
858.064	4341
858.197	4470
858.331	4356
858.464	4394
858.597	4352
858.731	4409
858.864	4405
858.997	4478
859.13	4478
859.263	4535
859.396	4592
859.529	4527
859.662	4519
859.795	4542
859.928	4550
860.061	4687
860.194	4694
860.327	4645
860.46	4653
860.592	4691
860.725	4755
860.858	4740
860.99	4740
861.123	4687
861.256	4668
861.388	4740
861.521	5357
861.653	4694
861.786	4675
861.918	4740
862.05	4786
862.183	4835
862.315	4885
862.447	4923
862.58	4911
862.712	4816
862.844	4771
862.976	4801
863.108	4870
863.24	5155
863.372	4786
863.504	4881
863.636	4824
863.768	4915
863.9	4961
864.032	4927
864.164	4934
864.296	5037
864.428	5056
864.559	5048
864.691	5067
864.823	5102
864.954	5117
865.086	5140
865.217	5109
865.349	5102
865.48	5178
865.612	5185
865.743	5265
865.875	5220
866.006	5174
866.137	5239
866.269	5151
866.4	5273
866.531	5261
866.662	5277
866.793	5269
866.924	5273
867.055	5330
867.186	5353
867.317	5296
867.448	5353
867.579	5360
867.71	5364
867.841	5372
867.972	5436
868.103	5474
868.233	5516
868.364	5482
868.495	5566
868.625	5680
868.756	5786
868.886	5619
869.017	5699
869.147	5817
869.278	5821
869.408	5855
869.539	5874
869.669	5954
869.799	5855
869.929	5946
870.06	6053
870.19	6167
870.32	6235
870.45	6243
870.58	6346
870.71	6460
870.84	6403
870.97	6483
871.1	6418
871.23	6654
871.36	6711
871.489	6654
871.619	6795
871.749	6806
871.879	6909
872.008	6913
872.138	6973
872.267	7050
872.397	7034
872.526	7053
872.656	7107
872.785	7160
872.915	7365
873.044	7480
873.173	7578
873.303	7563
873.432	7681
873.561	7898
873.69	7940
873.819	8069
873.948	8168
874.077	8263
874.206	8423
874.335	8461
874.464	8727
874.593	8902
874.722	8910
874.851	9176
874.979	9211
875.108	9325
875.237	9420
875.365	9443
875.494	9603
875.623	9774
875.751	9831
875.88	9987
876.008	10177
876.136	10268
876.265	10493
876.393	10774
876.521	10786
876.65	10843
876.778	10892
876.906	10892
877.034	10991
877.162	11098
877.29	11181
877.418	11303
877.546	11360
877.674	11391
877.802	11410
877.93	11543
878.058	11539
878.185	11611
878.313	11672
878.441	11729
878.568	11661
878.696	11878
878.824	11885
878.951	11969
879.079	11999
879.206	12110
879.333	12095
879.461	12011
879.588	12045
879.715	12117
879.842	12220
879.97	11954
880.097	11946
880.224	11828
880.351	11874
880.478	11828
880.605	11828
880.732	11824
880.859	11939
880.986	11794
881.112	11851
881.239	11684
881.366	11611
881.493	11642
881.619	11608
881.746	11512
881.872	11589
881.999	11505
882.125	11433
882.252	11528
882.378	11547
882.505	11608
882.631	11330
882.757	11284
882.883	11311
883.01	11326
883.136	11201
883.262	11151
883.388	11128
883.514	11254
883.64	11124
883.766	11079
883.892	11014
884.018	10999
884.143	11045
884.269	11086
884.395	10862
884.52	10778
884.646	10763
884.772	10771
884.897	10668
885.023	10664
885.148	10725
885.274	10812
885.399	10691
885.524	10641
885.65	10558
885.775	10535
885.9	10508
886.025	10565
886.15	10603
886.275	10462
886.4	10470
886.525	10386
886.65	10356
886.775	10314
886.9	10500
887.025	10546
887.149	10348
887.274	10196
887.399	10207
887.523	10177
887.648	10128
887.773	10097
887.897	10207
888.021	10204
888.146	10147
888.27	10169
888.395	10284
888.519	10147
888.643	10219
888.767	10272
888.891	10040
889.015	9956
889.139	10010
889.263	9994
889.387	10074
889.511	10063
889.635	10135
889.759	9915
889.883	9930
890.006	9960
890.13	10143
890.254	9972
890.377	10025
890.501	9831
890.624	9854
890.748	9907
890.871	9823
890.995	9755
891.118	9724
891.241	9690
891.364	9686
891.488	9895
891.611	9770
891.734	9705
891.857	9774
891.98	9732
892.103	9827
892.226	9724
892.349	9663
892.471	9507
892.594	9603
892.717	9618
892.839	9622
892.962	9538
893.085	9698
893.207	9690
893.33	9576
893.452	9526
893.575	9637
893.697	9580
893.819	9648
893.941	9667
894.064	9584
894.186	9469
894.308	9378
894.43	9534
894.552	9622
894.674	9492
894.796	9397
894.918	9397
895.04	9332
895.161	9359
895.283	9351
895.405	9169
895.526	9226
895.648	9211
895.769	9237
895.891	9253
896.012	9359
896.134	9245
896.255	9207
896.376	9169
896.498	9127
896.619	9085
896.74	9024
896.861	9047
896.982	9294
897.103	9348
897.224	9268
897.345	9039
897.466	8982
897.587	9039
897.708	9112
897.828	9043
897.949	9009
898.07	8868
898.19	8891
898.311	8967
898.431	8895
898.552	8876
898.672	8952
898.792	8994
898.913	8906
899.033	8762
899.153	8758
899.273	8712
899.393	8773
899.513	8762
899.633	8731
899.753	8754
899.873	8731
899.993	8674
900.113	8640
900.232	8750
900.352	8724
900.472	8514
900.591	8556
900.711	8625
900.83	8560
900.95	8720
901.069	8689
901.189	8598
901.308	8381
901.427	8404
901.546	8446
901.665	8461
901.784	8484
901.904	8393
902.023	8305
902.141	8191
902.26	8164
902.379	8279
902.498	8248
902.617	8244
902.735	8317
902.854	8263
902.973	8267
903.091	8134
903.21	8123
903.328	8233
903.446	8161
903.565	8008
903.683	8172
903.801	8016
903.919	8126
904.038	8138
904.156	8008
904.274	8046
904.392	8111
904.51	8054
904.627	7970
904.745	8058
904.863	8073
904.981	8005
905.098	7860
905.216	7944
905.334	7879
905.451	7928
905.569	7898
905.686	7921
905.803	7928
905.921	7734
906.038	7852
906.155	7807
906.272	7647
906.389	7704
906.506	7624
906.623	7616
906.74	7632
906.857	7632
906.974	7525
907.091	7655
907.208	7704
907.324	7571
907.441	7586
907.557	7415
907.674	7411
907.79	7415
907.907	7411
908.023	7415
908.139	7453
908.256	7396
908.372	7365
908.488	7331
908.604	7308
908.72	7293
908.836	7266
908.952	7274
909.068	7282
909.184	7316
909.3	7259
909.415	7320
909.531	7278
909.647	7084
909.762	7152
909.878	7107
909.993	7137
910.108	7091
910.224	7012
910.339	7103
910.454	7012
910.57	7053
910.685	6954
910.8	7175
910.915	7145
911.03	7065
911.145	6920
911.259	6916
911.374	6924
911.489	6886
911.604	6806
911.718	6684
911.833	6715
911.947	6646
912.062	6593
912.176	6745
912.291	6741
912.405	6650
912.519	6825
912.633	6825
912.748	6669
912.862	6620
912.976	6589
913.09	6563
913.204	6627
913.318	6616
913.431	6719
913.545	6692
913.659	6745
913.772	6684
913.886	6578
914	6608
914.113	6642
914.226	6616
914.34	6646
914.453	6502
914.566	6585
914.68	6494
914.793	6525
914.906	6391
915.019	6388
915.132	6403
915.245	6414
915.358	6517
915.47	6426
915.583	6475
915.696	6407
915.809	6574
915.921	6540
916.034	6494
916.146	6391
916.259	6452
916.371	6467
916.483	6437
916.595	6414
916.708	6372
916.82	6380
916.932	6414
917.044	6361
917.156	6327
917.268	6361
917.38	6331
917.491	6346
917.603	6300
917.715	6372
917.826	6410
917.938	6319
918.049	6224
918.161	6311
918.272	6426
918.384	6429
918.495	6331
918.606	6304
918.717	6186
918.828	6277
918.939	6285
919.05	6239
919.161	6270
919.272	6155
919.383	6178
919.494	6285
919.604	6452
919.715	6266
919.826	6251
919.936	6213
920.047	6350
920.157	6304
920.267	6494
920.378	6327
920.488	6315
920.598	6479
920.708	6555
920.818	6502
920.928	6486
921.038	6601
921.148	6566
921.258	6315
921.368	6323
921.477	6178
921.587	6178
921.697	6076
921.806	6155
921.916	6087
922.025	5954
922.134	5946
922.244	5866
922.353	5996
922.462	5851
922.571	5813
922.68	5745
922.789	5676
922.898	5760
923.007	5638
923.116	5752
923.224	5676
923.333	5729
923.442	5611
923.55	5592
923.659	5604
923.767	5615
923.876	5558
923.984	5589
924.092	5486
924.201	5562
924.309	5543
924.417	5562
924.525	5467
924.633	5501
924.741	6117
924.849	5360
924.956	5471
925.064	5360
925.172	5265
925.279	5337
925.387	5330
925.494	5318
925.602	5440
925.709	5410
925.816	5288
925.924	5299
926.031	5379
926.138	5322
926.245	5326
926.352	5269
926.459	5368
926.566	5284
926.673	5220
926.779	5162
926.886	5113
926.993	5003
927.099	4980
927.206	4972
927.312	4968
927.419	4972
927.525	4949
927.631	5025
927.737	4908
927.843	4858
927.95	4740
928.056	4828
928.162	4816
928.267	4870
928.373	5235
928.479	4847
928.585	4706
928.69	4778
928.796	4774
928.901	4664
929.007	4565
929.112	4725
929.218	4645
929.323	4618
929.428	4558
929.533	4664
929.638	4478
929.743	4538
929.848	4554
929.953	4478
930.058	4451
930.163	4341
930.267	4371
930.372	4455
930.477	4265
930.581	4447
930.685	4371
930.79	4227
930.894	4310
930.998	4268
931.103	4405
931.207	4131
931.311	4078
931.415	4074
931.519	3915
931.623	3964
