Data from glass_V78500241_992.txt Node
Date: Wed Sep 01 19:21:22 CST 2021
User: usil
Spectrometer: V785-0024
Trigger mode: 0
Integration Time (sec): 4.000000E-1
Scans to average: 1
Nonlinearity correction enabled: false
Boxcar width: 0
Storing dark spectrum: false
XAxis mode: Wavelengths
Number of Pixels in Spectrum: 1024
>>>>>Begin Spectral Data<<<<<
801.071	3720
801.214	3770
801.356	3743
801.499	3755
801.641	3732
801.783	3774
801.926	3857
802.068	3861
802.211	3854
802.353	3888
802.496	3876
802.638	3899
802.78	3953
802.923	3956
803.065	3896
803.208	3861
803.35	3857
803.492	3956
803.635	3915
803.777	3816
803.919	3888
804.061	4185
804.204	3968
804.346	3934
804.488	3918
804.63	4063
804.773	3975
804.915	4059
805.057	4173
805.199	4032
805.341	4093
805.483	4150
805.626	4147
805.768	4105
805.91	4196
806.052	4268
806.194	4200
806.336	4379
806.478	4181
806.62	4158
806.762	4249
806.904	4280
807.046	4344
807.188	4207
807.33	4150
807.472	4253
807.614	4230
807.756	4276
807.898	4173
808.04	4227
808.182	4261
808.324	4356
808.465	4428
808.607	4500
808.749	4436
808.891	4512
809.033	4516
809.174	4405
809.316	4314
809.458	4306
809.6	4173
809.741	4204
809.883	4116
810.025	4230
810.166	4215
810.308	4211
810.45	4268
810.591	4219
810.733	4280
810.875	4504
811.016	4854
811.158	5105
811.299	5307
811.441	5311
811.582	5056
811.724	4740
811.865	4512
812.007	4485
812.148	4409
812.29	4447
812.431	4428
812.573	4440
812.714	4409
812.855	4436
812.997	4428
813.138	4455
813.279	4390
813.421	4432
813.562	4386
813.703	4341
813.845	4314
813.986	4227
814.127	4204
814.268	4272
814.41	4268
814.551	4261
814.692	4363
814.833	4242
814.974	4341
815.115	4360
815.256	4284
815.397	4230
815.539	4257
815.68	4246
815.821	4223
815.962	4291
816.103	4276
816.244	4261
816.385	4261
816.526	4299
816.666	4223
816.807	4105
816.948	4169
817.089	4185
817.23	4097
817.371	4059
817.512	4067
817.653	4071
817.793	4090
817.934	4105
818.075	4135
818.216	4097
818.356	4097
818.497	4048
818.638	3899
818.778	3918
818.919	3922
819.06	3854
819.2	3937
819.341	3888
819.481	3842
819.622	3918
819.762	4036
819.903	4006
820.043	3869
820.184	3816
820.324	3797
820.465	3892
820.605	3876
820.746	3876
820.886	3808
821.026	3949
821.167	3934
821.307	3983
821.447	3991
821.588	3994
821.728	3956
821.868	3968
822.008	3861
822.149	3892
822.289	3926
822.429	3781
822.569	3789
822.709	3774
822.849	3747
822.99	3740
823.13	3766
823.27	3747
823.41	3774
823.55	3770
823.69	3720
823.83	3762
823.97	3698
824.11	3671
824.25	3591
824.389	3625
824.529	3686
824.669	3656
824.809	3762
824.949	3774
825.089	3728
825.228	3720
825.368	3622
825.508	3576
825.648	3545
825.787	3614
825.927	3622
826.067	3629
826.206	3713
826.346	3808
826.485	3842
826.625	3876
826.765	3949
826.904	3816
827.044	3629
827.183	3553
827.323	3466
827.462	3466
827.601	3412
827.741	3447
827.88	3466
828.02	3386
828.159	3428
828.298	3534
828.437	3534
828.577	3492
828.716	3644
828.855	3564
828.994	3397
829.134	3420
829.273	3401
829.412	3382
829.551	3367
829.69	3374
829.829	3420
829.968	3500
830.107	3466
830.246	3473
830.385	3359
830.524	3374
830.663	3340
830.802	3249
830.941	3218
831.08	3207
831.219	3237
831.357	3264
831.496	3420
831.635	3260
831.774	3249
831.913	3218
832.051	3135
832.19	3169
832.329	3222
832.467	3154
832.606	3119
832.744	3184
832.883	3211
833.022	3211
833.16	3272
833.299	3313
833.437	3317
833.576	3355
833.714	3393
833.852	3412
833.991	3443
834.129	3450
834.267	3443
834.406	3378
834.544	3450
834.682	3428
834.821	3405
834.959	3561
835.097	3447
835.235	3568
835.373	3511
835.511	3492
835.65	3458
835.788	3549
835.926	3359
836.064	3412
836.202	3412
836.34	3564
836.478	3606
836.615	3542
836.753	3606
836.891	3644
837.029	3576
837.167	3618
837.305	3557
837.443	3534
837.58	3519
837.718	3637
837.856	3603
837.993	3576
838.131	3614
838.269	3603
838.406	3656
838.544	3549
838.681	3488
838.819	3485
838.956	3428
839.094	3420
839.231	3447
839.369	3485
839.506	3717
839.643	3633
839.781	3488
839.918	3466
840.055	3545
840.193	3504
840.33	3538
840.467	3595
840.604	3587
840.742	3850
840.879	3545
841.016	3549
841.153	3584
841.29	3759
841.427	3701
841.564	3751
841.701	3774
841.838	3648
841.975	3690
842.112	3713
842.249	3671
842.385	3625
842.522	3835
842.659	3724
842.796	3629
842.933	3686
843.069	3717
843.206	3751
843.343	3831
843.479	3774
843.616	3797
843.752	3679
843.889	3698
844.025	3842
844.162	3701
844.298	3876
844.435	3797
844.571	3800
844.708	3964
844.844	4002
844.98	4048
845.117	4002
845.253	3918
845.389	3899
845.525	3960
845.661	3994
845.798	3968
845.934	3998
846.07	3983
846.206	4059
846.342	4150
846.478	4063
846.614	3972
846.75	3899
846.886	3903
847.022	4086
847.158	3949
847.294	4021
847.429	4021
847.565	3968
847.701	4219
847.837	3884
847.972	3922
848.108	3987
848.244	3972
848.379	3896
848.515	3804
848.65	3880
848.786	3835
848.921	3869
849.057	3907
849.192	4002
849.328	3888
849.463	3972
849.598	3899
849.734	3884
849.869	3857
850.004	3789
850.14	3816
850.275	3827
850.41	3743
850.545	3713
850.68	3781
850.815	3778
850.95	3800
851.085	3930
851.22	3888
851.355	3827
851.49	3800
851.625	3838
851.76	3808
851.895	3751
852.03	3728
852.165	3778
852.299	3903
852.434	3854
852.569	3880
852.703	3937
852.838	3941
852.973	3991
853.107	3994
853.242	3903
853.376	3835
853.511	3740
853.645	3804
853.78	3968
853.914	3873
854.048	3934
854.183	3896
854.317	3945
854.451	4055
854.585	3991
854.72	3949
854.854	4071
854.988	3915
855.122	4036
855.256	3922
855.39	4032
855.524	4131
855.658	4120
855.792	4116
855.926	4169
856.06	4192
856.194	4211
856.327	4204
856.461	4162
856.595	4211
856.729	4177
856.862	4280
856.996	4272
857.13	4318
857.263	4341
857.397	4348
857.53	4284
857.664	4348
857.797	4424
857.931	4405
858.064	4405
858.197	4417
858.331	4409
858.464	4417
858.597	4390
858.731	4493
858.864	4478
858.997	4440
859.13	4508
859.263	4512
859.396	4641
859.529	4523
859.662	4569
859.795	4538
859.928	4603
860.061	4740
860.194	4729
860.327	4710
860.46	4645
860.592	4744
860.725	4717
860.858	4790
860.99	4725
861.123	4721
861.256	4733
861.388	4805
861.521	5516
861.653	4797
861.786	4721
861.918	4767
862.05	4763
862.183	4877
862.315	4923
862.447	4927
862.58	4881
862.712	4816
862.844	4763
862.976	4850
863.108	4866
863.24	5299
863.372	4835
863.504	4915
863.636	4923
863.768	5006
863.9	4930
864.032	4946
864.164	4995
864.296	5022
864.428	5109
864.559	5128
864.691	5098
864.823	5083
864.954	5094
865.086	5151
865.217	5174
865.349	5083
865.48	5212
865.612	5181
865.743	5307
865.875	5197
866.006	5178
866.137	5239
866.269	5265
866.4	5273
866.531	5284
866.662	5250
866.793	5273
866.924	5288
867.055	5387
867.186	5357
867.317	5307
867.448	5299
867.579	5372
867.71	5311
867.841	5440
867.972	5452
868.103	5512
868.233	5505
868.364	5524
868.495	5566
868.625	5657
868.756	5836
868.886	5634
869.017	5718
869.147	5897
869.278	5805
869.408	5832
869.539	5897
869.669	5935
869.799	5931
869.929	6019
870.06	6076
870.19	6224
870.32	6171
870.45	6266
870.58	6323
870.71	6414
870.84	6486
870.97	6399
871.1	6403
871.23	6669
871.36	6696
871.489	6684
871.619	6711
871.749	6753
871.879	6882
872.008	7000
872.138	6993
872.267	7053
872.397	6981
872.526	6993
872.656	7061
872.785	7240
872.915	7457
873.044	7540
873.173	7552
873.303	7643
873.432	7776
873.561	7852
873.69	7864
873.819	8016
873.948	8191
874.077	8221
874.206	8279
874.335	8442
874.464	8735
874.593	8834
874.722	8902
874.851	9214
874.979	9279
875.108	9401
875.237	9363
875.365	9435
875.494	9660
875.623	9835
875.751	9778
875.88	10021
876.008	10128
876.136	10295
876.265	10577
876.393	10664
876.521	10649
876.65	10767
876.778	10862
876.906	10957
877.034	10946
877.162	11124
877.29	11124
877.418	11356
877.546	11311
877.674	11440
877.802	11493
877.93	11627
878.058	11554
878.185	11589
878.313	11653
878.441	11840
878.568	11737
878.696	11817
878.824	11874
878.951	11969
879.079	12064
879.206	12117
879.333	12034
879.461	12072
879.588	12144
879.715	12087
879.842	12205
879.97	12117
880.097	11889
880.224	11882
880.351	11878
880.478	12019
880.605	11824
880.732	11802
880.859	11973
880.986	11783
881.112	11843
881.239	11779
881.366	11691
881.493	11634
881.619	11520
881.746	11535
881.872	11551
881.999	11524
882.125	11516
882.252	11596
882.378	11570
882.505	11562
882.631	11395
882.757	11311
882.883	11337
883.01	11326
883.136	11155
883.262	11155
883.388	11029
883.514	11155
883.64	11227
883.766	11143
883.892	11052
884.018	11006
884.143	11140
884.269	11162
884.395	10850
884.52	10786
884.646	10778
884.772	10786
884.897	10748
885.023	10717
885.148	10771
885.274	10763
885.399	10729
885.524	10733
885.65	10584
885.775	10554
885.9	10637
886.025	10588
886.15	10599
886.275	10421
886.4	10379
886.525	10478
886.65	10390
886.775	10325
886.9	10542
887.025	10565
887.149	10360
887.274	10158
887.399	10169
887.523	10154
887.648	10112
887.773	10147
887.897	10268
888.021	10265
888.146	10162
888.27	10246
888.395	10120
888.519	10169
888.643	10192
888.767	10276
888.891	10017
889.015	10013
889.139	10139
889.263	9907
889.387	10093
889.511	10055
889.635	10010
889.759	10044
889.883	9979
890.006	10063
890.13	10238
890.254	10044
890.377	9880
890.501	9876
890.624	9861
890.748	9854
890.871	9854
890.995	9747
891.118	9751
891.241	9778
891.364	9751
891.488	9842
891.611	9724
891.734	9713
891.857	9816
891.98	9766
892.103	9857
892.226	9823
892.349	9698
892.471	9534
892.594	9553
892.717	9545
892.839	9671
892.962	9599
893.085	9671
893.207	9564
893.33	9488
893.452	9587
893.575	9549
893.697	9538
893.819	9584
893.941	9644
894.064	9614
894.186	9523
894.308	9408
894.43	9526
894.552	9572
894.674	9519
894.796	9393
894.918	9370
895.04	9420
895.161	9420
895.283	9435
895.405	9253
895.526	9313
895.648	9237
895.769	9249
895.891	9195
896.012	9268
896.134	9218
896.255	9169
896.376	9074
896.498	9173
896.619	9188
896.74	9051
896.861	9108
896.982	9260
897.103	9275
897.224	9203
897.345	9043
897.466	9047
897.587	8979
897.708	9127
897.828	9043
897.949	8967
898.07	8864
898.19	8910
898.311	9051
898.431	8948
898.552	8956
898.672	8979
898.792	8925
898.913	8872
899.033	8815
899.153	8754
899.273	8746
899.393	8697
899.513	8746
899.633	8754
899.753	8807
899.873	8640
899.993	8777
900.113	8743
900.232	8689
900.352	8724
900.472	8571
900.591	8606
900.711	8598
900.83	8533
900.95	8674
901.069	8724
901.189	8598
901.308	8457
901.427	8404
901.546	8457
901.665	8499
901.784	8499
901.904	8309
902.023	8385
902.141	8221
902.26	8214
902.379	8256
902.498	8252
902.617	8206
902.735	8362
902.854	8313
902.973	8305
903.091	8050
903.21	8149
903.328	8172
903.446	8145
903.565	8046
903.683	8100
903.801	8073
903.919	8119
904.038	8157
904.156	8020
904.274	8134
904.392	8027
904.51	8024
904.627	8043
904.745	8073
904.863	8077
904.981	7940
905.098	7860
905.216	7864
905.334	7906
905.451	7849
905.569	8001
905.686	7947
905.803	7814
905.921	7811
906.038	7830
906.155	7811
906.272	7708
906.389	7772
906.506	7624
906.623	7674
906.74	7674
906.857	7491
906.974	7616
907.091	7674
907.208	7772
907.324	7696
907.441	7571
907.557	7426
907.674	7506
907.79	7426
907.907	7392
908.023	7472
908.139	7400
908.256	7373
908.372	7392
908.488	7365
908.604	7259
908.72	7255
908.836	7301
908.952	7266
909.068	7251
909.184	7320
909.3	7282
909.415	7339
909.531	7320
909.647	7046
909.762	7149
909.878	7084
909.993	7122
910.108	7114
910.224	7038
910.339	7095
910.454	7057
910.57	6996
910.685	6928
910.8	7168
910.915	7091
911.03	6996
911.145	6852
911.259	6882
911.374	6901
911.489	6848
911.604	6829
911.718	6722
911.833	6741
911.947	6677
912.062	6635
912.176	6696
912.291	6745
912.405	6642
912.519	6818
912.633	6840
912.748	6715
912.862	6681
912.976	6658
913.09	6532
913.204	6574
913.318	6631
913.431	6662
913.545	6662
913.659	6684
913.772	6681
913.886	6604
914	6574
914.113	6616
914.226	6650
914.34	6608
914.453	6464
914.566	6677
914.68	6467
914.793	6525
914.906	6399
915.019	6448
915.132	6426
915.245	6418
915.358	6464
915.47	6452
915.583	6513
915.696	6448
915.809	6536
915.921	6578
916.034	6445
916.146	6410
916.259	6418
916.371	6490
916.483	6441
916.595	6441
916.708	6418
916.82	6418
916.932	6365
917.044	6448
917.156	6384
917.268	6304
917.38	6369
917.491	6281
917.603	6380
917.715	6372
917.826	6418
917.938	6350
918.049	6292
918.161	6281
918.272	6422
918.384	6448
918.495	6327
918.606	6201
918.717	6171
918.828	6334
918.939	6235
919.05	6254
919.161	6220
919.272	6152
919.383	6167
919.494	6262
919.604	6452
919.715	6285
919.826	6216
919.936	6239
920.047	6327
920.157	6327
920.267	6502
920.378	6399
920.488	6277
920.598	6502
920.708	6517
920.818	6502
920.928	6452
921.038	6604
921.148	6585
921.258	6311
921.368	6308
921.477	6201
921.587	6178
921.697	6091
921.806	6247
921.916	6083
922.025	5931
922.134	5977
922.244	5874
922.353	5996
922.462	5855
922.571	5828
922.68	5764
922.789	5665
922.898	5764
923.007	5661
923.116	5718
923.224	5657
923.333	5646
923.442	5589
923.55	5535
923.659	5604
923.767	5608
923.876	5543
923.984	5676
924.092	5524
924.201	5577
924.309	5596
924.417	5551
924.525	5448
924.633	5535
924.741	6136
924.849	5391
924.956	5490
925.064	5410
925.172	5288
925.279	5296
925.387	5334
925.494	5326
925.602	5440
925.709	5406
925.816	5280
925.924	5330
926.031	5376
926.138	5311
926.245	5330
926.352	5246
926.459	5372
926.566	5326
926.673	5231
926.779	5193
926.886	5166
926.993	5083
927.099	5052
927.206	5045
927.312	4949
927.419	5018
927.525	4976
927.631	4957
927.737	4930
927.843	4896
927.95	4748
928.056	4873
928.162	4854
928.267	4877
928.373	5303
928.479	4850
928.585	4706
928.69	4736
928.796	4790
928.901	4668
929.007	4611
929.112	4672
929.218	4687
929.323	4607
929.428	4656
929.533	4649
929.638	4546
929.743	4565
929.848	4611
929.953	4542
930.058	4451
930.163	4303
930.267	4390
930.372	4413
930.477	4325
930.581	4436
930.685	4341
930.79	4234
930.894	4287
930.998	4280
931.103	4398
931.207	4139
931.311	4090
931.415	4032
931.519	3972
931.623	3926
