Data from glass_V78500241_1252.txt Node
Date: Wed Sep 01 19:23:10 CST 2021
User: usil
Spectrometer: V785-0024
Trigger mode: 0
Integration Time (sec): 4.000000E-1
Scans to average: 1
Nonlinearity correction enabled: false
Boxcar width: 0
Storing dark spectrum: false
XAxis mode: Wavelengths
Number of Pixels in Spectrum: 1024
>>>>>Begin Spectral Data<<<<<
801.071	3720
801.214	3694
801.356	3720
801.499	3701
801.641	3724
801.783	3785
801.926	3869
802.068	3873
802.211	3869
802.353	3861
802.496	3842
802.638	3846
802.78	3892
802.923	3918
803.065	3896
803.208	3854
803.35	3869
803.492	3934
803.635	3922
803.777	3800
803.919	3934
804.061	4173
804.204	3934
804.346	3987
804.488	3972
804.63	4086
804.773	4032
804.915	4025
805.057	4192
805.199	4048
805.341	4128
805.483	4181
805.626	4120
805.768	4112
805.91	4238
806.052	4295
806.194	4185
806.336	4371
806.478	4185
806.62	4150
806.762	4158
806.904	4287
807.046	4318
807.188	4242
807.33	4150
807.472	4230
807.614	4158
807.756	4253
807.898	4253
808.04	4207
808.182	4272
808.324	4318
808.465	4325
808.607	4470
808.749	4451
808.891	4466
809.033	4527
809.174	4421
809.316	4230
809.458	4253
809.6	4158
809.741	4192
809.883	4154
810.025	4227
810.166	4223
810.308	4261
810.45	4188
810.591	4253
810.733	4303
810.875	4497
811.016	4843
811.158	5128
811.299	5261
811.441	5296
811.582	5045
811.724	4714
811.865	4531
812.007	4481
812.148	4462
812.29	4421
812.431	4424
812.573	4421
812.714	4363
812.855	4367
812.997	4421
813.138	4500
813.279	4424
813.421	4455
813.562	4363
813.703	4333
813.845	4356
813.986	4242
814.127	4261
814.268	4299
814.41	4268
814.551	4299
814.692	4284
814.833	4242
814.974	4299
815.115	4329
815.256	4253
815.397	4268
815.539	4265
815.68	4173
815.821	4246
815.962	4310
816.103	4318
816.244	4261
816.385	4246
816.526	4287
816.666	4207
816.807	4143
816.948	4188
817.089	4200
817.23	4109
817.371	4051
817.512	4082
817.653	4067
817.793	4040
817.934	4055
818.075	4124
818.216	4086
818.356	4124
818.497	4010
818.638	3926
818.778	3922
818.919	3915
819.06	3873
819.2	3892
819.341	3869
819.481	3884
819.622	3937
819.762	4021
819.903	3953
820.043	3865
820.184	3842
820.324	3838
820.465	3876
820.605	3835
820.746	3869
820.886	3797
821.026	3968
821.167	3915
821.307	4021
821.447	3987
821.588	3964
821.728	3979
821.868	3960
822.008	3888
822.149	3918
822.289	3975
822.429	3789
822.569	3797
822.709	3804
822.849	3686
822.99	3728
823.13	3747
823.27	3778
823.41	3720
823.55	3736
823.69	3671
823.83	3770
823.97	3709
824.11	3633
824.25	3610
824.389	3641
824.529	3637
824.669	3641
824.809	3717
824.949	3762
825.089	3793
825.228	3663
825.368	3595
825.508	3534
825.648	3572
825.787	3637
825.927	3625
826.067	3625
826.206	3679
826.346	3823
826.485	3850
826.625	3842
826.765	3975
826.904	3842
827.044	3625
827.183	3557
827.323	3424
827.462	3515
827.601	3447
827.741	3469
827.88	3447
828.02	3348
828.159	3454
828.298	3500
828.437	3530
828.577	3443
828.716	3584
828.855	3507
828.994	3363
829.134	3370
829.273	3374
829.412	3393
829.551	3367
829.69	3382
829.829	3462
829.968	3564
830.107	3443
830.246	3416
830.385	3351
830.524	3351
830.663	3275
830.802	3272
830.941	3173
831.08	3237
831.219	3298
831.357	3283
831.496	3420
831.635	3218
831.774	3192
831.913	3195
832.051	3161
832.19	3173
832.329	3226
832.467	3127
832.606	3116
832.744	3192
832.883	3192
833.022	3173
833.16	3249
833.299	3310
833.437	3298
833.576	3359
833.714	3428
833.852	3435
833.991	3435
834.129	3473
834.267	3462
834.406	3447
834.544	3443
834.682	3450
834.821	3412
834.959	3564
835.097	3424
835.235	3545
835.373	3462
835.511	3504
835.65	3466
835.788	3507
835.926	3443
836.064	3370
836.202	3405
836.34	3576
836.478	3599
836.615	3591
836.753	3595
836.891	3656
837.029	3622
837.167	3610
837.305	3538
837.443	3515
837.58	3557
837.718	3625
837.856	3584
837.993	3561
838.131	3580
838.269	3599
838.406	3545
838.544	3572
838.681	3485
838.819	3477
838.956	3374
839.094	3416
839.231	3443
839.369	3545
839.506	3747
839.643	3652
839.781	3504
839.918	3488
840.055	3523
840.193	3523
840.33	3538
840.467	3599
840.604	3572
840.742	3842
840.879	3534
841.016	3553
841.153	3614
841.29	3793
841.427	3728
841.564	3709
841.701	3713
841.838	3717
841.975	3694
842.112	3751
842.249	3633
842.385	3622
842.522	3827
842.659	3717
842.796	3648
842.933	3694
843.069	3713
843.206	3682
843.343	3816
843.479	3812
843.616	3823
843.752	3671
843.889	3663
844.025	3823
844.162	3717
844.298	3869
844.435	3797
844.571	3789
844.708	3953
844.844	3983
844.98	4032
845.117	4051
845.253	3945
845.389	3926
845.525	3979
845.661	4006
845.798	3922
845.934	4010
846.07	3937
846.206	4044
846.342	4097
846.478	4021
846.614	3991
846.75	3964
846.886	3937
847.022	4021
847.158	3964
847.294	4025
847.429	4013
847.565	4010
847.701	4238
847.837	3903
847.972	3884
848.108	3998
848.244	3937
848.379	3907
848.515	3842
848.65	3823
848.786	3861
848.921	3873
849.057	3934
849.192	3979
849.328	3964
849.463	3922
849.598	3896
849.734	3842
849.869	3846
850.004	3781
850.14	3789
850.275	3778
850.41	3747
850.545	3732
850.68	3819
850.815	3789
850.95	3785
851.085	3918
851.22	3941
851.355	3850
851.49	3827
851.625	3774
851.76	3812
851.895	3701
852.03	3740
852.165	3827
852.299	3850
852.434	3888
852.569	3850
852.703	3880
852.838	3972
852.973	3979
853.107	4010
853.242	3854
853.376	3880
853.511	3793
853.645	3797
853.78	3968
853.914	3903
854.048	3899
854.183	3865
854.317	3968
854.451	4093
854.585	3907
854.72	3945
854.854	4048
854.988	3922
855.122	3991
855.256	3922
855.39	4006
855.524	4120
855.658	4116
855.792	4105
855.926	4135
856.06	4166
856.194	4249
856.327	4158
856.461	4116
856.595	4185
856.729	4177
856.862	4272
856.996	4284
857.13	4295
857.263	4356
857.397	4379
857.53	4299
857.664	4371
857.797	4421
857.931	4413
858.064	4451
858.197	4481
858.331	4398
858.464	4379
858.597	4371
858.731	4413
858.864	4470
858.997	4455
859.13	4512
859.263	4523
859.396	4561
859.529	4508
859.662	4558
859.795	4440
859.928	4634
860.061	4717
860.194	4710
860.327	4668
860.46	4588
860.592	4702
860.725	4801
860.858	4771
860.99	4714
861.123	4641
861.256	4714
861.388	4774
861.521	5444
861.653	4736
861.786	4687
861.918	4744
862.05	4801
862.183	4862
862.315	4930
862.447	4889
862.58	4885
862.712	4809
862.844	4748
862.976	4877
863.108	4866
863.24	5185
863.372	4847
863.504	4934
863.636	4896
863.768	4911
863.9	5010
864.032	4957
864.164	4923
864.296	4999
864.428	5071
864.559	5056
864.691	5117
864.823	5098
864.954	5113
865.086	5128
865.217	5140
865.349	5109
865.48	5132
865.612	5204
865.743	5296
865.875	5250
866.006	5223
866.137	5284
866.269	5261
866.4	5181
866.531	5216
866.662	5261
866.793	5250
866.924	5284
867.055	5360
867.186	5330
867.317	5337
867.448	5326
867.579	5315
867.71	5383
867.841	5440
867.972	5436
868.103	5440
868.233	5444
868.364	5509
868.495	5600
868.625	5680
868.756	5771
868.886	5672
869.017	5729
869.147	5851
869.278	5851
869.408	5855
869.539	5874
869.669	5908
869.799	5935
869.929	6030
870.06	5999
870.19	6243
870.32	6182
870.45	6254
870.58	6334
870.71	6471
870.84	6456
870.97	6414
871.1	6429
871.23	6681
871.36	6722
871.489	6688
871.619	6768
871.749	6810
871.879	6859
872.008	6962
872.138	6996
872.267	7000
872.397	7027
872.526	7065
872.656	7126
872.785	7236
872.915	7362
873.044	7559
873.173	7510
873.303	7662
873.432	7712
873.561	7887
873.69	7894
873.819	7967
873.948	8218
874.077	8240
874.206	8370
874.335	8442
874.464	8682
874.593	8952
874.722	8902
874.851	9161
874.979	9272
875.108	9397
875.237	9481
875.365	9504
875.494	9682
875.623	9800
875.751	9823
875.88	10090
876.008	10143
876.136	10246
876.265	10531
876.393	10721
876.521	10691
876.65	10820
876.778	10843
876.906	10915
877.034	11006
877.162	11052
877.29	11147
877.418	11334
877.546	11288
877.674	11509
877.802	11539
877.93	11455
878.058	11592
878.185	11611
878.313	11615
878.441	11783
878.568	11592
878.696	11760
878.824	11863
878.951	11984
879.079	12114
879.206	12175
879.333	12034
879.461	12034
879.588	12072
879.715	12072
879.842	12235
879.97	12133
880.097	11855
880.224	12019
880.351	11939
880.478	11946
880.605	11885
880.732	11817
880.859	12011
880.986	11794
881.112	11748
881.239	11779
881.366	11638
881.493	11539
881.619	11554
881.746	11562
881.872	11570
881.999	11535
882.125	11490
882.252	11619
882.378	11490
882.505	11505
882.631	11452
882.757	11334
882.883	11284
883.01	11280
883.136	11185
883.262	11109
883.388	11121
883.514	11212
883.64	11166
883.766	11121
883.892	10999
884.018	10984
884.143	11033
884.269	11083
884.395	10809
884.52	10816
884.646	10816
884.772	10714
884.897	10626
885.023	10744
885.148	10755
885.274	10752
885.399	10698
885.524	10637
885.65	10641
885.775	10634
885.9	10596
886.025	10637
886.15	10584
886.275	10493
886.4	10322
886.525	10398
886.65	10405
886.775	10394
886.9	10531
887.025	10569
887.149	10371
887.274	10257
887.399	10169
887.523	10196
887.648	10120
887.773	10131
887.897	10219
888.021	10196
888.146	10105
888.27	10246
888.395	10253
888.519	10207
888.643	10211
888.767	10147
888.891	10086
889.015	10025
889.139	10055
889.263	10086
889.387	9987
889.511	10207
889.635	10044
889.759	10006
889.883	10112
890.006	10051
890.13	10055
890.254	9983
890.377	9930
890.501	9873
890.624	9827
890.748	9888
890.871	9804
890.995	9728
891.118	9751
891.241	9793
891.364	9808
891.488	9800
891.611	9823
891.734	9781
891.857	9850
891.98	9724
892.103	9831
892.226	9690
892.349	9701
892.471	9580
892.594	9599
892.717	9660
892.839	9591
892.962	9622
893.085	9713
893.207	9622
893.33	9530
893.452	9576
893.575	9534
893.697	9496
893.819	9561
893.941	9625
894.064	9599
894.186	9431
894.308	9374
894.43	9595
894.552	9545
894.674	9564
894.796	9313
894.918	9450
895.04	9325
895.161	9393
895.283	9348
895.405	9351
895.526	9275
895.648	9260
895.769	9287
895.891	9317
896.012	9272
896.134	9188
896.255	9146
896.376	9150
896.498	9154
896.619	9127
896.74	9112
896.861	9116
896.982	9272
897.103	9325
897.224	9138
897.345	9100
897.466	9032
897.587	9028
897.708	9100
897.828	9074
897.949	8994
898.07	8876
898.19	8910
898.311	8975
898.431	8902
898.552	8941
898.672	8982
898.792	8876
898.913	8948
899.033	8785
899.153	8735
899.273	8648
899.393	8686
899.513	8708
899.633	8697
899.753	8743
899.873	8644
899.993	8746
900.113	8682
900.232	8727
900.352	8606
900.472	8598
900.591	8492
900.711	8583
900.83	8590
900.95	8735
901.069	8697
901.189	8480
901.308	8537
901.427	8400
901.546	8454
901.665	8495
901.784	8537
901.904	8396
902.023	8370
902.141	8210
902.26	8237
902.379	8328
902.498	8248
902.617	8199
902.735	8271
902.854	8324
902.973	8309
903.091	8134
903.21	8103
903.328	8164
903.446	8130
903.565	8126
903.683	8081
903.801	8062
903.919	8092
904.038	8176
904.156	8027
904.274	8111
904.392	8077
904.51	7978
904.627	7993
904.745	8103
904.863	8096
904.981	7879
905.098	7898
905.216	7925
905.334	7841
905.451	7879
905.569	7921
905.686	7925
905.803	7913
905.921	7792
906.038	7860
906.155	7833
906.272	7696
906.389	7776
906.506	7651
906.623	7597
906.74	7658
906.857	7590
906.974	7578
907.091	7658
907.208	7719
907.324	7601
907.441	7636
907.557	7502
907.674	7422
907.79	7327
907.907	7377
908.023	7480
908.139	7434
908.256	7384
908.372	7373
908.488	7358
908.604	7297
908.72	7266
908.836	7289
908.952	7221
909.068	7327
909.184	7324
909.3	7228
909.415	7324
909.531	7278
909.647	7133
909.762	7152
909.878	7114
909.993	7160
910.108	7046
910.224	7084
910.339	7103
910.454	7038
910.57	7015
910.685	6996
910.8	7118
910.915	7168
911.03	7046
911.145	6935
911.259	6875
911.374	6913
911.489	6825
911.604	6810
911.718	6707
911.833	6753
911.947	6642
912.062	6642
912.176	6764
912.291	6696
912.405	6715
912.519	6844
912.633	6844
912.748	6768
912.862	6711
912.976	6585
913.09	6494
913.204	6563
913.318	6608
913.431	6646
913.545	6700
913.659	6688
913.772	6753
913.886	6574
914	6540
914.113	6616
914.226	6692
914.34	6623
914.453	6513
914.566	6631
914.68	6483
914.793	6509
914.906	6464
915.019	6365
915.132	6399
915.245	6403
915.358	6391
915.47	6467
915.583	6433
915.696	6445
915.809	6513
915.921	6544
916.034	6414
916.146	6452
916.259	6353
916.371	6513
916.483	6494
916.595	6410
916.708	6460
916.82	6399
916.932	6399
917.044	6407
917.156	6395
917.268	6342
917.38	6334
917.491	6315
917.603	6334
917.715	6372
917.826	6410
917.938	6285
918.049	6235
918.161	6376
918.272	6414
918.384	6452
918.495	6327
918.606	6334
918.717	6262
918.828	6262
918.939	6251
919.05	6213
919.161	6331
919.272	6098
919.383	6186
919.494	6243
919.604	6414
919.715	6292
919.826	6220
919.936	6266
920.047	6289
920.157	6239
920.267	6490
920.378	6380
920.488	6304
920.598	6456
920.708	6578
920.818	6456
920.928	6490
921.038	6604
921.148	6635
921.258	6365
921.368	6247
921.477	6228
921.587	6186
921.697	6072
921.806	6205
921.916	6072
922.025	5889
922.134	5897
922.244	5912
922.353	5984
922.462	5855
922.571	5817
922.68	5707
922.789	5718
922.898	5714
923.007	5642
923.116	5726
923.224	5684
923.333	5676
923.442	5551
923.55	5551
923.659	5585
923.767	5646
923.876	5577
923.984	5600
924.092	5493
924.201	5554
924.309	5623
924.417	5512
924.525	5463
924.633	5497
924.741	6251
924.849	5387
924.956	5482
925.064	5315
925.172	5330
925.279	5307
925.387	5318
925.494	5376
925.602	5444
925.709	5379
925.816	5299
925.924	5315
926.031	5391
926.138	5303
926.245	5326
926.352	5242
926.459	5387
926.566	5357
926.673	5254
926.779	5117
926.886	5113
926.993	5033
927.099	5018
927.206	5010
927.312	4942
927.419	5018
927.525	4953
927.631	4972
927.737	4911
927.843	4889
927.95	4782
928.056	4850
928.162	4843
928.267	4862
928.373	5349
928.479	4881
928.585	4691
928.69	4820
928.796	4767
928.901	4679
929.007	4607
929.112	4653
929.218	4615
929.323	4615
929.428	4603
929.533	4645
929.638	4546
929.743	4535
929.848	4573
929.953	4527
930.058	4440
930.163	4363
930.267	4383
930.372	4436
930.477	4306
930.581	4474
930.685	4333
930.79	4246
930.894	4261
930.998	4306
931.103	4390
931.207	4147
931.311	4097
931.415	4013
931.519	3930
931.623	3964
