Data from glass_V78500241_2214.txt Node
Date: Wed Sep 01 19:29:50 CST 2021
User: usil
Spectrometer: V785-0024
Trigger mode: 0
Integration Time (sec): 4.000000E-1
Scans to average: 1
Nonlinearity correction enabled: false
Boxcar width: 0
Storing dark spectrum: false
XAxis mode: Wavelengths
Number of Pixels in Spectrum: 1024
>>>>>Begin Spectral Data<<<<<
801.071	3740
801.214	3755
801.356	3705
801.499	3736
801.641	3701
801.783	3812
801.926	3873
802.068	3838
802.211	3876
802.353	3884
802.496	3850
802.638	3838
802.78	3884
802.923	3911
803.065	3918
803.208	3797
803.35	3838
803.492	3922
803.635	3922
803.777	3778
803.919	3880
804.061	4135
804.204	3979
804.346	3945
804.488	3880
804.63	4040
804.773	3903
804.915	4055
805.057	4166
805.199	3987
805.341	4055
805.483	4105
805.626	4143
805.768	4128
805.91	4204
806.052	4188
806.194	4207
806.336	4363
806.478	4143
806.62	4162
806.762	4154
806.904	4284
807.046	4360
807.188	4242
807.33	4150
807.472	4230
807.614	4204
807.756	4215
807.898	4200
808.04	4246
808.182	4253
808.324	4303
808.465	4367
808.607	4451
808.749	4459
808.891	4462
809.033	4519
809.174	4405
809.316	4219
809.458	4211
809.6	4116
809.741	4120
809.883	4120
810.025	4192
810.166	4188
810.308	4223
810.45	4211
810.591	4242
810.733	4291
810.875	4485
811.016	4850
811.158	5151
811.299	5250
811.441	5284
811.582	5071
811.724	4698
811.865	4462
812.007	4440
812.148	4390
812.29	4432
812.431	4341
812.573	4379
812.714	4371
812.855	4440
812.997	4390
813.138	4432
813.279	4436
813.421	4398
813.562	4405
813.703	4303
813.845	4322
813.986	4246
814.127	4219
814.268	4265
814.41	4265
814.551	4246
814.692	4310
814.833	4291
814.974	4329
815.115	4318
815.256	4223
815.397	4276
815.539	4284
815.68	4158
815.821	4181
815.962	4299
816.103	4265
816.244	4238
816.385	4242
816.526	4268
816.666	4234
816.807	4067
816.948	4188
817.089	4223
817.23	4162
817.371	4067
817.512	4036
817.653	4082
817.793	4017
817.934	4006
818.075	4090
818.216	4059
818.356	4086
818.497	4048
818.638	3880
818.778	3915
818.919	3899
819.06	3854
819.2	3956
819.341	3869
819.481	3797
819.622	3865
819.762	4029
819.903	3968
820.043	3854
820.184	3823
820.324	3846
820.465	3854
820.605	3869
820.746	3880
820.886	3800
821.026	3926
821.167	3873
821.307	3968
821.447	3934
821.588	3941
821.728	3907
821.868	3907
822.008	3827
822.149	3888
822.289	3934
822.429	3781
822.569	3797
822.709	3797
822.849	3701
822.99	3667
823.13	3762
823.27	3778
823.41	3709
823.55	3709
823.69	3694
823.83	3713
823.97	3663
824.11	3610
824.25	3599
824.389	3629
824.529	3656
824.669	3606
824.809	3724
824.949	3720
825.089	3732
825.228	3732
825.368	3591
825.508	3568
825.648	3595
825.787	3576
825.927	3644
826.067	3629
826.206	3641
826.346	3781
826.485	3831
826.625	3816
826.765	3945
826.904	3831
827.044	3675
827.183	3557
827.323	3447
827.462	3481
827.601	3424
827.741	3428
827.88	3439
828.02	3382
828.159	3469
828.298	3496
828.437	3492
828.577	3458
828.716	3549
828.855	3481
828.994	3412
829.134	3336
829.273	3351
829.412	3378
829.551	3351
829.69	3367
829.829	3397
829.968	3507
830.107	3443
830.246	3428
830.385	3374
830.524	3344
830.663	3291
830.802	3233
830.941	3150
831.08	3207
831.219	3241
831.357	3272
831.496	3393
831.635	3211
831.774	3169
831.913	3173
832.051	3154
832.19	3146
832.329	3203
832.467	3123
832.606	3108
832.744	3192
832.883	3169
833.022	3169
833.16	3275
833.299	3287
833.437	3348
833.576	3344
833.714	3374
833.852	3458
833.991	3473
834.129	3507
834.267	3435
834.406	3355
834.544	3401
834.682	3428
834.821	3389
834.959	3572
835.097	3389
835.235	3557
835.373	3492
835.511	3515
835.65	3439
835.788	3477
835.926	3374
836.064	3382
836.202	3405
836.34	3606
836.478	3618
836.615	3526
836.753	3591
836.891	3629
837.029	3622
837.167	3587
837.305	3526
837.443	3530
837.58	3473
837.718	3545
837.856	3519
837.993	3545
838.131	3561
838.269	3576
838.406	3580
838.544	3561
838.681	3439
838.819	3466
838.956	3363
839.094	3420
839.231	3435
839.369	3485
839.506	3720
839.643	3641
839.781	3507
839.918	3500
840.055	3496
840.193	3542
840.33	3523
840.467	3538
840.604	3618
840.742	3789
840.879	3576
841.016	3584
841.153	3557
841.29	3762
841.427	3694
841.564	3701
841.701	3694
841.838	3698
841.975	3648
842.112	3698
842.249	3614
842.385	3656
842.522	3804
842.659	3663
842.796	3660
842.933	3694
843.069	3686
843.206	3671
843.343	3804
843.479	3774
843.616	3823
843.752	3652
843.889	3660
844.025	3831
844.162	3736
844.298	3892
844.435	3774
844.571	3774
844.708	3873
844.844	3964
844.98	3983
845.117	4017
845.253	3899
845.389	3934
845.525	3987
845.661	3991
845.798	3869
845.934	3994
846.07	3945
846.206	4040
846.342	4048
846.478	4078
846.614	3903
846.75	3960
846.886	3899
847.022	4025
847.158	3964
847.294	3975
847.429	4051
847.565	3998
847.701	4204
847.837	3918
847.972	3819
848.108	3941
848.244	3964
848.379	3861
848.515	3816
848.65	3793
848.786	3804
848.921	3838
849.057	3907
849.192	3949
849.328	3922
849.463	3987
849.598	3842
849.734	3816
849.869	3800
850.004	3789
850.14	3846
850.275	3793
850.41	3728
850.545	3770
850.68	3762
850.815	3789
850.95	3781
851.085	3915
851.22	3899
851.355	3759
851.49	3747
851.625	3740
851.76	3793
851.895	3713
852.03	3724
852.165	3797
852.299	3880
852.434	3854
852.569	3823
852.703	3888
852.838	3899
852.973	4002
853.107	3975
853.242	3873
853.376	3865
853.511	3774
853.645	3831
853.78	3998
853.914	3899
854.048	3903
854.183	3880
854.317	3964
854.451	4029
854.585	3934
854.72	3903
854.854	4071
854.988	3960
855.122	4010
855.256	3876
855.39	3998
855.524	4135
855.658	4044
855.792	4078
855.926	4143
856.06	4139
856.194	4181
856.327	4120
856.461	4139
856.595	4120
856.729	4188
856.862	4310
856.996	4185
857.13	4318
857.263	4322
857.397	4367
857.53	4261
857.664	4333
857.797	4371
857.931	4443
858.064	4432
858.197	4455
858.331	4390
858.464	4348
858.597	4322
858.731	4447
858.864	4500
858.997	4413
859.13	4489
859.263	4497
859.396	4565
859.529	4512
859.662	4500
859.795	4573
859.928	4577
860.061	4649
860.194	4748
860.327	4660
860.46	4615
860.592	4752
860.725	4759
860.858	4782
860.99	4698
861.123	4660
861.256	4725
861.388	4721
861.521	5440
861.653	4755
861.786	4740
861.918	4740
862.05	4748
862.183	4831
862.315	4854
862.447	4949
862.58	4881
862.712	4774
862.844	4706
862.976	4866
863.108	4843
863.24	5193
863.372	4782
863.504	4957
863.636	4896
863.768	5014
863.9	4987
864.032	4942
864.164	4896
864.296	5037
864.428	5094
864.559	5166
864.691	5071
864.823	5109
864.954	5102
865.086	5117
865.217	5109
865.349	5094
865.48	5170
865.612	5197
865.743	5284
865.875	5151
866.006	5170
866.137	5265
866.269	5193
866.4	5223
866.531	5246
866.662	5201
866.793	5254
866.924	5307
867.055	5315
867.186	5299
867.317	5360
867.448	5277
867.579	5395
867.71	5387
867.841	5360
867.972	5501
868.103	5452
868.233	5467
868.364	5486
868.495	5604
868.625	5710
868.756	5756
868.886	5665
869.017	5676
869.147	5828
869.278	5847
869.408	5802
869.539	5802
869.669	5946
869.799	5939
869.929	5977
870.06	6019
870.19	6171
870.32	6133
870.45	6273
870.58	6380
870.71	6422
870.84	6437
870.97	6429
871.1	6460
871.23	6593
871.36	6662
871.489	6612
871.619	6741
871.749	6818
871.879	6859
872.008	7004
872.138	6989
872.267	6958
872.397	7031
872.526	7019
872.656	7099
872.785	7225
872.915	7358
873.044	7537
873.173	7537
873.303	7620
873.432	7632
873.561	7909
873.69	7887
873.819	7970
873.948	8142
874.077	8256
874.206	8450
874.335	8476
874.464	8640
874.593	8834
874.722	8944
874.851	9154
874.979	9222
875.108	9416
875.237	9435
875.365	9477
875.494	9625
875.623	9850
875.751	9808
875.88	9907
876.008	10131
876.136	10375
876.265	10516
876.393	10717
876.521	10717
876.65	10767
876.778	10843
876.906	10877
877.034	10949
877.162	11083
877.29	11094
877.418	11246
877.546	11307
877.674	11414
877.802	11490
877.93	11474
878.058	11497
878.185	11509
878.313	11638
878.441	11741
878.568	11726
878.696	11863
878.824	11767
878.951	11908
879.079	12041
879.206	12106
879.333	12053
879.461	12030
879.588	12076
879.715	12015
879.842	12171
879.97	12015
880.097	11893
880.224	11828
880.351	11855
880.478	11897
880.605	11863
880.732	11836
880.859	11946
880.986	11733
881.112	11847
881.239	11737
881.366	11585
881.493	11596
881.619	11501
881.746	11611
881.872	11539
881.999	11551
882.125	11493
882.252	11554
882.378	11493
882.505	11551
882.631	11364
882.757	11326
882.883	11387
883.01	11265
883.136	11174
883.262	11170
883.388	11025
883.514	11223
883.64	11094
883.766	11075
883.892	10991
884.018	10961
884.143	11075
884.269	11121
884.395	10862
884.52	10805
884.646	10733
884.772	10733
884.897	10687
885.023	10733
885.148	10740
885.274	10733
885.399	10634
885.524	10603
885.65	10554
885.775	10504
885.9	10550
886.025	10634
886.15	10634
886.275	10417
886.4	10341
886.525	10398
886.65	10386
886.775	10386
886.9	10459
887.025	10573
887.149	10375
887.274	10223
887.399	10166
887.523	10268
887.648	10105
887.773	10158
887.897	10162
888.021	10215
888.146	10097
888.27	10272
888.395	10166
888.519	10185
888.643	10120
888.767	10143
888.891	10078
889.015	10002
889.139	10006
889.263	9972
889.387	10025
889.511	10082
889.635	10048
889.759	9930
889.883	10055
890.006	9991
890.13	10120
890.254	9930
890.377	9968
890.501	9781
890.624	9808
890.748	9869
890.871	9793
890.995	9785
891.118	9671
891.241	9785
891.364	9747
891.488	9854
891.611	9751
891.734	9747
891.857	9770
891.98	9667
892.103	9759
892.226	9705
892.349	9637
892.471	9553
892.594	9629
892.717	9618
892.839	9622
892.962	9606
893.085	9625
893.207	9557
893.33	9519
893.452	9424
893.575	9584
893.697	9466
893.819	9618
893.941	9633
894.064	9553
894.186	9477
894.308	9367
894.43	9576
894.552	9530
894.674	9450
894.796	9336
894.918	9435
895.04	9313
895.161	9351
895.283	9279
895.405	9226
895.526	9233
895.648	9233
895.769	9275
895.891	9199
896.012	9218
896.134	9241
896.255	9180
896.376	9146
896.498	9127
896.619	9066
896.74	9074
896.861	9093
896.982	9317
897.103	9272
897.224	9233
897.345	9047
897.466	8998
897.587	9028
897.708	9093
897.828	9047
897.949	8921
898.07	8815
898.19	8937
898.311	8998
898.431	8883
898.552	8918
898.672	8990
898.792	8963
898.913	8899
899.033	8800
899.153	8754
899.273	8629
899.393	8750
899.513	8769
899.633	8701
899.753	8792
899.873	8697
899.993	8788
900.113	8621
900.232	8697
900.352	8594
900.472	8594
900.591	8568
900.711	8617
900.83	8590
900.95	8651
901.069	8697
901.189	8537
901.308	8454
901.427	8415
901.546	8438
901.665	8499
901.784	8461
901.904	8351
902.023	8309
902.141	8244
902.26	8153
902.379	8267
902.498	8221
902.617	8191
902.735	8313
902.854	8279
902.973	8206
903.091	8111
903.21	8172
903.328	8126
903.446	8103
903.565	8027
903.683	8153
903.801	7970
903.919	8168
904.038	8191
904.156	7986
904.274	8100
904.392	8005
904.51	7993
904.627	8058
904.745	8069
904.863	8119
904.981	7909
905.098	7875
905.216	7833
905.334	7868
905.451	7875
905.569	7902
905.686	7947
905.803	7928
905.921	7803
906.038	7860
906.155	7784
906.272	7651
906.389	7750
906.506	7609
906.623	7647
906.74	7605
906.857	7537
906.974	7582
907.091	7639
907.208	7700
907.324	7624
907.441	7567
907.557	7369
907.674	7449
907.79	7335
907.907	7422
908.023	7457
908.139	7415
908.256	7396
908.372	7301
908.488	7358
908.604	7278
908.72	7236
908.836	7331
908.952	7187
909.068	7225
909.184	7320
909.3	7263
909.415	7266
909.531	7289
909.647	7080
909.762	7084
909.878	7050
909.993	7065
910.108	7114
910.224	7080
910.339	7072
910.454	7046
910.57	6935
910.685	6947
910.8	7152
910.915	7175
911.03	6962
911.145	6897
911.259	6878
911.374	6897
911.489	6848
911.604	6776
911.718	6703
911.833	6719
911.947	6616
912.062	6551
912.176	6688
912.291	6696
912.405	6700
912.519	6779
912.633	6749
912.748	6650
912.862	6684
912.976	6627
913.09	6540
913.204	6578
913.318	6654
913.431	6627
913.545	6715
913.659	6688
913.772	6700
913.886	6578
914	6513
914.113	6684
914.226	6654
914.34	6604
914.453	6509
914.566	6612
914.68	6498
914.793	6486
914.906	6407
915.019	6395
915.132	6327
915.245	6426
915.358	6464
915.47	6429
915.583	6460
915.696	6521
915.809	6593
915.921	6547
916.034	6315
916.146	6384
916.259	6346
916.371	6517
916.483	6437
916.595	6376
916.708	6452
916.82	6426
916.932	6338
917.044	6384
917.156	6369
917.268	6273
917.38	6357
917.491	6228
917.603	6311
917.715	6361
917.826	6380
917.938	6292
918.049	6289
918.161	6304
918.272	6426
918.384	6429
918.495	6372
918.606	6251
918.717	6254
918.828	6216
918.939	6247
919.05	6133
919.161	6228
919.272	6125
919.383	6148
919.494	6273
919.604	6403
919.715	6243
919.826	6235
919.936	6209
920.047	6365
920.157	6243
920.267	6437
920.378	6357
920.488	6289
920.598	6456
920.708	6528
920.818	6467
920.928	6433
921.038	6547
921.148	6612
921.258	6308
921.368	6331
921.477	6220
921.587	6148
921.697	6079
921.806	6155
921.916	6026
922.025	5942
922.134	5901
922.244	5885
922.353	5908
922.462	5824
922.571	5748
922.68	5695
922.789	5695
922.898	5619
923.007	5592
923.116	5634
923.224	5691
923.333	5680
923.442	5619
923.55	5566
923.659	5543
923.767	5642
923.876	5573
923.984	5600
924.092	5524
924.201	5600
924.309	5554
924.417	5600
924.525	5501
924.633	5490
924.741	6243
924.849	5368
924.956	5467
925.064	5364
925.172	5254
925.279	5326
925.387	5330
925.494	5349
925.602	5398
925.709	5391
925.816	5277
925.924	5288
926.031	5315
926.138	5265
926.245	5311
926.352	5201
926.459	5265
926.566	5307
926.673	5231
926.779	5098
926.886	5098
926.993	5014
927.099	4957
927.206	4919
927.312	4923
927.419	4995
927.525	4938
927.631	4987
927.737	4831
927.843	4839
927.95	4790
928.056	4774
928.162	4793
928.267	4793
928.373	5337
928.479	4805
928.585	4691
928.69	4771
928.796	4714
928.901	4733
929.007	4573
929.112	4649
929.218	4630
929.323	4561
929.428	4538
929.533	4637
929.638	4485
929.743	4538
929.848	4558
929.953	4455
930.058	4409
930.163	4352
930.267	4295
930.372	4428
930.477	4291
930.581	4462
930.685	4356
930.79	4257
930.894	4268
930.998	4249
931.103	4405
931.207	4131
931.311	4082
931.415	4010
931.519	3941
931.623	3899
