Data from glass_V78500241_2548.txt Node
Date: Wed Sep 01 19:32:09 CST 2021
User: usil
Spectrometer: V785-0024
Trigger mode: 0
Integration Time (sec): 4.000000E-1
Scans to average: 1
Nonlinearity correction enabled: false
Boxcar width: 0
Storing dark spectrum: false
XAxis mode: Wavelengths
Number of Pixels in Spectrum: 1024
>>>>>Begin Spectral Data<<<<<
801.071	3743
801.214	3743
801.356	3713
801.499	3679
801.641	3740
801.783	3751
801.926	3850
802.068	3812
802.211	3880
802.353	3873
802.496	3823
802.638	3884
802.78	3880
802.923	3876
803.065	3892
803.208	3823
803.35	3892
803.492	3926
803.635	3926
803.777	3804
803.919	3915
804.061	4128
804.204	3953
804.346	3960
804.488	3903
804.63	4032
804.773	3994
804.915	4059
805.057	4120
805.199	4032
805.341	4051
805.483	4169
805.626	4097
805.768	4090
805.91	4181
806.052	4219
806.194	4219
806.336	4367
806.478	4215
806.62	4223
806.762	4185
806.904	4272
807.046	4341
807.188	4192
807.33	4185
807.472	4249
807.614	4204
807.756	4227
807.898	4215
808.04	4223
808.182	4261
808.324	4352
808.465	4352
808.607	4447
808.749	4443
808.891	4478
809.033	4478
809.174	4386
809.316	4280
809.458	4238
809.6	4154
809.741	4188
809.883	4150
810.025	4246
810.166	4246
810.308	4196
810.45	4242
810.591	4230
810.733	4284
810.875	4489
811.016	4797
811.158	5159
811.299	5307
811.441	5303
811.582	5045
811.724	4714
811.865	4451
812.007	4481
812.148	4447
812.29	4459
812.431	4432
812.573	4409
812.714	4360
812.855	4402
812.997	4443
813.138	4478
813.279	4447
813.421	4371
813.562	4386
813.703	4341
813.845	4348
813.986	4223
814.127	4177
814.268	4227
814.41	4249
814.551	4223
814.692	4287
814.833	4268
814.974	4299
815.115	4291
815.256	4246
815.397	4219
815.539	4242
815.68	4200
815.821	4230
815.962	4261
816.103	4249
816.244	4215
816.385	4196
816.526	4322
816.666	4196
816.807	4086
816.948	4177
817.089	4188
817.23	4093
817.371	4051
817.512	4055
817.653	4025
817.793	4002
817.934	4006
818.075	4063
818.216	4063
818.356	4040
818.497	3968
818.638	3888
818.778	3930
818.919	3861
819.06	3896
819.2	3922
819.341	3865
819.481	3812
819.622	3907
819.762	3994
819.903	3926
820.043	3850
820.184	3793
820.324	3819
820.465	3823
820.605	3873
820.746	3865
820.886	3740
821.026	3956
821.167	3937
821.307	3941
821.447	3930
821.588	3960
821.728	3930
821.868	3884
822.008	3838
822.149	3903
822.289	3949
822.429	3785
822.569	3743
822.709	3781
822.849	3679
822.99	3705
823.13	3728
823.27	3755
823.41	3660
823.55	3736
823.69	3720
823.83	3698
823.97	3682
824.11	3622
824.25	3618
824.389	3637
824.529	3614
824.669	3633
824.809	3717
824.949	3736
825.089	3732
825.228	3652
825.368	3564
825.508	3526
825.648	3553
825.787	3614
825.927	3599
826.067	3629
826.206	3690
826.346	3781
826.485	3793
826.625	3854
826.765	3949
826.904	3785
827.044	3625
827.183	3496
827.323	3435
827.462	3488
827.601	3409
827.741	3412
827.88	3466
828.02	3359
828.159	3462
828.298	3488
828.437	3526
828.577	3450
828.716	3534
828.855	3473
828.994	3378
829.134	3405
829.273	3344
829.412	3393
829.551	3363
829.69	3355
829.829	3397
829.968	3519
830.107	3416
830.246	3443
830.385	3325
830.524	3355
830.663	3287
830.802	3268
830.941	3192
831.08	3199
831.219	3241
831.357	3275
831.496	3431
831.635	3237
831.774	3218
831.913	3230
832.051	3123
832.19	3116
832.329	3199
832.467	3142
832.606	3127
832.744	3161
832.883	3192
833.022	3195
833.16	3264
833.299	3279
833.437	3329
833.576	3393
833.714	3409
833.852	3420
833.991	3435
834.129	3447
834.267	3435
834.406	3370
834.544	3397
834.682	3389
834.821	3401
834.959	3572
835.097	3431
835.235	3523
835.373	3462
835.511	3488
835.65	3435
835.788	3466
835.926	3401
836.064	3389
836.202	3431
836.34	3595
836.478	3610
836.615	3515
836.753	3572
836.891	3667
837.029	3637
837.167	3545
837.305	3557
837.443	3496
837.58	3466
837.718	3584
837.856	3553
837.993	3561
838.131	3625
838.269	3591
838.406	3572
838.544	3568
838.681	3420
838.819	3488
838.956	3386
839.094	3389
839.231	3458
839.369	3488
839.506	3732
839.643	3610
839.781	3481
839.918	3416
840.055	3511
840.193	3523
840.33	3519
840.467	3526
840.604	3599
840.742	3808
840.879	3568
841.016	3584
841.153	3599
841.29	3751
841.427	3751
841.564	3728
841.701	3724
841.838	3694
841.975	3682
842.112	3701
842.249	3656
842.385	3584
842.522	3831
842.659	3690
842.796	3698
842.933	3667
843.069	3671
843.206	3701
843.343	3804
843.479	3751
843.616	3827
843.752	3682
843.889	3698
844.025	3823
844.162	3701
844.298	3835
844.435	3778
844.571	3774
844.708	3934
844.844	3979
844.98	4017
845.117	3983
845.253	3907
845.389	3922
845.525	3956
845.661	3930
845.798	3888
845.934	3972
846.07	3922
846.206	4032
846.342	4097
846.478	4032
846.614	3930
846.75	3896
846.886	3850
847.022	4006
847.158	3937
847.294	3979
847.429	3991
847.565	3987
847.701	4238
847.837	3922
847.972	3846
848.108	3941
848.244	3934
848.379	3861
848.515	3781
848.65	3816
848.786	3838
848.921	3854
849.057	3880
849.192	3941
849.328	3896
849.463	3926
849.598	3899
849.734	3857
849.869	3831
850.004	3724
850.14	3785
850.275	3797
850.41	3770
850.545	3759
850.68	3797
850.815	3747
850.95	3785
851.085	3903
851.22	3865
851.355	3804
851.49	3781
851.625	3766
851.76	3816
851.895	3724
852.03	3717
852.165	3766
852.299	3842
852.434	3892
852.569	3854
852.703	3880
852.838	3934
852.973	4017
853.107	4002
853.242	3816
853.376	3857
853.511	3774
853.645	3808
853.78	3896
853.914	3876
854.048	3884
854.183	3918
854.317	3945
854.451	4071
854.585	3949
854.72	3930
854.854	4036
854.988	3941
855.122	4036
855.256	3892
855.39	4017
855.524	4093
855.658	4078
855.792	4116
855.926	4139
856.06	4135
856.194	4207
856.327	4135
856.461	4112
856.595	4162
856.729	4147
856.862	4268
856.996	4211
857.13	4291
857.263	4337
857.397	4333
857.53	4276
857.664	4352
857.797	4375
857.931	4413
858.064	4386
858.197	4417
858.331	4405
858.464	4363
858.597	4371
858.731	4413
858.864	4428
858.997	4455
859.13	4500
859.263	4535
859.396	4535
859.529	4550
859.662	4493
859.795	4554
859.928	4603
860.061	4634
860.194	4706
860.327	4664
860.46	4649
860.592	4725
860.725	4786
860.858	4767
860.99	4717
861.123	4702
861.256	4683
861.388	4744
861.521	5467
861.653	4717
861.786	4675
861.918	4763
862.05	4790
862.183	4843
862.315	4911
862.447	4949
862.58	4858
862.712	4748
862.844	4691
862.976	4816
863.108	4850
863.24	5208
863.372	4824
863.504	4908
863.636	4866
863.768	4923
863.9	4980
864.032	4885
864.164	4972
864.296	5025
864.428	5048
864.559	5121
864.691	5178
864.823	5094
864.954	5056
865.086	5124
865.217	5117
865.349	5102
865.48	5170
865.612	5166
865.743	5250
865.875	5151
866.006	5178
866.137	5246
866.269	5193
866.4	5231
866.531	5242
866.662	5261
866.793	5254
866.924	5246
867.055	5353
867.186	5269
867.317	5337
867.448	5307
867.579	5379
867.71	5414
867.841	5376
867.972	5471
868.103	5425
868.233	5482
868.364	5509
868.495	5558
868.625	5638
868.756	5783
868.886	5653
869.017	5737
869.147	5847
869.278	5764
869.408	5809
869.539	5821
869.669	5916
869.799	5954
869.929	6072
870.06	6026
870.19	6186
870.32	6144
870.45	6296
870.58	6384
870.71	6399
870.84	6441
870.97	6471
871.1	6429
871.23	6627
871.36	6658
871.489	6658
871.619	6707
871.749	6787
871.879	6863
872.008	6958
872.138	6977
872.267	7019
872.397	6958
872.526	7008
872.656	7103
872.785	7175
872.915	7362
873.044	7525
873.173	7575
873.303	7613
873.432	7696
873.561	7856
873.69	7871
873.819	7997
873.948	8107
874.077	8248
874.206	8282
874.335	8461
874.464	8636
874.593	8861
874.722	8899
874.851	9127
874.979	9260
875.108	9313
875.237	9412
875.365	9561
875.494	9690
875.623	9808
875.751	9846
875.88	9983
876.008	10082
876.136	10238
876.265	10550
876.393	10740
876.521	10698
876.65	10763
876.778	10835
876.906	10934
877.034	10961
877.162	11052
877.29	11174
877.418	11299
877.546	11322
877.674	11387
877.802	11478
877.93	11532
878.058	11570
878.185	11562
878.313	11665
878.441	11745
878.568	11646
878.696	11771
878.824	11866
878.951	11882
879.079	11980
879.206	12114
879.333	12011
879.461	11977
879.588	11996
879.715	12110
879.842	12319
879.97	12136
880.097	11874
880.224	11897
880.351	11988
880.478	11916
880.605	11847
880.732	11889
880.859	11958
880.986	11802
881.112	11805
881.239	11710
881.366	11649
881.493	11741
881.619	11566
881.746	11615
881.872	11551
881.999	11600
882.125	11532
882.252	11463
882.378	11562
882.505	11554
882.631	11296
882.757	11273
882.883	11269
883.01	11250
883.136	11227
883.262	11109
883.388	11037
883.514	11166
883.64	11204
883.766	11048
883.892	10972
884.018	11064
884.143	11045
884.269	11094
884.395	10847
884.52	10683
884.646	10721
884.772	10672
884.897	10672
885.023	10714
885.148	10820
885.274	10755
885.399	10622
885.524	10641
885.65	10584
885.775	10596
885.9	10519
886.025	10596
886.15	10542
886.275	10348
886.4	10382
886.525	10360
886.65	10405
886.775	10371
886.9	10443
887.025	10527
887.149	10325
887.274	10344
887.399	10276
887.523	10090
887.648	10109
887.773	10051
887.897	10284
888.021	10227
888.146	10139
888.27	10238
888.395	10204
888.519	10200
888.643	10200
888.767	10147
888.891	10131
889.015	10059
889.139	10082
889.263	9983
889.387	10090
889.511	10105
889.635	10074
889.759	9922
889.883	9915
890.006	10017
890.13	10078
890.254	9991
890.377	9991
890.501	9835
890.624	9831
890.748	9888
890.871	9770
890.995	9740
891.118	9690
891.241	9740
891.364	9759
891.488	9838
891.611	9762
891.734	9701
891.857	9770
891.98	9701
892.103	9736
892.226	9660
892.349	9675
892.471	9500
892.594	9488
892.717	9587
892.839	9599
892.962	9515
893.085	9682
893.207	9507
893.33	9507
893.452	9526
893.575	9595
893.697	9469
893.819	9542
893.941	9682
894.064	9568
894.186	9450
894.308	9382
894.43	9523
894.552	9564
894.674	9515
894.796	9374
894.918	9424
895.04	9374
895.161	9370
895.283	9393
895.405	9283
895.526	9275
895.648	9264
895.769	9306
895.891	9264
896.012	9275
896.134	9226
896.255	9207
896.376	9100
896.498	9108
896.619	9104
896.74	9108
896.861	9024
896.982	9279
897.103	9332
897.224	9222
897.345	9028
897.466	9013
897.587	9020
897.708	9100
897.828	9081
897.949	8948
898.07	8891
898.19	8975
898.311	8952
898.431	8941
898.552	8906
898.672	8925
898.792	8960
898.913	8895
899.033	8792
899.153	8701
899.273	8667
899.393	8746
899.513	8762
899.633	8705
899.753	8667
899.873	8720
899.993	8640
900.113	8739
900.232	8651
900.352	8678
900.472	8579
900.591	8594
900.711	8594
900.83	8530
900.95	8670
901.069	8663
901.189	8602
901.308	8514
901.427	8336
901.546	8457
901.665	8461
901.784	8461
901.904	8343
902.023	8336
902.141	8248
902.26	8176
902.379	8290
902.498	8218
902.617	8206
902.735	8324
902.854	8275
902.973	8214
903.091	8145
903.21	8138
903.328	8187
903.446	8081
903.565	8103
903.683	8157
903.801	8073
903.919	8069
904.038	8065
904.156	7989
904.274	8062
904.392	8016
904.51	8145
904.627	7993
904.745	8008
904.863	8119
904.981	7894
905.098	7917
905.216	7928
905.334	7932
905.451	7822
905.569	7837
905.686	7921
905.803	7913
905.921	7776
906.038	7792
906.155	7811
906.272	7715
906.389	7670
906.506	7742
906.623	7632
906.74	7601
906.857	7552
906.974	7556
907.091	7613
907.208	7685
907.324	7601
907.441	7597
907.557	7422
907.674	7499
907.79	7411
907.907	7457
908.023	7400
908.139	7350
908.256	7335
908.372	7350
908.488	7350
908.604	7263
908.72	7308
908.836	7236
908.952	7236
909.068	7255
909.184	7346
909.3	7240
909.415	7263
909.531	7259
909.647	7141
909.762	7080
909.878	7034
909.993	7126
910.108	7053
910.224	7084
910.339	7145
910.454	7061
910.57	6966
910.685	7023
910.8	7164
910.915	7069
911.03	7061
911.145	6909
911.259	6814
911.374	6913
911.489	6844
911.604	6814
911.718	6749
911.833	6753
911.947	6703
912.062	6589
912.176	6665
912.291	6715
912.405	6707
912.519	6818
912.633	6814
912.748	6707
912.862	6662
912.976	6578
913.09	6547
913.204	6627
913.318	6662
913.431	6722
913.545	6635
913.659	6749
913.772	6635
913.886	6483
914	6532
914.113	6612
914.226	6601
914.34	6582
914.453	6528
914.566	6631
914.68	6559
914.793	6509
914.906	6399
915.019	6391
915.132	6338
915.245	6384
915.358	6388
915.47	6467
915.583	6506
915.696	6445
915.809	6456
915.921	6525
916.034	6372
916.146	6384
916.259	6319
916.371	6471
916.483	6403
916.595	6414
916.708	6361
916.82	6437
916.932	6410
917.044	6445
917.156	6403
917.268	6331
917.38	6323
917.491	6243
917.603	6410
917.715	6403
917.826	6323
917.938	6254
918.049	6254
918.161	6315
918.272	6429
918.384	6433
918.495	6357
918.606	6262
918.717	6209
918.828	6262
918.939	6251
919.05	6239
919.161	6243
919.272	6144
919.383	6136
919.494	6228
919.604	6414
919.715	6266
919.826	6213
919.936	6243
920.047	6361
920.157	6285
920.267	6414
920.378	6323
920.488	6273
920.598	6445
920.708	6540
920.818	6460
920.928	6426
921.038	6574
921.148	6582
921.258	6327
921.368	6289
921.477	6152
921.587	6152
921.697	6068
921.806	6144
921.916	6095
922.025	5893
922.134	5912
922.244	5912
922.353	5950
922.462	5859
922.571	5821
922.68	5661
922.789	5630
922.898	5665
923.007	5627
923.116	5695
923.224	5653
923.333	5676
923.442	5600
923.55	5566
923.659	5585
923.767	5592
923.876	5630
923.984	5604
924.092	5535
924.201	5532
924.309	5554
924.417	5573
924.525	5467
924.633	5490
924.741	6254
924.849	5364
924.956	5474
925.064	5337
925.172	5315
925.279	5250
925.387	5334
925.494	5239
925.602	5414
925.709	5334
925.816	5242
925.924	5284
926.031	5322
926.138	5303
926.245	5303
926.352	5185
926.459	5303
926.566	5330
926.673	5216
926.779	5105
926.886	5098
926.993	5045
927.099	5033
927.206	4995
927.312	4946
927.419	4999
927.525	4953
927.631	5045
927.737	4850
927.843	4866
927.95	4786
928.056	4805
928.162	4866
928.267	4866
928.373	5235
928.479	4824
928.585	4653
928.69	4763
928.796	4733
928.901	4649
929.007	4546
929.112	4653
929.218	4599
929.323	4618
929.428	4527
929.533	4622
929.638	4466
929.743	4519
929.848	4565
929.953	4481
930.058	4436
930.163	4291
930.267	4352
930.372	4432
930.477	4291
930.581	4421
930.685	4367
930.79	4276
930.894	4299
930.998	4242
931.103	4337
931.207	4135
931.311	4067
931.415	4055
931.519	3949
931.623	3956
