Data from glass_V78500241_2650.txt Node
Date: Wed Sep 01 19:32:52 CST 2021
User: usil
Spectrometer: V785-0024
Trigger mode: 0
Integration Time (sec): 4.000000E-1
Scans to average: 1
Nonlinearity correction enabled: false
Boxcar width: 0
Storing dark spectrum: false
XAxis mode: Wavelengths
Number of Pixels in Spectrum: 1024
>>>>>Begin Spectral Data<<<<<
801.071	3724
801.214	3724
801.356	3713
801.499	3747
801.641	3705
801.783	3781
801.926	3846
802.068	3720
802.211	3831
802.353	3896
802.496	3880
802.638	3842
802.78	3899
802.923	3937
803.065	3865
803.208	3789
803.35	3876
803.492	3876
803.635	3880
803.777	3781
803.919	3911
804.061	4173
804.204	3937
804.346	3899
804.488	3941
804.63	3987
804.773	3968
804.915	4078
805.057	4150
805.199	4071
805.341	4074
805.483	4131
805.626	4147
805.768	4101
805.91	4215
806.052	4188
806.194	4169
806.336	4344
806.478	4200
806.62	4177
806.762	4150
806.904	4295
807.046	4299
807.188	4200
807.33	4124
807.472	4238
807.614	4181
807.756	4261
807.898	4166
808.04	4181
808.182	4284
808.324	4337
808.465	4367
808.607	4466
808.749	4440
808.891	4440
809.033	4481
809.174	4390
809.316	4291
809.458	4192
809.6	4143
809.741	4124
809.883	4169
810.025	4177
810.166	4227
810.308	4207
810.45	4215
810.591	4207
810.733	4257
810.875	4497
811.016	4797
811.158	5143
811.299	5299
811.441	5261
811.582	5067
811.724	4717
811.865	4462
812.007	4459
812.148	4405
812.29	4409
812.431	4428
812.573	4402
812.714	4363
812.855	4379
812.997	4352
813.138	4489
813.279	4394
813.421	4356
813.562	4348
813.703	4371
813.845	4299
813.986	4261
814.127	4207
814.268	4280
814.41	4246
814.551	4310
814.692	4337
814.833	4246
814.974	4287
815.115	4299
815.256	4242
815.397	4185
815.539	4272
815.68	4204
815.821	4150
815.962	4303
816.103	4257
816.244	4207
816.385	4227
816.526	4287
816.666	4196
816.807	4101
816.948	4192
817.089	4135
817.23	4150
817.371	4055
817.512	4010
817.653	4067
817.793	3987
817.934	4082
818.075	4101
818.216	4074
818.356	4097
818.497	3968
818.638	3903
818.778	3922
818.919	3865
819.06	3819
819.2	3903
819.341	3888
819.481	3861
819.622	3907
819.762	4029
819.903	3880
820.043	3800
820.184	3861
820.324	3854
820.465	3850
820.605	3846
820.746	3854
820.886	3774
821.026	3892
821.167	3888
821.307	3960
821.447	3968
821.588	3960
821.728	3968
821.868	3930
822.008	3827
822.149	3873
822.289	3850
822.429	3804
822.569	3778
822.709	3743
822.849	3690
822.99	3762
823.13	3774
823.27	3778
823.41	3762
823.55	3709
823.69	3728
823.83	3743
823.97	3679
824.11	3625
824.25	3584
824.389	3618
824.529	3644
824.669	3587
824.809	3705
824.949	3709
825.089	3709
825.228	3705
825.368	3564
825.508	3549
825.648	3553
825.787	3591
825.927	3606
826.067	3614
826.206	3603
826.346	3751
826.485	3842
826.625	3819
826.765	3934
826.904	3819
827.044	3625
827.183	3526
827.323	3447
827.462	3496
827.601	3401
827.741	3458
827.88	3424
828.02	3344
828.159	3473
828.298	3454
828.437	3492
828.577	3469
828.716	3576
828.855	3458
828.994	3351
829.134	3348
829.273	3370
829.412	3351
829.551	3329
829.69	3344
829.829	3428
829.968	3526
830.107	3435
830.246	3420
830.385	3397
830.524	3348
830.663	3283
830.802	3260
830.941	3188
831.08	3218
831.219	3294
831.357	3279
831.496	3355
831.635	3249
831.774	3188
831.913	3169
832.051	3169
832.19	3112
832.329	3211
832.467	3173
832.606	3108
832.744	3184
832.883	3161
833.022	3173
833.16	3214
833.299	3241
833.437	3367
833.576	3386
833.714	3401
833.852	3439
833.991	3454
834.129	3439
834.267	3466
834.406	3374
834.544	3409
834.682	3386
834.821	3393
834.959	3523
835.097	3393
835.235	3553
835.373	3485
835.511	3485
835.65	3469
835.788	3477
835.926	3374
836.064	3363
836.202	3393
836.34	3553
836.478	3595
836.615	3572
836.753	3587
836.891	3652
837.029	3568
837.167	3584
837.305	3576
837.443	3530
837.58	3469
837.718	3614
837.856	3545
837.993	3496
838.131	3591
838.269	3553
838.406	3580
838.544	3530
838.681	3424
838.819	3443
838.956	3397
839.094	3409
839.231	3428
839.369	3504
839.506	3705
839.643	3618
839.781	3523
839.918	3431
840.055	3526
840.193	3542
840.33	3549
840.467	3587
840.604	3618
840.742	3789
840.879	3515
841.016	3542
841.153	3534
841.29	3717
841.427	3694
841.564	3732
841.701	3747
841.838	3690
841.975	3690
842.112	3667
842.249	3644
842.385	3637
842.522	3781
842.659	3682
842.796	3660
842.933	3671
843.069	3713
843.206	3682
843.343	3781
843.479	3762
843.616	3797
843.752	3686
843.889	3690
844.025	3800
844.162	3717
844.298	3797
844.435	3804
844.571	3789
844.708	3869
844.844	3975
844.98	4040
845.117	4006
845.253	3941
845.389	3869
845.525	3956
845.661	3991
845.798	3934
845.934	3994
846.07	3953
846.206	4048
846.342	4105
846.478	4040
846.614	3941
846.75	3911
846.886	3873
847.022	3998
847.158	3949
847.294	4036
847.429	3998
847.565	4006
847.701	4249
847.837	3876
847.972	3827
848.108	3991
848.244	3979
848.379	3838
848.515	3804
848.65	3816
848.786	3812
848.921	3835
849.057	3922
849.192	3968
849.328	3880
849.463	3922
849.598	3899
849.734	3857
849.869	3831
850.004	3823
850.14	3797
850.275	3770
850.41	3724
850.545	3751
850.68	3751
850.815	3819
850.95	3781
851.085	3941
851.22	3857
851.355	3842
851.49	3762
851.625	3781
851.76	3781
851.895	3701
852.03	3747
852.165	3789
852.299	3831
852.434	3888
852.569	3888
852.703	3888
852.838	3949
852.973	3956
853.107	3975
853.242	3896
853.376	3846
853.511	3789
853.645	3827
853.78	3930
853.914	3850
854.048	3896
854.183	3850
854.317	3915
854.451	4036
854.585	3911
854.72	3903
854.854	3994
854.988	3926
855.122	3991
855.256	3907
855.39	4002
855.524	4067
855.658	4135
855.792	4071
855.926	4143
856.06	4173
856.194	4200
856.327	4090
856.461	4139
856.595	4101
856.729	4188
856.862	4227
856.996	4207
857.13	4287
857.263	4306
857.397	4360
857.53	4318
857.664	4306
857.797	4390
857.931	4436
858.064	4344
858.197	4462
858.331	4409
858.464	4352
858.597	4310
858.731	4390
858.864	4417
858.997	4398
859.13	4538
859.263	4512
859.396	4573
859.529	4489
859.662	4531
859.795	4508
859.928	4569
860.061	4675
860.194	4729
860.327	4630
860.46	4668
860.592	4740
860.725	4759
860.858	4744
860.99	4656
861.123	4687
861.256	4656
861.388	4786
861.521	5341
861.653	4755
861.786	4717
861.918	4736
862.05	4786
862.183	4828
862.315	4881
862.447	4942
862.58	4900
862.712	4797
862.844	4736
862.976	4839
863.108	4839
863.24	5201
863.372	4774
863.504	4881
863.636	4885
863.768	4976
863.9	4980
864.032	4930
864.164	4972
864.296	4980
864.428	5064
864.559	5064
864.691	5075
864.823	5151
864.954	5090
865.086	5132
865.217	5109
865.349	5098
865.48	5128
865.612	5208
865.743	5299
865.875	5151
866.006	5185
866.137	5212
866.269	5220
866.4	5223
866.531	5231
866.662	5197
866.793	5261
866.924	5307
867.055	5330
867.186	5299
867.317	5296
867.448	5337
867.579	5353
867.71	5436
867.841	5429
867.972	5425
868.103	5493
868.233	5448
868.364	5532
868.495	5543
868.625	5665
868.756	5737
868.886	5661
869.017	5733
869.147	5821
869.278	5821
869.408	5786
869.539	5786
869.669	5939
869.799	5897
869.929	5927
870.06	5988
870.19	6205
870.32	6178
870.45	6270
870.58	6384
870.71	6441
870.84	6422
870.97	6414
871.1	6418
871.23	6597
871.36	6677
871.489	6700
871.619	6726
871.749	6753
871.879	6806
872.008	6977
872.138	6985
872.267	7015
872.397	6985
872.526	7050
872.656	7122
872.785	7179
872.915	7293
873.044	7472
873.173	7514
873.303	7548
873.432	7715
873.561	7902
873.69	7879
873.819	8046
873.948	8183
874.077	8240
874.206	8309
874.335	8503
874.464	8659
874.593	8834
874.722	8990
874.851	9104
874.979	9230
875.108	9428
875.237	9450
875.365	9458
875.494	9584
875.623	9778
875.751	9873
875.88	10010
876.008	10139
876.136	10272
876.265	10474
876.393	10668
876.521	10721
876.65	10824
876.778	10816
876.906	10896
877.034	11014
877.162	11140
877.29	11162
877.418	11296
877.546	11364
877.674	11425
877.802	11471
877.93	11512
878.058	11570
878.185	11585
878.313	11695
878.441	11703
878.568	11619
878.696	11767
878.824	11824
878.951	11920
879.079	11920
879.206	12182
879.333	12015
879.461	12011
879.588	12148
879.715	12068
879.842	12186
879.97	12110
880.097	11832
880.224	11874
880.351	11813
880.478	11870
880.605	11851
880.732	11821
880.859	12041
880.986	11790
881.112	11977
881.239	11676
881.366	11703
881.493	11646
881.619	11467
881.746	11554
881.872	11554
881.999	11577
882.125	11528
882.252	11592
882.378	11471
882.505	11493
882.631	11402
882.757	11246
882.883	11414
883.01	11280
883.136	11105
883.262	11067
883.388	11124
883.514	11113
883.64	11159
883.766	11113
883.892	10934
884.018	10976
884.143	11056
884.269	11121
884.395	10866
884.52	10755
884.646	10767
884.772	10691
884.897	10618
885.023	10763
885.148	10721
885.274	10797
885.399	10649
885.524	10630
885.65	10577
885.775	10634
885.9	10508
886.025	10588
886.15	10596
886.275	10531
886.4	10325
886.525	10379
886.65	10386
886.775	10394
886.9	10462
887.025	10466
887.149	10398
887.274	10215
887.399	10223
887.523	10143
887.648	10150
887.773	10128
887.897	10169
888.021	10238
888.146	10112
888.27	10188
888.395	10177
888.519	10162
888.643	10234
888.767	10169
888.891	10139
889.015	10006
889.139	10040
889.263	9926
889.387	10006
889.511	10082
889.635	10097
889.759	9903
889.883	10010
890.006	10006
890.13	10029
890.254	9888
890.377	9876
890.501	9915
890.624	9926
890.748	9854
890.871	9663
890.995	9728
891.118	9724
891.241	9732
891.364	9774
891.488	9865
891.611	9740
891.734	9736
891.857	9713
891.98	9755
892.103	9724
892.226	9740
892.349	9656
892.471	9466
892.594	9561
892.717	9557
892.839	9534
892.962	9641
893.085	9701
893.207	9637
893.33	9492
893.452	9485
893.575	9561
893.697	9500
893.819	9713
893.941	9572
894.064	9610
894.186	9462
894.308	9344
894.43	9561
894.552	9584
894.674	9504
894.796	9355
894.918	9374
895.04	9275
895.161	9412
895.283	9336
895.405	9237
895.526	9195
895.648	9253
895.769	9253
895.891	9275
896.012	9241
896.134	9222
896.255	9188
896.376	9157
896.498	9165
896.619	9135
896.74	9039
896.861	9123
896.982	9211
897.103	9298
897.224	9195
897.345	9097
897.466	9013
897.587	8998
897.708	9036
897.828	9089
897.949	8925
898.07	8876
898.19	8895
898.311	9047
898.431	8902
898.552	8982
898.672	8956
898.792	8906
898.913	8872
899.033	8811
899.153	8743
899.273	8655
899.393	8674
899.513	8670
899.633	8686
899.753	8689
899.873	8651
899.993	8735
900.113	8648
900.232	8670
900.352	8587
900.472	8648
900.591	8511
900.711	8575
900.83	8571
900.95	8655
901.069	8705
901.189	8568
901.308	8400
901.427	8343
901.546	8419
901.665	8473
901.784	8503
901.904	8320
902.023	8263
902.141	8240
902.26	8237
902.379	8248
902.498	8172
902.617	8176
902.735	8279
902.854	8294
902.973	8259
903.091	8164
903.21	8111
903.328	8107
903.446	8164
903.565	8039
903.683	8134
903.801	8024
903.919	8096
904.038	8142
904.156	8024
904.274	8100
904.392	8012
904.51	8008
904.627	8065
904.745	8115
904.863	8050
904.981	7906
905.098	7814
905.216	7898
905.334	7860
905.451	7925
905.569	7879
905.686	7925
905.803	7913
905.921	7750
906.038	7906
906.155	7776
906.272	7670
906.389	7753
906.506	7681
906.623	7582
906.74	7609
906.857	7506
906.974	7616
907.091	7677
907.208	7738
907.324	7674
907.441	7552
907.557	7518
907.674	7403
907.79	7400
907.907	7388
908.023	7422
908.139	7453
908.256	7411
908.372	7365
908.488	7339
908.604	7263
908.72	7213
908.836	7259
908.952	7209
909.068	7266
909.184	7354
909.3	7244
909.415	7274
909.531	7270
909.647	7057
909.762	7080
909.878	7027
909.993	7110
910.108	7114
910.224	7164
910.339	7080
910.454	7027
910.57	7023
910.685	6981
910.8	7141
910.915	7118
911.03	6962
911.145	6920
911.259	6856
911.374	6924
911.489	6779
911.604	6798
911.718	6715
911.833	6772
911.947	6642
912.062	6601
912.176	6722
912.291	6681
912.405	6722
912.519	6833
912.633	6814
912.748	6719
912.862	6711
912.976	6589
913.09	6506
913.204	6585
913.318	6582
913.431	6642
913.545	6654
913.659	6669
913.772	6658
913.886	6585
914	6509
914.113	6631
914.226	6635
914.34	6635
914.453	6540
914.566	6551
914.68	6483
914.793	6490
914.906	6395
915.019	6346
915.132	6376
915.245	6426
915.358	6467
915.47	6414
915.583	6471
915.696	6475
915.809	6509
915.921	6490
916.034	6486
916.146	6429
916.259	6376
916.371	6464
916.483	6460
916.595	6323
916.708	6357
916.82	6372
916.932	6311
917.044	6369
917.156	6426
917.268	6300
917.38	6319
917.491	6296
917.603	6334
917.715	6388
917.826	6418
917.938	6350
918.049	6228
918.161	6338
918.272	6407
918.384	6426
918.495	6346
918.606	6258
918.717	6136
918.828	6342
918.939	6239
919.05	6163
919.161	6194
919.272	6095
919.383	6129
919.494	6289
919.604	6441
919.715	6342
919.826	6224
919.936	6266
920.047	6361
920.157	6296
920.267	6433
920.378	6292
920.488	6281
920.598	6441
920.708	6540
920.818	6422
920.928	6395
921.038	6635
921.148	6631
921.258	6289
921.368	6243
921.477	6133
921.587	6159
921.697	6072
921.806	6235
921.916	5984
922.025	5988
922.134	5920
922.244	5866
922.353	5916
922.462	5828
922.571	5813
922.68	5665
922.789	5630
922.898	5703
923.007	5596
923.116	5684
923.224	5668
923.333	5684
923.442	5623
923.55	5562
923.659	5581
923.767	5615
923.876	5615
923.984	5608
924.092	5512
924.201	5547
924.309	5516
924.417	5543
924.525	5459
924.633	5478
924.741	6285
924.849	5357
924.956	5433
925.064	5341
925.172	5288
925.279	5292
925.387	5315
925.494	5353
925.602	5417
925.709	5379
925.816	5258
925.924	5318
926.031	5326
926.138	5315
926.245	5345
926.352	5185
926.459	5273
926.566	5231
926.673	5181
926.779	5128
926.886	5109
926.993	5018
927.099	4938
927.206	4991
927.312	4980
927.419	5022
927.525	4919
927.631	5006
927.737	4858
927.843	4858
927.95	4782
928.056	4801
928.162	4816
928.267	4816
928.373	5334
928.479	4854
928.585	4664
928.69	4729
928.796	4771
928.901	4656
929.007	4626
929.112	4687
929.218	4634
929.323	4599
929.428	4550
929.533	4622
929.638	4558
929.743	4512
929.848	4535
929.953	4523
930.058	4428
930.163	4306
930.267	4280
930.372	4371
930.477	4204
930.581	4466
930.685	4379
930.79	4234
930.894	4230
930.998	4246
931.103	4405
931.207	4124
931.311	4074
931.415	4044
931.519	3888
931.623	3949
