Data from glass_V78500241_630.txt Node
Date: Wed Sep 01 19:18:52 CST 2021
User: usil
Spectrometer: V785-0024
Trigger mode: 0
Integration Time (sec): 4.000000E-1
Scans to average: 1
Nonlinearity correction enabled: false
Boxcar width: 0
Storing dark spectrum: false
XAxis mode: Wavelengths
Number of Pixels in Spectrum: 1024
>>>>>Begin Spectral Data<<<<<
801.071	3762
801.214	3774
801.356	3743
801.499	3747
801.641	3728
801.783	3823
801.926	3903
802.068	3842
802.211	3865
802.353	3884
802.496	3831
802.638	3937
802.78	3930
802.923	3949
803.065	3915
803.208	3861
803.35	3918
803.492	3934
803.635	3926
803.777	3838
803.919	3926
804.061	4131
804.204	3968
804.346	3998
804.488	3915
804.63	4029
804.773	3998
804.915	4017
805.057	4185
805.199	4044
805.341	4086
805.483	4131
805.626	4086
805.768	4135
805.91	4230
806.052	4299
806.194	4234
806.336	4371
806.478	4234
806.62	4200
806.762	4196
806.904	4268
807.046	4348
807.188	4227
807.33	4177
807.472	4276
807.614	4219
807.756	4287
807.898	4215
808.04	4185
808.182	4310
808.324	4333
808.465	4405
808.607	4478
808.749	4516
808.891	4485
809.033	4512
809.174	4451
809.316	4249
809.458	4253
809.6	4131
809.741	4135
809.883	4192
810.025	4207
810.166	4227
810.308	4196
810.45	4219
810.591	4249
810.733	4299
810.875	4573
811.016	4877
811.158	5128
811.299	5315
811.441	5288
811.582	5067
811.724	4714
811.865	4470
812.007	4466
812.148	4447
812.29	4356
812.431	4383
812.573	4470
812.714	4363
812.855	4402
812.997	4459
813.138	4516
813.279	4417
813.421	4356
813.562	4352
813.703	4383
813.845	4348
813.986	4284
814.127	4272
814.268	4284
814.41	4314
814.551	4253
814.692	4310
814.833	4276
814.974	4314
815.115	4318
815.256	4287
815.397	4261
815.539	4276
815.68	4204
815.821	4211
815.962	4314
816.103	4303
816.244	4272
816.385	4238
816.526	4284
816.666	4223
816.807	4120
816.948	4204
817.089	4177
817.23	4135
817.371	4032
817.512	4074
817.653	4093
817.793	4044
817.934	4040
818.075	4124
818.216	4086
818.356	4112
818.497	4017
818.638	3937
818.778	3876
818.919	3922
819.06	3911
819.2	3915
819.341	3869
819.481	3880
819.622	3934
819.762	3994
819.903	3968
820.043	3865
820.184	3869
820.324	3823
820.465	3873
820.605	3884
820.746	3876
820.886	3785
821.026	3918
821.167	3934
821.307	3991
821.447	4017
821.588	3991
821.728	4017
821.868	3960
822.008	3861
822.149	3884
822.289	3911
822.429	3759
822.569	3743
822.709	3816
822.849	3781
822.99	3732
823.13	3762
823.27	3804
823.41	3701
823.55	3755
823.69	3755
823.83	3774
823.97	3675
824.11	3644
824.25	3641
824.389	3682
824.529	3679
824.669	3679
824.809	3705
824.949	3770
825.089	3762
825.228	3682
825.368	3595
825.508	3534
825.648	3587
825.787	3637
825.927	3637
826.067	3618
826.206	3682
826.346	3831
826.485	3816
826.625	3903
826.765	3903
826.904	3854
827.044	3584
827.183	3504
827.323	3473
827.462	3542
827.601	3458
827.741	3466
827.88	3500
828.02	3386
828.159	3473
828.298	3481
828.437	3534
828.577	3504
828.716	3629
828.855	3519
828.994	3416
829.134	3386
829.273	3439
829.412	3351
829.551	3359
829.69	3367
829.829	3492
829.968	3542
830.107	3454
830.246	3439
830.385	3389
830.524	3370
830.663	3279
830.802	3283
830.941	3180
831.08	3184
831.219	3245
831.357	3275
831.496	3416
831.635	3233
831.774	3173
831.913	3218
832.051	3154
832.19	3157
832.329	3222
832.467	3146
832.606	3077
832.744	3131
832.883	3211
833.022	3230
833.16	3214
833.299	3317
833.437	3321
833.576	3382
833.714	3367
833.852	3462
833.991	3477
834.129	3469
834.267	3424
834.406	3431
834.544	3439
834.682	3428
834.821	3454
834.959	3606
835.097	3462
835.235	3557
835.373	3515
835.511	3534
835.65	3447
835.788	3481
835.926	3416
836.064	3389
836.202	3420
836.34	3576
836.478	3682
836.615	3542
836.753	3633
836.891	3633
837.029	3614
837.167	3652
837.305	3557
837.443	3561
837.58	3561
837.718	3663
837.856	3587
837.993	3564
838.131	3629
838.269	3584
838.406	3564
838.544	3576
838.681	3454
838.819	3458
838.956	3405
839.094	3420
839.231	3454
839.369	3507
839.506	3778
839.643	3656
839.781	3500
839.918	3481
840.055	3519
840.193	3557
840.33	3504
840.467	3576
840.604	3587
840.742	3823
840.879	3553
841.016	3557
841.153	3599
841.29	3751
841.427	3698
841.564	3717
841.701	3751
841.838	3713
841.975	3694
842.112	3736
842.249	3648
842.385	3614
842.522	3842
842.659	3690
842.796	3648
842.933	3720
843.069	3762
843.206	3709
843.343	3789
843.479	3800
843.616	3808
843.752	3637
843.889	3690
844.025	3857
844.162	3747
844.298	3861
844.435	3800
844.571	3797
844.708	3896
844.844	3983
844.98	4044
845.117	4029
845.253	3915
845.389	3922
845.525	3994
845.661	3945
845.798	3937
845.934	4032
846.07	3934
846.206	4074
846.342	4139
846.478	4086
846.614	4013
846.75	3941
846.886	3899
847.022	4040
847.158	3979
847.294	3972
847.429	4048
847.565	4044
847.701	4246
847.837	3903
847.972	3896
848.108	4029
848.244	3979
848.379	3873
848.515	3831
848.65	3797
848.786	3865
848.921	3850
849.057	3991
849.192	3968
849.328	3960
849.463	3918
849.598	3918
849.734	3850
849.869	3823
850.004	3781
850.14	3831
850.275	3785
850.41	3736
850.545	3812
850.68	3808
850.815	3823
850.95	3804
851.085	3956
851.22	3899
851.355	3896
851.49	3797
851.625	3804
851.76	3812
851.895	3747
852.03	3747
852.165	3804
852.299	3869
852.434	3934
852.569	3846
852.703	3873
852.838	3915
852.973	4040
853.107	3983
853.242	3934
853.376	3896
853.511	3770
853.645	3873
853.78	4010
853.914	3903
854.048	3880
854.183	3876
854.317	3983
854.451	4074
854.585	3991
854.72	3937
854.854	4040
854.988	3953
855.122	4017
855.256	3953
855.39	4105
855.524	4143
855.658	4086
855.792	4093
855.926	4147
856.06	4192
856.194	4169
856.327	4143
856.461	4169
856.595	4139
856.729	4207
856.862	4314
856.996	4280
857.13	4276
857.263	4314
857.397	4409
857.53	4306
857.664	4360
857.797	4443
857.931	4447
858.064	4402
858.197	4447
858.331	4402
858.464	4394
858.597	4390
858.731	4432
858.864	4478
858.997	4447
859.13	4504
859.263	4542
859.396	4618
859.529	4512
859.662	4554
859.795	4516
859.928	4634
860.061	4736
860.194	4729
860.327	4656
860.46	4645
860.592	4691
860.725	4778
860.858	4805
860.99	4736
861.123	4672
861.256	4683
861.388	4782
861.521	5318
861.653	4687
861.786	4687
861.918	4733
862.05	4816
862.183	4850
862.315	4896
862.447	4896
862.58	4885
862.712	4759
862.844	4767
862.976	4870
863.108	4896
863.24	5212
863.372	4866
863.504	4911
863.636	4904
863.768	4976
863.9	4968
864.032	4984
864.164	4995
864.296	4999
864.428	5086
864.559	5159
864.691	5117
864.823	5128
864.954	5166
865.086	5124
865.217	5132
865.349	5124
865.48	5174
865.612	5178
865.743	5254
865.875	5250
866.006	5155
866.137	5216
866.269	5239
866.4	5284
866.531	5261
866.662	5296
866.793	5311
866.924	5322
867.055	5322
867.186	5376
867.317	5345
867.448	5330
867.579	5345
867.71	5398
867.841	5376
867.972	5452
868.103	5471
868.233	5505
868.364	5539
868.495	5570
868.625	5653
868.756	5821
868.886	5661
869.017	5745
869.147	5901
869.278	5961
869.408	5821
869.539	5832
869.669	5965
869.799	5863
869.929	5980
870.06	6003
870.19	6171
870.32	6155
870.45	6281
870.58	6407
870.71	6429
870.84	6540
870.97	6414
871.1	6452
871.23	6623
871.36	6741
871.489	6673
871.619	6726
871.749	6821
871.879	6848
872.008	7034
872.138	6981
872.267	7019
872.397	6935
872.526	7065
872.656	7141
872.785	7202
872.915	7400
873.044	7491
873.173	7594
873.303	7715
873.432	7715
873.561	7864
873.69	7947
873.819	8035
873.948	8187
874.077	8279
874.206	8362
874.335	8446
874.464	8689
874.593	8800
874.722	8982
874.851	9051
874.979	9275
875.108	9344
875.237	9405
875.365	9496
875.494	9629
875.623	9819
875.751	9865
875.88	9987
876.008	10207
876.136	10295
876.265	10611
876.393	10740
876.521	10710
876.65	10847
876.778	10915
876.906	10862
877.034	10976
877.162	11143
877.29	11166
877.418	11280
877.546	11410
877.674	11478
877.802	11493
877.93	11459
878.058	11592
878.185	11539
878.313	11672
878.441	11764
878.568	11756
878.696	11832
878.824	11828
878.951	11992
879.079	11916
879.206	12167
879.333	12041
879.461	12045
879.588	12110
879.715	12060
879.842	12224
879.97	12098
880.097	11828
880.224	11988
880.351	11901
880.478	11847
880.605	11920
880.732	11748
880.859	12026
880.986	11783
881.112	11859
881.239	11790
881.366	11672
881.493	11634
881.619	11547
881.746	11547
881.872	11539
881.999	11433
882.125	11463
882.252	11558
882.378	11452
882.505	11509
882.631	11406
882.757	11265
882.883	11315
883.01	11326
883.136	11239
883.262	11155
883.388	11067
883.514	11235
883.64	11223
883.766	11071
883.892	11041
884.018	10915
884.143	11037
884.269	11075
884.395	10854
884.52	10733
884.646	10835
884.772	10778
884.897	10725
885.023	10630
885.148	10721
885.274	10748
885.399	10748
885.524	10607
885.65	10615
885.775	10573
885.9	10546
886.025	10630
886.15	10565
886.275	10508
886.4	10405
886.525	10409
886.65	10367
886.775	10379
886.9	10470
887.025	10569
887.149	10379
887.274	10265
887.399	10204
887.523	10227
887.648	10162
887.773	10173
887.897	10265
888.021	10200
888.146	10169
888.27	10253
888.395	10242
888.519	10162
888.643	10204
888.767	10295
888.891	10135
889.015	9991
889.139	10044
889.263	9953
889.387	10116
889.511	10143
889.635	10086
889.759	9983
889.883	10002
890.006	10082
890.13	10093
890.254	9895
890.377	9979
890.501	9903
890.624	9873
890.748	9918
890.871	9800
890.995	9774
891.118	9728
891.241	9766
891.364	9740
891.488	9838
891.611	9736
891.734	9778
891.857	9728
891.98	9728
892.103	9808
892.226	9755
892.349	9682
892.471	9542
892.594	9618
892.717	9564
892.839	9603
892.962	9652
893.085	9663
893.207	9591
893.33	9587
893.452	9530
893.575	9603
893.697	9515
893.819	9622
893.941	9633
894.064	9637
894.186	9431
894.308	9450
894.43	9538
894.552	9584
894.674	9519
894.796	9348
894.918	9359
895.04	9313
895.161	9458
895.283	9355
895.405	9245
895.526	9256
895.648	9363
895.769	9279
895.891	9256
896.012	9313
896.134	9256
896.255	9211
896.376	9074
896.498	9150
896.619	9100
896.74	9138
896.861	9157
896.982	9310
897.103	9306
897.224	9131
897.345	9001
897.466	9074
897.587	9017
897.708	9058
897.828	9104
897.949	8918
898.07	8891
898.19	8963
898.311	9161
898.431	8941
898.552	8883
898.672	9009
898.792	8982
898.913	8933
899.033	8769
899.153	8720
899.273	8727
899.393	8781
899.513	8746
899.633	8716
899.753	8834
899.873	8686
899.993	8796
900.113	8697
900.232	8697
900.352	8648
900.472	8640
900.591	8518
900.711	8617
900.83	8590
900.95	8693
901.069	8785
901.189	8549
901.308	8461
901.427	8400
901.546	8400
901.665	8427
901.784	8465
901.904	8408
902.023	8374
902.141	8221
902.26	8145
902.379	8279
902.498	8237
902.617	8191
902.735	8317
902.854	8320
902.973	8294
903.091	8142
903.21	8111
903.328	8202
903.446	8168
903.565	8077
903.683	8115
903.801	8016
903.919	7993
904.038	8107
904.156	8039
904.274	8081
904.392	8054
904.51	8077
904.627	8100
904.745	8088
904.863	8092
904.981	7921
905.098	7875
905.216	7871
905.334	7883
905.451	7814
905.569	7913
905.686	7906
905.803	7944
905.921	7723
906.038	7925
906.155	7795
906.272	7776
906.389	7753
906.506	7666
906.623	7658
906.74	7643
906.857	7624
906.974	7613
907.091	7685
907.208	7693
907.324	7681
907.441	7605
907.557	7495
907.674	7460
907.79	7327
907.907	7407
908.023	7441
908.139	7415
908.256	7365
908.372	7365
908.488	7400
908.604	7247
908.72	7297
908.836	7316
908.952	7236
909.068	7285
909.184	7358
909.3	7266
909.415	7362
909.531	7301
909.647	7175
909.762	7190
909.878	7065
909.993	7145
910.108	7129
910.224	7065
910.339	7076
910.454	7061
910.57	7034
910.685	7015
910.8	7202
910.915	7164
911.03	7027
911.145	6932
911.259	6890
911.374	6905
911.489	6863
911.604	6779
911.718	6798
911.833	6711
911.947	6662
912.062	6635
912.176	6673
912.291	6696
912.405	6677
912.519	6798
912.633	6844
912.748	6730
912.862	6658
912.976	6601
913.09	6544
913.204	6601
913.318	6642
913.431	6642
913.545	6734
913.659	6783
913.772	6665
913.886	6528
914	6566
914.113	6623
914.226	6677
914.34	6639
914.453	6498
914.566	6677
914.68	6563
914.793	6528
914.906	6456
915.019	6433
915.132	6452
915.245	6441
915.358	6486
915.47	6494
915.583	6467
915.696	6486
915.809	6540
915.921	6471
916.034	6422
916.146	6414
916.259	6414
916.371	6464
916.483	6426
916.595	6429
916.708	6479
916.82	6414
916.932	6384
917.044	6395
917.156	6441
917.268	6327
917.38	6407
917.491	6376
917.603	6350
917.715	6418
917.826	6456
917.938	6319
918.049	6266
918.161	6369
918.272	6448
918.384	6414
918.495	6346
918.606	6308
918.717	6220
918.828	6277
918.939	6338
919.05	6281
919.161	6327
919.272	6171
919.383	6178
919.494	6258
919.604	6441
919.715	6342
919.826	6224
919.936	6243
920.047	6380
920.157	6277
920.267	6429
920.378	6369
920.488	6342
920.598	6426
920.708	6620
920.818	6422
920.928	6410
921.038	6631
921.148	6631
921.258	6323
921.368	6304
921.477	6251
921.587	6235
921.697	6121
921.806	6175
921.916	6129
922.025	5961
922.134	5939
922.244	5870
922.353	5908
922.462	5851
922.571	5821
922.68	5760
922.789	5707
922.898	5752
923.007	5653
923.116	5707
923.224	5710
923.333	5710
923.442	5604
923.55	5585
923.659	5573
923.767	5646
923.876	5554
923.984	5646
924.092	5524
924.201	5608
924.309	5577
924.417	5592
924.525	5493
924.633	5520
924.741	6369
924.849	5337
924.956	5467
925.064	5360
925.172	5322
925.279	5303
925.387	5372
925.494	5318
925.602	5391
925.709	5383
925.816	5322
925.924	5303
926.031	5440
926.138	5311
926.245	5296
926.352	5258
926.459	5330
926.566	5379
926.673	5204
926.779	5094
926.886	5147
926.993	5045
927.099	5018
927.206	4984
927.312	4995
927.419	5033
927.525	4984
927.631	5010
927.737	4938
927.843	4843
927.95	4774
928.056	4850
928.162	4816
928.267	4862
928.373	5288
928.479	4900
928.585	4721
928.69	4782
928.796	4790
928.901	4702
929.007	4577
929.112	4710
929.218	4687
929.323	4592
929.428	4573
929.533	4694
929.638	4573
929.743	4538
929.848	4577
929.953	4516
930.058	4474
930.163	4341
930.267	4306
930.372	4421
930.477	4303
930.581	4466
930.685	4383
930.79	4265
930.894	4303
930.998	4303
931.103	4409
931.207	4112
931.311	4112
931.415	4082
931.519	3956
931.623	3994
