Data from glass_V78500241_2407.txt Node
Date: Wed Sep 01 19:31:11 CST 2021
User: usil
Spectrometer: V785-0024
Trigger mode: 0
Integration Time (sec): 4.000000E-1
Scans to average: 1
Nonlinearity correction enabled: false
Boxcar width: 0
Storing dark spectrum: false
XAxis mode: Wavelengths
Number of Pixels in Spectrum: 1024
>>>>>Begin Spectral Data<<<<<
801.071	3720
801.214	3770
801.356	3679
801.499	3717
801.641	3720
801.783	3740
801.926	3911
802.068	3808
802.211	3812
802.353	3869
802.496	3819
802.638	3850
802.78	3915
802.923	3896
803.065	3880
803.208	3789
803.35	3899
803.492	3869
803.635	3888
803.777	3808
803.919	3888
804.061	4139
804.204	3956
804.346	3972
804.488	3937
804.63	4044
804.773	3968
804.915	4025
805.057	4131
805.199	4040
805.341	4078
805.483	4143
805.626	4120
805.768	4086
805.91	4215
806.052	4238
806.194	4192
806.336	4291
806.478	4204
806.62	4192
806.762	4181
806.904	4272
807.046	4341
807.188	4200
807.33	4124
807.472	4227
807.614	4196
807.756	4249
807.898	4238
808.04	4207
808.182	4284
808.324	4329
808.465	4379
808.607	4428
808.749	4432
808.891	4462
809.033	4497
809.174	4363
809.316	4253
809.458	4242
809.6	4196
809.741	4169
809.883	4135
810.025	4234
810.166	4177
810.308	4230
810.45	4230
810.591	4246
810.733	4303
810.875	4436
811.016	4820
811.158	5102
811.299	5265
811.441	5261
811.582	5048
811.724	4706
811.865	4466
812.007	4497
812.148	4447
812.29	4428
812.431	4436
812.573	4402
812.714	4405
812.855	4424
812.997	4386
813.138	4447
813.279	4394
813.421	4352
813.562	4352
813.703	4356
813.845	4322
813.986	4211
814.127	4223
814.268	4242
814.41	4284
814.551	4257
814.692	4318
814.833	4299
814.974	4303
815.115	4272
815.256	4280
815.397	4268
815.539	4257
815.68	4185
815.821	4188
815.962	4284
816.103	4268
816.244	4200
816.385	4211
816.526	4207
816.666	4230
816.807	4063
816.948	4177
817.089	4173
817.23	4105
817.371	4071
817.512	4051
817.653	4040
817.793	3983
817.934	3998
818.075	4109
818.216	4044
818.356	4131
818.497	3926
818.638	3911
818.778	3922
818.919	3861
819.06	3854
819.2	3888
819.341	3797
819.481	3842
819.622	3896
819.762	3994
819.903	3983
820.043	3850
820.184	3850
820.324	3774
820.465	3865
820.605	3808
820.746	3869
820.886	3808
821.026	3956
821.167	3899
821.307	3994
821.447	3979
821.588	3934
821.728	4006
821.868	3930
822.008	3880
822.149	3873
822.289	3869
822.429	3755
822.569	3774
822.709	3774
822.849	3732
822.99	3698
823.13	3732
823.27	3755
823.41	3686
823.55	3747
823.69	3705
823.83	3713
823.97	3663
824.11	3568
824.25	3599
824.389	3618
824.529	3663
824.669	3633
824.809	3660
824.949	3717
825.089	3736
825.228	3701
825.368	3568
825.508	3606
825.648	3538
825.787	3576
825.927	3610
826.067	3595
826.206	3656
826.346	3808
826.485	3846
826.625	3835
826.765	3907
826.904	3850
827.044	3580
827.183	3580
827.323	3428
827.462	3496
827.601	3420
827.741	3450
827.88	3439
828.02	3389
828.159	3450
828.298	3485
828.437	3511
828.577	3420
828.716	3618
828.855	3481
828.994	3370
829.134	3382
829.273	3401
829.412	3325
829.551	3313
829.69	3355
829.829	3435
829.968	3424
830.107	3412
830.246	3466
830.385	3336
830.524	3321
830.663	3253
830.802	3241
830.941	3157
831.08	3146
831.219	3253
831.357	3260
831.496	3374
831.635	3260
831.774	3195
831.913	3192
832.051	3131
832.19	3138
832.329	3214
832.467	3100
832.606	3127
832.744	3192
832.883	3138
833.022	3184
833.16	3260
833.299	3279
833.437	3310
833.576	3370
833.714	3386
833.852	3424
833.991	3462
834.129	3473
834.267	3443
834.406	3409
834.544	3428
834.682	3420
834.821	3428
834.959	3606
835.097	3477
835.235	3523
835.373	3515
835.511	3466
835.65	3447
835.788	3492
835.926	3389
836.064	3363
836.202	3359
836.34	3553
836.478	3584
836.615	3507
836.753	3629
836.891	3637
837.029	3618
837.167	3561
837.305	3561
837.443	3519
837.58	3485
837.718	3587
837.856	3534
837.993	3542
838.131	3557
838.269	3568
838.406	3576
838.544	3568
838.681	3424
838.819	3389
838.956	3374
839.094	3389
839.231	3450
839.369	3526
839.506	3717
839.643	3603
839.781	3481
839.918	3435
840.055	3515
840.193	3549
840.33	3507
840.467	3568
840.604	3629
840.742	3793
840.879	3534
841.016	3564
841.153	3584
841.29	3766
841.427	3766
841.564	3686
841.701	3717
841.838	3686
841.975	3652
842.112	3694
842.249	3633
842.385	3595
842.522	3800
842.659	3652
842.796	3667
842.933	3667
843.069	3675
843.206	3717
843.343	3747
843.479	3743
843.616	3812
843.752	3671
843.889	3690
844.025	3823
844.162	3709
844.298	3854
844.435	3778
844.571	3781
844.708	3922
844.844	4002
844.98	4025
845.117	4025
845.253	3915
845.389	3869
845.525	3949
845.661	3941
845.798	3953
845.934	3975
846.07	3960
846.206	4055
846.342	4044
846.478	4036
846.614	3930
846.75	3956
846.886	3888
847.022	4025
847.158	3930
847.294	3994
847.429	4010
847.565	3949
847.701	4227
847.837	3888
847.972	3873
848.108	3994
848.244	3941
848.379	3873
848.515	3778
848.65	3797
848.786	3827
848.921	3835
849.057	3945
849.192	3911
849.328	3918
849.463	3915
849.598	3911
849.734	3854
849.869	3842
850.004	3759
850.14	3842
850.275	3816
850.41	3759
850.545	3762
850.68	3762
850.815	3823
850.95	3781
851.085	3930
851.22	3888
851.355	3857
851.49	3747
851.625	3793
851.76	3766
851.895	3747
852.03	3724
852.165	3789
852.299	3861
852.434	3896
852.569	3857
852.703	3850
852.838	3888
852.973	3983
853.107	3983
853.242	3850
853.376	3827
853.511	3766
853.645	3846
853.78	3930
853.914	3888
854.048	3896
854.183	3915
854.317	3945
854.451	4013
854.585	3945
854.72	3937
854.854	4071
854.988	3964
855.122	3953
855.256	3876
855.39	3994
855.524	4109
855.658	4051
855.792	4086
855.926	4124
856.06	4135
856.194	4185
856.327	4128
856.461	4120
856.595	4109
856.729	4093
856.862	4242
856.996	4188
857.13	4207
857.263	4310
857.397	4303
857.53	4272
857.664	4367
857.797	4398
857.931	4398
858.064	4386
858.197	4493
858.331	4394
858.464	4383
858.597	4352
858.731	4363
858.864	4390
858.997	4481
859.13	4512
859.263	4508
859.396	4588
859.529	4497
859.662	4531
859.795	4542
859.928	4569
860.061	4733
860.194	4725
860.327	4622
860.46	4607
860.592	4752
860.725	4736
860.858	4805
860.99	4706
861.123	4691
861.256	4710
861.388	4759
861.521	5581
861.653	4736
861.786	4729
861.918	4717
862.05	4828
862.183	4786
862.315	4892
862.447	4938
862.58	4885
862.712	4767
862.844	4771
862.976	4911
863.108	4850
863.24	5143
863.372	4801
863.504	4892
863.636	4782
863.768	4991
863.9	4965
864.032	4904
864.164	4965
864.296	5014
864.428	5056
864.559	5052
864.691	5083
864.823	5094
864.954	5147
865.086	5136
865.217	5067
865.349	5071
865.48	5162
865.612	5151
865.743	5334
865.875	5193
866.006	5155
866.137	5189
866.269	5269
866.4	5223
866.531	5261
866.662	5197
866.793	5292
866.924	5269
867.055	5345
867.186	5337
867.317	5303
867.448	5364
867.579	5417
867.71	5337
867.841	5337
867.972	5444
868.103	5486
868.233	5444
868.364	5452
868.495	5524
868.625	5638
868.756	5752
868.886	5623
869.017	5668
869.147	5863
869.278	5882
869.408	5851
869.539	5828
869.669	5908
869.799	5878
869.929	6019
870.06	6019
870.19	6235
870.32	6136
870.45	6292
870.58	6327
870.71	6422
870.84	6437
870.97	6429
871.1	6437
871.23	6635
871.36	6658
871.489	6616
871.619	6753
871.749	6871
871.879	6818
872.008	6966
872.138	6916
872.267	7004
872.397	6977
872.526	7012
872.656	7023
872.785	7202
872.915	7365
873.044	7499
873.173	7537
873.303	7605
873.432	7689
873.561	7837
873.69	7909
873.819	8005
873.948	8107
874.077	8305
874.206	8320
874.335	8438
874.464	8708
874.593	8887
874.722	8979
874.851	9066
874.979	9253
875.108	9344
875.237	9462
875.365	9435
875.494	9637
875.623	9892
875.751	9816
875.88	9991
876.008	10120
876.136	10341
876.265	10462
876.393	10679
876.521	10683
876.65	10820
876.778	10820
876.906	10927
877.034	11014
877.162	11056
877.29	11132
877.418	11303
877.546	11334
877.674	11391
877.802	11440
877.93	11543
878.058	11581
878.185	11535
878.313	11718
878.441	11733
878.568	11646
878.696	11794
878.824	11809
878.951	11908
879.079	12026
879.206	12171
879.333	12007
879.461	11980
879.588	12068
879.715	12106
879.842	12190
879.97	12041
880.097	11809
880.224	11908
880.351	11817
880.478	11885
880.605	11767
880.732	11843
880.859	11961
880.986	11828
881.112	11851
881.239	11688
881.366	11661
881.493	11589
881.619	11512
881.746	11516
881.872	11516
881.999	11535
882.125	11459
882.252	11551
882.378	11455
882.505	11604
882.631	11364
882.757	11315
882.883	11299
883.01	11315
883.136	11143
883.262	11071
883.388	11181
883.514	11189
883.64	11132
883.766	11109
883.892	10976
884.018	11010
884.143	11071
884.269	11052
884.395	10812
884.52	10759
884.646	10839
884.772	10752
884.897	10653
885.023	10634
885.148	10729
885.274	10683
885.399	10706
885.524	10615
885.65	10630
885.775	10603
885.9	10584
886.025	10573
886.15	10622
886.275	10493
886.4	10348
886.525	10424
886.65	10329
886.775	10280
886.9	10447
887.025	10489
887.149	10310
887.274	10200
887.399	10150
887.523	10173
887.648	10093
887.773	10135
887.897	10192
888.021	10291
888.146	10139
888.27	10192
888.395	10188
888.519	10223
888.643	10223
888.767	10147
888.891	10032
889.015	10006
889.139	9998
889.263	10002
889.387	10166
889.511	10048
889.635	10059
889.759	9934
889.883	10010
890.006	10025
890.13	10086
890.254	9994
890.377	9884
890.501	9876
890.624	9800
890.748	9865
890.871	9823
890.995	9728
891.118	9709
891.241	9747
891.364	9694
891.488	9857
891.611	9675
891.734	9705
891.857	9759
891.98	9660
892.103	9857
892.226	9717
892.349	9728
892.471	9447
892.594	9561
892.717	9572
892.839	9572
892.962	9610
893.085	9622
893.207	9561
893.33	9587
893.452	9534
893.575	9606
893.697	9462
893.819	9614
893.941	9667
894.064	9599
894.186	9473
894.308	9374
894.43	9526
894.552	9534
894.674	9530
894.796	9336
894.918	9401
895.04	9329
895.161	9329
895.283	9306
895.405	9226
895.526	9253
895.648	9264
895.769	9184
895.891	9226
896.012	9253
896.134	9268
896.255	9192
896.376	9077
896.498	9165
896.619	9146
896.74	9032
896.861	9051
896.982	9260
897.103	9317
897.224	9135
897.345	9020
897.466	8948
897.587	8960
897.708	9062
897.828	8960
897.949	8895
898.07	8895
898.19	8887
898.311	9005
898.431	8857
898.552	8944
898.672	8982
898.792	8868
898.913	8880
899.033	8800
899.153	8674
899.273	8594
899.393	8830
899.513	8735
899.633	8716
899.753	8708
899.873	8693
899.993	8735
900.113	8689
900.232	8697
900.352	8594
900.472	8590
900.591	8549
900.711	8632
900.83	8587
900.95	8613
901.069	8670
901.189	8564
901.308	8438
901.427	8442
901.546	8446
901.665	8415
901.784	8469
901.904	8396
902.023	8320
902.141	8240
902.26	8237
902.379	8385
902.498	8180
902.617	8153
902.735	8256
902.854	8279
902.973	8210
903.091	8069
903.21	8119
903.328	8138
903.446	8062
903.565	8081
903.683	8073
903.801	8065
903.919	8126
904.038	8073
904.156	7974
904.274	8046
904.392	7982
904.51	8020
904.627	8058
904.745	8050
904.863	8065
904.981	7898
905.098	7879
905.216	7913
905.334	7974
905.451	7864
905.569	7860
905.686	7955
905.803	7947
905.921	7799
906.038	7822
906.155	7734
906.272	7765
906.389	7655
906.506	7624
906.623	7636
906.74	7632
906.857	7601
906.974	7548
907.091	7655
907.208	7658
907.324	7590
907.441	7563
907.557	7388
907.674	7419
907.79	7381
907.907	7346
908.023	7426
908.139	7365
908.256	7365
908.372	7381
908.488	7320
908.604	7282
908.72	7221
908.836	7324
908.952	7301
909.068	7324
909.184	7316
909.3	7251
909.415	7331
909.531	7274
909.647	7114
909.762	7129
909.878	7069
909.993	7099
910.108	7091
910.224	7046
910.339	7069
910.454	7023
910.57	6966
910.685	6932
910.8	7110
910.915	7076
911.03	6973
911.145	6806
911.259	6833
911.374	6837
911.489	6814
911.604	6859
911.718	6688
911.833	6730
911.947	6665
912.062	6566
912.176	6700
912.291	6711
912.405	6677
912.519	6787
912.633	6821
912.748	6715
912.862	6665
912.976	6616
913.09	6570
913.204	6528
913.318	6528
913.431	6608
913.545	6681
913.659	6703
913.772	6597
913.886	6540
914	6494
914.113	6612
914.226	6604
914.34	6642
914.453	6467
914.566	6585
914.68	6479
914.793	6555
914.906	6452
915.019	6388
915.132	6342
915.245	6342
915.358	6467
915.47	6475
915.583	6475
915.696	6445
915.809	6486
915.921	6532
916.034	6399
916.146	6410
916.259	6380
916.371	6479
916.483	6380
916.595	6357
916.708	6410
916.82	6388
916.932	6357
917.044	6323
917.156	6315
917.268	6331
917.38	6380
917.491	6327
917.603	6376
917.715	6384
917.826	6395
917.938	6285
918.049	6277
918.161	6277
918.272	6433
918.384	6403
918.495	6266
918.606	6216
918.717	6220
918.828	6228
918.939	6304
919.05	6243
919.161	6224
919.272	6095
919.383	6159
919.494	6281
919.604	6452
919.715	6285
919.826	6220
919.936	6235
920.047	6319
920.157	6266
920.267	6437
920.378	6315
920.488	6289
920.598	6441
920.708	6536
920.818	6426
920.928	6464
921.038	6574
921.148	6570
921.258	6319
921.368	6232
921.477	6205
921.587	6171
921.697	6091
921.806	6213
921.916	6030
922.025	6003
922.134	5931
922.244	5832
922.353	5946
922.462	5786
922.571	5805
922.68	5680
922.789	5665
922.898	5668
923.007	5642
923.116	5703
923.224	5688
923.333	5638
923.442	5577
923.55	5577
923.659	5589
923.767	5581
923.876	5535
923.984	5570
924.092	5478
924.201	5520
924.309	5505
924.417	5539
924.525	5478
924.633	5539
924.741	6254
924.849	5318
924.956	5547
925.064	5353
925.172	5288
925.279	5315
925.387	5311
925.494	5311
925.602	5440
925.709	5318
925.816	5277
925.924	5311
926.031	5315
926.138	5223
926.245	5341
926.352	5227
926.459	5307
926.566	5364
926.673	5216
926.779	5174
926.886	5140
926.993	5048
927.099	5003
927.206	4896
927.312	4957
927.419	5014
927.525	4953
927.631	4965
927.737	4835
927.843	4862
927.95	4778
928.056	4870
928.162	4828
928.267	4820
928.373	5223
928.479	4824
928.585	4687
928.69	4774
928.796	4721
928.901	4721
929.007	4573
929.112	4687
929.218	4607
929.323	4615
929.428	4577
929.533	4634
929.638	4531
929.743	4538
929.848	4554
929.953	4512
930.058	4462
930.163	4344
930.267	4371
930.372	4424
930.477	4287
930.581	4447
930.685	4371
930.79	4272
930.894	4287
930.998	4242
931.103	4409
931.207	4116
931.311	4116
931.415	4032
931.519	3926
931.623	3972
