Data from glass_V78500241_2225.txt Node
Date: Wed Sep 01 19:29:55 CST 2021
User: usil
Spectrometer: V785-0024
Trigger mode: 0
Integration Time (sec): 4.000000E-1
Scans to average: 1
Nonlinearity correction enabled: false
Boxcar width: 0
Storing dark spectrum: false
XAxis mode: Wavelengths
Number of Pixels in Spectrum: 1024
>>>>>Begin Spectral Data<<<<<
801.071	3755
801.214	3724
801.356	3713
801.499	3713
801.641	3755
801.783	3759
801.926	3819
802.068	3857
802.211	3876
802.353	3857
802.496	3861
802.638	3850
802.78	3907
802.923	3915
803.065	3915
803.208	3854
803.35	3842
803.492	3899
803.635	3915
803.777	3766
803.919	3873
804.061	4181
804.204	3972
804.346	3979
804.488	3941
804.63	4010
804.773	3930
804.915	4051
805.057	4116
805.199	3991
805.341	4112
805.483	4112
805.626	4131
805.768	4101
805.91	4192
806.052	4219
806.194	4207
806.336	4333
806.478	4215
806.62	4211
806.762	4204
806.904	4265
807.046	4360
807.188	4188
807.33	4135
807.472	4211
807.614	4162
807.756	4268
807.898	4211
808.04	4173
808.182	4287
808.324	4325
808.465	4367
808.607	4432
808.749	4489
808.891	4497
809.033	4531
809.174	4318
809.316	4234
809.458	4211
809.6	4166
809.741	4162
809.883	4143
810.025	4204
810.166	4181
810.308	4227
810.45	4219
810.591	4227
810.733	4306
810.875	4478
811.016	4812
811.158	5117
811.299	5250
811.441	5292
811.582	5060
811.724	4748
811.865	4459
812.007	4508
812.148	4466
812.29	4409
812.431	4390
812.573	4421
812.714	4356
812.855	4462
812.997	4421
813.138	4417
813.279	4424
813.421	4375
813.562	4405
813.703	4363
813.845	4299
813.986	4280
814.127	4219
814.268	4265
814.41	4253
814.551	4261
814.692	4322
814.833	4265
814.974	4268
815.115	4394
815.256	4295
815.397	4238
815.539	4280
815.68	4230
815.821	4215
815.962	4314
816.103	4249
816.244	4196
816.385	4211
816.526	4249
816.666	4249
816.807	4067
816.948	4181
817.089	4192
817.23	4131
817.371	4044
817.512	4093
817.653	4063
817.793	4040
817.934	4040
818.075	4093
818.216	4071
818.356	4120
818.497	4044
818.638	3922
818.778	3926
818.919	3888
819.06	3880
819.2	3850
819.341	3876
819.481	3850
819.622	3918
819.762	3979
819.903	3930
820.043	3861
820.184	3831
820.324	3800
820.465	3865
820.605	3827
820.746	3831
820.886	3804
821.026	3880
821.167	3907
821.307	3941
821.447	3949
821.588	3949
821.728	3926
821.868	3918
822.008	3854
822.149	3899
822.289	3926
822.429	3831
822.569	3747
822.709	3808
822.849	3667
822.99	3705
823.13	3743
823.27	3781
823.41	3736
823.55	3705
823.69	3728
823.83	3728
823.97	3667
824.11	3564
824.25	3557
824.389	3580
824.529	3618
824.669	3644
824.809	3720
824.949	3717
825.089	3724
825.228	3694
825.368	3614
825.508	3526
825.648	3568
825.787	3591
825.927	3629
826.067	3572
826.206	3625
826.346	3770
826.485	3804
826.625	3876
826.765	3915
826.904	3835
827.044	3584
827.183	3511
827.323	3450
827.462	3485
827.601	3458
827.741	3473
827.88	3454
828.02	3359
828.159	3458
828.298	3447
828.437	3576
828.577	3485
828.716	3564
828.855	3530
828.994	3374
829.134	3370
829.273	3389
829.412	3298
829.551	3313
829.69	3359
829.829	3393
829.968	3507
830.107	3420
830.246	3424
830.385	3351
830.524	3351
830.663	3268
830.802	3253
830.941	3173
831.08	3203
831.219	3275
831.357	3260
831.496	3389
831.635	3207
831.774	3184
831.913	3169
832.051	3138
832.19	3131
832.329	3214
832.467	3169
832.606	3108
832.744	3142
832.883	3157
833.022	3188
833.16	3245
833.299	3291
833.437	3302
833.576	3340
833.714	3370
833.852	3416
833.991	3393
834.129	3481
834.267	3416
834.406	3393
834.544	3439
834.682	3401
834.821	3435
834.959	3557
835.097	3454
835.235	3496
835.373	3469
835.511	3466
835.65	3469
835.788	3485
835.926	3386
836.064	3348
836.202	3386
836.34	3561
836.478	3610
836.615	3526
836.753	3584
836.891	3629
837.029	3591
837.167	3568
837.305	3553
837.443	3549
837.58	3542
837.718	3606
837.856	3587
837.993	3511
838.131	3584
838.269	3553
838.406	3599
838.544	3576
838.681	3469
838.819	3424
838.956	3386
839.094	3374
839.231	3435
839.369	3507
839.506	3736
839.643	3606
839.781	3545
839.918	3469
840.055	3526
840.193	3515
840.33	3557
840.467	3523
840.604	3564
840.742	3835
840.879	3545
841.016	3557
841.153	3618
841.29	3747
841.427	3713
841.564	3728
841.701	3732
841.838	3698
841.975	3663
842.112	3732
842.249	3644
842.385	3603
842.522	3793
842.659	3705
842.796	3656
842.933	3698
843.069	3705
843.206	3724
843.343	3812
843.479	3762
843.616	3819
843.752	3667
843.889	3698
844.025	3823
844.162	3694
844.298	3846
844.435	3762
844.571	3804
844.708	3884
844.844	3926
844.98	4010
845.117	4021
845.253	3888
845.389	3903
845.525	3941
845.661	3979
845.798	3918
845.934	3960
846.07	3926
846.206	4067
846.342	4093
846.478	4090
846.614	3979
846.75	3941
846.886	3926
847.022	3979
847.158	3960
847.294	4021
847.429	3998
847.565	3994
847.701	4227
847.837	3846
847.972	3865
848.108	3975
848.244	3956
848.379	3888
848.515	3819
848.65	3804
848.786	3835
848.921	3865
849.057	3896
849.192	3949
849.328	3880
849.463	3896
849.598	3861
849.734	3842
849.869	3819
850.004	3751
850.14	3846
850.275	3785
850.41	3747
850.545	3743
850.68	3781
850.815	3797
850.95	3804
851.085	3975
851.22	3846
851.355	3831
851.49	3778
851.625	3774
851.76	3781
851.895	3778
852.03	3713
852.165	3785
852.299	3812
852.434	3884
852.569	3873
852.703	3861
852.838	3953
852.973	4017
853.107	3975
853.242	3899
853.376	3865
853.511	3781
853.645	3857
853.78	3975
853.914	3915
854.048	3880
854.183	3918
854.317	3934
854.451	4082
854.585	3975
854.72	3987
854.854	3983
854.988	3953
855.122	4013
855.256	3899
855.39	4006
855.524	4116
855.658	4074
855.792	4082
855.926	4139
856.06	4177
856.194	4211
856.327	4131
856.461	4116
856.595	4086
856.729	4116
856.862	4242
856.996	4207
857.13	4276
857.263	4314
857.397	4367
857.53	4261
857.664	4348
857.797	4383
857.931	4356
858.064	4375
858.197	4451
858.331	4413
858.464	4402
858.597	4306
858.731	4436
858.864	4485
858.997	4481
859.13	4508
859.263	4546
859.396	4584
859.529	4550
859.662	4542
859.795	4489
859.928	4584
860.061	4679
860.194	4748
860.327	4664
860.46	4637
860.592	4714
860.725	4733
860.858	4774
860.99	4736
861.123	4634
861.256	4675
861.388	4755
861.521	5395
861.653	4744
861.786	4672
861.918	4755
862.05	4778
862.183	4824
862.315	4885
862.447	4957
862.58	4885
862.712	4767
862.844	4763
862.976	4824
863.108	4908
863.24	5136
863.372	4824
863.504	4908
863.636	4885
863.768	4965
863.9	4942
864.032	4843
864.164	4957
864.296	5048
864.428	5098
864.559	5124
864.691	5079
864.823	5105
864.954	5151
865.086	5151
865.217	5113
865.349	5121
865.48	5159
865.612	5170
865.743	5284
865.875	5170
866.006	5162
866.137	5185
866.269	5216
866.4	5303
866.531	5204
866.662	5242
866.793	5220
866.924	5280
867.055	5318
867.186	5273
867.317	5341
867.448	5269
867.579	5322
867.71	5330
867.841	5360
867.972	5440
868.103	5474
868.233	5528
868.364	5535
868.495	5528
868.625	5661
868.756	5668
868.886	5642
869.017	5695
869.147	5832
869.278	5897
869.408	5786
869.539	5828
869.669	5920
869.799	5840
869.929	6019
870.06	6030
870.19	6159
870.32	6197
870.45	6251
870.58	6350
870.71	6418
870.84	6391
870.97	6353
871.1	6441
871.23	6631
871.36	6684
871.489	6623
871.619	6715
871.749	6726
871.879	6897
872.008	7038
872.138	6985
872.267	6996
872.397	6966
872.526	7023
872.656	7027
872.785	7164
872.915	7270
873.044	7453
873.173	7613
873.303	7655
873.432	7757
873.561	7852
873.69	7906
873.819	8012
873.948	8092
874.077	8248
874.206	8313
874.335	8415
874.464	8670
874.593	8785
874.722	8937
874.851	9123
874.979	9211
875.108	9374
875.237	9454
875.365	9397
875.494	9679
875.623	9842
875.751	9819
875.88	10048
876.008	10166
876.136	10310
876.265	10531
876.393	10668
876.521	10691
876.65	10778
876.778	10797
876.906	10869
877.034	10938
877.162	11079
877.29	11045
877.418	11296
877.546	11368
877.674	11463
877.802	11436
877.93	11497
878.058	11509
878.185	11528
878.313	11642
878.441	11707
878.568	11733
878.696	11771
878.824	11863
878.951	11988
879.079	11961
879.206	12228
879.333	12083
879.461	12053
879.588	12087
879.715	11961
879.842	12182
879.97	12155
880.097	11851
880.224	11771
880.351	11874
880.478	11897
880.605	11828
880.732	11863
880.859	11954
880.986	11889
881.112	11840
881.239	11748
881.366	11684
881.493	11547
881.619	11528
881.746	11509
881.872	11585
881.999	11429
882.125	11406
882.252	11623
882.378	11520
882.505	11562
882.631	11505
882.757	11349
882.883	11318
883.01	11246
883.136	11208
883.262	11067
883.388	11022
883.514	11201
883.64	11181
883.766	11094
883.892	11014
884.018	10930
884.143	11052
884.269	11075
884.395	10866
884.52	10797
884.646	10824
884.772	10717
884.897	10687
885.023	10645
885.148	10706
885.274	10763
885.399	10683
885.524	10596
885.65	10546
885.775	10512
885.9	10531
886.025	10580
886.15	10512
886.275	10489
886.4	10375
886.525	10344
886.65	10379
886.775	10325
886.9	10459
887.025	10516
887.149	10394
887.274	10246
887.399	10223
887.523	10185
887.648	10101
887.773	10093
887.897	10200
888.021	10185
888.146	10131
888.27	10238
888.395	10200
888.519	10166
888.643	10246
888.767	10192
888.891	10131
889.015	10002
889.139	10086
889.263	9960
889.387	10188
889.511	10128
889.635	10051
889.759	9899
889.883	9956
890.006	9991
890.13	10055
890.254	9937
890.377	9979
890.501	9785
890.624	9831
890.748	9888
890.871	9751
890.995	9694
891.118	9660
891.241	9724
891.364	9705
891.488	9740
891.611	9679
891.734	9732
891.857	9835
891.98	9671
892.103	9751
892.226	9774
892.349	9660
892.471	9534
892.594	9564
892.717	9660
892.839	9584
892.962	9606
893.085	9755
893.207	9526
893.33	9564
893.452	9485
893.575	9618
893.697	9488
893.819	9587
893.941	9610
894.064	9618
894.186	9412
894.308	9431
894.43	9523
894.552	9561
894.674	9519
894.796	9359
894.918	9332
895.04	9329
895.161	9382
895.283	9321
895.405	9298
895.526	9253
895.648	9253
895.769	9211
895.891	9256
896.012	9279
896.134	9264
896.255	9195
896.376	9112
896.498	9150
896.619	9135
896.74	9104
896.861	9024
896.982	9321
897.103	9275
897.224	9203
897.345	9051
897.466	9051
897.587	9032
897.708	9036
897.828	8956
897.949	8967
898.07	8876
898.19	8914
898.311	9020
898.431	8925
898.552	8861
898.672	8910
898.792	8937
898.913	8941
899.033	8781
899.153	8705
899.273	8655
899.393	8659
899.513	8750
899.633	8800
899.753	8708
899.873	8697
899.993	8807
900.113	8701
900.232	8606
900.352	8670
900.472	8636
900.591	8602
900.711	8575
900.83	8583
900.95	8670
901.069	8670
901.189	8575
901.308	8431
901.427	8396
901.546	8446
901.665	8385
901.784	8522
901.904	8339
902.023	8313
902.141	8195
902.26	8252
902.379	8282
902.498	8221
902.617	8191
902.735	8339
902.854	8309
902.973	8320
903.091	8168
903.21	8119
903.328	8153
903.446	8130
903.565	8043
903.683	8077
903.801	8100
903.919	8088
904.038	8103
904.156	8020
904.274	8043
904.392	7982
904.51	8050
904.627	8054
904.745	8054
904.863	8077
904.981	7890
905.098	7879
905.216	7822
905.334	7974
905.451	7845
905.569	7826
905.686	7932
905.803	7898
905.921	7799
906.038	7894
906.155	7780
906.272	7784
906.389	7734
906.506	7616
906.623	7636
906.74	7632
906.857	7506
906.974	7628
907.091	7696
907.208	7750
907.324	7594
907.441	7514
907.557	7430
907.674	7445
907.79	7453
907.907	7388
908.023	7476
908.139	7460
908.256	7407
908.372	7373
908.488	7358
908.604	7232
908.72	7255
908.836	7251
908.952	7293
909.068	7206
909.184	7350
909.3	7293
909.415	7297
909.531	7297
909.647	7122
909.762	7076
909.878	7042
909.993	7088
910.108	7122
910.224	7050
910.339	7027
910.454	7027
910.57	7065
910.685	7019
910.8	7168
910.915	7072
911.03	6996
911.145	6856
911.259	6798
911.374	6913
911.489	6844
911.604	6810
911.718	6719
911.833	6719
911.947	6688
912.062	6563
912.176	6688
912.291	6745
912.405	6707
912.519	6757
912.633	6882
912.748	6726
912.862	6677
912.976	6612
913.09	6532
913.204	6601
913.318	6601
913.431	6692
913.545	6646
913.659	6604
913.772	6646
913.886	6593
914	6517
914.113	6570
914.226	6597
914.34	6585
914.453	6448
914.566	6597
914.68	6589
914.793	6532
914.906	6410
915.019	6342
915.132	6391
915.245	6388
915.358	6418
915.47	6407
915.583	6479
915.696	6445
915.809	6479
915.921	6521
916.034	6376
916.146	6422
916.259	6350
916.371	6528
916.483	6418
916.595	6342
916.708	6395
916.82	6391
916.932	6338
917.044	6346
917.156	6395
917.268	6327
917.38	6300
917.491	6239
917.603	6391
917.715	6399
917.826	6338
917.938	6304
918.049	6235
918.161	6338
918.272	6426
918.384	6452
918.495	6346
918.606	6251
918.717	6243
918.828	6235
918.939	6296
919.05	6243
919.161	6262
919.272	6064
919.383	6129
919.494	6296
919.604	6410
919.715	6251
919.826	6228
919.936	6197
920.047	6323
920.157	6331
920.267	6475
920.378	6334
920.488	6254
920.598	6391
920.708	6555
920.818	6441
920.928	6460
921.038	6570
921.148	6578
921.258	6353
921.368	6304
921.477	6197
921.587	6121
921.697	6064
921.806	6152
921.916	6057
922.025	5973
922.134	5946
922.244	5923
922.353	5942
922.462	5874
922.571	5805
922.68	5695
922.789	5684
922.898	5695
923.007	5653
923.116	5707
923.224	5672
923.333	5661
923.442	5573
923.55	5493
923.659	5611
923.767	5596
923.876	5524
923.984	5592
924.092	5467
924.201	5524
924.309	5532
924.417	5532
924.525	5490
924.633	5532
924.741	6220
924.849	5379
924.956	5436
925.064	5326
925.172	5288
925.279	5315
925.387	5349
925.494	5239
925.602	5425
925.709	5376
925.816	5239
925.924	5311
926.031	5383
926.138	5299
926.245	5322
926.352	5201
926.459	5288
926.566	5318
926.673	5212
926.779	5128
926.886	5090
926.993	5033
927.099	4980
927.206	4987
927.312	4923
927.419	5022
927.525	4911
927.631	4995
927.737	4858
927.843	4866
927.95	4797
928.056	4790
928.162	4809
928.267	4862
928.373	5368
928.479	4839
928.585	4664
928.69	4782
928.796	4755
928.901	4664
929.007	4607
929.112	4653
929.218	4622
929.323	4596
929.428	4497
929.533	4691
929.638	4508
929.743	4481
929.848	4573
929.953	4478
930.058	4417
930.163	4322
930.267	4375
930.372	4421
930.477	4299
930.581	4440
930.685	4360
930.79	4261
930.894	4265
930.998	4291
931.103	4379
931.207	4139
931.311	4071
931.415	4067
931.519	3949
931.623	3937
