Data from glass_V78500241_1272.txt Node
Date: Wed Sep 01 19:23:19 CST 2021
User: usil
Spectrometer: V785-0024
Trigger mode: 0
Integration Time (sec): 4.000000E-1
Scans to average: 1
Nonlinearity correction enabled: false
Boxcar width: 0
Storing dark spectrum: false
XAxis mode: Wavelengths
Number of Pixels in Spectrum: 1024
>>>>>Begin Spectral Data<<<<<
801.071	3793
801.214	3679
801.356	3709
801.499	3755
801.641	3774
801.783	3800
801.926	3884
802.068	3778
802.211	3857
802.353	3876
802.496	3854
802.638	3888
802.78	3915
802.923	3903
803.065	3884
803.208	3823
803.35	3876
803.492	3926
803.635	3941
803.777	3827
803.919	3896
804.061	4181
804.204	4025
804.346	3934
804.488	3968
804.63	4044
804.773	3983
804.915	4025
805.057	4162
805.199	4021
805.341	4150
805.483	4147
805.626	4166
805.768	4124
805.91	4207
806.052	4207
806.194	4192
806.336	4363
806.478	4246
806.62	4181
806.762	4192
806.904	4287
807.046	4356
807.188	4207
807.33	4162
807.472	4223
807.614	4173
807.756	4253
807.898	4242
808.04	4234
808.182	4291
808.324	4356
808.465	4383
808.607	4478
808.749	4470
808.891	4466
809.033	4504
809.174	4424
809.316	4272
809.458	4253
809.6	4169
809.741	4177
809.883	4154
810.025	4185
810.166	4215
810.308	4246
810.45	4185
810.591	4219
810.733	4303
810.875	4485
811.016	4820
811.158	5189
811.299	5250
811.441	5307
811.582	5060
811.724	4702
811.865	4470
812.007	4459
812.148	4424
812.29	4421
812.431	4417
812.573	4432
812.714	4417
812.855	4383
812.997	4424
813.138	4527
813.279	4428
813.421	4417
813.562	4348
813.703	4356
813.845	4360
813.986	4287
814.127	4227
814.268	4284
814.41	4299
814.551	4272
814.692	4337
814.833	4265
814.974	4276
815.115	4348
815.256	4280
815.397	4238
815.539	4268
815.68	4219
815.821	4219
815.962	4306
816.103	4272
816.244	4215
816.385	4227
816.526	4284
816.666	4192
816.807	4116
816.948	4207
817.089	4177
817.23	4150
817.371	4044
817.512	4044
817.653	4120
817.793	4036
817.934	4074
818.075	4112
818.216	4093
818.356	4071
818.497	4010
818.638	3918
818.778	3930
818.919	3903
819.06	3888
819.2	3907
819.341	3892
819.481	3823
819.622	3892
819.762	4025
819.903	3960
820.043	3873
820.184	3831
820.324	3846
820.465	3865
820.605	3846
820.746	3896
820.886	3827
821.026	3937
821.167	3907
821.307	3991
821.447	3945
821.588	3956
821.728	3918
821.868	3922
822.008	3869
822.149	3926
822.289	3934
822.429	3800
822.569	3808
822.709	3827
822.849	3698
822.99	3709
823.13	3800
823.27	3747
823.41	3743
823.55	3762
823.69	3713
823.83	3736
823.97	3682
824.11	3606
824.25	3625
824.389	3618
824.529	3675
824.669	3648
824.809	3709
824.949	3717
825.089	3766
825.228	3686
825.368	3595
825.508	3568
825.648	3614
825.787	3652
825.927	3671
826.067	3591
826.206	3667
826.346	3804
826.485	3850
826.625	3888
826.765	3953
826.904	3835
827.044	3610
827.183	3523
827.323	3481
827.462	3473
827.601	3466
827.741	3439
827.88	3450
828.02	3351
828.159	3485
828.298	3507
828.437	3549
828.577	3450
828.716	3572
828.855	3523
828.994	3443
829.134	3405
829.273	3405
829.412	3329
829.551	3401
829.69	3393
829.829	3447
829.968	3519
830.107	3454
830.246	3473
830.385	3393
830.524	3336
830.663	3340
830.802	3218
830.941	3203
831.08	3192
831.219	3249
831.357	3272
831.496	3424
831.635	3211
831.774	3188
831.913	3214
832.051	3104
832.19	3180
832.329	3233
832.467	3161
832.606	3127
832.744	3176
832.883	3188
833.022	3192
833.16	3264
833.299	3275
833.437	3329
833.576	3367
833.714	3447
833.852	3420
833.991	3454
834.129	3507
834.267	3439
834.406	3393
834.544	3435
834.682	3386
834.821	3428
834.959	3572
835.097	3409
835.235	3515
835.373	3481
835.511	3488
835.65	3473
835.788	3519
835.926	3428
836.064	3378
836.202	3405
836.34	3568
836.478	3610
836.615	3507
836.753	3603
836.891	3652
837.029	3682
837.167	3603
837.305	3557
837.443	3549
837.58	3545
837.718	3595
837.856	3595
837.993	3576
838.131	3564
838.269	3599
838.406	3595
838.544	3580
838.681	3492
838.819	3473
838.956	3355
839.094	3397
839.231	3431
839.369	3500
839.506	3709
839.643	3610
839.781	3511
839.918	3488
840.055	3549
840.193	3542
840.33	3553
840.467	3534
840.604	3572
840.742	3808
840.879	3576
841.016	3584
841.153	3595
841.29	3778
841.427	3717
841.564	3698
841.701	3732
841.838	3667
841.975	3694
842.112	3732
842.249	3644
842.385	3633
842.522	3800
842.659	3717
842.796	3667
842.933	3724
843.069	3728
843.206	3682
843.343	3808
843.479	3778
843.616	3789
843.752	3660
843.889	3690
844.025	3854
844.162	3709
844.298	3861
844.435	3785
844.571	3797
844.708	3896
844.844	4010
844.98	3987
845.117	3983
845.253	3956
845.389	3873
845.525	3991
845.661	3991
845.798	3918
845.934	4025
846.07	3991
846.206	4078
846.342	4097
846.478	4063
846.614	4032
846.75	3945
846.886	3899
847.022	4055
847.158	3953
847.294	3998
847.429	4048
847.565	4044
847.701	4257
847.837	3873
847.972	3888
848.108	3949
848.244	3991
848.379	3888
848.515	3854
848.65	3785
848.786	3884
848.921	3876
849.057	3907
849.192	3926
849.328	3873
849.463	3915
849.598	3899
849.734	3896
849.869	3854
850.004	3785
850.14	3823
850.275	3793
850.41	3766
850.545	3751
850.68	3751
850.815	3819
850.95	3831
851.085	3945
851.22	3915
851.355	3785
851.49	3823
851.625	3793
851.76	3797
851.895	3751
852.03	3717
852.165	3797
852.299	3892
852.434	3930
852.569	3880
852.703	3873
852.838	3930
852.973	4013
853.107	3975
853.242	3861
853.376	3876
853.511	3774
853.645	3838
853.78	3994
853.914	3934
854.048	3945
854.183	3873
854.317	3956
854.451	4166
854.585	3953
854.72	3994
854.854	4006
854.988	3968
855.122	4055
855.256	3937
855.39	4025
855.524	4074
855.658	4101
855.792	4105
855.926	4139
856.06	4211
856.194	4253
856.327	4135
856.461	4105
856.595	4158
856.729	4196
856.862	4284
856.996	4249
857.13	4284
857.263	4310
857.397	4398
857.53	4272
857.664	4337
857.797	4417
857.931	4428
858.064	4383
858.197	4462
858.331	4409
858.464	4348
858.597	4344
858.731	4462
858.864	4481
858.997	4462
859.13	4512
859.263	4546
859.396	4641
859.529	4527
859.662	4493
859.795	4508
859.928	4660
860.061	4664
860.194	4793
860.327	4630
860.46	4634
860.592	4702
860.725	4778
860.858	4755
860.99	4664
861.123	4706
861.256	4702
861.388	4782
861.521	5383
861.653	4733
861.786	4721
861.918	4744
862.05	4824
862.183	4847
862.315	4866
862.447	4892
862.58	4866
862.712	4805
862.844	4748
862.976	4847
863.108	4892
863.24	5174
863.372	4847
863.504	4854
863.636	4885
863.768	4972
863.9	4938
864.032	4927
864.164	4927
864.296	5060
864.428	5121
864.559	5075
864.691	5090
864.823	5162
864.954	5105
865.086	5166
865.217	5117
865.349	5109
865.48	5128
865.612	5201
865.743	5277
865.875	5246
866.006	5166
866.137	5277
866.269	5280
866.4	5223
866.531	5239
866.662	5235
866.793	5341
866.924	5280
867.055	5334
867.186	5360
867.317	5349
867.448	5315
867.579	5368
867.71	5402
867.841	5455
867.972	5452
868.103	5482
868.233	5501
868.364	5532
868.495	5562
868.625	5661
868.756	5836
868.886	5688
869.017	5760
869.147	5885
869.278	5912
869.408	5779
869.539	5805
869.669	5870
869.799	5935
869.929	5939
870.06	6030
870.19	6220
870.32	6209
870.45	6285
870.58	6277
870.71	6513
870.84	6464
870.97	6456
871.1	6490
871.23	6684
871.36	6665
871.489	6627
871.619	6764
871.749	6859
871.879	6852
872.008	6954
872.138	7027
872.267	7019
872.397	7023
872.526	7015
872.656	7118
872.785	7225
872.915	7403
873.044	7533
873.173	7575
873.303	7647
873.432	7765
873.561	7887
873.69	7883
873.819	8046
873.948	8187
874.077	8301
874.206	8275
874.335	8408
874.464	8617
874.593	8849
874.722	8948
874.851	9146
874.979	9313
875.108	9355
875.237	9466
875.365	9469
875.494	9618
875.623	9816
875.751	9835
875.88	9956
876.008	10135
876.136	10246
876.265	10497
876.393	10729
876.521	10626
876.65	10812
876.778	10820
876.906	10911
877.034	10965
877.162	11124
877.29	11124
877.418	11265
877.546	11364
877.674	11387
877.802	11501
877.93	11524
878.058	11520
878.185	11539
878.313	11707
878.441	11760
878.568	11741
878.696	11794
878.824	11939
878.951	11893
879.079	11973
879.206	12133
879.333	12068
879.461	12022
879.588	12068
879.715	12045
879.842	12197
879.97	12133
880.097	11912
880.224	11935
880.351	11863
880.478	11908
880.605	11859
880.732	11927
880.859	11999
880.986	11817
881.112	11783
881.239	11688
881.366	11611
881.493	11611
881.619	11619
881.746	11512
881.872	11486
881.999	11558
882.125	11516
882.252	11532
882.378	11444
882.505	11585
882.631	11433
882.757	11311
882.883	11273
883.01	11246
883.136	11197
883.262	11098
883.388	11052
883.514	11178
883.64	11185
883.766	11098
883.892	11003
884.018	10927
884.143	11086
884.269	11052
884.395	10850
884.52	10767
884.646	10858
884.772	10717
884.897	10687
885.023	10748
885.148	10698
885.274	10801
885.399	10736
885.524	10725
885.65	10573
885.775	10637
885.9	10546
886.025	10603
886.15	10542
886.275	10379
886.4	10421
886.525	10440
886.65	10432
886.775	10344
886.9	10455
887.025	10569
887.149	10371
887.274	10230
887.399	10295
887.523	10234
887.648	10143
887.773	10158
887.897	10280
888.021	10246
888.146	10181
888.27	10265
888.395	10249
888.519	10135
888.643	10139
888.767	10185
888.891	10116
889.015	10059
889.139	10082
889.263	9953
889.387	10150
889.511	10048
889.635	10048
889.759	9930
889.883	9945
890.006	10013
890.13	10135
890.254	10082
890.377	9975
890.501	9854
890.624	9873
890.748	9854
890.871	9808
890.995	9781
891.118	9747
891.241	9819
891.364	9762
891.488	9793
891.611	9720
891.734	9880
891.857	9762
891.98	9709
892.103	9789
892.226	9701
892.349	9648
892.471	9545
892.594	9618
892.717	9641
892.839	9561
892.962	9591
893.085	9667
893.207	9614
893.33	9496
893.452	9587
893.575	9618
893.697	9492
893.819	9614
893.941	9614
894.064	9644
894.186	9397
894.308	9401
894.43	9515
894.552	9606
894.674	9526
894.796	9412
894.918	9408
895.04	9348
895.161	9378
895.283	9370
895.405	9222
895.526	9291
895.648	9222
895.769	9291
895.891	9283
896.012	9268
896.134	9131
896.255	9138
896.376	9192
896.498	9222
896.619	9135
896.74	9066
896.861	9138
896.982	9230
897.103	9233
897.224	9112
897.345	9032
897.466	9047
897.587	9020
897.708	9146
897.828	9009
897.949	8918
898.07	8857
898.19	8902
898.311	9032
898.431	8944
898.552	8830
898.672	8929
898.792	8952
898.913	8963
899.033	8800
899.153	8712
899.273	8788
899.393	8720
899.513	8800
899.633	8754
899.753	8758
899.873	8720
899.993	8731
900.113	8758
900.232	8735
900.352	8640
900.472	8621
900.591	8587
900.711	8632
900.83	8606
900.95	8640
901.069	8659
901.189	8545
901.308	8469
901.427	8476
901.546	8446
901.665	8454
901.784	8511
901.904	8454
902.023	8351
902.141	8248
902.26	8176
902.379	8309
902.498	8256
902.617	8271
902.735	8309
902.854	8240
902.973	8252
903.091	8191
903.21	8081
903.328	8225
903.446	8134
903.565	8084
903.683	8046
903.801	8008
903.919	8115
904.038	8157
904.156	8005
904.274	8088
904.392	8016
904.51	8065
904.627	8088
904.745	8142
904.863	8065
904.981	7982
905.098	7868
905.216	7875
905.334	7902
905.451	7928
905.569	7841
905.686	7947
905.803	7913
905.921	7811
906.038	7799
906.155	7871
906.272	7723
906.389	7685
906.506	7704
906.623	7677
906.74	7609
906.857	7552
906.974	7548
907.091	7605
907.208	7803
907.324	7601
907.441	7525
907.557	7407
907.674	7415
907.79	7464
907.907	7400
908.023	7445
908.139	7445
908.256	7324
908.372	7365
908.488	7324
908.604	7343
908.72	7213
908.836	7308
908.952	7240
909.068	7156
909.184	7377
909.3	7202
909.415	7301
909.531	7259
909.647	7084
909.762	7141
909.878	7091
909.993	7149
910.108	7110
910.224	7118
910.339	7095
910.454	7099
910.57	6962
910.685	6947
910.8	7114
910.915	7103
911.03	7053
911.145	6954
911.259	6920
911.374	6947
911.489	6810
911.604	6844
911.718	6779
911.833	6802
911.947	6631
912.062	6547
912.176	6726
912.291	6722
912.405	6692
912.519	6821
912.633	6882
912.748	6764
912.862	6692
912.976	6669
913.09	6467
913.204	6589
913.318	6620
913.431	6715
913.545	6658
913.659	6730
913.772	6688
913.886	6559
914	6574
914.113	6650
914.226	6696
914.34	6578
914.453	6540
914.566	6601
914.68	6532
914.793	6570
914.906	6433
915.019	6388
915.132	6357
915.245	6479
915.358	6429
915.47	6433
915.583	6441
915.696	6498
915.809	6563
915.921	6604
916.034	6433
916.146	6445
916.259	6460
916.371	6502
916.483	6422
916.595	6418
916.708	6437
916.82	6353
916.932	6418
917.044	6399
917.156	6403
917.268	6357
917.38	6342
917.491	6327
917.603	6346
917.715	6433
917.826	6403
917.938	6315
918.049	6311
918.161	6407
918.272	6422
918.384	6437
918.495	6372
918.606	6277
918.717	6243
918.828	6319
918.939	6300
919.05	6243
919.161	6213
919.272	6152
919.383	6159
919.494	6342
919.604	6433
919.715	6201
919.826	6235
919.936	6178
920.047	6285
920.157	6251
920.267	6407
920.378	6357
920.488	6270
920.598	6448
920.708	6563
920.818	6483
920.928	6471
921.038	6585
921.148	6570
921.258	6372
921.368	6334
921.477	6209
921.587	6186
921.697	6045
921.806	6167
921.916	6083
922.025	5935
922.134	5889
922.244	5893
922.353	5961
922.462	5844
922.571	5767
922.68	5672
922.789	5710
922.898	5699
923.007	5729
923.116	5703
923.224	5649
923.333	5729
923.442	5611
923.55	5653
923.659	5608
923.767	5649
923.876	5543
923.984	5619
924.092	5532
924.201	5551
924.309	5589
924.417	5585
924.525	5474
924.633	5551
924.741	6277
924.849	5391
924.956	5547
925.064	5383
925.172	5303
925.279	5341
925.387	5387
925.494	5372
925.602	5436
925.709	5368
925.816	5280
925.924	5284
926.031	5383
926.138	5299
926.245	5334
926.352	5212
926.459	5326
926.566	5307
926.673	5235
926.779	5170
926.886	5181
926.993	5067
927.099	5041
927.206	4968
927.312	4919
927.419	4995
927.525	4972
927.631	4984
927.737	4904
927.843	4870
927.95	4786
928.056	4812
928.162	4805
928.267	4820
928.373	5414
928.479	4919
928.585	4733
928.69	4809
928.796	4805
928.901	4736
929.007	4588
929.112	4710
929.218	4656
929.323	4618
929.428	4607
929.533	4656
929.638	4565
929.743	4569
929.848	4527
929.953	4546
930.058	4421
930.163	4348
930.267	4352
930.372	4462
930.477	4291
930.581	4451
930.685	4352
930.79	4230
930.894	4306
930.998	4306
931.103	4363
931.207	4150
931.311	4105
931.415	4051
931.519	3953
931.623	3937
