Data from glass_V78500241_545.txt Node
Date: Wed Sep 01 19:18:16 CST 2021
User: usil
Spectrometer: V785-0024
Trigger mode: 0
Integration Time (sec): 4.000000E-1
Scans to average: 1
Nonlinearity correction enabled: false
Boxcar width: 0
Storing dark spectrum: false
XAxis mode: Wavelengths
Number of Pixels in Spectrum: 1024
>>>>>Begin Spectral Data<<<<<
801.071	3732
801.214	3759
801.356	3720
801.499	3766
801.641	3755
801.783	3816
801.926	3846
802.068	3823
802.211	3869
802.353	3930
802.496	3850
802.638	3915
802.78	3911
802.923	3934
803.065	3934
803.208	3857
803.35	3865
803.492	3903
803.635	3850
803.777	3819
803.919	3918
804.061	4204
804.204	3972
804.346	3941
804.488	3937
804.63	4048
804.773	4002
804.915	4010
805.057	4169
805.199	4101
805.341	4120
805.483	4143
805.626	4139
805.768	4135
805.91	4162
806.052	4230
806.194	4223
806.336	4356
806.478	4192
806.62	4196
806.762	4181
806.904	4310
807.046	4344
807.188	4223
807.33	4204
807.472	4230
807.614	4219
807.756	4249
807.898	4238
808.04	4246
808.182	4257
808.324	4341
808.465	4363
808.607	4443
808.749	4447
808.891	4421
809.033	4519
809.174	4424
809.316	4284
809.458	4306
809.6	4169
809.741	4173
809.883	4124
810.025	4219
810.166	4227
810.308	4234
810.45	4215
810.591	4261
810.733	4272
810.875	4527
811.016	4835
811.158	5162
811.299	5277
811.441	5284
811.582	5113
811.724	4691
811.865	4474
812.007	4451
812.148	4413
812.29	4417
812.431	4424
812.573	4371
812.714	4390
812.855	4383
812.997	4421
813.138	4519
813.279	4417
813.421	4405
813.562	4360
813.703	4337
813.845	4333
813.986	4280
814.127	4227
814.268	4310
814.41	4261
814.551	4291
814.692	4356
814.833	4318
814.974	4310
815.115	4371
815.256	4246
815.397	4246
815.539	4253
815.68	4230
815.821	4219
815.962	4325
816.103	4242
816.244	4238
816.385	4238
816.526	4303
816.666	4249
816.807	4105
816.948	4223
817.089	4223
817.23	4131
817.371	4036
817.512	4074
817.653	4071
817.793	4044
817.934	4036
818.075	4124
818.216	4063
818.356	4074
818.497	3983
818.638	3922
818.778	3899
818.919	3930
819.06	3880
819.2	3930
819.341	3846
819.481	3823
819.622	3964
819.762	4002
819.903	3994
820.043	3873
820.184	3854
820.324	3857
820.465	3865
820.605	3903
820.746	3861
820.886	3831
821.026	3979
821.167	3941
821.307	3949
821.447	4048
821.588	3991
821.728	3937
821.868	3945
822.008	3869
822.149	3949
822.289	3983
822.429	3804
822.569	3781
822.709	3778
822.849	3705
822.99	3701
823.13	3766
823.27	3789
823.41	3743
823.55	3759
823.69	3720
823.83	3724
823.97	3720
824.11	3603
824.25	3622
824.389	3663
824.529	3671
824.669	3625
824.809	3720
824.949	3759
825.089	3736
825.228	3740
825.368	3599
825.508	3587
825.648	3561
825.787	3622
825.927	3641
826.067	3625
826.206	3694
826.346	3797
826.485	3876
826.625	3861
826.765	3979
826.904	3838
827.044	3622
827.183	3549
827.323	3469
827.462	3511
827.601	3477
827.741	3466
827.88	3485
828.02	3382
828.159	3481
828.298	3492
828.437	3564
828.577	3458
828.716	3595
828.855	3542
828.994	3405
829.134	3367
829.273	3405
829.412	3378
829.551	3332
829.69	3382
829.829	3424
829.968	3492
830.107	3435
830.246	3466
830.385	3416
830.524	3329
830.663	3348
830.802	3279
830.941	3222
831.08	3222
831.219	3275
831.357	3283
831.496	3420
831.635	3272
831.774	3199
831.913	3203
832.051	3180
832.19	3112
832.329	3211
832.467	3150
832.606	3135
832.744	3207
832.883	3199
833.022	3203
833.16	3302
833.299	3321
833.437	3325
833.576	3359
833.714	3428
833.852	3462
833.991	3431
834.129	3477
834.267	3454
834.406	3435
834.544	3447
834.682	3454
834.821	3435
834.959	3568
835.097	3431
835.235	3568
835.373	3526
835.511	3492
835.65	3473
835.788	3504
835.926	3424
836.064	3382
836.202	3458
836.34	3568
836.478	3625
836.615	3561
836.753	3603
836.891	3660
837.029	3641
837.167	3580
837.305	3530
837.443	3580
837.58	3504
837.718	3614
837.856	3561
837.993	3534
838.131	3629
838.269	3614
838.406	3591
838.544	3595
838.681	3515
838.819	3458
838.956	3370
839.094	3389
839.231	3439
839.369	3534
839.506	3713
839.643	3656
839.781	3534
839.918	3492
840.055	3515
840.193	3542
840.33	3534
840.467	3557
840.604	3599
840.742	3804
840.879	3530
841.016	3572
841.153	3610
841.29	3766
841.427	3732
841.564	3736
841.701	3747
841.838	3732
841.975	3705
842.112	3743
842.249	3709
842.385	3625
842.522	3838
842.659	3732
842.796	3679
842.933	3724
843.069	3740
843.206	3724
843.343	3823
843.479	3808
843.616	3808
843.752	3663
843.889	3675
844.025	3899
844.162	3770
844.298	3892
844.435	3804
844.571	3793
844.708	3899
844.844	3968
844.98	4044
845.117	4036
845.253	3903
845.389	3918
845.525	4002
845.661	3941
845.798	3975
845.934	4029
846.07	3960
846.206	4116
846.342	4112
846.478	4078
846.614	3945
846.75	3960
846.886	3911
847.022	4071
847.158	3983
847.294	4021
847.429	4067
847.565	3994
847.701	4268
847.837	3888
847.972	3896
848.108	3983
848.244	4002
848.379	3907
848.515	3842
848.65	3827
848.786	3857
848.921	3903
849.057	3945
849.192	3972
849.328	3926
849.463	3949
849.598	3869
849.734	3857
849.869	3861
850.004	3819
850.14	3857
850.275	3808
850.41	3751
850.545	3755
850.68	3778
850.815	3800
850.95	3819
851.085	3956
851.22	3888
851.355	3854
851.49	3766
851.625	3838
851.76	3842
851.895	3789
852.03	3743
852.165	3838
852.299	3850
852.434	3884
852.569	3850
852.703	3915
852.838	3956
852.973	3979
853.107	4025
853.242	3873
853.376	3857
853.511	3789
853.645	3861
853.78	3968
853.914	3876
854.048	3869
854.183	3903
854.317	3937
854.451	4071
854.585	3960
854.72	3964
854.854	4071
854.988	3941
855.122	4002
855.256	3998
855.39	4055
855.524	4093
855.658	4082
855.792	4093
855.926	4112
856.06	4135
856.194	4249
856.327	4128
856.461	4116
856.595	4162
856.729	4177
856.862	4318
856.996	4299
857.13	4303
857.263	4306
857.397	4352
857.53	4310
857.664	4314
857.797	4447
857.931	4455
858.064	4443
858.197	4493
858.331	4417
858.464	4421
858.597	4417
858.731	4474
858.864	4481
858.997	4413
859.13	4523
859.263	4542
859.396	4577
859.529	4546
859.662	4558
859.795	4558
859.928	4641
860.061	4702
860.194	4736
860.327	4672
860.46	4641
860.592	4748
860.725	4755
860.858	4767
860.99	4698
861.123	4706
861.256	4702
861.388	4767
861.521	5524
861.653	4786
861.786	4725
861.918	4767
862.05	4839
862.183	4877
862.315	4896
862.447	4919
862.58	4908
862.712	4812
862.844	4786
862.976	4946
863.108	4835
863.24	5193
863.372	4843
863.504	4953
863.636	4965
863.768	4980
863.9	4991
864.032	4927
864.164	4934
864.296	5006
864.428	5083
864.559	5052
864.691	5143
864.823	5124
864.954	5064
865.086	5185
865.217	5113
865.349	5094
865.48	5162
865.612	5193
865.743	5269
865.875	5242
866.006	5147
866.137	5246
866.269	5231
866.4	5307
866.531	5288
866.662	5220
866.793	5258
866.924	5269
867.055	5341
867.186	5296
867.317	5322
867.448	5372
867.579	5334
867.71	5345
867.841	5398
867.972	5482
868.103	5471
868.233	5520
868.364	5532
868.495	5554
868.625	5581
868.756	5771
868.886	5665
869.017	5767
869.147	5851
869.278	5920
869.408	5847
869.539	5840
869.669	5908
869.799	5942
869.929	5942
870.06	6003
870.19	6209
870.32	6205
870.45	6304
870.58	6327
870.71	6467
870.84	6490
870.97	6395
871.1	6490
871.23	6631
871.36	6738
871.489	6631
871.619	6802
871.749	6810
871.879	6901
872.008	6973
872.138	6966
872.267	7042
872.397	6966
872.526	6973
872.656	7152
872.785	7289
872.915	7407
873.044	7510
873.173	7487
873.303	7620
873.432	7746
873.561	7822
873.69	7921
873.819	8027
873.948	8180
874.077	8233
874.206	8305
874.335	8434
874.464	8674
874.593	8853
874.722	8914
874.851	9100
874.979	9233
875.108	9370
875.237	9462
875.365	9545
875.494	9648
875.623	9800
875.751	9800
875.88	10025
876.008	10067
876.136	10329
876.265	10470
876.393	10694
876.521	10736
876.65	10877
876.778	10831
876.906	10885
877.034	11037
877.162	11086
877.29	11147
877.418	11322
877.546	11315
877.674	11467
877.802	11406
877.93	11505
878.058	11570
878.185	11562
878.313	11695
878.441	11684
878.568	11691
878.696	11863
878.824	11843
878.951	11901
879.079	12049
879.206	12076
879.333	12045
879.461	11961
879.588	12057
879.715	12155
879.842	12247
879.97	12133
880.097	11954
880.224	11878
880.351	11893
880.478	11904
880.605	11855
880.732	11832
880.859	12007
880.986	11859
881.112	11855
881.239	11779
881.366	11748
881.493	11490
881.619	11562
881.746	11592
881.872	11520
881.999	11501
882.125	11512
882.252	11532
882.378	11566
882.505	11611
882.631	11368
882.757	11277
882.883	11269
883.01	11277
883.136	11246
883.262	11201
883.388	11090
883.514	11201
883.64	11155
883.766	11159
883.892	11090
884.018	10976
884.143	11094
884.269	11105
884.395	10835
884.52	10820
884.646	10778
884.772	10790
884.897	10637
885.023	10683
885.148	10748
885.274	10736
885.399	10599
885.524	10584
885.65	10675
885.775	10687
885.9	10538
886.025	10656
886.15	10531
886.275	10546
886.4	10344
886.525	10459
886.65	10352
886.775	10322
886.9	10379
887.025	10607
887.149	10398
887.274	10158
887.399	10234
887.523	10249
887.648	10147
887.773	10150
887.897	10238
888.021	10238
888.146	10097
888.27	10196
888.395	10253
888.519	10192
888.643	10109
888.767	10234
888.891	10071
889.015	10101
889.139	10071
889.263	10055
889.387	10086
889.511	10135
889.635	10013
889.759	9960
889.883	10040
890.006	10021
890.13	10059
890.254	9949
890.377	10029
890.501	9895
890.624	9945
890.748	9930
890.871	9770
890.995	9778
891.118	9762
891.241	9823
891.364	9732
891.488	9762
891.611	9682
891.734	9732
891.857	9827
891.98	9800
892.103	9793
892.226	9857
892.349	9682
892.471	9580
892.594	9572
892.717	9660
892.839	9595
892.962	9587
893.085	9625
893.207	9576
893.33	9557
893.452	9564
893.575	9587
893.697	9515
893.819	9599
893.941	9610
894.064	9584
894.186	9458
894.308	9412
894.43	9485
894.552	9545
894.674	9542
894.796	9363
894.918	9336
895.04	9355
895.161	9439
895.283	9348
895.405	9279
895.526	9306
895.648	9275
895.769	9283
895.891	9214
896.012	9336
896.134	9207
896.255	9203
896.376	9093
896.498	9150
896.619	9127
896.74	9070
896.861	9085
896.982	9264
897.103	9302
897.224	9195
897.345	9093
897.466	8982
897.587	8975
897.708	9127
897.828	9024
897.949	8929
898.07	8883
898.19	8944
898.311	9055
898.431	8902
898.552	8971
898.672	8944
898.792	8994
898.913	8971
899.033	8826
899.153	8769
899.273	8750
899.393	8758
899.513	8739
899.633	8800
899.753	8731
899.873	8689
899.993	8811
900.113	8686
900.232	8758
900.352	8632
900.472	8590
900.591	8568
900.711	8579
900.83	8579
900.95	8705
901.069	8697
901.189	8575
901.308	8454
901.427	8366
901.546	8408
901.665	8427
901.784	8511
901.904	8358
902.023	8332
902.141	8305
902.26	8214
902.379	8343
902.498	8214
902.617	8233
902.735	8339
902.854	8332
902.973	8309
903.091	8115
903.21	8149
903.328	8164
903.446	8149
903.565	8111
903.683	8027
903.801	8043
903.919	8103
904.038	8065
904.156	8039
904.274	8043
904.392	7978
904.51	8031
904.627	8046
904.745	8058
904.863	8149
904.981	7940
905.098	7890
905.216	7925
905.334	7917
905.451	7894
905.569	7986
905.686	7974
905.803	7928
905.921	7807
906.038	7913
906.155	7856
906.272	7670
906.389	7780
906.506	7651
906.623	7662
906.74	7605
906.857	7575
906.974	7643
907.091	7708
907.208	7734
907.324	7609
907.441	7655
907.557	7434
907.674	7445
907.79	7415
907.907	7468
908.023	7472
908.139	7457
908.256	7468
908.372	7384
908.488	7358
908.604	7282
908.72	7225
908.836	7305
908.952	7263
909.068	7270
909.184	7305
909.3	7301
909.415	7308
909.531	7274
909.647	7168
909.762	7187
909.878	7114
909.993	7149
910.108	7133
910.224	7088
910.339	7084
910.454	7023
910.57	6958
910.685	7008
910.8	7190
910.915	7099
911.03	6993
911.145	6932
911.259	6856
911.374	6901
911.489	6897
911.604	6859
911.718	6749
911.833	6741
911.947	6662
912.062	6623
912.176	6715
912.291	6772
912.405	6760
912.519	6840
912.633	6829
912.748	6741
912.862	6730
912.976	6623
913.09	6536
913.204	6608
913.318	6601
913.431	6665
913.545	6677
913.659	6700
913.772	6681
913.886	6566
914	6604
914.113	6650
914.226	6673
914.34	6654
914.453	6521
914.566	6582
914.68	6563
914.793	6585
914.906	6521
915.019	6418
915.132	6414
915.245	6456
915.358	6407
915.47	6391
915.583	6471
915.696	6509
915.809	6574
915.921	6544
916.034	6479
916.146	6464
916.259	6410
916.371	6464
916.483	6426
916.595	6388
916.708	6441
916.82	6403
916.932	6365
917.044	6350
917.156	6395
917.268	6380
917.38	6342
917.491	6338
917.603	6346
917.715	6365
917.826	6448
917.938	6289
918.049	6300
918.161	6369
918.272	6456
918.384	6422
918.495	6319
918.606	6285
918.717	6258
918.828	6285
918.939	6327
919.05	6213
919.161	6254
919.272	6163
919.383	6228
919.494	6315
919.604	6361
919.715	6292
919.826	6239
919.936	6304
920.047	6391
920.157	6273
920.267	6502
920.378	6315
920.488	6376
920.598	6456
920.708	6547
920.818	6456
920.928	6498
921.038	6623
921.148	6608
921.258	6304
921.368	6338
921.477	6254
921.587	6144
921.697	6102
921.806	6201
921.916	6121
922.025	5912
922.134	5939
922.244	5916
922.353	5927
922.462	5851
922.571	5821
922.68	5729
922.789	5718
922.898	5699
923.007	5665
923.116	5699
923.224	5680
923.333	5699
923.442	5604
923.55	5638
923.659	5604
923.767	5653
923.876	5619
923.984	5596
924.092	5448
924.201	5558
924.309	5566
924.417	5535
924.525	5478
924.633	5474
924.741	6304
924.849	5341
924.956	5463
925.064	5353
925.172	5318
925.279	5318
925.387	5326
925.494	5311
925.602	5478
925.709	5402
925.816	5299
925.924	5311
926.031	5368
926.138	5284
926.245	5345
926.352	5284
926.459	5372
926.566	5349
926.673	5227
926.779	5147
926.886	5113
926.993	4995
927.099	5014
927.206	5029
927.312	4980
927.419	5037
927.525	5006
927.631	4968
927.737	4904
927.843	4885
927.95	4828
928.056	4866
928.162	4828
928.267	4881
928.373	5303
928.479	4881
928.585	4771
928.69	4774
928.796	4736
928.901	4675
929.007	4592
929.112	4641
929.218	4641
929.323	4622
929.428	4603
929.533	4637
929.638	4554
929.743	4577
929.848	4596
929.953	4554
930.058	4478
930.163	4310
930.267	4363
930.372	4409
930.477	4299
930.581	4474
930.685	4333
930.79	4268
930.894	4272
930.998	4291
931.103	4379
931.207	4158
931.311	4086
931.415	4078
931.519	3922
931.623	3941
