Data from glass_V78500241_1709.txt Node
Date: Wed Sep 01 19:26:20 CST 2021
User: usil
Spectrometer: V785-0024
Trigger mode: 0
Integration Time (sec): 4.000000E-1
Scans to average: 1
Nonlinearity correction enabled: false
Boxcar width: 0
Storing dark spectrum: false
XAxis mode: Wavelengths
Number of Pixels in Spectrum: 1024
>>>>>Begin Spectral Data<<<<<
801.071	3755
801.214	3720
801.356	3694
801.499	3713
801.641	3728
801.783	3804
801.926	3869
802.068	3846
802.211	3854
802.353	3842
802.496	3850
802.638	3861
802.78	3857
802.923	3911
803.065	3880
803.208	3861
803.35	3876
803.492	3953
803.635	3922
803.777	3793
803.919	3922
804.061	4154
804.204	3937
804.346	3987
804.488	3915
804.63	4059
804.773	3907
804.915	4048
805.057	4154
805.199	4013
805.341	4067
805.483	4131
805.626	4101
805.768	4131
805.91	4215
806.052	4265
806.194	4207
806.336	4322
806.478	4204
806.62	4177
806.762	4169
806.904	4238
807.046	4386
807.188	4219
807.33	4166
807.472	4223
807.614	4188
807.756	4280
807.898	4204
808.04	4219
808.182	4246
808.324	4348
808.465	4436
808.607	4481
808.749	4462
808.891	4436
809.033	4489
809.174	4421
809.316	4280
809.458	4196
809.6	4169
809.741	4158
809.883	4105
810.025	4192
810.166	4196
810.308	4215
810.45	4272
810.591	4246
810.733	4291
810.875	4443
811.016	4839
811.158	5124
811.299	5261
811.441	5334
811.582	5075
811.724	4721
811.865	4459
812.007	4436
812.148	4447
812.29	4421
812.431	4405
812.573	4436
812.714	4375
812.855	4428
812.997	4394
813.138	4489
813.279	4432
813.421	4390
813.562	4360
813.703	4356
813.845	4325
813.986	4276
814.127	4257
814.268	4249
814.41	4295
814.551	4261
814.692	4367
814.833	4257
814.974	4246
815.115	4356
815.256	4249
815.397	4261
815.539	4246
815.68	4177
815.821	4200
815.962	4299
816.103	4272
816.244	4276
816.385	4223
816.526	4299
816.666	4238
816.807	4097
816.948	4158
817.089	4185
817.23	4131
817.371	4086
817.512	4063
817.653	4082
817.793	4051
817.934	4044
818.075	4036
818.216	4059
818.356	4093
818.497	3987
818.638	3926
818.778	3896
818.919	3873
819.06	3861
819.2	3896
819.341	3854
819.481	3827
819.622	3960
819.762	4044
819.903	3911
820.043	3808
820.184	3846
820.324	3873
820.465	3918
820.605	3884
820.746	3888
820.886	3823
821.026	3884
821.167	3945
821.307	3968
821.447	3960
821.588	3953
821.728	3945
821.868	3884
822.008	3838
822.149	3888
822.289	3911
822.429	3800
822.569	3747
822.709	3797
822.849	3709
822.99	3732
823.13	3770
823.27	3762
823.41	3713
823.55	3785
823.69	3747
823.83	3728
823.97	3736
824.11	3591
824.25	3610
824.389	3679
824.529	3663
824.669	3637
824.809	3713
824.949	3755
825.089	3755
825.228	3698
825.368	3526
825.508	3587
825.648	3534
825.787	3595
825.927	3641
826.067	3682
826.206	3633
826.346	3785
826.485	3846
826.625	3857
826.765	3907
826.904	3816
827.044	3591
827.183	3534
827.323	3389
827.462	3488
827.601	3420
827.741	3397
827.88	3431
828.02	3389
828.159	3412
828.298	3481
828.437	3507
828.577	3504
828.716	3576
828.855	3481
828.994	3355
829.134	3336
829.273	3420
829.412	3336
829.551	3355
829.69	3367
829.829	3435
829.968	3500
830.107	3473
830.246	3454
830.385	3378
830.524	3348
830.663	3298
830.802	3218
830.941	3199
831.08	3203
831.219	3272
831.357	3283
831.496	3401
831.635	3256
831.774	3180
831.913	3192
832.051	3097
832.19	3184
832.329	3222
832.467	3123
832.606	3123
832.744	3123
832.883	3169
833.022	3222
833.16	3272
833.299	3294
833.437	3317
833.576	3424
833.714	3443
833.852	3420
833.991	3458
834.129	3511
834.267	3462
834.406	3401
834.544	3428
834.682	3447
834.821	3370
834.959	3576
835.097	3420
835.235	3530
835.373	3504
835.511	3500
835.65	3466
835.788	3492
835.926	3424
836.064	3389
836.202	3420
836.34	3576
836.478	3599
836.615	3526
836.753	3580
836.891	3637
837.029	3606
837.167	3633
837.305	3545
837.443	3496
837.58	3473
837.718	3572
837.856	3534
837.993	3515
838.131	3542
838.269	3557
838.406	3599
838.544	3591
838.681	3454
838.819	3485
838.956	3401
839.094	3405
839.231	3424
839.369	3534
839.506	3705
839.643	3644
839.781	3469
839.918	3450
840.055	3549
840.193	3507
840.33	3492
840.467	3538
840.604	3603
840.742	3804
840.879	3496
841.016	3591
841.153	3549
841.29	3747
841.427	3717
841.564	3701
841.701	3740
841.838	3720
841.975	3682
842.112	3724
842.249	3660
842.385	3652
842.522	3804
842.659	3717
842.796	3682
842.933	3732
843.069	3679
843.206	3736
843.343	3804
843.479	3759
843.616	3846
843.752	3698
843.889	3679
844.025	3831
844.162	3717
844.298	3842
844.435	3819
844.571	3778
844.708	3926
844.844	3964
844.98	4025
845.117	3975
845.253	3915
845.389	3880
845.525	3964
845.661	3907
845.798	3899
845.934	3964
846.07	3956
846.206	4025
846.342	4063
846.478	4021
846.614	3964
846.75	3926
846.886	3888
847.022	4029
847.158	3998
847.294	4021
847.429	4021
847.565	4010
847.701	4204
847.837	3892
847.972	3846
848.108	3972
848.244	4010
848.379	3876
848.515	3793
848.65	3827
848.786	3873
848.921	3876
849.057	3953
849.192	3956
849.328	3869
849.463	3896
849.598	3865
849.734	3884
849.869	3827
850.004	3751
850.14	3846
850.275	3835
850.41	3751
850.545	3751
850.68	3717
850.815	3819
850.95	3797
851.085	3896
851.22	3876
851.355	3804
851.49	3781
851.625	3816
851.76	3743
851.895	3720
852.03	3701
852.165	3827
852.299	3812
852.434	3876
852.569	3869
852.703	3888
852.838	3922
852.973	3972
853.107	3994
853.242	3896
853.376	3816
853.511	3812
853.645	3831
853.78	3972
853.914	3899
854.048	3888
854.183	3880
854.317	3953
854.451	4048
854.585	3972
854.72	3915
854.854	4048
854.988	3945
855.122	3960
855.256	3903
855.39	3994
855.524	4067
855.658	4090
855.792	4074
855.926	4120
856.06	4116
856.194	4185
856.327	4169
856.461	4116
856.595	4150
856.729	4139
856.862	4303
856.996	4204
857.13	4280
857.263	4303
857.397	4333
857.53	4299
857.664	4306
857.797	4394
857.931	4383
858.064	4413
858.197	4447
858.331	4413
858.464	4383
858.597	4344
858.731	4394
858.864	4440
858.997	4481
859.13	4512
859.263	4538
859.396	4577
859.529	4531
859.662	4508
859.795	4542
859.928	4565
860.061	4710
860.194	4675
860.327	4645
860.46	4607
860.592	4763
860.725	4778
860.858	4767
860.99	4706
861.123	4710
861.256	4691
861.388	4782
861.521	5398
861.653	4740
861.786	4706
861.918	4778
862.05	4782
862.183	4843
862.315	4858
862.447	4908
862.58	4896
862.712	4710
862.844	4759
862.976	4889
863.108	4858
863.24	5239
863.372	4828
863.504	4934
863.636	4885
863.768	4991
863.9	4980
864.032	4930
864.164	4919
864.296	5071
864.428	5098
864.559	5113
864.691	5121
864.823	5090
864.954	5105
865.086	5155
865.217	5102
865.349	5143
865.48	5136
865.612	5189
865.743	5334
865.875	5193
866.006	5181
866.137	5231
866.269	5239
866.4	5239
866.531	5277
866.662	5235
866.793	5277
866.924	5288
867.055	5303
867.186	5334
867.317	5318
867.448	5326
867.579	5349
867.71	5322
867.841	5429
867.972	5463
868.103	5509
868.233	5543
868.364	5455
868.495	5520
868.625	5653
868.756	5764
868.886	5627
869.017	5764
869.147	5863
869.278	5809
869.408	5847
869.539	5840
869.669	5961
869.799	5950
869.929	6003
870.06	5984
870.19	6201
870.32	6175
870.45	6270
870.58	6342
870.71	6456
870.84	6460
870.97	6471
871.1	6490
871.23	6616
871.36	6719
871.489	6631
871.619	6650
871.749	6829
871.879	6878
872.008	7004
872.138	6993
872.267	6966
872.397	6966
872.526	7034
872.656	7076
872.785	7179
872.915	7339
873.044	7540
873.173	7540
873.303	7613
873.432	7734
873.561	7841
873.69	7928
873.819	8050
873.948	8161
874.077	8301
874.206	8317
874.335	8511
874.464	8678
874.593	8826
874.722	8952
874.851	9085
874.979	9218
875.108	9351
875.237	9416
875.365	9526
875.494	9690
875.623	9812
875.751	9789
875.88	10002
876.008	10112
876.136	10329
876.265	10554
876.393	10706
876.521	10740
876.65	10809
876.778	10854
876.906	10797
877.034	10972
877.162	11151
877.29	11181
877.418	11345
877.546	11322
877.674	11467
877.802	11440
877.93	11524
878.058	11520
878.185	11512
878.313	11657
878.441	11741
878.568	11676
878.696	11783
878.824	11916
878.951	11980
879.079	11961
879.206	12125
879.333	12083
879.461	11973
879.588	12053
879.715	12049
879.842	12197
879.97	12072
880.097	11882
880.224	11885
880.351	11908
880.478	11817
880.605	11843
880.732	11771
880.859	11969
880.986	11866
881.112	11893
881.239	11714
881.366	11676
881.493	11672
881.619	11486
881.746	11581
881.872	11592
881.999	11490
882.125	11440
882.252	11619
882.378	11490
882.505	11596
882.631	11353
882.757	11341
882.883	11269
883.01	11250
883.136	11102
883.262	11128
883.388	11033
883.514	11197
883.64	11197
883.766	11098
883.892	11033
884.018	11037
884.143	11071
884.269	11181
884.395	10786
884.52	10748
884.646	10736
884.772	10656
884.897	10660
885.023	10649
885.148	10740
885.274	10748
885.399	10668
885.524	10668
885.65	10603
885.775	10596
885.9	10577
886.025	10573
886.15	10577
886.275	10588
886.4	10356
886.525	10375
886.65	10390
886.775	10375
886.9	10474
887.025	10542
887.149	10363
887.274	10249
887.399	10204
887.523	10078
887.648	10158
887.773	10090
887.897	10280
888.021	10227
888.146	10090
888.27	10188
888.395	10185
888.519	10147
888.643	10234
888.767	10162
888.891	10048
889.015	10036
889.139	10086
889.263	9964
889.387	10036
889.511	10135
889.635	10036
889.759	10021
889.883	9972
890.006	9937
890.13	10059
890.254	9964
890.377	9975
890.501	9816
890.624	9857
890.748	9888
890.871	9736
890.995	9770
891.118	9766
891.241	9762
891.364	9751
891.488	9846
891.611	9694
891.734	9709
891.857	9774
891.98	9637
892.103	9709
892.226	9709
892.349	9732
892.471	9530
892.594	9641
892.717	9606
892.839	9591
892.962	9580
893.085	9549
893.207	9526
893.33	9473
893.452	9542
893.575	9652
893.697	9530
893.819	9656
893.941	9606
894.064	9644
894.186	9431
894.308	9466
894.43	9515
894.552	9496
894.674	9515
894.796	9359
894.918	9466
895.04	9374
895.161	9363
895.283	9416
895.405	9203
895.526	9222
895.648	9199
895.769	9233
895.891	9313
896.012	9272
896.134	9184
896.255	9279
896.376	9142
896.498	9085
896.619	9127
896.74	9127
896.861	9154
896.982	9283
897.103	9249
897.224	9169
897.345	9036
897.466	8990
897.587	9013
897.708	9104
897.828	8979
897.949	8925
898.07	8861
898.19	8933
898.311	8956
898.431	8895
898.552	8963
898.672	8971
898.792	8895
898.913	8891
899.033	8838
899.153	8769
899.273	8708
899.393	8750
899.513	8727
899.633	8727
899.753	8750
899.873	8701
899.993	8773
900.113	8697
900.232	8697
900.352	8739
900.472	8625
900.591	8560
900.711	8606
900.83	8522
900.95	8769
901.069	8754
901.189	8465
901.308	8492
901.427	8427
901.546	8473
901.665	8423
901.784	8503
901.904	8434
902.023	8362
902.141	8256
902.26	8195
902.379	8252
902.498	8259
902.617	8237
902.735	8282
902.854	8275
902.973	8233
903.091	8134
903.21	8206
903.328	8138
903.446	8107
903.565	8081
903.683	8134
903.801	8020
903.919	8191
904.038	8157
904.156	8012
904.274	8077
904.392	8039
904.51	8012
904.627	8077
904.745	8100
904.863	8149
904.981	7959
905.098	7883
905.216	7845
905.334	7936
905.451	7898
905.569	7868
905.686	7902
905.803	7940
905.921	7780
906.038	7784
906.155	7734
906.272	7708
906.389	7704
906.506	7666
906.623	7613
906.74	7632
906.857	7559
906.974	7594
907.091	7704
907.208	7696
907.324	7651
907.441	7609
907.557	7499
907.674	7460
907.79	7400
907.907	7422
908.023	7438
908.139	7441
908.256	7396
908.372	7411
908.488	7365
908.604	7282
908.72	7266
908.836	7213
908.952	7259
909.068	7266
909.184	7377
909.3	7259
909.415	7270
909.531	7259
909.647	7129
909.762	7080
909.878	7076
909.993	7110
910.108	7126
910.224	7122
910.339	7126
910.454	7069
910.57	7046
910.685	6981
910.8	7126
910.915	7179
911.03	6996
911.145	6863
911.259	6890
911.374	6882
911.489	6844
911.604	6806
911.718	6722
911.833	6703
911.947	6719
912.062	6593
912.176	6738
912.291	6696
912.405	6715
912.519	6829
912.633	6783
912.748	6711
912.862	6719
912.976	6582
913.09	6536
913.204	6616
913.318	6623
913.431	6711
913.545	6684
913.659	6734
913.772	6627
913.886	6578
914	6578
914.113	6665
914.226	6692
914.34	6608
914.453	6536
914.566	6616
914.68	6574
914.793	6578
914.906	6441
915.019	6384
915.132	6380
915.245	6403
915.358	6429
915.47	6479
915.583	6429
915.696	6460
915.809	6536
915.921	6517
916.034	6437
916.146	6475
916.259	6334
916.371	6464
916.483	6441
916.595	6357
916.708	6399
916.82	6346
916.932	6334
917.044	6399
917.156	6388
917.268	6338
917.38	6331
917.491	6277
917.603	6357
917.715	6395
917.826	6452
917.938	6334
918.049	6281
918.161	6334
918.272	6441
918.384	6426
918.495	6365
918.606	6232
918.717	6216
918.828	6254
918.939	6235
919.05	6136
919.161	6266
919.272	6129
919.383	6209
919.494	6277
919.604	6388
919.715	6311
919.826	6220
919.936	6235
920.047	6327
920.157	6273
920.267	6403
920.378	6346
920.488	6308
920.598	6471
920.708	6498
920.818	6532
920.928	6437
921.038	6635
921.148	6620
921.258	6281
921.368	6376
921.477	6209
921.587	6235
921.697	6034
921.806	6175
921.916	6114
922.025	5916
922.134	5901
922.244	5893
922.353	5897
922.462	5824
922.571	5821
922.68	5688
922.789	5699
922.898	5726
923.007	5638
923.116	5646
923.224	5642
923.333	5634
923.442	5608
923.55	5608
923.659	5627
923.767	5619
923.876	5562
923.984	5604
924.092	5520
924.201	5505
924.309	5532
924.417	5524
924.525	5482
924.633	5505
924.741	6281
924.849	5379
924.956	5429
925.064	5383
925.172	5292
925.279	5261
925.387	5383
925.494	5330
925.602	5414
925.709	5402
925.816	5277
925.924	5322
926.031	5398
926.138	5315
926.245	5277
926.352	5193
926.459	5334
926.566	5379
926.673	5231
926.779	5132
926.886	5124
926.993	5003
927.099	4984
927.206	4930
927.312	4972
927.419	5025
927.525	4991
927.631	4968
927.737	4847
927.843	4847
927.95	4752
928.056	4809
928.162	4809
928.267	4847
928.373	5357
928.479	4847
928.585	4668
928.69	4763
928.796	4786
928.901	4675
929.007	4603
929.112	4675
929.218	4626
929.323	4565
929.428	4558
929.533	4729
929.638	4500
929.743	4531
929.848	4580
929.953	4550
930.058	4466
930.163	4363
930.267	4348
930.372	4402
930.477	4303
930.581	4493
930.685	4306
930.79	4284
930.894	4268
930.998	4253
931.103	4390
931.207	4116
931.311	4078
931.415	4036
931.519	3930
931.623	3930
