Data from glass_V78500241_2355.txt Node
Date: Wed Sep 01 19:30:49 CST 2021
User: usil
Spectrometer: V785-0024
Trigger mode: 0
Integration Time (sec): 4.000000E-1
Scans to average: 1
Nonlinearity correction enabled: false
Boxcar width: 0
Storing dark spectrum: false
XAxis mode: Wavelengths
Number of Pixels in Spectrum: 1024
>>>>>Begin Spectral Data<<<<<
801.071	3740
801.214	3785
801.356	3675
801.499	3751
801.641	3694
801.783	3808
801.926	3838
802.068	3819
802.211	3861
802.353	3934
802.496	3865
802.638	3899
802.78	3838
802.923	3907
803.065	3911
803.208	3850
803.35	3831
803.492	3865
803.635	3873
803.777	3785
803.919	3861
804.061	4120
804.204	3922
804.346	3899
804.488	3915
804.63	4010
804.773	3937
804.915	3998
805.057	4139
805.199	4040
805.341	4090
805.483	4112
805.626	4082
805.768	4078
805.91	4219
806.052	4249
806.194	4192
806.336	4333
806.478	4192
806.62	4169
806.762	4166
806.904	4249
807.046	4344
807.188	4265
807.33	4207
807.472	4219
807.614	4200
807.756	4227
807.898	4188
808.04	4234
808.182	4272
808.324	4352
808.465	4348
808.607	4440
808.749	4440
808.891	4451
809.033	4459
809.174	4417
809.316	4227
809.458	4253
809.6	4147
809.741	4162
809.883	4158
810.025	4219
810.166	4177
810.308	4204
810.45	4261
810.591	4253
810.733	4287
810.875	4554
811.016	4809
811.158	5105
811.299	5269
811.441	5307
811.582	5060
811.724	4710
811.865	4493
812.007	4428
812.148	4413
812.29	4341
812.431	4402
812.573	4417
812.714	4356
812.855	4405
812.997	4402
813.138	4470
813.279	4409
813.421	4341
813.562	4337
813.703	4310
813.845	4383
813.986	4234
814.127	4207
814.268	4230
814.41	4261
814.551	4230
814.692	4344
814.833	4306
814.974	4272
815.115	4299
815.256	4295
815.397	4230
815.539	4272
815.68	4173
815.821	4234
815.962	4261
816.103	4257
816.244	4215
816.385	4177
816.526	4242
816.666	4230
816.807	4116
816.948	4147
817.089	4139
817.23	4093
817.371	4017
817.512	4040
817.653	4048
817.793	4032
817.934	4006
818.075	4128
818.216	4097
818.356	4071
818.497	3975
818.638	3899
818.778	3888
818.919	3861
819.06	3846
819.2	3930
819.341	3876
819.481	3827
819.622	3865
819.762	4025
819.903	3892
820.043	3846
820.184	3800
820.324	3770
820.465	3888
820.605	3869
820.746	3873
820.886	3728
821.026	3880
821.167	3926
821.307	3983
821.447	3926
821.588	3937
821.728	3922
821.868	3926
822.008	3854
822.149	3930
822.289	3907
822.429	3778
822.569	3717
822.709	3797
822.849	3694
822.99	3717
823.13	3743
823.27	3762
823.41	3743
823.55	3690
823.69	3717
823.83	3732
823.97	3701
824.11	3568
824.25	3568
824.389	3641
824.529	3633
824.669	3595
824.809	3728
824.949	3751
825.089	3732
825.228	3667
825.368	3584
825.508	3534
825.648	3549
825.787	3576
825.927	3595
826.067	3637
826.206	3667
826.346	3766
826.485	3838
826.625	3804
826.765	3918
826.904	3838
827.044	3652
827.183	3500
827.323	3431
827.462	3466
827.601	3477
827.741	3393
827.88	3458
828.02	3367
828.159	3420
828.298	3511
828.437	3500
828.577	3481
828.716	3580
828.855	3454
828.994	3367
829.134	3367
829.273	3397
829.412	3359
829.551	3359
829.69	3370
829.829	3401
829.968	3477
830.107	3447
830.246	3454
830.385	3374
830.524	3332
830.663	3306
830.802	3298
830.941	3165
831.08	3169
831.219	3294
831.357	3275
831.496	3393
831.635	3233
831.774	3127
831.913	3180
832.051	3161
832.19	3150
832.329	3211
832.467	3138
832.606	3108
832.744	3150
832.883	3222
833.022	3176
833.16	3283
833.299	3351
833.437	3317
833.576	3359
833.714	3389
833.852	3473
833.991	3428
834.129	3454
834.267	3420
834.406	3382
834.544	3370
834.682	3485
834.821	3370
834.959	3530
835.097	3424
835.235	3507
835.373	3466
835.511	3485
835.65	3439
835.788	3466
835.926	3374
836.064	3389
836.202	3420
836.34	3523
836.478	3568
836.615	3515
836.753	3568
836.891	3644
837.029	3561
837.167	3557
837.305	3561
837.443	3530
837.58	3454
837.718	3576
837.856	3557
837.993	3523
838.131	3625
838.269	3595
838.406	3584
838.544	3587
838.681	3412
838.819	3454
838.956	3332
839.094	3412
839.231	3458
839.369	3553
839.506	3679
839.643	3637
839.781	3530
839.918	3466
840.055	3519
840.193	3496
840.33	3542
840.467	3568
840.604	3606
840.742	3762
840.879	3519
841.016	3614
841.153	3545
841.29	3751
841.427	3720
841.564	3675
841.701	3728
841.838	3686
841.975	3644
842.112	3698
842.249	3641
842.385	3644
842.522	3762
842.659	3690
842.796	3671
842.933	3679
843.069	3701
843.206	3724
843.343	3812
843.479	3781
843.616	3804
843.752	3652
843.889	3679
844.025	3838
844.162	3720
844.298	3842
844.435	3804
844.571	3759
844.708	3869
844.844	3972
844.98	4006
845.117	4002
845.253	3915
845.389	3899
845.525	3945
845.661	3945
845.798	3899
845.934	4010
846.07	3953
846.206	4029
846.342	4116
846.478	4063
846.614	3934
846.75	3911
846.886	3899
847.022	4048
847.158	3968
847.294	4025
847.429	3983
847.565	4006
847.701	4219
847.837	3869
847.972	3884
848.108	3960
848.244	3930
848.379	3854
848.515	3797
848.65	3804
848.786	3831
848.921	3842
849.057	3949
849.192	3949
849.328	3869
849.463	3865
849.598	3884
849.734	3838
849.869	3838
850.004	3766
850.14	3819
850.275	3835
850.41	3762
850.545	3736
850.68	3762
850.815	3797
850.95	3770
851.085	3934
851.22	3884
851.355	3808
851.49	3762
851.625	3762
851.76	3789
851.895	3698
852.03	3747
852.165	3781
852.299	3869
852.434	3915
852.569	3846
852.703	3888
852.838	3930
852.973	4029
853.107	3949
853.242	3876
853.376	3876
853.511	3732
853.645	3838
853.78	3983
853.914	3846
854.048	3854
854.183	3880
854.317	3911
854.451	4105
854.585	3922
854.72	3953
854.854	4051
854.988	3937
855.122	3972
855.256	3911
855.39	3975
855.524	4112
855.658	4097
855.792	4086
855.926	4135
856.06	4154
856.194	4173
856.327	4150
856.461	4120
856.595	4139
856.729	4158
856.862	4291
856.996	4272
857.13	4272
857.263	4261
857.397	4360
857.53	4284
857.664	4341
857.797	4375
857.931	4405
858.064	4371
858.197	4459
858.331	4428
858.464	4428
858.597	4299
858.731	4409
858.864	4443
858.997	4432
859.13	4493
859.263	4504
859.396	4561
859.529	4466
859.662	4542
859.795	4519
859.928	4588
860.061	4702
860.194	4694
860.327	4653
860.46	4618
860.592	4710
860.725	4702
860.858	4740
860.99	4725
861.123	4706
861.256	4683
861.388	4805
861.521	5269
861.653	4710
861.786	4721
861.918	4710
862.05	4812
862.183	4862
862.315	4885
862.447	4850
862.58	4934
862.712	4831
862.844	4763
862.976	4885
863.108	4873
863.24	5117
863.372	4835
863.504	4885
863.636	4911
863.768	4949
863.9	4908
864.032	4870
864.164	4980
864.296	4976
864.428	5056
864.559	5045
864.691	5140
864.823	5098
864.954	5178
865.086	5136
865.217	5113
865.349	5117
865.48	5189
865.612	5121
865.743	5303
865.875	5143
866.006	5147
866.137	5212
866.269	5246
866.4	5258
866.531	5189
866.662	5208
866.793	5288
866.924	5246
867.055	5345
867.186	5364
867.317	5265
867.448	5296
867.579	5360
867.71	5383
867.841	5376
867.972	5493
868.103	5444
868.233	5455
868.364	5501
868.495	5501
868.625	5665
868.756	5802
868.886	5691
869.017	5752
869.147	5805
869.278	5859
869.408	5775
869.539	5855
869.669	5904
869.799	5897
869.929	5999
870.06	6015
870.19	6182
870.32	6197
870.45	6247
870.58	6315
870.71	6376
870.84	6426
870.97	6422
871.1	6479
871.23	6608
871.36	6665
871.489	6635
871.619	6772
871.749	6802
871.879	6856
872.008	6954
872.138	6981
872.267	6962
872.397	7004
872.526	6977
872.656	7095
872.785	7190
872.915	7369
873.044	7518
873.173	7502
873.303	7601
873.432	7715
873.561	7833
873.69	7959
873.819	7997
873.948	8123
874.077	8290
874.206	8263
874.335	8476
874.464	8758
874.593	8838
874.722	8910
874.851	9150
874.979	9249
875.108	9363
875.237	9443
875.365	9500
875.494	9713
875.623	9732
875.751	9778
875.88	9975
876.008	10090
876.136	10234
876.265	10459
876.393	10599
876.521	10691
876.65	10733
876.778	10908
876.906	10862
877.034	10999
877.162	11056
877.29	11132
877.418	11269
877.546	11376
877.674	11406
877.802	11505
877.93	11539
878.058	11478
878.185	11516
878.313	11619
878.441	11741
878.568	11726
878.696	11786
878.824	11908
878.951	11912
879.079	11973
879.206	12175
879.333	12049
879.461	12049
879.588	12133
879.715	12121
879.842	12239
879.97	12072
880.097	11855
880.224	11893
880.351	11824
880.478	11927
880.605	11866
880.732	11775
880.859	11923
880.986	11874
881.112	11832
881.239	11722
881.366	11649
881.493	11676
881.619	11501
881.746	11516
881.872	11596
881.999	11630
882.125	11501
882.252	11554
882.378	11490
882.505	11573
882.631	11455
882.757	11269
882.883	11337
883.01	11250
883.136	11128
883.262	11121
883.388	11151
883.514	11193
883.64	11067
883.766	11124
883.892	10953
884.018	11025
884.143	11086
884.269	11079
884.395	10847
884.52	10774
884.646	10820
884.772	10725
884.897	10736
885.023	10725
885.148	10812
885.274	10778
885.399	10702
885.524	10626
885.65	10592
885.775	10580
885.9	10508
886.025	10538
886.15	10577
886.275	10421
886.4	10405
886.525	10478
886.65	10367
886.775	10356
886.9	10413
887.025	10481
887.149	10405
887.274	10265
887.399	10158
887.523	10223
887.648	10124
887.773	10002
887.897	10223
888.021	10143
888.146	10158
888.27	10200
888.395	10162
888.519	10124
888.643	10169
888.767	10139
888.891	10067
889.015	10017
889.139	10055
889.263	9991
889.387	10093
889.511	10124
889.635	10010
889.759	9945
889.883	9960
890.006	9972
890.13	10090
890.254	9945
890.377	9922
890.501	9842
890.624	9774
890.748	9888
890.871	9808
890.995	9728
891.118	9774
891.241	9759
891.364	9694
891.488	9854
891.611	9743
891.734	9690
891.857	9694
891.98	9698
892.103	9682
892.226	9766
892.349	9633
892.471	9523
892.594	9580
892.717	9622
892.839	9591
892.962	9584
893.085	9591
893.207	9545
893.33	9511
893.452	9466
893.575	9648
893.697	9431
893.819	9614
893.941	9542
894.064	9549
894.186	9473
894.308	9435
894.43	9553
894.552	9553
894.674	9545
894.796	9275
894.918	9378
895.04	9447
895.161	9344
895.283	9313
895.405	9188
895.526	9272
895.648	9298
895.769	9241
895.891	9256
896.012	9253
896.134	9253
896.255	9108
896.376	9176
896.498	9169
896.619	9047
896.74	8998
896.861	9074
896.982	9260
897.103	9283
897.224	9157
897.345	9020
897.466	9024
897.587	9058
897.708	9131
897.828	9074
897.949	8933
898.07	8883
898.19	8891
898.311	9051
898.431	8918
898.552	8933
898.672	9001
898.792	8914
898.913	8826
899.033	8777
899.153	8712
899.273	8625
899.393	8750
899.513	8739
899.633	8651
899.753	8712
899.873	8724
899.993	8785
900.113	8708
900.232	8640
900.352	8663
900.472	8590
900.591	8587
900.711	8610
900.83	8537
900.95	8625
901.069	8629
901.189	8495
901.308	8431
901.427	8385
901.546	8408
901.665	8400
901.784	8518
901.904	8393
902.023	8355
902.141	8214
902.26	8225
902.379	8286
902.498	8187
902.617	8301
902.735	8309
902.854	8259
902.973	8248
903.091	8119
903.21	8123
903.328	8145
903.446	8069
903.565	8088
903.683	8119
903.801	8062
903.919	8103
904.038	8157
904.156	8035
904.274	8168
904.392	8020
904.51	7993
904.627	8016
904.745	8084
904.863	8142
904.981	7951
905.098	7898
905.216	7849
905.334	7936
905.451	7894
905.569	7841
905.686	7955
905.803	7967
905.921	7792
906.038	7814
906.155	7818
906.272	7677
906.389	7727
906.506	7655
906.623	7632
906.74	7552
906.857	7544
906.974	7578
907.091	7632
907.208	7693
907.324	7624
907.441	7597
907.557	7434
907.674	7472
907.79	7422
907.907	7400
908.023	7403
908.139	7411
908.256	7384
908.372	7384
908.488	7377
908.604	7293
908.72	7202
908.836	7282
908.952	7232
909.068	7187
909.184	7297
909.3	7251
909.415	7278
909.531	7312
909.647	7061
909.762	7072
909.878	7114
909.993	7107
910.108	7137
910.224	7015
910.339	7080
910.454	7065
910.57	6977
910.685	6962
910.8	7137
910.915	7118
911.03	6962
911.145	6875
911.259	6844
911.374	6886
911.489	6810
911.604	6798
911.718	6692
911.833	6703
911.947	6665
912.062	6620
912.176	6692
912.291	6707
912.405	6635
912.519	6825
912.633	6856
912.748	6734
912.862	6730
912.976	6563
913.09	6517
913.204	6604
913.318	6623
913.431	6620
913.545	6654
913.659	6753
913.772	6673
913.886	6578
914	6467
914.113	6589
914.226	6593
914.34	6544
914.453	6502
914.566	6559
914.68	6509
914.793	6513
914.906	6441
915.019	6391
915.132	6338
915.245	6418
915.358	6350
915.47	6448
915.583	6494
915.696	6395
915.809	6498
915.921	6570
916.034	6433
916.146	6365
916.259	6380
916.371	6452
916.483	6403
916.595	6422
916.708	6388
916.82	6380
916.932	6380
917.044	6334
917.156	6323
917.268	6285
917.38	6315
917.491	6251
917.603	6315
917.715	6380
917.826	6395
917.938	6342
918.049	6220
918.161	6277
918.272	6422
918.384	6369
918.495	6334
918.606	6247
918.717	6270
918.828	6296
918.939	6247
919.05	6159
919.161	6273
919.272	6057
919.383	6121
919.494	6292
919.604	6456
919.715	6254
919.826	6194
919.936	6232
920.047	6346
920.157	6235
920.267	6437
920.378	6300
920.488	6273
920.598	6388
920.708	6585
920.818	6418
920.928	6441
921.038	6635
921.148	6551
921.258	6391
921.368	6319
921.477	6224
921.587	6136
921.697	6038
921.806	6159
921.916	6079
922.025	5904
922.134	5923
922.244	5916
922.353	5923
922.462	5824
922.571	5813
922.68	5668
922.789	5707
922.898	5668
923.007	5699
923.116	5657
923.224	5657
923.333	5638
923.442	5581
923.55	5543
923.659	5554
923.767	5623
923.876	5554
923.984	5608
924.092	5516
924.201	5554
924.309	5486
924.417	5539
924.525	5497
924.633	5387
924.741	6323
924.849	5341
924.956	5493
925.064	5353
925.172	5269
925.279	5242
925.387	5376
925.494	5299
925.602	5429
925.709	5349
925.816	5277
925.924	5364
926.031	5372
926.138	5311
926.245	5368
926.352	5174
926.459	5353
926.566	5337
926.673	5197
926.779	5143
926.886	5128
926.993	4999
927.099	5067
927.206	4987
927.312	4923
927.419	4991
927.525	4946
927.631	4968
927.737	4904
927.843	4835
927.95	4809
928.056	4831
928.162	4797
928.267	4797
928.373	5360
928.479	4866
928.585	4691
928.69	4782
928.796	4812
928.901	4702
929.007	4630
929.112	4615
929.218	4679
929.323	4588
929.428	4535
929.533	4656
929.638	4519
929.743	4527
929.848	4558
929.953	4462
930.058	4470
930.163	4337
930.267	4303
930.372	4451
930.477	4299
930.581	4466
930.685	4322
930.79	4257
930.894	4249
930.998	4249
931.103	4383
931.207	4105
931.311	4071
931.415	4010
931.519	3926
931.623	3918
