Data from glass_V78500241_1718.txt Node
Date: Wed Sep 01 19:26:24 CST 2021
User: usil
Spectrometer: V785-0024
Trigger mode: 0
Integration Time (sec): 4.000000E-1
Scans to average: 1
Nonlinearity correction enabled: false
Boxcar width: 0
Storing dark spectrum: false
XAxis mode: Wavelengths
Number of Pixels in Spectrum: 1024
>>>>>Begin Spectral Data<<<<<
801.071	3713
801.214	3755
801.356	3720
801.499	3713
801.641	3728
801.783	3766
801.926	3857
802.068	3819
802.211	3850
802.353	3903
802.496	3831
802.638	3892
802.78	3915
802.923	3918
803.065	3915
803.208	3846
803.35	3827
803.492	3854
803.635	3896
803.777	3823
803.919	3911
804.061	4177
804.204	3953
804.346	3907
804.488	3907
804.63	4071
804.773	3983
804.915	4006
805.057	4169
805.199	4032
805.341	4082
805.483	4185
805.626	4128
805.768	4116
805.91	4192
806.052	4215
806.194	4215
806.336	4310
806.478	4204
806.62	4154
806.762	4173
806.904	4211
807.046	4314
807.188	4246
807.33	4135
807.472	4234
807.614	4169
807.756	4265
807.898	4185
808.04	4242
808.182	4257
808.324	4272
808.465	4367
808.607	4440
808.749	4394
808.891	4474
809.033	4504
809.174	4443
809.316	4287
809.458	4276
809.6	4147
809.741	4150
809.883	4162
810.025	4219
810.166	4219
810.308	4196
810.45	4242
810.591	4207
810.733	4234
810.875	4531
811.016	4820
811.158	5094
811.299	5318
811.441	5265
811.582	5071
811.724	4656
811.865	4481
812.007	4451
812.148	4409
812.29	4447
812.431	4413
812.573	4413
812.714	4371
812.855	4394
812.997	4390
813.138	4443
813.279	4428
813.421	4352
813.562	4371
813.703	4329
813.845	4348
813.986	4276
814.127	4204
814.268	4215
814.41	4306
814.551	4215
814.692	4291
814.833	4272
814.974	4314
815.115	4352
815.256	4238
815.397	4211
815.539	4276
815.68	4223
815.821	4230
815.962	4291
816.103	4238
816.244	4238
816.385	4173
816.526	4276
816.666	4181
816.807	4051
816.948	4207
817.089	4185
817.23	4105
817.371	4093
817.512	4040
817.653	4071
817.793	4055
817.934	4017
818.075	4097
818.216	4086
818.356	4097
818.497	4002
818.638	3945
818.778	3930
818.919	3915
819.06	3880
819.2	3930
819.341	3930
819.481	3846
819.622	3884
819.762	4021
819.903	3960
820.043	3865
820.184	3835
820.324	3789
820.465	3880
820.605	3869
820.746	3857
820.886	3804
821.026	3953
821.167	3903
821.307	3926
821.447	4002
821.588	3964
821.728	3937
821.868	3983
822.008	3854
822.149	3896
822.289	3941
822.429	3816
822.569	3781
822.709	3793
822.849	3656
822.99	3698
823.13	3747
823.27	3827
823.41	3701
823.55	3732
823.69	3728
823.83	3717
823.97	3694
824.11	3591
824.25	3591
824.389	3603
824.529	3679
824.669	3656
824.809	3705
824.949	3793
825.089	3804
825.228	3709
825.368	3572
825.508	3564
825.648	3595
825.787	3618
825.927	3633
826.067	3591
826.206	3686
826.346	3789
826.485	3827
826.625	3857
826.765	3911
826.904	3808
827.044	3606
827.183	3526
827.323	3469
827.462	3481
827.601	3412
827.741	3420
827.88	3443
828.02	3416
828.159	3469
828.298	3462
828.437	3530
828.577	3523
828.716	3568
828.855	3500
828.994	3340
829.134	3351
829.273	3378
829.412	3336
829.551	3325
829.69	3374
829.829	3416
829.968	3557
830.107	3424
830.246	3466
830.385	3367
830.524	3310
830.663	3283
830.802	3253
830.941	3233
831.08	3218
831.219	3253
831.357	3260
831.496	3393
831.635	3233
831.774	3195
831.913	3233
832.051	3116
832.19	3180
832.329	3222
832.467	3116
832.606	3123
832.744	3188
832.883	3203
833.022	3169
833.16	3256
833.299	3264
833.437	3313
833.576	3329
833.714	3405
833.852	3431
833.991	3450
834.129	3469
834.267	3469
834.406	3428
834.544	3405
834.682	3374
834.821	3382
834.959	3564
835.097	3443
835.235	3507
835.373	3462
835.511	3496
835.65	3469
835.788	3469
835.926	3382
836.064	3374
836.202	3401
836.34	3591
836.478	3610
836.615	3526
836.753	3614
836.891	3641
837.029	3599
837.167	3610
837.305	3599
837.443	3584
837.58	3530
837.718	3610
837.856	3584
837.993	3538
838.131	3599
838.269	3580
838.406	3580
838.544	3561
838.681	3492
838.819	3420
838.956	3367
839.094	3412
839.231	3492
839.369	3576
839.506	3755
839.643	3603
839.781	3523
839.918	3466
840.055	3526
840.193	3530
840.33	3538
840.467	3576
840.604	3553
840.742	3766
840.879	3530
841.016	3557
841.153	3614
841.29	3797
841.427	3717
841.564	3755
841.701	3778
841.838	3755
841.975	3720
842.112	3690
842.249	3641
842.385	3595
842.522	3846
842.659	3644
842.796	3686
842.933	3686
843.069	3671
843.206	3667
843.343	3812
843.479	3812
843.616	3804
843.752	3682
843.889	3701
844.025	3861
844.162	3709
844.298	3838
844.435	3789
844.571	3793
844.708	3892
844.844	3991
844.98	4032
845.117	3994
845.253	4006
845.389	3911
845.525	3964
845.661	3956
845.798	3937
845.934	4021
846.07	3941
846.206	4055
846.342	4101
846.478	4074
846.614	3991
846.75	3918
846.886	3903
847.022	4010
847.158	3960
847.294	3991
847.429	3998
847.565	4032
847.701	4227
847.837	3857
847.972	3808
848.108	3949
848.244	3953
848.379	3880
848.515	3778
848.65	3804
848.786	3850
848.921	3846
849.057	3941
849.192	3949
849.328	3857
849.463	3896
849.598	3888
849.734	3854
849.869	3804
850.004	3789
850.14	3827
850.275	3793
850.41	3755
850.545	3728
850.68	3785
850.815	3778
850.95	3766
851.085	3903
851.22	3880
851.355	3827
851.49	3724
851.625	3808
851.76	3804
851.895	3759
852.03	3720
852.165	3800
852.299	3854
852.434	3888
852.569	3876
852.703	3892
852.838	3926
852.973	4013
853.107	3979
853.242	3876
853.376	3835
853.511	3812
853.645	3804
853.78	4002
853.914	3907
854.048	3934
854.183	3842
854.317	3964
854.451	4067
854.585	3983
854.72	3953
854.854	4040
854.988	3945
855.122	4025
855.256	3937
855.39	4002
855.524	4120
855.658	4093
855.792	4090
855.926	4173
856.06	4200
856.194	4169
856.327	4128
856.461	4082
856.595	4135
856.729	4181
856.862	4219
856.996	4291
857.13	4291
857.263	4375
857.397	4363
857.53	4295
857.664	4318
857.797	4383
857.931	4383
858.064	4402
858.197	4466
858.331	4356
858.464	4383
858.597	4386
858.731	4402
858.864	4493
858.997	4462
859.13	4523
859.263	4538
859.396	4611
859.529	4504
859.662	4538
859.795	4493
859.928	4569
860.061	4733
860.194	4725
860.327	4637
860.46	4634
860.592	4755
860.725	4771
860.858	4721
860.99	4714
861.123	4672
861.256	4687
861.388	4778
861.521	5341
861.653	4736
861.786	4725
861.918	4755
862.05	4816
862.183	4835
862.315	4870
862.447	4908
862.58	4881
862.712	4793
862.844	4767
862.976	4877
863.108	4866
863.24	5273
863.372	4812
863.504	4923
863.636	4873
863.768	4946
863.9	4957
864.032	4892
864.164	4946
864.296	5018
864.428	5094
864.559	5086
864.691	5113
864.823	5155
864.954	5109
865.086	5159
865.217	5136
865.349	5056
865.48	5162
865.612	5193
865.743	5299
865.875	5216
866.006	5159
866.137	5227
866.269	5185
866.4	5299
866.531	5235
866.662	5174
866.793	5258
866.924	5254
867.055	5360
867.186	5318
867.317	5307
867.448	5303
867.579	5398
867.71	5395
867.841	5433
867.972	5448
868.103	5467
868.233	5467
868.364	5467
868.495	5505
868.625	5627
868.756	5760
868.886	5680
869.017	5748
869.147	5904
869.278	5893
869.408	5855
869.539	5809
869.669	5904
869.799	5912
869.929	5988
870.06	5999
870.19	6235
870.32	6224
870.45	6228
870.58	6346
870.71	6464
870.84	6391
870.97	6384
871.1	6441
871.23	6597
871.36	6700
871.489	6574
871.619	6726
871.749	6825
871.879	6863
872.008	6943
872.138	6966
872.267	6989
872.397	7019
872.526	7012
872.656	7084
872.785	7244
872.915	7377
873.044	7506
873.173	7544
873.303	7613
873.432	7704
873.561	7841
873.69	7894
873.819	7989
873.948	8157
874.077	8259
874.206	8317
874.335	8427
874.464	8629
874.593	8811
874.722	8933
874.851	9138
874.979	9264
875.108	9329
875.237	9458
875.365	9424
875.494	9625
875.623	9770
875.751	9842
875.88	9975
876.008	10135
876.136	10246
876.265	10523
876.393	10660
876.521	10752
876.65	10782
876.778	10809
876.906	10927
877.034	11033
877.162	11071
877.29	11162
877.418	11311
877.546	11376
877.674	11376
877.802	11478
877.93	11455
878.058	11577
878.185	11528
878.313	11676
878.441	11733
878.568	11722
878.696	11866
878.824	11889
878.951	11999
879.079	12034
879.206	12114
879.333	12136
879.461	12030
879.588	12072
879.715	12053
879.842	12133
879.97	12003
880.097	11885
880.224	11851
880.351	11866
880.478	11828
880.605	11790
880.732	11840
880.859	12034
880.986	11813
881.112	11828
881.239	11649
881.366	11649
881.493	11581
881.619	11516
881.746	11581
881.872	11471
881.999	11524
882.125	11486
882.252	11573
882.378	11535
882.505	11516
882.631	11383
882.757	11334
882.883	11398
883.01	11292
883.136	11178
883.262	11113
883.388	11136
883.514	11216
883.64	11216
883.766	11227
883.892	11025
884.018	10930
884.143	11067
884.269	11094
884.395	10869
884.52	10793
884.646	10801
884.772	10706
884.897	10592
885.023	10698
885.148	10767
885.274	10831
885.399	10675
885.524	10546
885.65	10580
885.775	10596
885.9	10489
886.025	10656
886.15	10554
886.275	10462
886.4	10379
886.525	10398
886.65	10352
886.775	10303
886.9	10436
887.025	10546
887.149	10333
887.274	10200
887.399	10154
887.523	10196
887.648	10143
887.773	10143
887.897	10238
888.021	10223
888.146	10147
888.27	10227
888.395	10265
888.519	10158
888.643	10219
888.767	10147
888.891	10032
889.015	10093
889.139	10071
889.263	10006
889.387	10044
889.511	10074
889.635	10109
889.759	9960
889.883	10055
890.006	9972
890.13	10109
890.254	9941
890.377	9876
890.501	9895
890.624	9884
890.748	9880
890.871	9804
890.995	9732
891.118	9717
891.241	9774
891.364	9698
891.488	9808
891.611	9690
891.734	9770
891.857	9675
891.98	9682
892.103	9732
892.226	9709
892.349	9652
892.471	9530
892.594	9603
892.717	9542
892.839	9606
892.962	9652
893.085	9671
893.207	9534
893.33	9538
893.452	9549
893.575	9564
893.697	9553
893.819	9637
893.941	9603
894.064	9656
894.186	9431
894.308	9363
894.43	9530
894.552	9576
894.674	9526
894.796	9363
894.918	9405
895.04	9378
895.161	9435
895.283	9374
895.405	9241
895.526	9272
895.648	9249
895.769	9199
895.891	9245
896.012	9329
896.134	9184
896.255	9112
896.376	9123
896.498	9150
896.619	9119
896.74	9043
896.861	9104
896.982	9313
897.103	9294
897.224	9165
897.345	9070
897.466	9020
897.587	9001
897.708	9097
897.828	9028
897.949	8864
898.07	8887
898.19	8902
898.311	9028
898.431	8906
898.552	8925
898.672	8971
898.792	8948
898.913	8826
899.033	8785
899.153	8670
899.273	8655
899.393	8697
899.513	8777
899.633	8746
899.753	8777
899.873	8667
899.993	8670
900.113	8716
900.232	8746
900.352	8670
900.472	8629
900.591	8552
900.711	8522
900.83	8545
900.95	8697
901.069	8735
901.189	8575
901.308	8450
901.427	8484
901.546	8434
901.665	8488
901.784	8545
901.904	8431
902.023	8305
902.141	8294
902.26	8214
902.379	8233
902.498	8275
902.617	8225
902.735	8328
902.854	8290
902.973	8263
903.091	8103
903.21	8214
903.328	8187
903.446	8100
903.565	8172
903.683	8084
903.801	8069
903.919	8138
904.038	8088
904.156	8035
904.274	8020
904.392	8027
904.51	8046
904.627	8069
904.745	8016
904.863	8084
904.981	7871
905.098	7837
905.216	7849
905.334	7902
905.451	7871
905.569	7860
905.686	7932
905.803	7932
905.921	7746
906.038	7906
906.155	7784
906.272	7689
906.389	7693
906.506	7613
906.623	7651
906.74	7632
906.857	7559
906.974	7506
907.091	7632
907.208	7662
907.324	7662
907.441	7548
907.557	7476
907.674	7403
907.79	7373
907.907	7411
908.023	7445
908.139	7457
908.256	7430
908.372	7403
908.488	7377
908.604	7255
908.72	7194
908.836	7316
908.952	7217
909.068	7240
909.184	7297
909.3	7236
909.415	7209
909.531	7270
909.647	7133
909.762	7118
909.878	7069
909.993	7107
910.108	7091
910.224	7103
910.339	7088
910.454	7072
910.57	6993
910.685	6924
910.8	7149
910.915	7156
911.03	7023
911.145	6909
911.259	6837
911.374	6897
911.489	6848
911.604	6852
911.718	6719
911.833	6772
911.947	6654
912.062	6635
912.176	6681
912.291	6745
912.405	6665
912.519	6783
912.633	6795
912.748	6730
912.862	6726
912.976	6566
913.09	6540
913.204	6494
913.318	6547
913.431	6681
913.545	6681
913.659	6760
913.772	6654
913.886	6597
914	6597
914.113	6585
914.226	6589
914.34	6582
914.453	6479
914.566	6544
914.68	6456
914.793	6551
914.906	6384
915.019	6380
915.132	6388
915.245	6395
915.358	6441
915.47	6494
915.583	6433
915.696	6486
915.809	6551
915.921	6601
916.034	6403
916.146	6357
916.259	6384
916.371	6433
916.483	6513
916.595	6403
916.708	6426
916.82	6433
916.932	6361
917.044	6380
917.156	6357
917.268	6357
917.38	6311
917.491	6292
917.603	6285
917.715	6391
917.826	6376
917.938	6308
918.049	6243
918.161	6327
918.272	6414
918.384	6448
918.495	6346
918.606	6270
918.717	6186
918.828	6270
918.939	6247
919.05	6216
919.161	6228
919.272	6140
919.383	6152
919.494	6292
919.604	6395
919.715	6232
919.826	6232
919.936	6232
920.047	6357
920.157	6281
920.267	6448
920.378	6296
920.488	6247
920.598	6414
920.708	6582
920.818	6513
920.928	6494
921.038	6612
921.148	6627
921.258	6338
921.368	6311
921.477	6220
921.587	6140
921.697	6114
921.806	6129
921.916	6045
922.025	5935
922.134	5878
922.244	5923
922.353	5927
922.462	5813
922.571	5798
922.68	5707
922.789	5752
922.898	5680
923.007	5668
923.116	5726
923.224	5688
923.333	5623
923.442	5585
923.55	5558
923.659	5570
923.767	5585
923.876	5558
923.984	5600
924.092	5493
924.201	5509
924.309	5532
924.417	5516
924.525	5505
924.633	5478
924.741	6296
924.849	5414
924.956	5505
925.064	5337
925.172	5315
925.279	5299
925.387	5357
925.494	5235
925.602	5395
925.709	5330
925.816	5288
925.924	5357
926.031	5307
926.138	5322
926.245	5353
926.352	5201
926.459	5337
926.566	5322
926.673	5242
926.779	5166
926.886	5086
926.993	5018
927.099	4984
927.206	4968
927.312	4968
927.419	4946
927.525	4953
927.631	4976
927.737	4881
927.843	4839
927.95	4778
928.056	4809
928.162	4854
928.267	4828
928.373	5326
928.479	4839
928.585	4714
928.69	4774
928.796	4797
928.901	4729
929.007	4634
929.112	4683
929.218	4653
929.323	4546
929.428	4577
929.533	4634
929.638	4523
929.743	4535
929.848	4569
929.953	4519
930.058	4443
930.163	4337
930.267	4371
930.372	4436
930.477	4318
930.581	4474
930.685	4363
930.79	4238
930.894	4223
930.998	4246
931.103	4413
931.207	4135
931.311	4063
931.415	4036
931.519	3911
931.623	3945
