Data from glass_V78500241_1161.txt Node
Date: Wed Sep 01 19:22:32 CST 2021
User: usil
Spectrometer: V785-0024
Trigger mode: 0
Integration Time (sec): 4.000000E-1
Scans to average: 1
Nonlinearity correction enabled: false
Boxcar width: 0
Storing dark spectrum: false
XAxis mode: Wavelengths
Number of Pixels in Spectrum: 1024
>>>>>Begin Spectral Data<<<<<
801.071	3724
801.214	3785
801.356	3717
801.499	3724
801.641	3743
801.783	3778
801.926	3861
802.068	3819
802.211	3884
802.353	3823
802.496	3842
802.638	3915
802.78	3945
802.923	3956
803.065	3884
803.208	3835
803.35	3903
803.492	3926
803.635	3945
803.777	3850
803.919	3876
804.061	4177
804.204	3937
804.346	3979
804.488	3915
804.63	4025
804.773	3964
804.915	4040
805.057	4173
805.199	4090
805.341	4090
805.483	4150
805.626	4124
805.768	4128
805.91	4215
806.052	4280
806.194	4207
806.336	4371
806.478	4280
806.62	4181
806.762	4188
806.904	4246
807.046	4352
807.188	4188
807.33	4169
807.472	4227
807.614	4196
807.756	4238
807.898	4200
808.04	4253
808.182	4291
808.324	4337
808.465	4363
808.607	4436
808.749	4436
808.891	4455
809.033	4535
809.174	4436
809.316	4272
809.458	4257
809.6	4162
809.741	4147
809.883	4173
810.025	4238
810.166	4211
810.308	4242
810.45	4219
810.591	4230
810.733	4276
810.875	4523
811.016	4862
811.158	5109
811.299	5223
811.441	5265
811.582	5060
811.724	4687
811.865	4504
812.007	4474
812.148	4443
812.29	4440
812.431	4447
812.573	4436
812.714	4421
812.855	4405
812.997	4440
813.138	4523
813.279	4413
813.421	4428
813.562	4375
813.703	4383
813.845	4337
813.986	4276
814.127	4211
814.268	4318
814.41	4230
814.551	4306
814.692	4318
814.833	4253
814.974	4318
815.115	4348
815.256	4227
815.397	4219
815.539	4246
815.68	4196
815.821	4173
815.962	4367
816.103	4272
816.244	4246
816.385	4227
816.526	4299
816.666	4257
816.807	4067
816.948	4173
817.089	4204
817.23	4105
817.371	4082
817.512	4032
817.653	4063
817.793	4036
817.934	4025
818.075	4105
818.216	4112
818.356	4128
818.497	3968
818.638	3892
818.778	3907
818.919	3911
819.06	3892
819.2	3930
819.341	3880
819.481	3850
819.622	3903
819.762	4086
819.903	3972
820.043	3922
820.184	3816
820.324	3865
820.465	3930
820.605	3892
820.746	3876
820.886	3816
821.026	3953
821.167	3956
821.307	4002
821.447	3956
821.588	3956
821.728	3987
821.868	3968
822.008	3892
822.149	3911
822.289	3994
822.429	3819
822.569	3732
822.709	3797
822.849	3709
822.99	3751
823.13	3762
823.27	3755
823.41	3705
823.55	3759
823.69	3705
823.83	3800
823.97	3679
824.11	3572
824.25	3625
824.389	3637
824.529	3690
824.669	3652
824.809	3709
824.949	3766
825.089	3736
825.228	3728
825.368	3595
825.508	3534
825.648	3538
825.787	3591
825.927	3641
826.067	3614
826.206	3682
826.346	3812
826.485	3861
826.625	3876
826.765	3937
826.904	3884
827.044	3637
827.183	3568
827.323	3450
827.462	3500
827.601	3458
827.741	3401
827.88	3443
828.02	3397
828.159	3454
828.298	3496
828.437	3511
828.577	3496
828.716	3652
828.855	3504
828.994	3378
829.134	3363
829.273	3416
829.412	3374
829.551	3332
829.69	3382
829.829	3447
829.968	3504
830.107	3401
830.246	3439
830.385	3386
830.524	3340
830.663	3321
830.802	3230
830.941	3218
831.08	3195
831.219	3275
831.357	3268
831.496	3412
831.635	3253
831.774	3180
831.913	3199
832.051	3142
832.19	3112
832.329	3192
832.467	3173
832.606	3085
832.744	3180
832.883	3192
833.022	3184
833.16	3329
833.299	3329
833.437	3359
833.576	3386
833.714	3481
833.852	3389
833.991	3424
834.129	3519
834.267	3412
834.406	3416
834.544	3420
834.682	3420
834.821	3420
834.959	3603
835.097	3409
835.235	3492
835.373	3469
835.511	3561
835.65	3500
835.788	3477
835.926	3378
836.064	3359
836.202	3409
836.34	3595
836.478	3580
836.615	3568
836.753	3629
836.891	3667
837.029	3595
837.167	3618
837.305	3564
837.443	3557
837.58	3496
837.718	3584
837.856	3557
837.993	3538
838.131	3564
838.269	3580
838.406	3595
838.544	3587
838.681	3454
838.819	3466
838.956	3401
839.094	3393
839.231	3469
839.369	3534
839.506	3755
839.643	3622
839.781	3492
839.918	3412
840.055	3534
840.193	3496
840.33	3561
840.467	3572
840.604	3580
840.742	3835
840.879	3561
841.016	3553
841.153	3595
841.29	3762
841.427	3732
841.564	3724
841.701	3759
841.838	3705
841.975	3705
842.112	3724
842.249	3637
842.385	3667
842.522	3789
842.659	3701
842.796	3644
842.933	3713
843.069	3709
843.206	3743
843.343	3838
843.479	3770
843.616	3865
843.752	3648
843.889	3705
844.025	3846
844.162	3766
844.298	3861
844.435	3797
844.571	3808
844.708	3934
844.844	3983
844.98	4021
845.117	3998
845.253	3869
845.389	3926
845.525	3983
845.661	3956
845.798	3930
845.934	4013
846.07	3937
846.206	4093
846.342	4112
846.478	4051
846.614	3983
846.75	3953
846.886	3930
847.022	4032
847.158	4021
847.294	4017
847.429	4006
847.565	4006
847.701	4257
847.837	3911
847.972	3876
848.108	4021
848.244	3915
848.379	3823
848.515	3823
848.65	3812
848.786	3854
848.921	3869
849.057	3949
849.192	3949
849.328	3964
849.463	3953
849.598	3842
849.734	3911
849.869	3869
850.004	3789
850.14	3842
850.275	3797
850.41	3770
850.545	3762
850.68	3778
850.815	3808
850.95	3789
851.085	3987
851.22	3861
851.355	3842
851.49	3835
851.625	3838
851.76	3762
851.895	3759
852.03	3770
852.165	3789
852.299	3838
852.434	3888
852.569	3918
852.703	3842
852.838	3956
852.973	4036
853.107	4010
853.242	3880
853.376	3876
853.511	3759
853.645	3846
853.78	3987
853.914	3934
854.048	3922
854.183	3915
854.317	3911
854.451	4124
854.585	3945
854.72	3972
854.854	4067
854.988	3941
855.122	3994
855.256	3934
855.39	4074
855.524	4112
855.658	4090
855.792	4090
855.926	4109
856.06	4192
856.194	4249
856.327	4173
856.461	4116
856.595	4124
856.729	4188
856.862	4306
856.996	4242
857.13	4295
857.263	4348
857.397	4386
857.53	4291
857.664	4371
857.797	4424
857.931	4481
858.064	4394
858.197	4409
858.331	4379
858.464	4462
858.597	4394
858.731	4516
858.864	4462
858.997	4466
859.13	4508
859.263	4546
859.396	4573
859.529	4504
859.662	4550
859.795	4516
859.928	4637
860.061	4729
860.194	4767
860.327	4691
860.46	4694
860.592	4733
860.725	4725
860.858	4793
860.99	4755
861.123	4668
861.256	4683
861.388	4763
861.521	5357
861.653	4702
861.786	4717
861.918	4733
862.05	4782
862.183	4820
862.315	4881
862.447	4915
862.58	4885
862.712	4809
862.844	4771
862.976	4915
863.108	4915
863.24	5185
863.372	4854
863.504	4911
863.636	4919
863.768	4953
863.9	4930
864.032	4930
864.164	4984
864.296	5045
864.428	5102
864.559	5083
864.691	5128
864.823	5109
864.954	5124
865.086	5197
865.217	5159
865.349	5155
865.48	5170
865.612	5216
865.743	5376
865.875	5185
866.006	5189
866.137	5246
866.269	5265
866.4	5254
866.531	5258
866.662	5265
866.793	5277
866.924	5258
867.055	5364
867.186	5368
867.317	5326
867.448	5311
867.579	5326
867.71	5330
867.841	5383
867.972	5452
868.103	5478
868.233	5482
868.364	5520
868.495	5554
868.625	5710
868.756	5760
868.886	5691
869.017	5729
869.147	5878
869.278	5851
869.408	5878
869.539	5889
869.669	5931
869.799	5935
869.929	6030
870.06	6003
870.19	6247
870.32	6300
870.45	6292
870.58	6369
870.71	6418
870.84	6399
870.97	6384
871.1	6418
871.23	6684
871.36	6768
871.489	6665
871.619	6772
871.749	6837
871.879	6852
872.008	6943
872.138	7000
872.267	7057
872.397	6993
872.526	7126
872.656	7175
872.785	7221
872.915	7400
873.044	7586
873.173	7575
873.303	7620
873.432	7814
873.561	7906
873.69	7955
873.819	8043
873.948	8187
874.077	8279
874.206	8362
874.335	8461
874.464	8682
874.593	8864
874.722	8880
874.851	9176
874.979	9321
875.108	9374
875.237	9412
875.365	9568
875.494	9656
875.623	9861
875.751	9842
875.88	10040
876.008	10177
876.136	10329
876.265	10508
876.393	10755
876.521	10771
876.65	10873
876.778	10919
876.906	10908
877.034	10976
877.162	11121
877.29	11204
877.418	11299
877.546	11391
877.674	11436
877.802	11474
877.93	11509
878.058	11528
878.185	11573
878.313	11676
878.441	11764
878.568	11684
878.696	11775
878.824	11847
878.951	12091
879.079	12064
879.206	12140
879.333	12121
879.461	11996
879.588	12068
879.715	12110
879.842	12205
879.97	12068
880.097	11897
880.224	11927
880.351	11927
880.478	11939
880.605	11927
880.732	11885
880.859	12026
880.986	11843
881.112	11885
881.239	11619
881.366	11668
881.493	11649
881.619	11551
881.746	11619
881.872	11577
881.999	11478
882.125	11482
882.252	11558
882.378	11482
882.505	11547
882.631	11368
882.757	11322
882.883	11387
883.01	11273
883.136	11242
883.262	11140
883.388	11094
883.514	11265
883.64	11143
883.766	11098
883.892	11025
884.018	11041
884.143	11056
884.269	11121
884.395	10847
884.52	10801
884.646	10797
884.772	10717
884.897	10653
885.023	10733
885.148	10729
885.274	10687
885.399	10717
885.524	10649
885.65	10641
885.775	10630
885.9	10561
886.025	10634
886.15	10531
886.275	10493
886.4	10440
886.525	10428
886.65	10443
886.775	10344
886.9	10455
887.025	10459
887.149	10318
887.274	10268
887.399	10124
887.523	10223
887.648	10215
887.773	10181
887.897	10253
888.021	10276
888.146	10131
888.27	10261
888.395	10204
888.519	10223
888.643	10204
888.767	10188
888.891	10078
889.015	10097
889.139	10048
889.263	9918
889.387	10063
889.511	10143
889.635	10025
889.759	9991
889.883	9972
890.006	9907
890.13	10059
890.254	9979
890.377	9926
890.501	9854
890.624	9823
890.748	9956
890.871	9835
890.995	9774
891.118	9781
891.241	9740
891.364	9717
891.488	9846
891.611	9793
891.734	9823
891.857	9838
891.98	9785
892.103	9823
892.226	9713
892.349	9663
892.471	9504
892.594	9679
892.717	9614
892.839	9599
892.962	9637
893.085	9679
893.207	9545
893.33	9526
893.452	9530
893.575	9538
893.697	9454
893.819	9648
893.941	9686
894.064	9584
894.186	9401
894.308	9439
894.43	9492
894.552	9587
894.674	9492
894.796	9351
894.918	9443
895.04	9382
895.161	9424
895.283	9370
895.405	9253
895.526	9325
895.648	9207
895.769	9283
895.891	9279
896.012	9291
896.134	9207
896.255	9195
896.376	9165
896.498	9199
896.619	9116
896.74	9097
896.861	9127
896.982	9249
897.103	9374
897.224	9218
897.345	9093
897.466	9047
897.587	8990
897.708	9127
897.828	9036
897.949	8941
898.07	8872
898.19	8895
898.311	9047
898.431	8933
898.552	8910
898.672	9047
898.792	8982
898.913	8902
899.033	8830
899.153	8777
899.273	8712
899.393	8739
899.513	8731
899.633	8724
899.753	8819
899.873	8724
899.993	8766
900.113	8724
900.232	8750
900.352	8651
900.472	8670
900.591	8598
900.711	8583
900.83	8583
900.95	8701
901.069	8735
901.189	8594
901.308	8415
901.427	8469
901.546	8549
901.665	8457
901.784	8492
901.904	8412
902.023	8309
902.141	8294
902.26	8259
902.379	8290
902.498	8248
902.617	8218
902.735	8282
902.854	8313
902.973	8279
903.091	8145
903.21	8172
903.328	8130
903.446	8123
903.565	8054
903.683	8073
903.801	7989
903.919	8126
904.038	8126
904.156	8084
904.274	8058
904.392	8027
904.51	7963
904.627	8084
904.745	8126
904.863	8096
904.981	7974
905.098	7978
905.216	7925
905.334	7925
905.451	7887
905.569	7970
905.686	7978
905.803	7902
905.921	7780
906.038	7871
906.155	7761
906.272	7700
906.389	7666
906.506	7700
906.623	7636
906.74	7639
906.857	7491
906.974	7559
907.091	7662
907.208	7750
907.324	7586
907.441	7559
907.557	7525
907.674	7525
907.79	7445
907.907	7422
908.023	7438
908.139	7400
908.256	7426
908.372	7407
908.488	7392
908.604	7240
908.72	7225
908.836	7285
908.952	7259
909.068	7293
909.184	7327
909.3	7301
909.415	7335
909.531	7285
909.647	7103
909.762	7118
909.878	7065
909.993	7107
910.108	7122
910.224	7084
910.339	7110
910.454	7042
910.57	6977
910.685	6958
910.8	7141
910.915	7175
911.03	7031
911.145	6916
911.259	6901
911.374	6848
911.489	6867
911.604	6814
911.718	6749
911.833	6779
911.947	6707
912.062	6627
912.176	6692
912.291	6684
912.405	6768
912.519	6856
912.633	6882
912.748	6783
912.862	6764
912.976	6616
913.09	6513
913.204	6612
913.318	6658
913.431	6658
913.545	6711
913.659	6730
913.772	6681
913.886	6566
914	6540
914.113	6570
914.226	6601
914.34	6612
914.453	6475
914.566	6589
914.68	6540
914.793	6547
914.906	6410
915.019	6388
915.132	6407
915.245	6399
915.358	6486
915.47	6475
915.583	6525
915.696	6528
915.809	6574
915.921	6589
916.034	6456
916.146	6437
916.259	6369
916.371	6547
916.483	6494
916.595	6376
916.708	6445
916.82	6376
916.932	6391
917.044	6376
917.156	6429
917.268	6338
917.38	6319
917.491	6292
917.603	6388
917.715	6422
917.826	6395
917.938	6308
918.049	6292
918.161	6414
918.272	6452
918.384	6460
918.495	6350
918.606	6285
918.717	6216
918.828	6331
918.939	6285
919.05	6148
919.161	6205
919.272	6114
919.383	6140
919.494	6311
919.604	6414
919.715	6281
919.826	6270
919.936	6311
920.047	6346
920.157	6258
920.267	6437
920.378	6296
920.488	6285
920.598	6437
920.708	6566
920.818	6536
920.928	6486
921.038	6662
921.148	6604
921.258	6350
921.368	6334
921.477	6186
921.587	6194
921.697	6079
921.806	6171
921.916	6079
922.025	5999
922.134	5961
922.244	5882
922.353	5931
922.462	5809
922.571	5783
922.68	5726
922.789	5680
922.898	5695
923.007	5649
923.116	5722
923.224	5703
923.333	5688
923.442	5585
923.55	5619
923.659	5566
923.767	5668
923.876	5570
923.984	5596
924.092	5505
924.201	5493
924.309	5535
924.417	5573
924.525	5436
924.633	5524
924.741	6304
924.849	5395
924.956	5493
925.064	5402
925.172	5307
925.279	5349
925.387	5349
925.494	5315
925.602	5414
925.709	5406
925.816	5296
925.924	5326
926.031	5376
926.138	5372
926.245	5322
926.352	5261
926.459	5307
926.566	5349
926.673	5220
926.779	5136
926.886	5166
926.993	5041
927.099	5037
927.206	5010
927.312	4991
927.419	5014
927.525	4953
927.631	5018
927.737	4877
927.843	4885
927.95	4805
928.056	4870
928.162	4839
928.267	4873
928.373	5315
928.479	4812
928.585	4683
928.69	4755
928.796	4824
928.901	4653
929.007	4588
929.112	4706
929.218	4634
929.323	4588
929.428	4580
929.533	4691
929.638	4512
929.743	4577
929.848	4531
929.953	4500
930.058	4489
930.163	4310
930.267	4325
930.372	4428
930.477	4337
930.581	4485
930.685	4360
930.79	4287
930.894	4268
930.998	4249
931.103	4371
931.207	4116
931.311	4101
931.415	4029
931.519	3937
931.623	3930
