Data from glass_V78500241_2625.txt Node
Date: Wed Sep 01 19:32:41 CST 2021
User: usil
Spectrometer: V785-0024
Trigger mode: 0
Integration Time (sec): 4.000000E-1
Scans to average: 1
Nonlinearity correction enabled: false
Boxcar width: 0
Storing dark spectrum: false
XAxis mode: Wavelengths
Number of Pixels in Spectrum: 1024
>>>>>Begin Spectral Data<<<<<
801.071	3759
801.214	3755
801.356	3686
801.499	3740
801.641	3705
801.783	3762
801.926	3793
802.068	3854
802.211	3876
802.353	3876
802.496	3850
802.638	3846
802.78	3869
802.923	3903
803.065	3888
803.208	3823
803.35	3850
803.492	3918
803.635	3896
803.777	3831
803.919	3884
804.061	4135
804.204	3949
804.346	3949
804.488	3880
804.63	4013
804.773	3945
804.915	4013
805.057	4139
805.199	4093
805.341	4105
805.483	4120
805.626	4116
805.768	4078
805.91	4200
806.052	4219
806.194	4200
806.336	4367
806.478	4177
806.62	4200
806.762	4223
806.904	4242
807.046	4295
807.188	4204
807.33	4188
807.472	4200
807.614	4200
807.756	4261
807.898	4215
808.04	4185
808.182	4280
808.324	4352
808.465	4367
808.607	4443
808.749	4390
808.891	4489
809.033	4516
809.174	4440
809.316	4253
809.458	4246
809.6	4143
809.741	4120
809.883	4105
810.025	4181
810.166	4166
810.308	4219
810.45	4207
810.591	4204
810.733	4280
810.875	4485
811.016	4828
811.158	5094
811.299	5231
811.441	5284
811.582	5048
811.724	4679
811.865	4428
812.007	4478
812.148	4421
812.29	4360
812.431	4375
812.573	4360
812.714	4363
812.855	4421
812.997	4424
813.138	4481
813.279	4424
813.421	4337
813.562	4371
813.703	4314
813.845	4356
813.986	4253
814.127	4249
814.268	4261
814.41	4299
814.551	4242
814.692	4299
814.833	4246
814.974	4257
815.115	4344
815.256	4234
815.397	4185
815.539	4265
815.68	4188
815.821	4200
815.962	4257
816.103	4246
816.244	4211
816.385	4192
816.526	4234
816.666	4211
816.807	4082
816.948	4169
817.089	4162
817.23	4090
817.371	4025
817.512	4059
817.653	4067
817.793	4048
817.934	3998
818.075	4082
818.216	4025
818.356	4101
818.497	3975
818.638	3880
818.778	3934
818.919	3876
819.06	3880
819.2	3869
819.341	3884
819.481	3816
819.622	3896
819.762	4017
819.903	3922
820.043	3850
820.184	3823
820.324	3819
820.465	3896
820.605	3846
820.746	3842
820.886	3808
821.026	3915
821.167	3915
821.307	3968
821.447	3987
821.588	3926
821.728	3941
821.868	3884
822.008	3884
822.149	3899
822.289	3918
822.429	3778
822.569	3747
822.709	3755
822.849	3648
822.99	3686
823.13	3762
823.27	3770
823.41	3698
823.55	3694
823.69	3694
823.83	3724
823.97	3648
824.11	3637
824.25	3584
824.389	3599
824.529	3713
824.669	3614
824.809	3686
824.949	3694
825.089	3698
825.228	3713
825.368	3603
825.508	3549
825.648	3561
825.787	3595
825.927	3622
826.067	3629
826.206	3652
826.346	3804
826.485	3789
826.625	3842
826.765	3972
826.904	3819
827.044	3603
827.183	3511
827.323	3439
827.462	3504
827.601	3477
827.741	3424
827.88	3439
828.02	3363
828.159	3397
828.298	3466
828.437	3523
828.577	3454
828.716	3553
828.855	3515
828.994	3363
829.134	3374
829.273	3355
829.412	3329
829.551	3348
829.69	3363
829.829	3378
829.968	3534
830.107	3416
830.246	3424
830.385	3389
830.524	3332
830.663	3321
830.802	3226
830.941	3195
831.08	3195
831.219	3233
831.357	3275
831.496	3409
831.635	3230
831.774	3142
831.913	3192
832.051	3131
832.19	3146
832.329	3192
832.467	3157
832.606	3097
832.744	3169
832.883	3184
833.022	3154
833.16	3256
833.299	3317
833.437	3332
833.576	3344
833.714	3397
833.852	3397
833.991	3428
834.129	3473
834.267	3428
834.406	3378
834.544	3401
834.682	3447
834.821	3397
834.959	3553
835.097	3443
835.235	3496
835.373	3504
835.511	3477
835.65	3477
835.788	3492
835.926	3329
836.064	3386
836.202	3397
836.34	3568
836.478	3595
836.615	3542
836.753	3568
836.891	3667
837.029	3622
837.167	3557
837.305	3526
837.443	3534
837.58	3481
837.718	3622
837.856	3545
837.993	3496
838.131	3576
838.269	3576
838.406	3542
838.544	3538
838.681	3405
838.819	3397
838.956	3367
839.094	3393
839.231	3447
839.369	3492
839.506	3728
839.643	3610
839.781	3424
839.918	3462
840.055	3507
840.193	3523
840.33	3511
840.467	3545
840.604	3561
840.742	3793
840.879	3530
841.016	3515
841.153	3606
841.29	3732
841.427	3717
841.564	3679
841.701	3720
841.838	3667
841.975	3679
842.112	3694
842.249	3625
842.385	3610
842.522	3797
842.659	3766
842.796	3667
842.933	3705
843.069	3633
843.206	3701
843.343	3774
843.479	3732
843.616	3793
843.752	3625
843.889	3675
844.025	3846
844.162	3713
844.298	3823
844.435	3755
844.571	3819
844.708	3880
844.844	4002
844.98	4029
845.117	4017
845.253	3968
845.389	3899
845.525	3960
845.661	3953
845.798	3892
845.934	3987
846.07	3930
846.206	3979
846.342	4105
846.478	4040
846.614	3975
846.75	3918
846.886	3850
847.022	4044
847.158	3934
847.294	3987
847.429	3979
847.565	3987
847.701	4200
847.837	3869
847.972	3857
848.108	3979
848.244	3926
848.379	3865
848.515	3778
848.65	3816
848.786	3819
848.921	3865
849.057	3907
849.192	3911
849.328	3884
849.463	3918
849.598	3892
849.734	3842
849.869	3869
850.004	3774
850.14	3789
850.275	3842
850.41	3686
850.545	3755
850.68	3736
850.815	3804
850.95	3789
851.085	3930
851.22	3896
851.355	3827
851.49	3804
851.625	3789
851.76	3797
851.895	3743
852.03	3701
852.165	3797
852.299	3819
852.434	3857
852.569	3831
852.703	3850
852.838	3915
852.973	4021
853.107	3930
853.242	3861
853.376	3846
853.511	3724
853.645	3873
853.78	3975
853.914	3880
854.048	3888
854.183	3892
854.317	3956
854.451	4032
854.585	3945
854.72	3922
854.854	4032
854.988	3926
855.122	3968
855.256	3899
855.39	3964
855.524	4097
855.658	4055
855.792	4112
855.926	4154
856.06	4158
856.194	4204
856.327	4143
856.461	4044
856.595	4143
856.729	4166
856.862	4265
856.996	4223
857.13	4261
857.263	4371
857.397	4322
857.53	4268
857.664	4341
857.797	4398
857.931	4417
858.064	4341
858.197	4428
858.331	4375
858.464	4379
858.597	4341
858.731	4436
858.864	4413
858.997	4455
859.13	4519
859.263	4558
859.396	4554
859.529	4508
859.662	4504
859.795	4508
859.928	4527
860.061	4675
860.194	4752
860.327	4664
860.46	4596
860.592	4653
860.725	4782
860.858	4782
860.99	4645
861.123	4698
861.256	4668
861.388	4736
861.521	5284
861.653	4702
861.786	4702
861.918	4744
862.05	4786
862.183	4786
862.315	4911
862.447	4870
862.58	4896
862.712	4809
862.844	4816
862.976	4839
863.108	4881
863.24	5269
863.372	4801
863.504	4877
863.636	4866
863.768	4968
863.9	4965
864.032	4896
864.164	4953
864.296	5014
864.428	5098
864.559	5113
864.691	5109
864.823	5155
864.954	5033
865.086	5151
865.217	5166
865.349	5079
865.48	5090
865.612	5155
865.743	5269
865.875	5132
866.006	5143
866.137	5239
866.269	5197
866.4	5277
866.531	5231
866.662	5208
866.793	5269
866.924	5265
867.055	5330
867.186	5357
867.317	5311
867.448	5299
867.579	5345
867.71	5376
867.841	5364
867.972	5463
868.103	5414
868.233	5497
868.364	5528
868.495	5509
868.625	5627
868.756	5779
868.886	5657
869.017	5714
869.147	5844
869.278	5828
869.408	5802
869.539	5779
869.669	5931
869.799	5901
869.929	5984
870.06	6015
870.19	6144
870.32	6213
870.45	6228
870.58	6338
870.71	6407
870.84	6410
870.97	6399
871.1	6391
871.23	6608
871.36	6658
871.489	6616
871.619	6768
871.749	6795
871.879	6871
872.008	6985
872.138	6932
872.267	7000
872.397	6909
872.526	7008
872.656	7046
872.785	7152
872.915	7369
873.044	7521
873.173	7544
873.303	7609
873.432	7769
873.561	7780
873.69	7906
873.819	8020
873.948	8172
874.077	8244
874.206	8343
874.335	8492
874.464	8579
874.593	8838
874.722	8914
874.851	9176
874.979	9241
875.108	9355
875.237	9477
875.365	9428
875.494	9580
875.623	9918
875.751	9808
875.88	10025
876.008	10147
876.136	10280
876.265	10535
876.393	10694
876.521	10729
876.65	10801
876.778	10881
876.906	10938
877.034	10961
877.162	11083
877.29	11178
877.418	11269
877.546	11364
877.674	11395
877.802	11425
877.93	11543
878.058	11486
878.185	11520
878.313	11649
878.441	11733
878.568	11676
878.696	11912
878.824	11863
878.951	11961
879.079	12022
879.206	12057
879.333	12064
879.461	12072
879.588	12144
879.715	12064
879.842	12216
879.97	12038
880.097	11882
880.224	11870
880.351	11874
880.478	11889
880.605	11904
880.732	11843
880.859	12049
880.986	11764
881.112	11923
881.239	11779
881.366	11688
881.493	11581
881.619	11478
881.746	11596
881.872	11562
881.999	11520
882.125	11547
882.252	11562
882.378	11509
882.505	11505
882.631	11372
882.757	11315
882.883	11345
883.01	11303
883.136	11189
883.262	11056
883.388	11037
883.514	11254
883.64	11212
883.766	11155
883.892	11010
884.018	10980
884.143	11048
884.269	11109
884.395	10824
884.52	10725
884.646	10763
884.772	10733
884.897	10702
885.023	10634
885.148	10729
885.274	10744
885.399	10626
885.524	10592
885.65	10592
885.775	10561
885.9	10542
886.025	10603
886.15	10569
886.275	10478
886.4	10386
886.525	10417
886.65	10306
886.775	10360
886.9	10500
887.025	10500
887.149	10310
887.274	10280
887.399	10192
887.523	10120
887.648	10177
887.773	10051
887.897	10230
888.021	10230
888.146	10086
888.27	10234
888.395	10177
888.519	10150
888.643	10120
888.767	10139
888.891	10124
889.015	10006
889.139	10040
889.263	10025
889.387	10090
889.511	10078
889.635	10025
889.759	9873
889.883	9964
890.006	9987
890.13	10097
890.254	9964
890.377	10010
890.501	9945
890.624	9835
890.748	9941
890.871	9732
890.995	9766
891.118	9686
891.241	9724
891.364	9720
891.488	9785
891.611	9781
891.734	9770
891.857	9770
891.98	9679
892.103	9747
892.226	9732
892.349	9580
892.471	9507
892.594	9618
892.717	9606
892.839	9519
892.962	9542
893.085	9686
893.207	9568
893.33	9485
893.452	9526
893.575	9614
893.697	9561
893.819	9599
893.941	9610
894.064	9629
894.186	9473
894.308	9443
894.43	9545
894.552	9542
894.674	9507
894.796	9405
894.918	9439
895.04	9325
895.161	9325
895.283	9367
895.405	9230
895.526	9203
895.648	9230
895.769	9279
895.891	9195
896.012	9317
896.134	9230
896.255	9165
896.376	9150
896.498	9112
896.619	9176
896.74	9039
896.861	9108
896.982	9264
897.103	9321
897.224	9169
897.345	9013
897.466	9066
897.587	8971
897.708	9119
897.828	9070
897.949	8944
898.07	8819
898.19	8929
898.311	8982
898.431	8868
898.552	8914
898.672	8967
898.792	8887
898.913	8948
899.033	8785
899.153	8792
899.273	8648
899.393	8705
899.513	8777
899.633	8701
899.753	8705
899.873	8689
899.993	8750
900.113	8705
900.232	8644
900.352	8651
900.472	8602
900.591	8545
900.711	8613
900.83	8492
900.95	8636
901.069	8610
901.189	8579
901.308	8377
901.427	8317
901.546	8347
901.665	8450
901.784	8503
901.904	8328
902.023	8339
902.141	8221
902.26	8206
902.379	8259
902.498	8195
902.617	8210
902.735	8256
902.854	8324
902.973	8248
903.091	8096
903.21	8126
903.328	8206
903.446	8149
903.565	8088
903.683	8058
903.801	8077
903.919	8077
904.038	8138
904.156	7970
904.274	8123
904.392	8024
904.51	8024
904.627	8020
904.745	8077
904.863	8092
904.981	7906
905.098	7860
905.216	7868
905.334	7917
905.451	7913
905.569	7875
905.686	7887
905.803	7913
905.921	7784
906.038	7860
906.155	7772
906.272	7750
906.389	7765
906.506	7685
906.623	7643
906.74	7670
906.857	7552
906.974	7613
907.091	7567
907.208	7689
907.324	7563
907.441	7563
907.557	7464
907.674	7464
907.79	7373
907.907	7502
908.023	7445
908.139	7487
908.256	7346
908.372	7293
908.488	7324
908.604	7255
908.72	7187
908.836	7251
908.952	7206
909.068	7232
909.184	7320
909.3	7270
909.415	7316
909.531	7335
909.647	7149
909.762	7095
909.878	7095
909.993	7069
910.108	7084
910.224	7080
910.339	7099
910.454	6996
910.57	6954
910.685	6966
910.8	7149
910.915	7004
911.03	6970
911.145	6951
911.259	6829
911.374	6856
911.489	6825
911.604	6833
911.718	6669
911.833	6722
911.947	6585
912.062	6578
912.176	6639
912.291	6741
912.405	6684
912.519	6886
912.633	6837
912.748	6696
912.862	6669
912.976	6616
913.09	6509
913.204	6582
913.318	6555
913.431	6730
913.545	6646
913.659	6802
913.772	6635
913.886	6582
914	6544
914.113	6604
914.226	6582
914.34	6574
914.453	6479
914.566	6597
914.68	6544
914.793	6460
914.906	6395
915.019	6350
915.132	6369
915.245	6391
915.358	6460
915.47	6464
915.583	6467
915.696	6456
915.809	6486
915.921	6517
916.034	6391
916.146	6388
916.259	6395
916.371	6437
916.483	6441
916.595	6300
916.708	6399
916.82	6399
916.932	6395
917.044	6414
917.156	6350
917.268	6304
917.38	6357
917.491	6327
917.603	6292
917.715	6414
917.826	6410
917.938	6338
918.049	6194
918.161	6289
918.272	6403
918.384	6464
918.495	6273
918.606	6232
918.717	6163
918.828	6220
918.939	6220
919.05	6163
919.161	6266
919.272	6060
919.383	6114
919.494	6300
919.604	6369
919.715	6308
919.826	6258
919.936	6304
920.047	6331
920.157	6251
920.267	6433
920.378	6327
920.488	6292
920.598	6479
920.708	6566
920.818	6479
920.928	6365
921.038	6631
921.148	6597
921.258	6399
921.368	6319
921.477	6228
921.587	6106
921.697	6136
921.806	6167
921.916	6098
922.025	5908
922.134	5866
922.244	5824
922.353	5931
922.462	5851
922.571	5794
922.68	5718
922.789	5676
922.898	5695
923.007	5627
923.116	5714
923.224	5722
923.333	5627
923.442	5547
923.55	5570
923.659	5592
923.767	5554
923.876	5573
923.984	5547
924.092	5505
924.201	5554
924.309	5501
924.417	5516
924.525	5459
924.633	5490
924.741	6251
924.849	5391
924.956	5524
925.064	5376
925.172	5284
925.279	5265
925.387	5330
925.494	5284
925.602	5421
925.709	5383
925.816	5223
925.924	5288
926.031	5387
926.138	5315
926.245	5334
926.352	5189
926.459	5284
926.566	5254
926.673	5170
926.779	5151
926.886	5109
926.993	5003
927.099	4995
927.206	4984
927.312	4938
927.419	4976
927.525	4904
927.631	4972
927.737	4934
927.843	4881
927.95	4763
928.056	4812
928.162	4847
928.267	4847
928.373	5315
928.479	4816
928.585	4717
928.69	4744
928.796	4763
928.901	4702
929.007	4596
929.112	4691
929.218	4649
929.323	4592
929.428	4516
929.533	4641
929.638	4550
929.743	4519
929.848	4516
929.953	4489
930.058	4459
930.163	4318
930.267	4360
930.372	4428
930.477	4249
930.581	4428
930.685	4360
930.79	4211
930.894	4265
930.998	4223
931.103	4333
931.207	4097
931.311	4059
931.415	4025
931.519	3934
931.623	3930
