Data from glass_V78500241_873.txt Node
Date: Wed Sep 01 19:20:33 CST 2021
User: usil
Spectrometer: V785-0024
Trigger mode: 0
Integration Time (sec): 4.000000E-1
Scans to average: 1
Nonlinearity correction enabled: false
Boxcar width: 0
Storing dark spectrum: false
XAxis mode: Wavelengths
Number of Pixels in Spectrum: 1024
>>>>>Begin Spectral Data<<<<<
801.071	3747
801.214	3800
801.356	3728
801.499	3778
801.641	3728
801.783	3793
801.926	3846
802.068	3804
802.211	3819
802.353	3869
802.496	3823
802.638	3869
802.78	3880
802.923	3937
803.065	3960
803.208	3899
803.35	3896
803.492	3926
803.635	3918
803.777	3850
803.919	3896
804.061	4147
804.204	3998
804.346	3945
804.488	3896
804.63	4105
804.773	3983
804.915	4040
805.057	4177
805.199	4029
805.341	4086
805.483	4147
805.626	4166
805.768	4128
805.91	4215
806.052	4211
806.194	4188
806.336	4352
806.478	4227
806.62	4166
806.762	4219
806.904	4265
807.046	4371
807.188	4219
807.33	4211
807.472	4230
807.614	4234
807.756	4268
807.898	4234
808.04	4196
808.182	4295
808.324	4318
808.465	4417
808.607	4519
808.749	4417
808.891	4500
809.033	4508
809.174	4386
809.316	4246
809.458	4238
809.6	4166
809.741	4150
809.883	4181
810.025	4227
810.166	4200
810.308	4204
810.45	4234
810.591	4261
810.733	4299
810.875	4546
811.016	4824
811.158	5121
811.299	5303
811.441	5311
811.582	5102
811.724	4683
811.865	4436
812.007	4451
812.148	4424
812.29	4413
812.431	4421
812.573	4398
812.714	4402
812.855	4436
812.997	4421
813.138	4489
813.279	4428
813.421	4337
813.562	4440
813.703	4383
813.845	4314
813.986	4314
814.127	4238
814.268	4303
814.41	4276
814.551	4276
814.692	4322
814.833	4268
814.974	4383
815.115	4360
815.256	4291
815.397	4246
815.539	4276
815.68	4166
815.821	4192
815.962	4348
816.103	4265
816.244	4246
816.385	4227
816.526	4291
816.666	4257
816.807	4120
816.948	4173
817.089	4150
817.23	4116
817.371	4025
817.512	4063
817.653	4048
817.793	4071
817.934	4051
818.075	4135
818.216	4116
818.356	4101
818.497	3998
818.638	3888
818.778	3899
818.919	3884
819.06	3873
819.2	3922
819.341	3880
819.481	3873
819.622	3915
819.762	4010
819.903	3953
820.043	3880
820.184	3850
820.324	3819
820.465	3861
820.605	3884
820.746	3884
820.886	3781
821.026	3896
821.167	3960
821.307	3983
821.447	4006
821.588	3975
821.728	3960
821.868	3930
822.008	3861
822.149	3903
822.289	3926
822.429	3823
822.569	3800
822.709	3835
822.849	3732
822.99	3743
823.13	3774
823.27	3816
823.41	3759
823.55	3740
823.69	3698
823.83	3743
823.97	3736
824.11	3587
824.25	3663
824.389	3644
824.529	3671
824.669	3633
824.809	3698
824.949	3743
825.089	3778
825.228	3720
825.368	3633
825.508	3580
825.648	3606
825.787	3606
825.927	3629
826.067	3656
826.206	3690
826.346	3823
826.485	3861
826.625	3888
826.765	3983
826.904	3873
827.044	3633
827.183	3534
827.323	3450
827.462	3500
827.601	3485
827.741	3447
827.88	3458
828.02	3412
828.159	3447
828.298	3492
828.437	3553
828.577	3492
828.716	3610
828.855	3523
828.994	3374
829.134	3416
829.273	3397
829.412	3363
829.551	3393
829.69	3397
829.829	3450
829.968	3542
830.107	3473
830.246	3435
830.385	3393
830.524	3397
830.663	3329
830.802	3253
830.941	3192
831.08	3237
831.219	3287
831.357	3306
831.496	3420
831.635	3264
831.774	3188
831.913	3176
832.051	3154
832.19	3154
832.329	3211
832.467	3154
832.606	3104
832.744	3207
832.883	3195
833.022	3199
833.16	3260
833.299	3329
833.437	3325
833.576	3378
833.714	3447
833.852	3428
833.991	3435
834.129	3454
834.267	3466
834.406	3397
834.544	3485
834.682	3450
834.821	3416
834.959	3606
835.097	3443
835.235	3538
835.373	3507
835.511	3515
835.65	3519
835.788	3511
835.926	3348
836.064	3348
836.202	3412
836.34	3576
836.478	3614
836.615	3538
836.753	3599
836.891	3698
837.029	3618
837.167	3625
837.305	3580
837.443	3564
837.58	3504
837.718	3622
837.856	3584
837.993	3572
838.131	3591
838.269	3610
838.406	3603
838.544	3557
838.681	3500
838.819	3492
838.956	3397
839.094	3409
839.231	3458
839.369	3530
839.506	3759
839.643	3637
839.781	3496
839.918	3443
840.055	3553
840.193	3538
840.33	3545
840.467	3511
840.604	3618
840.742	3770
840.879	3526
841.016	3568
841.153	3599
841.29	3781
841.427	3747
841.564	3778
841.701	3755
841.838	3679
841.975	3736
842.112	3717
842.249	3603
842.385	3610
842.522	3857
842.659	3720
842.796	3682
842.933	3717
843.069	3671
843.206	3732
843.343	3835
843.479	3789
843.616	3838
843.752	3713
843.889	3698
844.025	3911
844.162	3705
844.298	3869
844.435	3819
844.571	3785
844.708	3892
844.844	4006
844.98	4086
845.117	4013
845.253	3922
845.389	3918
845.525	3960
845.661	3922
845.798	3922
845.934	3994
846.07	3941
846.206	4059
846.342	4131
846.478	4093
846.614	3991
846.75	3945
846.886	3915
847.022	4048
847.158	4002
847.294	4029
847.429	4010
847.565	3987
847.701	4272
847.837	3911
847.972	3896
848.108	4021
848.244	3930
848.379	3850
848.515	3819
848.65	3808
848.786	3838
848.921	3888
849.057	3918
849.192	3945
849.328	3937
849.463	3953
849.598	3896
849.734	3865
849.869	3880
850.004	3842
850.14	3789
850.275	3762
850.41	3766
850.545	3774
850.68	3770
850.815	3793
850.95	3785
851.085	3979
851.22	3888
851.355	3831
851.49	3819
851.625	3823
851.76	3808
851.895	3720
852.03	3759
852.165	3781
852.299	3873
852.434	3926
852.569	3865
852.703	3876
852.838	3922
852.973	4040
853.107	4017
853.242	3888
853.376	3850
853.511	3770
853.645	3850
853.78	3991
853.914	3869
854.048	3930
854.183	3892
854.317	3949
854.451	4055
854.585	3937
854.72	3934
854.854	4055
854.988	3987
855.122	4036
855.256	3956
855.39	4032
855.524	4101
855.658	4097
855.792	4109
855.926	4158
856.06	4166
856.194	4188
856.327	4154
856.461	4139
856.595	4162
856.729	4219
856.862	4272
856.996	4280
857.13	4295
857.263	4356
857.397	4306
857.53	4265
857.664	4337
857.797	4409
857.931	4421
858.064	4405
858.197	4428
858.331	4363
858.464	4375
858.597	4371
858.731	4470
858.864	4474
858.997	4470
859.13	4512
859.263	4550
859.396	4599
859.529	4508
859.662	4527
859.795	4523
859.928	4596
860.061	4717
860.194	4736
860.327	4668
860.46	4649
860.592	4710
860.725	4755
860.858	4778
860.99	4698
861.123	4717
861.256	4656
861.388	4797
861.521	5433
861.653	4740
861.786	4755
861.918	4698
862.05	4786
862.183	4881
862.315	4900
862.447	4972
862.58	4915
862.712	4797
862.844	4744
862.976	4881
863.108	4881
863.24	5254
863.372	4797
863.504	4915
863.636	4858
863.768	4930
863.9	5010
864.032	4927
864.164	4965
864.296	5018
864.428	5155
864.559	5090
864.691	5121
864.823	5105
864.954	5090
865.086	5136
865.217	5162
865.349	5140
865.48	5178
865.612	5208
865.743	5288
865.875	5189
866.006	5254
866.137	5220
866.269	5261
866.4	5345
866.531	5212
866.662	5208
866.793	5296
866.924	5250
867.055	5337
867.186	5341
867.317	5337
867.448	5292
867.579	5395
867.71	5395
867.841	5425
867.972	5463
868.103	5505
868.233	5501
868.364	5478
868.495	5577
868.625	5703
868.756	5809
868.886	5695
869.017	5733
869.147	5817
869.278	5878
869.408	5847
869.539	5859
869.669	5950
869.799	5931
869.929	5996
870.06	6003
870.19	6224
870.32	6159
870.45	6292
870.58	6342
870.71	6452
870.84	6479
870.97	6467
871.1	6460
871.23	6658
871.36	6627
871.489	6650
871.619	6711
871.749	6833
871.879	6852
872.008	7008
872.138	6973
872.267	7061
872.397	7004
872.526	7076
872.656	7103
872.785	7236
872.915	7403
873.044	7518
873.173	7548
873.303	7655
873.432	7719
873.561	7871
873.69	7837
873.819	8077
873.948	8142
874.077	8275
874.206	8355
874.335	8511
874.464	8674
874.593	8857
874.722	8857
874.851	9142
874.979	9245
875.108	9405
875.237	9466
875.365	9473
875.494	9652
875.623	9789
875.751	9869
875.88	9983
876.008	10166
876.136	10272
876.265	10569
876.393	10679
876.521	10778
876.65	10782
876.778	10873
876.906	10908
877.034	10949
877.162	11136
877.29	11151
877.418	11284
877.546	11376
877.674	11459
877.802	11493
877.93	11516
878.058	11646
878.185	11551
878.313	11684
878.441	11748
878.568	11718
878.696	11764
878.824	11866
878.951	11920
879.079	12022
879.206	12136
879.333	12129
879.461	11912
879.588	11996
879.715	12125
879.842	12266
879.97	12049
880.097	11870
880.224	11931
880.351	11961
880.478	11809
880.605	11855
880.732	11912
880.859	11996
880.986	11798
881.112	11775
881.239	11741
881.366	11733
881.493	11676
881.619	11516
881.746	11585
881.872	11630
881.999	11509
882.125	11493
882.252	11528
882.378	11493
882.505	11611
882.631	11387
882.757	11231
882.883	11410
883.01	11269
883.136	11223
883.262	11121
883.388	11083
883.514	11246
883.64	11269
883.766	11086
883.892	11079
884.018	10991
884.143	10942
884.269	11090
884.395	10873
884.52	10759
884.646	10831
884.772	10698
884.897	10702
885.023	10675
885.148	10774
885.274	10721
885.399	10748
885.524	10702
885.65	10603
885.775	10641
885.9	10618
886.025	10584
886.15	10588
886.275	10558
886.4	10322
886.525	10405
886.65	10428
886.775	10386
886.9	10519
887.025	10565
887.149	10333
887.274	10227
887.399	10253
887.523	10109
887.648	10150
887.773	10139
887.897	10284
888.021	10242
888.146	10169
888.27	10204
888.395	10261
888.519	10287
888.643	10219
888.767	10230
888.891	10082
889.015	10082
889.139	10055
889.263	10025
889.387	10090
889.511	10204
889.635	10109
889.759	9968
889.883	9922
890.006	9953
890.13	10158
890.254	9880
890.377	9972
890.501	9831
890.624	9797
890.748	9953
890.871	9850
890.995	9770
891.118	9713
891.241	9778
891.364	9755
891.488	9823
891.611	9732
891.734	9736
891.857	9823
891.98	9743
892.103	9785
892.226	9812
892.349	9648
892.471	9553
892.594	9568
892.717	9671
892.839	9629
892.962	9622
893.085	9667
893.207	9584
893.33	9530
893.452	9557
893.575	9603
893.697	9473
893.819	9648
893.941	9618
894.064	9599
894.186	9420
894.308	9431
894.43	9519
894.552	9618
894.674	9526
894.796	9416
894.918	9344
895.04	9428
895.161	9367
895.283	9351
895.405	9260
895.526	9256
895.648	9203
895.769	9237
895.891	9306
896.012	9310
896.134	9279
896.255	9180
896.376	9188
896.498	9249
896.619	9077
896.74	9112
896.861	9089
896.982	9237
897.103	9344
897.224	9226
897.345	9089
897.466	8941
897.587	9020
897.708	9100
897.828	9043
897.949	8937
898.07	8853
898.19	8899
898.311	9020
898.431	8899
898.552	8925
898.672	9043
898.792	8906
898.913	8872
899.033	8868
899.153	8792
899.273	8610
899.393	8735
899.513	8800
899.633	8727
899.753	8689
899.873	8758
899.993	8731
900.113	8655
900.232	8659
900.352	8636
900.472	8579
900.591	8644
900.711	8640
900.83	8533
900.95	8670
901.069	8750
901.189	8549
901.308	8461
901.427	8423
901.546	8412
901.665	8465
901.784	8526
901.904	8381
902.023	8347
902.141	8263
902.26	8176
902.379	8301
902.498	8237
902.617	8305
902.735	8259
902.854	8229
902.973	8267
903.091	8073
903.21	8176
903.328	8172
903.446	8153
903.565	8084
903.683	8145
903.801	8096
903.919	8145
904.038	8172
904.156	8008
904.274	8134
904.392	8035
904.51	8054
904.627	8069
904.745	8092
904.863	8134
904.981	7947
905.098	7830
905.216	7890
905.334	7940
905.451	7986
905.569	7830
905.686	7928
905.803	7906
905.921	7849
906.038	7883
906.155	7822
906.272	7708
906.389	7738
906.506	7636
906.623	7643
906.74	7571
906.857	7529
906.974	7594
907.091	7689
907.208	7772
907.324	7662
907.441	7571
907.557	7468
907.674	7449
907.79	7438
907.907	7457
908.023	7445
908.139	7411
908.256	7419
908.372	7392
908.488	7369
908.604	7244
908.72	7221
908.836	7343
908.952	7232
909.068	7289
909.184	7339
909.3	7289
909.415	7278
909.531	7255
909.647	7175
909.762	7114
909.878	7114
909.993	7114
910.108	7152
910.224	7080
910.339	7076
910.454	7065
910.57	7031
910.685	6973
910.8	7175
910.915	7099
911.03	7057
911.145	6856
911.259	6810
911.374	6871
911.489	6848
911.604	6867
911.718	6703
911.833	6722
911.947	6650
912.062	6616
912.176	6681
912.291	6768
912.405	6760
912.519	6848
912.633	6886
912.748	6738
912.862	6639
912.976	6620
913.09	6502
913.204	6597
913.318	6608
913.431	6681
913.545	6642
913.659	6700
913.772	6623
913.886	6597
914	6589
914.113	6593
914.226	6700
914.34	6623
914.453	6445
914.566	6612
914.68	6506
914.793	6566
914.906	6494
915.019	6391
915.132	6414
915.245	6506
915.358	6380
915.47	6502
915.583	6437
915.696	6471
915.809	6494
915.921	6578
916.034	6426
916.146	6388
916.259	6342
916.371	6513
916.483	6498
916.595	6391
916.708	6422
916.82	6399
916.932	6369
917.044	6433
917.156	6399
917.268	6292
917.38	6346
917.491	6277
917.603	6361
917.715	6399
917.826	6422
917.938	6338
918.049	6281
918.161	6372
918.272	6380
918.384	6483
918.495	6334
918.606	6289
918.717	6224
918.828	6258
918.939	6304
919.05	6228
919.161	6273
919.272	6068
919.383	6144
919.494	6285
919.604	6403
919.715	6270
919.826	6182
919.936	6296
920.047	6342
920.157	6285
920.267	6429
920.378	6292
920.488	6315
920.598	6414
920.708	6540
920.818	6467
920.928	6509
921.038	6593
921.148	6589
921.258	6391
921.368	6395
921.477	6247
921.587	6171
921.697	6098
921.806	6155
921.916	6129
922.025	5870
922.134	5904
922.244	5897
922.353	5939
922.462	5855
922.571	5794
922.68	5684
922.789	5691
922.898	5733
923.007	5577
923.116	5688
923.224	5668
923.333	5695
923.442	5615
923.55	5611
923.659	5562
923.767	5604
923.876	5497
923.984	5589
924.092	5490
924.201	5577
924.309	5535
924.417	5516
924.525	5474
924.633	5486
924.741	6133
924.849	5334
924.956	5486
925.064	5414
925.172	5280
925.279	5280
925.387	5311
925.494	5360
925.602	5395
925.709	5307
925.816	5258
925.924	5334
926.031	5372
926.138	5261
926.245	5315
926.352	5235
926.459	5326
926.566	5353
926.673	5223
926.779	5162
926.886	5124
926.993	5048
927.099	4999
927.206	5014
927.312	5014
927.419	5155
927.525	4999
927.631	5014
927.737	4949
927.843	4854
927.95	4790
928.056	4850
928.162	4790
928.267	4839
928.373	5379
928.479	4877
928.585	4729
928.69	4767
928.796	4778
928.901	4679
929.007	4588
929.112	4656
929.218	4645
929.323	4618
929.428	4599
929.533	4656
929.638	4508
929.743	4519
929.848	4580
929.953	4554
930.058	4455
930.163	4329
930.267	4394
930.372	4497
930.477	4337
930.581	4478
930.685	4402
930.79	4318
930.894	4295
930.998	4249
931.103	4386
931.207	4150
931.311	4105
931.415	4071
931.519	3892
931.623	3991
