Data from glass_V78500241_1288.txt Node
Date: Wed Sep 01 19:23:25 CST 2021
User: usil
Spectrometer: V785-0024
Trigger mode: 0
Integration Time (sec): 4.000000E-1
Scans to average: 1
Nonlinearity correction enabled: false
Boxcar width: 0
Storing dark spectrum: false
XAxis mode: Wavelengths
Number of Pixels in Spectrum: 1024
>>>>>Begin Spectral Data<<<<<
801.071	3751
801.214	3759
801.356	3724
801.499	3774
801.641	3759
801.783	3774
801.926	3831
802.068	3800
802.211	3854
802.353	3930
802.496	3865
802.638	3861
802.78	3903
802.923	3907
803.065	3873
803.208	3857
803.35	3854
803.492	3918
803.635	3930
803.777	3793
803.919	3937
804.061	4131
804.204	3998
804.346	4002
804.488	3945
804.63	3998
804.773	4006
804.915	4017
805.057	4116
805.199	4025
805.341	4093
805.483	4128
805.626	4158
805.768	4074
805.91	4204
806.052	4238
806.194	4215
806.336	4344
806.478	4200
806.62	4188
806.762	4223
806.904	4234
807.046	4367
807.188	4227
807.33	4200
807.472	4257
807.614	4177
807.756	4306
807.898	4207
808.04	4238
808.182	4276
808.324	4329
808.465	4348
808.607	4512
808.749	4405
808.891	4470
809.033	4504
809.174	4398
809.316	4268
809.458	4230
809.6	4143
809.741	4147
809.883	4154
810.025	4207
810.166	4223
810.308	4234
810.45	4268
810.591	4215
810.733	4314
810.875	4542
811.016	4801
811.158	5140
811.299	5261
811.441	5277
811.582	5033
811.724	4740
811.865	4485
812.007	4455
812.148	4398
812.29	4402
812.431	4386
812.573	4383
812.714	4386
812.855	4421
812.997	4421
813.138	4508
813.279	4428
813.421	4375
813.562	4379
813.703	4325
813.845	4253
813.986	4265
814.127	4207
814.268	4284
814.41	4333
814.551	4261
814.692	4341
814.833	4265
814.974	4322
815.115	4367
815.256	4276
815.397	4268
815.539	4227
815.68	4204
815.821	4166
815.962	4322
816.103	4295
816.244	4314
816.385	4257
816.526	4257
816.666	4230
816.807	4124
816.948	4181
817.089	4181
817.23	4074
817.371	4055
817.512	4086
817.653	4090
817.793	4032
817.934	4013
818.075	4074
818.216	4071
818.356	4097
818.497	4006
818.638	3915
818.778	3941
818.919	3926
819.06	3880
819.2	3930
819.341	3873
819.481	3846
819.622	3857
819.762	3964
819.903	3979
820.043	3850
820.184	3838
820.324	3827
820.465	3865
820.605	3873
820.746	3899
820.886	3797
821.026	3922
821.167	3949
821.307	3975
821.447	4021
821.588	3991
821.728	3987
821.868	3972
822.008	3903
822.149	3926
822.289	3907
822.429	3831
822.569	3774
822.709	3808
822.849	3694
822.99	3762
823.13	3762
823.27	3770
823.41	3743
823.55	3736
823.69	3701
823.83	3705
823.97	3679
824.11	3603
824.25	3595
824.389	3648
824.529	3656
824.669	3701
824.809	3759
824.949	3774
825.089	3747
825.228	3679
825.368	3633
825.508	3587
825.648	3595
825.787	3587
825.927	3633
826.067	3644
826.206	3732
826.346	3747
826.485	3838
826.625	3892
826.765	3964
826.904	3823
827.044	3595
827.183	3576
827.323	3454
827.462	3500
827.601	3443
827.741	3443
827.88	3435
828.02	3363
828.159	3492
828.298	3481
828.437	3576
828.577	3477
828.716	3603
828.855	3500
828.994	3428
829.134	3386
829.273	3447
829.412	3370
829.551	3310
829.69	3363
829.829	3389
829.968	3526
830.107	3405
830.246	3439
830.385	3412
830.524	3370
830.663	3302
830.802	3233
830.941	3226
831.08	3207
831.219	3260
831.357	3268
831.496	3409
831.635	3241
831.774	3222
831.913	3211
832.051	3161
832.19	3157
832.329	3211
832.467	3150
832.606	3119
832.744	3161
832.883	3173
833.022	3199
833.16	3245
833.299	3287
833.437	3317
833.576	3348
833.714	3412
833.852	3439
833.991	3428
834.129	3439
834.267	3454
834.406	3401
834.544	3443
834.682	3401
834.821	3397
834.959	3580
835.097	3412
835.235	3515
835.373	3469
835.511	3488
835.65	3496
835.788	3492
835.926	3401
836.064	3412
836.202	3435
836.34	3637
836.478	3614
836.615	3545
836.753	3568
836.891	3648
837.029	3641
837.167	3549
837.305	3564
837.443	3542
837.58	3523
837.718	3599
837.856	3561
837.993	3595
838.131	3587
838.269	3587
838.406	3545
838.544	3545
838.681	3439
838.819	3435
838.956	3370
839.094	3450
839.231	3462
839.369	3511
839.506	3717
839.643	3690
839.781	3511
839.918	3454
840.055	3557
840.193	3519
840.33	3557
840.467	3584
840.604	3564
840.742	3759
840.879	3534
841.016	3549
841.153	3629
841.29	3793
841.427	3698
841.564	3759
841.701	3747
841.838	3751
841.975	3720
842.112	3701
842.249	3648
842.385	3618
842.522	3827
842.659	3667
842.796	3667
842.933	3705
843.069	3682
843.206	3724
843.343	3869
843.479	3800
843.616	3827
843.752	3679
843.889	3694
844.025	3846
844.162	3720
844.298	3827
844.435	3800
844.571	3797
844.708	3903
844.844	3975
844.98	4055
845.117	4040
845.253	3915
845.389	3926
845.525	4006
845.661	3926
845.798	3953
845.934	3964
846.07	3983
846.206	4032
846.342	4147
846.478	4120
846.614	3926
846.75	3949
846.886	3876
847.022	4090
847.158	3968
847.294	3987
847.429	4017
847.565	3998
847.701	4188
847.837	3873
847.972	3896
848.108	3994
848.244	3979
848.379	3884
848.515	3819
848.65	3819
848.786	3876
848.921	3842
849.057	3953
849.192	3956
849.328	3922
849.463	3930
849.598	3869
849.734	3896
849.869	3873
850.004	3823
850.14	3793
850.275	3804
850.41	3766
850.545	3793
850.68	3793
850.815	3766
850.95	3804
851.085	3934
851.22	3926
851.355	3816
851.49	3789
851.625	3781
851.76	3812
851.895	3736
852.03	3736
852.165	3804
852.299	3854
852.434	3922
852.569	3869
852.703	3861
852.838	3930
852.973	4006
853.107	4025
853.242	3884
853.376	3884
853.511	3785
853.645	3823
853.78	3991
853.914	3934
854.048	3884
854.183	3937
854.317	3937
854.451	4090
854.585	3975
854.72	3941
854.854	4029
854.988	3956
855.122	3983
855.256	3915
855.39	4044
855.524	4158
855.658	4090
855.792	4120
855.926	4150
856.06	4143
856.194	4162
856.327	4135
856.461	4158
856.595	4112
856.729	4135
856.862	4261
856.996	4242
857.13	4360
857.263	4333
857.397	4348
857.53	4322
857.664	4329
857.797	4386
857.931	4436
858.064	4337
858.197	4478
858.331	4421
858.464	4394
858.597	4375
858.731	4451
858.864	4485
858.997	4481
859.13	4546
859.263	4523
859.396	4573
859.529	4523
859.662	4546
859.795	4538
859.928	4611
860.061	4675
860.194	4782
860.327	4649
860.46	4649
860.592	4725
860.725	4752
860.858	4820
860.99	4702
861.123	4748
861.256	4752
861.388	4793
861.521	5387
861.653	4717
861.786	4736
861.918	4721
862.05	4828
862.183	4812
862.315	4889
862.447	4953
862.58	4919
862.712	4805
862.844	4805
862.976	4889
863.108	4889
863.24	5178
863.372	4816
863.504	4911
863.636	4862
863.768	4995
863.9	4957
864.032	4930
864.164	4965
864.296	5014
864.428	5071
864.559	5090
864.691	5071
864.823	5098
864.954	5162
865.086	5162
865.217	5159
865.349	5124
865.48	5166
865.612	5189
865.743	5273
865.875	5201
866.006	5109
866.137	5242
866.269	5269
866.4	5273
866.531	5212
866.662	5189
866.793	5292
866.924	5288
867.055	5387
867.186	5330
867.317	5296
867.448	5280
867.579	5345
867.71	5337
867.841	5353
867.972	5467
868.103	5448
868.233	5532
868.364	5478
868.495	5547
868.625	5657
868.756	5844
868.886	5661
869.017	5710
869.147	5794
869.278	5866
869.408	5847
869.539	5821
869.669	5908
869.799	5954
869.929	5965
870.06	6045
870.19	6220
870.32	6159
870.45	6186
870.58	6346
870.71	6433
870.84	6483
870.97	6429
871.1	6490
871.23	6665
871.36	6639
871.489	6711
871.619	6738
871.749	6802
871.879	6859
872.008	6932
872.138	6977
872.267	6977
872.397	7019
872.526	7061
872.656	7133
872.785	7190
872.915	7392
873.044	7499
873.173	7578
873.303	7636
873.432	7765
873.561	7967
873.69	7936
873.819	8001
873.948	8149
874.077	8248
874.206	8301
874.335	8511
874.464	8674
874.593	8819
874.722	8948
874.851	9165
874.979	9245
875.108	9332
875.237	9412
875.365	9530
875.494	9663
875.623	9899
875.751	9808
875.88	10010
876.008	10120
876.136	10276
876.265	10508
876.393	10721
876.521	10687
876.65	10881
876.778	10904
876.906	10900
877.034	11010
877.162	11181
877.29	11208
877.418	11296
877.546	11376
877.674	11459
877.802	11497
877.93	11516
878.058	11528
878.185	11653
878.313	11642
878.441	11855
878.568	11703
878.696	11817
878.824	11843
878.951	11996
879.079	11992
879.206	12152
879.333	12007
879.461	11992
879.588	12038
879.715	12064
879.842	12254
879.97	12060
880.097	11885
880.224	11802
880.351	11961
880.478	11870
880.605	11836
880.732	11859
880.859	11996
880.986	11855
881.112	11920
881.239	11836
881.366	11638
881.493	11604
881.619	11630
881.746	11577
881.872	11581
881.999	11512
882.125	11436
882.252	11570
882.378	11535
882.505	11551
882.631	11440
882.757	11273
882.883	11239
883.01	11273
883.136	11189
883.262	11124
883.388	11113
883.514	11113
883.64	11204
883.766	11151
883.892	10991
884.018	10984
884.143	11132
884.269	11071
884.395	10835
884.52	10858
884.646	10736
884.772	10622
884.897	10698
885.023	10641
885.148	10767
885.274	10828
885.399	10694
885.524	10615
885.65	10596
885.775	10687
885.9	10611
886.025	10626
886.15	10485
886.275	10398
886.4	10356
886.525	10398
886.65	10409
886.775	10284
886.9	10478
887.025	10565
887.149	10413
887.274	10280
887.399	10238
887.523	10116
887.648	10169
887.773	10158
887.897	10223
888.021	10200
888.146	10135
888.27	10268
888.395	10200
888.519	10181
888.643	10253
888.767	10211
888.891	10120
889.015	9979
889.139	10032
889.263	10044
889.387	10101
889.511	10101
889.635	10105
889.759	10017
889.883	9953
890.006	10063
890.13	10082
890.254	9922
890.377	9979
890.501	9884
890.624	9926
890.748	9956
890.871	9781
890.995	9728
891.118	9747
891.241	9778
891.364	9736
891.488	9808
891.611	9766
891.734	9660
891.857	9732
891.98	9656
892.103	9770
892.226	9793
892.349	9705
892.471	9595
892.594	9549
892.717	9629
892.839	9561
892.962	9603
893.085	9656
893.207	9526
893.33	9542
893.452	9572
893.575	9599
893.697	9462
893.819	9652
893.941	9622
894.064	9610
894.186	9485
894.308	9306
894.43	9534
894.552	9610
894.674	9561
894.796	9397
894.918	9424
895.04	9367
895.161	9359
895.283	9336
895.405	9268
895.526	9264
895.648	9249
895.769	9241
895.891	9207
896.012	9340
896.134	9253
896.255	9230
896.376	9184
896.498	9112
896.619	9127
896.74	9131
896.861	9146
896.982	9241
897.103	9310
897.224	9154
897.345	9077
897.466	9062
897.587	9036
897.708	9100
897.828	8948
897.949	8921
898.07	8849
898.19	8914
898.311	9066
898.431	8849
898.552	8998
898.672	8998
898.792	8990
898.913	8921
899.033	8819
899.153	8750
899.273	8667
899.393	8705
899.513	8762
899.633	8750
899.753	8705
899.873	8739
899.993	8754
900.113	8739
900.232	8648
900.352	8697
900.472	8632
900.591	8598
900.711	8579
900.83	8587
900.95	8648
901.069	8735
901.189	8549
901.308	8461
901.427	8419
901.546	8476
901.665	8484
901.784	8514
901.904	8324
902.023	8324
902.141	8206
902.26	8180
902.379	8286
902.498	8206
902.617	8202
902.735	8324
902.854	8301
902.973	8240
903.091	8088
903.21	8119
903.328	8161
903.446	8081
903.565	8096
903.683	8062
903.801	8084
903.919	8195
904.038	8062
904.156	8054
904.274	8088
904.392	8065
904.51	8065
904.627	8054
904.745	8119
904.863	8103
904.981	7967
905.098	7883
905.216	7902
905.334	7849
905.451	7868
905.569	7879
905.686	7913
905.803	7868
905.921	7803
906.038	7852
906.155	7776
906.272	7712
906.389	7776
906.506	7605
906.623	7670
906.74	7700
906.857	7567
906.974	7601
907.091	7666
907.208	7700
907.324	7575
907.441	7613
907.557	7460
907.674	7384
907.79	7396
907.907	7411
908.023	7373
908.139	7358
908.256	7362
908.372	7381
908.488	7320
908.604	7297
908.72	7293
908.836	7240
908.952	7240
909.068	7251
909.184	7392
909.3	7293
909.415	7263
909.531	7316
909.647	7168
909.762	7129
909.878	7034
909.993	7126
910.108	7065
910.224	7122
910.339	7107
910.454	7031
910.57	6985
910.685	7019
910.8	7194
910.915	7095
911.03	6966
911.145	6890
911.259	6905
911.374	6848
911.489	6856
911.604	6802
911.718	6696
911.833	6772
911.947	6654
912.062	6658
912.176	6772
912.291	6654
912.405	6707
912.519	6840
912.633	6840
912.748	6776
912.862	6707
912.976	6669
913.09	6498
913.204	6578
913.318	6650
913.431	6684
913.545	6654
913.659	6719
913.772	6642
913.886	6604
914	6502
914.113	6639
914.226	6692
914.34	6623
914.453	6570
914.566	6612
914.68	6597
914.793	6547
914.906	6437
915.019	6346
915.132	6346
915.245	6422
915.358	6528
915.47	6445
915.583	6448
915.696	6467
915.809	6517
915.921	6555
916.034	6441
916.146	6471
916.259	6384
916.371	6464
916.483	6513
916.595	6429
916.708	6414
916.82	6399
916.932	6452
917.044	6407
917.156	6376
917.268	6273
917.38	6376
917.491	6285
917.603	6350
917.715	6407
917.826	6414
917.938	6380
918.049	6194
918.161	6342
918.272	6407
918.384	6403
918.495	6388
918.606	6285
918.717	6262
918.828	6216
918.939	6342
919.05	6182
919.161	6289
919.272	6209
919.383	6201
919.494	6304
919.604	6452
919.715	6304
919.826	6232
919.936	6235
920.047	6342
920.157	6235
920.267	6418
920.378	6311
920.488	6315
920.598	6517
920.708	6540
920.818	6460
920.928	6464
921.038	6612
921.148	6597
921.258	6464
921.368	6296
921.477	6216
921.587	6209
921.697	6136
921.806	6167
921.916	6129
922.025	6030
922.134	5939
922.244	5908
922.353	6007
922.462	5912
922.571	5786
922.68	5688
922.789	5684
922.898	5684
923.007	5657
923.116	5786
923.224	5630
923.333	5653
923.442	5611
923.55	5600
923.659	5558
923.767	5611
923.876	5573
923.984	5653
924.092	5509
924.201	5619
924.309	5558
924.417	5551
924.525	5490
924.633	5516
924.741	6266
924.849	5383
924.956	5501
925.064	5398
925.172	5353
925.279	5303
925.387	5372
925.494	5353
925.602	5429
925.709	5433
925.816	5265
925.924	5318
926.031	5307
926.138	5303
926.245	5318
926.352	5220
926.459	5318
926.566	5280
926.673	5185
926.779	5105
926.886	5113
926.993	5045
927.099	5064
927.206	5006
927.312	4991
927.419	5003
927.525	4980
927.631	4999
927.737	4877
927.843	4885
927.95	4752
928.056	4805
928.162	4854
928.267	4816
928.373	5360
928.479	4870
928.585	4714
928.69	4805
928.796	4767
928.901	4683
929.007	4622
929.112	4698
929.218	4618
929.323	4607
929.428	4634
929.533	4717
929.638	4546
929.743	4558
929.848	4561
929.953	4561
930.058	4451
930.163	4325
930.267	4398
930.372	4424
930.477	4303
930.581	4470
930.685	4383
930.79	4261
930.894	4299
930.998	4253
931.103	4360
931.207	4150
931.311	4124
931.415	4059
931.519	3953
931.623	3945
