Data from glass_V78500241_1834.txt Node
Date: Wed Sep 01 19:27:12 CST 2021
User: usil
Spectrometer: V785-0024
Trigger mode: 0
Integration Time (sec): 4.000000E-1
Scans to average: 1
Nonlinearity correction enabled: false
Boxcar width: 0
Storing dark spectrum: false
XAxis mode: Wavelengths
Number of Pixels in Spectrum: 1024
>>>>>Begin Spectral Data<<<<<
801.071	3709
801.214	3747
801.356	3709
801.499	3755
801.641	3740
801.783	3793
801.926	3850
802.068	3903
802.211	3823
802.353	3888
802.496	3823
802.638	3857
802.78	3850
802.923	3945
803.065	3892
803.208	3873
803.35	3854
803.492	3926
803.635	3918
803.777	3789
803.919	3880
804.061	4139
804.204	3983
804.346	3972
804.488	3930
804.63	4063
804.773	3956
804.915	3994
805.057	4131
805.199	4040
805.341	4017
805.483	4124
805.626	4185
805.768	4150
805.91	4227
806.052	4261
806.194	4192
806.336	4352
806.478	4181
806.62	4211
806.762	4227
806.904	4257
807.046	4325
807.188	4234
807.33	4204
807.472	4200
807.614	4143
807.756	4280
807.898	4253
808.04	4173
808.182	4261
808.324	4337
808.465	4379
808.607	4451
808.749	4440
808.891	4478
809.033	4485
809.174	4379
809.316	4291
809.458	4268
809.6	4105
809.741	4147
809.883	4150
810.025	4204
810.166	4173
810.308	4223
810.45	4265
810.591	4242
810.733	4272
810.875	4516
811.016	4828
811.158	5193
811.299	5254
811.441	5258
811.582	5071
811.724	4740
811.865	4485
812.007	4474
812.148	4413
812.29	4424
812.431	4390
812.573	4386
812.714	4386
812.855	4402
812.997	4409
813.138	4466
813.279	4402
813.421	4325
813.562	4402
813.703	4325
813.845	4360
813.986	4261
814.127	4196
814.268	4246
814.41	4238
814.551	4265
814.692	4284
814.833	4291
814.974	4276
815.115	4363
815.256	4215
815.397	4253
815.539	4223
815.68	4196
815.821	4188
815.962	4303
816.103	4253
816.244	4253
816.385	4188
816.526	4268
816.666	4219
816.807	4120
816.948	4185
817.089	4169
817.23	4150
817.371	4055
817.512	4013
817.653	4082
817.793	4017
817.934	3998
818.075	4078
818.216	4078
818.356	4051
818.497	3972
818.638	3922
818.778	3907
818.919	3846
819.06	3876
819.2	3915
819.341	3861
819.481	3831
819.622	3899
819.762	4029
819.903	3899
820.043	3831
820.184	3819
820.324	3838
820.465	3884
820.605	3873
820.746	3892
820.886	3789
821.026	3926
821.167	3899
821.307	3991
821.447	3975
821.588	3945
821.728	3934
821.868	3945
822.008	3896
822.149	3892
822.289	3911
822.429	3762
822.569	3774
822.709	3808
822.849	3686
822.99	3724
823.13	3751
823.27	3732
823.41	3675
823.55	3770
823.69	3686
823.83	3755
823.97	3690
824.11	3584
824.25	3568
824.389	3637
824.529	3648
824.669	3618
824.809	3713
824.949	3759
825.089	3720
825.228	3694
825.368	3576
825.508	3564
825.648	3591
825.787	3591
825.927	3610
826.067	3618
826.206	3660
826.346	3781
826.485	3892
826.625	3846
826.765	3922
826.904	3819
827.044	3606
827.183	3526
827.323	3466
827.462	3488
827.601	3439
827.741	3424
827.88	3450
828.02	3359
828.159	3435
828.298	3507
828.437	3519
828.577	3424
828.716	3591
828.855	3500
828.994	3348
829.134	3374
829.273	3378
829.412	3367
829.551	3313
829.69	3363
829.829	3469
829.968	3523
830.107	3469
830.246	3409
830.385	3367
830.524	3310
830.663	3283
830.802	3237
830.941	3173
831.08	3188
831.219	3249
831.357	3272
831.496	3389
831.635	3211
831.774	3180
831.913	3188
832.051	3157
832.19	3165
832.329	3222
832.467	3131
832.606	3108
832.744	3173
832.883	3161
833.022	3195
833.16	3245
833.299	3260
833.437	3325
833.576	3363
833.714	3393
833.852	3443
833.991	3458
834.129	3466
834.267	3469
834.406	3363
834.544	3424
834.682	3462
834.821	3439
834.959	3561
835.097	3397
835.235	3523
835.373	3473
835.511	3477
835.65	3428
835.788	3473
835.926	3378
836.064	3397
836.202	3409
836.34	3568
836.478	3648
836.615	3523
836.753	3584
836.891	3641
837.029	3614
837.167	3610
837.305	3530
837.443	3523
837.58	3500
837.718	3595
837.856	3561
837.993	3511
838.131	3587
838.269	3587
838.406	3576
838.544	3561
838.681	3481
838.819	3431
838.956	3351
839.094	3351
839.231	3443
839.369	3492
839.506	3743
839.643	3622
839.781	3504
839.918	3412
840.055	3561
840.193	3515
840.33	3485
840.467	3530
840.604	3568
840.742	3808
840.879	3549
841.016	3553
841.153	3610
841.29	3728
841.427	3694
841.564	3751
841.701	3759
841.838	3694
841.975	3622
842.112	3720
842.249	3667
842.385	3644
842.522	3846
842.659	3656
842.796	3663
842.933	3720
843.069	3656
843.206	3690
843.343	3819
843.479	3793
843.616	3831
843.752	3690
843.889	3709
844.025	3865
844.162	3732
844.298	3835
844.435	3797
844.571	3755
844.708	3899
844.844	3975
844.98	4032
845.117	4032
845.253	3918
845.389	3922
845.525	3972
845.661	3941
845.798	3945
845.934	4032
846.07	3953
846.206	4071
846.342	4116
846.478	4067
846.614	3964
846.75	3945
846.886	3907
847.022	4006
847.158	3983
847.294	4013
847.429	3960
847.565	3994
847.701	4219
847.837	3918
847.972	3865
848.108	3941
848.244	3975
848.379	3865
848.515	3804
848.65	3816
848.786	3816
848.921	3869
849.057	3956
849.192	3937
849.328	3903
849.463	3922
849.598	3911
849.734	3865
849.869	3850
850.004	3789
850.14	3831
850.275	3740
850.41	3728
850.545	3770
850.68	3785
850.815	3827
850.95	3804
851.085	3930
851.22	3842
851.355	3850
851.49	3770
851.625	3781
851.76	3759
851.895	3728
852.03	3755
852.165	3759
852.299	3819
852.434	3869
852.569	3892
852.703	3842
852.838	3941
852.973	3983
853.107	4006
853.242	3884
853.376	3876
853.511	3766
853.645	3835
853.78	3987
853.914	3873
854.048	3899
854.183	3896
854.317	3918
854.451	4063
854.585	3930
854.72	3975
854.854	4040
854.988	3968
855.122	3991
855.256	3880
855.39	3998
855.524	4169
855.658	4109
855.792	4051
855.926	4150
856.06	4162
856.194	4196
856.327	4128
856.461	4105
856.595	4192
856.729	4162
856.862	4337
856.996	4238
857.13	4280
857.263	4329
857.397	4352
857.53	4242
857.664	4341
857.797	4424
857.931	4500
858.064	4390
858.197	4459
858.331	4352
858.464	4367
858.597	4333
858.731	4424
858.864	4417
858.997	4478
859.13	4459
859.263	4550
859.396	4630
859.529	4493
859.662	4531
859.795	4481
859.928	4584
860.061	4698
860.194	4733
860.327	4653
860.46	4596
860.592	4752
860.725	4698
860.858	4755
860.99	4691
861.123	4698
861.256	4687
861.388	4809
861.521	5383
861.653	4714
861.786	4725
861.918	4816
862.05	4793
862.183	4793
862.315	4862
862.447	4923
862.58	4850
862.712	4763
862.844	4809
862.976	4908
863.108	4889
863.24	5261
863.372	4850
863.504	4877
863.636	4896
863.768	4968
863.9	4904
864.032	4949
864.164	4934
864.296	5064
864.428	5094
864.559	5109
864.691	5090
864.823	5124
864.954	5090
865.086	5181
865.217	5117
865.349	5109
865.48	5212
865.612	5185
865.743	5284
865.875	5212
866.006	5227
866.137	5261
866.269	5204
866.4	5212
866.531	5239
866.662	5250
866.793	5307
866.924	5284
867.055	5341
867.186	5307
867.317	5353
867.448	5303
867.579	5398
867.71	5398
867.841	5421
867.972	5448
868.103	5528
868.233	5471
868.364	5448
868.495	5551
868.625	5657
868.756	5805
868.886	5668
869.017	5737
869.147	5824
869.278	5889
869.408	5798
869.539	5798
869.669	5901
869.799	5958
869.929	6007
870.06	6007
870.19	6220
870.32	6178
870.45	6270
870.58	6319
870.71	6399
870.84	6445
870.97	6414
871.1	6460
871.23	6604
871.36	6711
871.489	6635
871.619	6738
871.749	6821
871.879	6905
872.008	6966
872.138	6962
872.267	6989
872.397	6996
872.526	7023
872.656	7065
872.785	7213
872.915	7274
873.044	7548
873.173	7525
873.303	7590
873.432	7731
873.561	7902
873.69	7940
873.819	8027
873.948	8195
874.077	8271
874.206	8355
874.335	8492
874.464	8682
874.593	8861
874.722	8986
874.851	9116
874.979	9260
875.108	9336
875.237	9363
875.365	9530
875.494	9671
875.623	9785
875.751	9819
875.88	10063
876.008	10154
876.136	10223
876.265	10478
876.393	10683
876.521	10721
876.65	10828
876.778	10809
876.906	10904
877.034	10999
877.162	11094
877.29	11121
877.418	11296
877.546	11307
877.674	11490
877.802	11471
877.93	11570
878.058	11589
878.185	11585
878.313	11699
878.441	11764
878.568	11665
878.696	11809
878.824	11859
878.951	11908
879.079	12060
879.206	12049
879.333	11984
879.461	11977
879.588	12098
879.715	11973
879.842	12190
879.97	12072
880.097	11859
880.224	11870
880.351	11912
880.478	11874
880.605	11832
880.732	11752
880.859	12015
880.986	11805
881.112	11882
881.239	11691
881.366	11672
881.493	11657
881.619	11570
881.746	11493
881.872	11497
881.999	11482
882.125	11532
882.252	11547
882.378	11459
882.505	11528
882.631	11315
882.757	11376
882.883	11315
883.01	11258
883.136	11227
883.262	11090
883.388	11079
883.514	11193
883.64	11155
883.766	11117
883.892	10915
884.018	11003
884.143	11033
884.269	11094
884.395	10801
884.52	10809
884.646	10740
884.772	10733
884.897	10683
885.023	10759
885.148	10698
885.274	10778
885.399	10706
885.524	10630
885.65	10637
885.775	10626
885.9	10615
886.025	10622
886.15	10588
886.275	10504
886.4	10451
886.525	10428
886.65	10284
886.775	10314
886.9	10466
887.025	10523
887.149	10398
887.274	10265
887.399	10242
887.523	10211
887.648	10120
887.773	10067
887.897	10192
888.021	10162
888.146	10173
888.27	10253
888.395	10242
888.519	10215
888.643	10181
888.767	10147
888.891	10135
889.015	10082
889.139	10082
889.263	10010
889.387	9994
889.511	10105
889.635	10105
889.759	9953
889.883	9884
890.006	9975
890.13	10120
890.254	9953
890.377	9941
890.501	9816
890.624	9857
890.748	9915
890.871	9781
890.995	9785
891.118	9743
891.241	9720
891.364	9736
891.488	9865
891.611	9641
891.734	9747
891.857	9781
891.98	9701
892.103	9724
892.226	9743
892.349	9694
892.471	9511
892.594	9587
892.717	9606
892.839	9576
892.962	9637
893.085	9633
893.207	9580
893.33	9549
893.452	9599
893.575	9679
893.697	9618
893.819	9606
893.941	9660
894.064	9599
894.186	9412
894.308	9374
894.43	9515
894.552	9549
894.674	9576
894.796	9389
894.918	9416
895.04	9389
895.161	9317
895.283	9344
895.405	9195
895.526	9256
895.648	9272
895.769	9211
895.891	9207
896.012	9283
896.134	9176
896.255	9249
896.376	9161
896.498	9127
896.619	9081
896.74	9058
896.861	9055
896.982	9245
897.103	9344
897.224	9146
897.345	8952
897.466	9009
897.587	9097
897.708	9024
897.828	8952
897.949	8899
898.07	8845
898.19	8887
898.311	9093
898.431	8929
898.552	8895
898.672	8929
898.792	8948
898.913	8876
899.033	8785
899.153	8785
899.273	8659
899.393	8750
899.513	8750
899.633	8708
899.753	8788
899.873	8712
899.993	8689
900.113	8682
900.232	8724
900.352	8670
900.472	8667
900.591	8526
900.711	8556
900.83	8537
900.95	8655
901.069	8682
901.189	8632
901.308	8457
901.427	8332
901.546	8442
901.665	8404
901.784	8503
901.904	8362
902.023	8294
902.141	8286
902.26	8248
902.379	8256
902.498	8195
902.617	8199
902.735	8317
902.854	8324
902.973	8244
903.091	8168
903.21	8130
903.328	8153
903.446	8142
903.565	7997
903.683	8031
903.801	8081
903.919	8142
904.038	8126
904.156	7970
904.274	8100
904.392	8039
904.51	8062
904.627	8065
904.745	8046
904.863	8031
904.981	7921
905.098	7845
905.216	7890
905.334	7928
905.451	7890
905.569	7841
905.686	7849
905.803	7849
905.921	7795
906.038	7852
906.155	7772
906.272	7696
906.389	7712
906.506	7670
906.623	7674
906.74	7670
906.857	7495
906.974	7575
907.091	7651
907.208	7772
907.324	7632
907.441	7514
907.557	7407
907.674	7449
907.79	7426
907.907	7381
908.023	7464
908.139	7373
908.256	7377
908.372	7396
908.488	7278
908.604	7259
908.72	7198
908.836	7316
908.952	7225
909.068	7285
909.184	7293
909.3	7289
909.415	7339
909.531	7285
909.647	7099
909.762	7152
909.878	7084
909.993	7095
910.108	7091
910.224	7091
910.339	7076
910.454	7050
910.57	7004
910.685	6970
910.8	7187
910.915	7137
911.03	7023
911.145	6848
911.259	6886
911.374	6928
911.489	6837
911.604	6787
911.718	6681
911.833	6734
911.947	6669
912.062	6616
912.176	6741
912.291	6677
912.405	6707
912.519	6825
912.633	6840
912.748	6745
912.862	6738
912.976	6612
913.09	6506
913.204	6570
913.318	6563
913.431	6665
913.545	6692
913.659	6711
913.772	6593
913.886	6582
914	6536
914.113	6646
914.226	6604
914.34	6593
914.453	6494
914.566	6601
914.68	6532
914.793	6578
914.906	6410
915.019	6395
915.132	6323
915.245	6456
915.358	6460
915.47	6452
915.583	6475
915.696	6517
915.809	6532
915.921	6570
916.034	6395
916.146	6418
916.259	6376
916.371	6506
916.483	6448
916.595	6399
916.708	6376
916.82	6418
916.932	6357
917.044	6350
917.156	6418
917.268	6323
917.38	6315
917.491	6304
917.603	6262
917.715	6433
917.826	6433
917.938	6353
918.049	6277
918.161	6361
918.272	6437
918.384	6410
918.495	6361
918.606	6281
918.717	6190
918.828	6270
918.939	6296
919.05	6201
919.161	6228
919.272	6140
919.383	6136
919.494	6251
919.604	6410
919.715	6300
919.826	6205
919.936	6258
920.047	6395
920.157	6266
920.267	6437
920.378	6353
920.488	6251
920.598	6448
920.708	6528
920.818	6418
920.928	6486
921.038	6616
921.148	6623
921.258	6323
921.368	6292
921.477	6235
921.587	6194
921.697	6087
921.806	6186
921.916	6083
922.025	5912
922.134	5927
922.244	5874
922.353	5965
922.462	5840
922.571	5824
922.68	5714
922.789	5657
922.898	5726
923.007	5589
923.116	5699
923.224	5634
923.333	5672
923.442	5592
923.55	5566
923.659	5566
923.767	5642
923.876	5589
923.984	5592
924.092	5543
924.201	5573
924.309	5562
924.417	5543
924.525	5429
924.633	5486
924.741	6239
924.849	5402
924.956	5474
925.064	5357
925.172	5395
925.279	5334
925.387	5341
925.494	5318
925.602	5410
925.709	5398
925.816	5239
925.924	5341
926.031	5402
926.138	5292
926.245	5357
926.352	5227
926.459	5303
926.566	5341
926.673	5159
926.779	5147
926.886	5048
926.993	5060
927.099	4995
927.206	4968
927.312	4927
927.419	4999
927.525	4930
927.631	5006
927.737	4911
927.843	4908
927.95	4767
928.056	4835
928.162	4805
928.267	4839
928.373	5360
928.479	4824
928.585	4687
928.69	4790
928.796	4793
928.901	4668
929.007	4569
929.112	4698
929.218	4637
929.323	4592
929.428	4542
929.533	4675
929.638	4535
929.743	4535
929.848	4546
929.953	4535
930.058	4470
930.163	4337
930.267	4325
930.372	4440
930.477	4310
930.581	4489
930.685	4333
930.79	4284
930.894	4276
930.998	4223
931.103	4440
931.207	4082
931.311	4074
931.415	4025
931.519	3972
931.623	3884
