Data from glass_V78500241_2243.txt Node
Date: Wed Sep 01 19:30:02 CST 2021
User: usil
Spectrometer: V785-0024
Trigger mode: 0
Integration Time (sec): 4.000000E-1
Scans to average: 1
Nonlinearity correction enabled: false
Boxcar width: 0
Storing dark spectrum: false
XAxis mode: Wavelengths
Number of Pixels in Spectrum: 1024
>>>>>Begin Spectral Data<<<<<
801.071	3736
801.214	3743
801.356	3648
801.499	3728
801.641	3751
801.783	3743
801.926	3827
802.068	3854
802.211	3827
802.353	3838
802.496	3816
802.638	3899
802.78	3861
802.923	3926
803.065	3899
803.208	3861
803.35	3823
803.492	3896
803.635	3907
803.777	3854
803.919	3850
804.061	4143
804.204	3930
804.346	3960
804.488	3922
804.63	3979
804.773	3956
804.915	4025
805.057	4154
805.199	4025
805.341	4067
805.483	4150
805.626	4154
805.768	4093
805.91	4215
806.052	4188
806.194	4188
806.336	4348
806.478	4166
806.62	4147
806.762	4173
806.904	4207
807.046	4295
807.188	4169
807.33	4154
807.472	4261
807.614	4173
807.756	4230
807.898	4249
808.04	4249
808.182	4234
808.324	4291
808.465	4360
808.607	4417
808.749	4443
808.891	4455
809.033	4481
809.174	4402
809.316	4204
809.458	4204
809.6	4120
809.741	4131
809.883	4150
810.025	4219
810.166	4192
810.308	4169
810.45	4192
810.591	4242
810.733	4272
810.875	4546
811.016	4809
811.158	5147
811.299	5322
811.441	5307
811.582	5064
811.724	4683
811.865	4470
812.007	4497
812.148	4417
812.29	4383
812.431	4371
812.573	4390
812.714	4352
812.855	4402
812.997	4394
813.138	4455
813.279	4424
813.421	4371
813.562	4363
813.703	4314
813.845	4367
813.986	4223
814.127	4211
814.268	4276
814.41	4261
814.551	4219
814.692	4322
814.833	4265
814.974	4310
815.115	4318
815.256	4223
815.397	4223
815.539	4219
815.68	4162
815.821	4196
815.962	4310
816.103	4276
816.244	4249
816.385	4238
816.526	4230
816.666	4185
816.807	4090
816.948	4188
817.089	4162
817.23	4105
817.371	4059
817.512	4021
817.653	4044
817.793	4021
817.934	4025
818.075	4093
818.216	4063
818.356	4067
818.497	3991
818.638	3956
818.778	3934
818.919	3892
819.06	3827
819.2	3922
819.341	3850
819.481	3850
819.622	3899
819.762	4017
819.903	3953
820.043	3831
820.184	3808
820.324	3857
820.465	3884
820.605	3850
820.746	3835
820.886	3766
821.026	3911
821.167	3926
821.307	4002
821.447	3975
821.588	3972
821.728	3987
821.868	3934
822.008	3842
822.149	3911
822.289	3896
822.429	3785
822.569	3747
822.709	3793
822.849	3671
822.99	3682
823.13	3743
823.27	3781
823.41	3743
823.55	3740
823.69	3701
823.83	3732
823.97	3690
824.11	3625
824.25	3629
824.389	3637
824.529	3675
824.669	3599
824.809	3686
824.949	3724
825.089	3701
825.228	3679
825.368	3595
825.508	3542
825.648	3553
825.787	3629
825.927	3618
826.067	3656
826.206	3713
826.346	3736
826.485	3819
826.625	3880
826.765	3949
826.904	3838
827.044	3606
827.183	3492
827.323	3405
827.462	3469
827.601	3401
827.741	3409
827.88	3447
828.02	3355
828.159	3481
828.298	3481
828.437	3511
828.577	3485
828.716	3542
828.855	3500
828.994	3355
829.134	3397
829.273	3382
829.412	3336
829.551	3355
829.69	3359
829.829	3397
829.968	3481
830.107	3450
830.246	3435
830.385	3351
830.524	3370
830.663	3310
830.802	3222
830.941	3214
831.08	3188
831.219	3253
831.357	3233
831.496	3386
831.635	3268
831.774	3203
831.913	3218
832.051	3104
832.19	3154
832.329	3176
832.467	3135
832.606	3100
832.744	3165
832.883	3195
833.022	3211
833.16	3256
833.299	3264
833.437	3313
833.576	3344
833.714	3420
833.852	3420
833.991	3447
834.129	3488
834.267	3454
834.406	3405
834.544	3382
834.682	3397
834.821	3401
834.959	3557
835.097	3416
835.235	3500
835.373	3481
835.511	3530
835.65	3454
835.788	3492
835.926	3401
836.064	3344
836.202	3412
836.34	3526
836.478	3542
836.615	3549
836.753	3587
836.891	3629
837.029	3591
837.167	3580
837.305	3572
837.443	3526
837.58	3488
837.718	3561
837.856	3553
837.993	3500
838.131	3576
838.269	3549
838.406	3557
838.544	3519
838.681	3458
838.819	3447
838.956	3405
839.094	3420
839.231	3405
839.369	3477
839.506	3720
839.643	3603
839.781	3488
839.918	3409
840.055	3530
840.193	3545
840.33	3542
840.467	3519
840.604	3595
840.742	3831
840.879	3507
841.016	3542
841.153	3564
841.29	3743
841.427	3667
841.564	3709
841.701	3717
841.838	3698
841.975	3675
842.112	3682
842.249	3637
842.385	3622
842.522	3808
842.659	3686
842.796	3660
842.933	3686
843.069	3709
843.206	3698
843.343	3797
843.479	3766
843.616	3797
843.752	3682
843.889	3675
844.025	3869
844.162	3705
844.298	3869
844.435	3751
844.571	3770
844.708	3903
844.844	3964
844.98	3998
845.117	3941
845.253	3926
845.389	3899
845.525	3968
845.661	3968
845.798	3915
845.934	3975
846.07	3953
846.206	4071
846.342	4097
846.478	4078
846.614	3960
846.75	3972
846.886	3892
847.022	4036
847.158	3968
847.294	4002
847.429	4010
847.565	3975
847.701	4257
847.837	3892
847.972	3827
848.108	3945
848.244	3975
848.379	3846
848.515	3819
848.65	3876
848.786	3804
848.921	3876
849.057	3892
849.192	3968
849.328	3880
849.463	3911
849.598	3884
849.734	3880
849.869	3808
850.004	3770
850.14	3819
850.275	3766
850.41	3762
850.545	3736
850.68	3774
850.815	3774
850.95	3747
851.085	3937
851.22	3918
851.355	3831
851.49	3728
851.625	3819
851.76	3766
851.895	3698
852.03	3724
852.165	3766
852.299	3850
852.434	3926
852.569	3835
852.703	3888
852.838	3922
852.973	3994
853.107	3979
853.242	3869
853.376	3854
853.511	3819
853.645	3835
853.78	4013
853.914	3907
854.048	3934
854.183	3888
854.317	3949
854.451	4074
854.585	3945
854.72	3903
854.854	4021
854.988	3953
855.122	3994
855.256	3941
855.39	3983
855.524	4025
855.658	4097
855.792	4090
855.926	4131
856.06	4185
856.194	4219
856.327	4128
856.461	4101
856.595	4154
856.729	4147
856.862	4287
856.996	4204
857.13	4295
857.263	4322
857.397	4379
857.53	4268
857.664	4310
857.797	4398
857.931	4367
858.064	4417
858.197	4383
858.331	4405
858.464	4386
858.597	4352
858.731	4440
858.864	4451
858.997	4462
859.13	4489
859.263	4485
859.396	4569
859.529	4508
859.662	4504
859.795	4493
859.928	4607
860.061	4698
860.194	4675
860.327	4683
860.46	4645
860.592	4736
860.725	4740
860.858	4782
860.99	4733
861.123	4660
861.256	4698
861.388	4725
861.521	5398
861.653	4668
861.786	4698
861.918	4733
862.05	4767
862.183	4847
862.315	4885
862.447	4949
862.58	4831
862.712	4812
862.844	4740
862.976	4908
863.108	4873
863.24	5174
863.372	4885
863.504	4892
863.636	4889
863.768	4957
863.9	4972
864.032	4946
864.164	4892
864.296	4957
864.428	5075
864.559	5094
864.691	5151
864.823	5121
864.954	5041
865.086	5128
865.217	5071
865.349	5067
865.48	5140
865.612	5261
865.743	5296
865.875	5181
866.006	5185
866.137	5193
866.269	5231
866.4	5235
866.531	5208
866.662	5235
866.793	5250
866.924	5326
867.055	5376
867.186	5360
867.317	5311
867.448	5345
867.579	5341
867.71	5383
867.841	5376
867.972	5459
868.103	5455
868.233	5516
868.364	5486
868.495	5547
868.625	5661
868.756	5710
868.886	5691
869.017	5745
869.147	5828
869.278	5870
869.408	5775
869.539	5836
869.669	5882
869.799	5927
869.929	5946
870.06	6053
870.19	6197
870.32	6213
870.45	6232
870.58	6353
870.71	6441
870.84	6357
870.97	6441
871.1	6460
871.23	6639
871.36	6684
871.489	6608
871.619	6734
871.749	6783
871.879	6863
872.008	6962
872.138	6935
872.267	6943
872.397	7019
872.526	7084
872.656	7053
872.785	7156
872.915	7346
873.044	7502
873.173	7567
873.303	7643
873.432	7685
873.561	7909
873.69	7814
873.819	8039
873.948	8149
874.077	8240
874.206	8282
874.335	8450
874.464	8674
874.593	8921
874.722	8853
874.851	9062
874.979	9351
875.108	9348
875.237	9397
875.365	9488
875.494	9637
875.623	9819
875.751	9892
875.88	9972
876.008	10116
876.136	10280
876.265	10481
876.393	10717
876.521	10683
876.65	10877
876.778	10892
876.906	10885
877.034	11006
877.162	11006
877.29	11162
877.418	11303
877.546	11448
877.674	11478
877.802	11436
877.93	11448
878.058	11520
878.185	11596
878.313	11627
878.441	11684
878.568	11657
878.696	11859
878.824	11912
878.951	11908
879.079	12064
879.206	12045
879.333	12030
879.461	11863
879.588	12015
879.715	12083
879.842	12136
879.97	12038
880.097	11882
880.224	11813
880.351	11859
880.478	11961
880.605	11847
880.732	11798
880.859	12045
880.986	11813
881.112	11756
881.239	11741
881.366	11691
881.493	11596
881.619	11577
881.746	11581
881.872	11532
881.999	11509
882.125	11486
882.252	11615
882.378	11501
882.505	11562
882.631	11360
882.757	11269
882.883	11349
883.01	11315
883.136	11227
883.262	11124
883.388	11014
883.514	11083
883.64	11136
883.766	11060
883.892	11014
884.018	11029
884.143	11113
884.269	11067
884.395	10828
884.52	10729
884.646	10736
884.772	10740
884.897	10607
885.023	10694
885.148	10706
885.274	10801
885.399	10733
885.524	10637
885.65	10550
885.775	10580
885.9	10535
886.025	10607
886.15	10565
886.275	10341
886.4	10405
886.525	10367
886.65	10322
886.775	10333
886.9	10421
887.025	10508
887.149	10356
887.274	10238
887.399	10109
887.523	10131
887.648	10101
887.773	10093
887.897	10238
888.021	10227
888.146	10128
888.27	10230
888.395	10158
888.519	10173
888.643	10207
888.767	10154
888.891	10086
889.015	10036
889.139	10090
889.263	9994
889.387	10124
889.511	10048
889.635	10078
889.759	9907
889.883	10006
890.006	9972
890.13	10131
890.254	9892
890.377	10029
890.501	9842
890.624	9884
890.748	9873
890.871	9766
890.995	9781
891.118	9698
891.241	9728
891.364	9743
891.488	9819
891.611	9751
891.734	9766
891.857	9766
891.98	9701
892.103	9705
892.226	9774
892.349	9663
892.471	9584
892.594	9553
892.717	9660
892.839	9561
892.962	9625
893.085	9648
893.207	9504
893.33	9519
893.452	9492
893.575	9610
893.697	9435
893.819	9595
893.941	9576
894.064	9542
894.186	9416
894.308	9374
894.43	9496
894.552	9545
894.674	9515
894.796	9344
894.918	9412
895.04	9355
895.161	9317
895.283	9389
895.405	9249
895.526	9268
895.648	9169
895.769	9279
895.891	9233
896.012	9283
896.134	9253
896.255	9123
896.376	9131
896.498	9146
896.619	9131
896.74	9108
896.861	9116
896.982	9135
897.103	9253
897.224	9135
897.345	8994
897.466	8986
897.587	9036
897.708	9116
897.828	9020
897.949	8994
898.07	8891
898.19	8929
898.311	9013
898.431	8887
898.552	8864
898.672	8982
898.792	8956
898.913	8864
899.033	8781
899.153	8743
899.273	8686
899.393	8697
899.513	8712
899.633	8762
899.753	8750
899.873	8678
899.993	8697
900.113	8693
900.232	8766
900.352	8568
900.472	8530
900.591	8530
900.711	8590
900.83	8530
900.95	8625
901.069	8731
901.189	8575
901.308	8492
901.427	8442
901.546	8427
901.665	8457
901.784	8552
901.904	8434
902.023	8305
902.141	8263
902.26	8164
902.379	8263
902.498	8202
902.617	8206
902.735	8240
902.854	8286
902.973	8263
903.091	8145
903.21	8119
903.328	8149
903.446	8073
903.565	8039
903.683	8046
903.801	8046
903.919	8130
904.038	8107
904.156	7978
904.274	8054
904.392	8039
904.51	7986
904.627	8058
904.745	8092
904.863	8077
904.981	7978
905.098	7909
905.216	7856
905.334	7887
905.451	7871
905.569	7856
905.686	7925
905.803	7879
905.921	7769
906.038	7894
906.155	7761
906.272	7708
906.389	7643
906.506	7639
906.623	7609
906.74	7571
906.857	7567
906.974	7548
907.091	7715
907.208	7689
907.324	7632
907.441	7575
907.557	7460
907.674	7453
907.79	7358
907.907	7396
908.023	7419
908.139	7388
908.256	7324
908.372	7384
908.488	7369
908.604	7289
908.72	7213
908.836	7274
908.952	7187
909.068	7282
909.184	7297
909.3	7255
909.415	7270
909.531	7285
909.647	7103
909.762	7084
909.878	7080
909.993	7137
910.108	7145
910.224	7069
910.339	7069
910.454	7065
910.57	6935
910.685	6973
910.8	7168
910.915	7038
911.03	7053
911.145	6878
911.259	6882
911.374	6909
911.489	6825
911.604	6821
911.718	6681
911.833	6776
911.947	6673
912.062	6559
912.176	6707
912.291	6730
912.405	6734
912.519	6791
912.633	6818
912.748	6681
912.862	6703
912.976	6578
913.09	6544
913.204	6589
913.318	6578
913.431	6616
913.545	6722
913.659	6620
913.772	6662
913.886	6589
914	6547
914.113	6623
914.226	6593
914.34	6623
914.453	6464
914.566	6589
914.68	6555
914.793	6506
914.906	6391
915.019	6418
915.132	6418
915.245	6433
915.358	6399
915.47	6422
915.583	6422
915.696	6414
915.809	6570
915.921	6559
916.034	6471
916.146	6403
916.259	6399
916.371	6384
916.483	6437
916.595	6357
916.708	6350
916.82	6399
916.932	6346
917.044	6395
917.156	6407
917.268	6350
917.38	6292
917.491	6346
917.603	6357
917.715	6361
917.826	6410
917.938	6308
918.049	6277
918.161	6369
918.272	6399
918.384	6433
918.495	6319
918.606	6190
918.717	6220
918.828	6224
918.939	6243
919.05	6144
919.161	6247
919.272	6114
919.383	6163
919.494	6296
919.604	6391
919.715	6266
919.826	6163
919.936	6277
920.047	6311
920.157	6254
920.267	6407
920.378	6281
920.488	6277
920.598	6426
920.708	6490
920.818	6467
920.928	6471
921.038	6536
921.148	6570
921.258	6342
921.368	6266
921.477	6232
921.587	6121
921.697	6057
921.806	6155
921.916	6049
922.025	5908
922.134	5923
922.244	5893
922.353	5939
922.462	5836
922.571	5779
922.68	5649
922.789	5691
922.898	5726
923.007	5646
923.116	5657
923.224	5684
923.333	5642
923.442	5646
923.55	5573
923.659	5570
923.767	5676
923.876	5505
923.984	5592
924.092	5532
924.201	5562
924.309	5543
924.417	5539
924.525	5448
924.633	5471
924.741	6239
924.849	5345
924.956	5482
925.064	5326
925.172	5246
925.279	5265
925.387	5364
925.494	5292
925.602	5436
925.709	5326
925.816	5227
925.924	5311
926.031	5421
926.138	5258
926.245	5322
926.352	5189
926.459	5337
926.566	5265
926.673	5193
926.779	5151
926.886	5124
926.993	5018
927.099	4972
927.206	5003
927.312	4911
927.419	5029
927.525	4987
927.631	4976
927.737	4858
927.843	4812
927.95	4752
928.056	4858
928.162	4847
928.267	4831
928.373	5303
928.479	4820
928.585	4702
928.69	4710
928.796	4759
928.901	4653
929.007	4588
929.112	4679
929.218	4649
929.323	4596
929.428	4558
929.533	4656
929.638	4519
929.743	4542
929.848	4554
929.953	4516
930.058	4421
930.163	4325
930.267	4363
930.372	4394
930.477	4276
930.581	4462
930.685	4306
930.79	4261
930.894	4276
930.998	4242
931.103	4367
931.207	4074
931.311	4063
931.415	4013
931.519	3937
931.623	3941
