Data from glass_V78500241_2894.txt Node
Date: Wed Sep 01 19:34:33 CST 2021
User: usil
Spectrometer: V785-0024
Trigger mode: 0
Integration Time (sec): 4.000000E-1
Scans to average: 1
Nonlinearity correction enabled: false
Boxcar width: 0
Storing dark spectrum: false
XAxis mode: Wavelengths
Number of Pixels in Spectrum: 1024
>>>>>Begin Spectral Data<<<<<
801.071	3743
801.214	3743
801.356	3675
801.499	3698
801.641	3713
801.783	3759
801.926	3823
802.068	3797
802.211	3835
802.353	3842
802.496	3838
802.638	3827
802.78	3861
802.923	3884
803.065	3869
803.208	3850
803.35	3827
803.492	3876
803.635	3865
803.777	3778
803.919	3865
804.061	4116
804.204	3892
804.346	3941
804.488	3937
804.63	3994
804.773	3987
804.915	3968
805.057	4101
805.199	4002
805.341	4055
805.483	4139
805.626	4124
805.768	4063
805.91	4196
806.052	4188
806.194	4173
806.336	4341
806.478	4143
806.62	4169
806.762	4162
806.904	4215
807.046	4291
807.188	4158
807.33	4181
807.472	4219
807.614	4150
807.756	4211
807.898	4246
808.04	4196
808.182	4268
808.324	4303
808.465	4344
808.607	4409
808.749	4451
808.891	4443
809.033	4485
809.174	4367
809.316	4219
809.458	4230
809.6	4177
809.741	4101
809.883	4166
810.025	4211
810.166	4204
810.308	4207
810.45	4242
810.591	4242
810.733	4280
810.875	4497
811.016	4782
811.158	5147
811.299	5280
811.441	5254
811.582	5041
811.724	4706
811.865	4428
812.007	4424
812.148	4413
812.29	4402
812.431	4367
812.573	4371
812.714	4352
812.855	4379
812.997	4329
813.138	4413
813.279	4386
813.421	4375
813.562	4413
813.703	4299
813.845	4329
813.986	4242
814.127	4158
814.268	4246
814.41	4227
814.551	4223
814.692	4291
814.833	4268
814.974	4280
815.115	4337
815.256	4234
815.397	4223
815.539	4242
815.68	4173
815.821	4169
815.962	4314
816.103	4291
816.244	4211
816.385	4173
816.526	4230
816.666	4211
816.807	4120
816.948	4177
817.089	4147
817.23	4082
817.371	4063
817.512	3994
817.653	4036
817.793	4036
817.934	3998
818.075	4048
818.216	4067
818.356	4097
818.497	3983
818.638	3892
818.778	3907
818.919	3869
819.06	3804
819.2	3918
819.341	3800
819.481	3800
819.622	3869
819.762	3979
819.903	3945
820.043	3816
820.184	3804
820.324	3770
820.465	3850
820.605	3857
820.746	3850
820.886	3778
821.026	3915
821.167	3854
821.307	3979
821.447	3934
821.588	3956
821.728	3926
821.868	3873
822.008	3827
822.149	3846
822.289	3880
822.429	3747
822.569	3709
822.709	3766
822.849	3709
822.99	3694
823.13	3736
823.27	3785
823.41	3694
823.55	3705
823.69	3705
823.83	3728
823.97	3652
824.11	3580
824.25	3572
824.389	3587
824.529	3622
824.669	3557
824.809	3698
824.949	3743
825.089	3713
825.228	3690
825.368	3545
825.508	3572
825.648	3561
825.787	3568
825.927	3595
826.067	3564
826.206	3663
826.346	3800
826.485	3812
826.625	3838
826.765	3899
826.904	3816
827.044	3610
827.183	3507
827.323	3412
827.462	3454
827.601	3428
827.741	3397
827.88	3431
828.02	3374
828.159	3428
828.298	3454
828.437	3496
828.577	3435
828.716	3610
828.855	3454
828.994	3401
829.134	3401
829.273	3351
829.412	3336
829.551	3355
829.69	3344
829.829	3344
829.968	3481
830.107	3378
830.246	3416
830.385	3336
830.524	3329
830.663	3306
830.802	3264
830.941	3195
831.08	3195
831.219	3279
831.357	3233
831.496	3412
831.635	3188
831.774	3180
831.913	3188
832.051	3112
832.19	3131
832.329	3214
832.467	3142
832.606	3077
832.744	3150
832.883	3192
833.022	3192
833.16	3207
833.299	3298
833.437	3329
833.576	3329
833.714	3370
833.852	3397
833.991	3424
834.129	3447
834.267	3397
834.406	3389
834.544	3374
834.682	3389
834.821	3374
834.959	3564
835.097	3401
835.235	3538
835.373	3507
835.511	3458
835.65	3401
835.788	3462
835.926	3416
836.064	3321
836.202	3412
836.34	3564
836.478	3568
836.615	3530
836.753	3603
836.891	3625
837.029	3610
837.167	3545
837.305	3564
837.443	3504
837.58	3477
837.718	3595
837.856	3542
837.993	3530
838.131	3545
838.269	3603
838.406	3549
838.544	3568
838.681	3450
838.819	3416
838.956	3344
839.094	3386
839.231	3428
839.369	3447
839.506	3720
839.643	3553
839.781	3454
839.918	3447
840.055	3515
840.193	3515
840.33	3492
840.467	3542
840.604	3553
840.742	3770
840.879	3542
841.016	3515
841.153	3603
841.29	3724
841.427	3724
841.564	3732
841.701	3724
841.838	3675
841.975	3663
842.112	3717
842.249	3641
842.385	3648
842.522	3785
842.659	3644
842.796	3682
842.933	3679
843.069	3690
843.206	3713
843.343	3759
843.479	3732
843.616	3804
843.752	3667
843.889	3671
844.025	3873
844.162	3690
844.298	3804
844.435	3755
844.571	3751
844.708	3865
844.844	3960
844.98	4013
845.117	3968
845.253	3892
845.389	3880
845.525	3941
845.661	3899
845.798	3896
845.934	4021
846.07	3911
846.206	4055
846.342	4112
846.478	3998
846.614	3915
846.75	3911
846.886	3884
847.022	4044
847.158	3907
847.294	4044
847.429	3991
847.565	3991
847.701	4204
847.837	3880
847.972	3846
848.108	3937
848.244	3941
848.379	3785
848.515	3759
848.65	3762
848.786	3819
848.921	3808
849.057	3892
849.192	3896
849.328	3865
849.463	3888
849.598	3861
849.734	3850
849.869	3778
850.004	3774
850.14	3789
850.275	3732
850.41	3694
850.545	3720
850.68	3728
850.815	3781
850.95	3766
851.085	3941
851.22	3838
851.355	3743
851.49	3797
851.625	3762
851.76	3766
851.895	3656
852.03	3686
852.165	3724
852.299	3880
852.434	3892
852.569	3835
852.703	3835
852.838	3884
852.973	3991
853.107	3964
853.242	3869
853.376	3835
853.511	3766
853.645	3816
853.78	3964
853.914	3865
854.048	3865
854.183	3880
854.317	3911
854.451	4036
854.585	3930
854.72	3945
854.854	4029
854.988	3915
855.122	3979
855.256	3930
855.39	3987
855.524	4082
855.658	4090
855.792	4090
855.926	4109
856.06	4147
856.194	4207
856.327	4154
856.461	4124
856.595	4166
856.729	4166
856.862	4234
856.996	4249
857.13	4284
857.263	4295
857.397	4303
857.53	4276
857.664	4329
857.797	4360
857.931	4344
858.064	4356
858.197	4421
858.331	4356
858.464	4443
858.597	4337
858.731	4379
858.864	4367
858.997	4451
859.13	4546
859.263	4451
859.396	4599
859.529	4500
859.662	4546
859.795	4497
859.928	4622
860.061	4649
860.194	4660
860.327	4649
860.46	4664
860.592	4668
860.725	4744
860.858	4717
860.99	4683
861.123	4683
861.256	4706
861.388	4729
861.521	5383
861.653	4691
861.786	4664
861.918	4694
862.05	4771
862.183	4812
862.315	4889
862.447	4896
862.58	4915
862.712	4740
862.844	4748
862.976	4839
863.108	4835
863.24	5147
863.372	4771
863.504	4843
863.636	4870
863.768	4946
863.9	4942
864.032	4900
864.164	4972
864.296	4984
864.428	5067
864.559	5067
864.691	5124
864.823	5094
864.954	5071
865.086	5147
865.217	5098
865.349	5098
865.48	5105
865.612	5136
865.743	5284
865.875	5132
866.006	5174
866.137	5193
866.269	5174
866.4	5220
866.531	5269
866.662	5239
866.793	5242
866.924	5254
867.055	5315
867.186	5326
867.317	5357
867.448	5273
867.579	5379
867.71	5372
867.841	5357
867.972	5391
868.103	5471
868.233	5425
868.364	5474
868.495	5570
868.625	5661
868.756	5779
868.886	5688
869.017	5710
869.147	5824
869.278	5870
869.408	5805
869.539	5790
869.669	5863
869.799	5931
869.929	5950
870.06	6022
870.19	6159
870.32	6194
870.45	6254
870.58	6353
870.71	6479
870.84	6407
870.97	6372
871.1	6445
871.23	6601
871.36	6601
871.489	6677
871.619	6719
871.749	6783
871.879	6905
872.008	6954
872.138	6973
872.267	6989
872.397	6954
872.526	7038
872.656	7038
872.785	7206
872.915	7305
873.044	7510
873.173	7529
873.303	7636
873.432	7719
873.561	7803
873.69	7864
873.819	8020
873.948	8134
874.077	8252
874.206	8275
874.335	8404
874.464	8621
874.593	8807
874.722	8902
874.851	9055
874.979	9176
875.108	9329
875.237	9466
875.365	9454
875.494	9603
875.623	9797
875.751	9762
875.88	9934
876.008	10040
876.136	10177
876.265	10512
876.393	10637
876.521	10622
876.65	10816
876.778	10854
876.906	10835
877.034	10908
877.162	11060
877.29	11048
877.418	11258
877.546	11337
877.674	11463
877.802	11376
877.93	11539
878.058	11570
878.185	11532
878.313	11596
878.441	11752
878.568	11630
878.696	11783
878.824	11851
878.951	11882
879.079	12026
879.206	12140
879.333	11973
879.461	11939
879.588	12019
879.715	12049
879.842	12178
879.97	12019
880.097	11874
880.224	11821
880.351	11870
880.478	11977
880.605	11843
880.732	11741
880.859	12003
880.986	11764
881.112	11794
881.239	11729
881.366	11600
881.493	11653
881.619	11532
881.746	11524
881.872	11535
881.999	11482
882.125	11448
882.252	11478
882.378	11433
882.505	11474
882.631	11322
882.757	11246
882.883	11318
883.01	11185
883.136	11132
883.262	11052
883.388	11124
883.514	11235
883.64	11140
883.766	11105
883.892	10987
884.018	10968
884.143	11014
884.269	11113
884.395	10778
884.52	10797
884.646	10717
884.772	10683
884.897	10618
885.023	10645
885.148	10759
885.274	10740
885.399	10615
885.524	10596
885.65	10535
885.775	10500
885.9	10527
886.025	10565
886.15	10523
886.275	10409
886.4	10325
886.525	10360
886.65	10337
886.775	10303
886.9	10371
887.025	10436
887.149	10249
887.274	10280
887.399	10242
887.523	10109
887.648	10071
887.773	10105
887.897	10207
888.021	10234
888.146	10120
888.27	10261
888.395	10124
888.519	10139
888.643	10105
888.767	10215
888.891	10044
889.015	9979
889.139	10071
889.263	10013
889.387	10051
889.511	10112
889.635	10090
889.759	9987
889.883	9903
890.006	9945
890.13	10036
890.254	9911
890.377	9941
890.501	9816
890.624	9835
890.748	9850
890.871	9759
890.995	9785
891.118	9633
891.241	9740
891.364	9778
891.488	9857
891.611	9713
891.734	9690
891.857	9728
891.98	9709
892.103	9819
892.226	9705
892.349	9625
892.471	9431
892.594	9485
892.717	9572
892.839	9599
892.962	9557
893.085	9545
893.207	9561
893.33	9466
893.452	9534
893.575	9507
893.697	9500
893.819	9599
893.941	9553
894.064	9534
894.186	9416
894.308	9325
894.43	9515
894.552	9492
894.674	9408
894.796	9340
894.918	9370
895.04	9302
895.161	9340
895.283	9279
895.405	9226
895.526	9253
895.648	9195
895.769	9291
895.891	9237
896.012	9222
896.134	9226
896.255	9123
896.376	9112
896.498	9146
896.619	9074
896.74	9028
896.861	9123
896.982	9253
897.103	9344
897.224	9070
897.345	9051
897.466	9001
897.587	8891
897.708	9001
897.828	9032
897.949	8956
898.07	8834
898.19	8929
898.311	8960
898.431	8815
898.552	8925
898.672	8910
898.792	8880
898.913	8857
899.033	8796
899.153	8746
899.273	8594
899.393	8667
899.513	8750
899.633	8693
899.753	8777
899.873	8682
899.993	8716
900.113	8689
900.232	8689
900.352	8594
900.472	8579
900.591	8518
900.711	8564
900.83	8495
900.95	8659
901.069	8651
901.189	8492
901.308	8419
901.427	8438
901.546	8362
901.665	8511
901.784	8492
901.904	8328
902.023	8263
902.141	8187
902.26	8187
902.379	8199
902.498	8275
902.617	8191
902.735	8317
902.854	8183
902.973	8180
903.091	8096
903.21	8138
903.328	8210
903.446	8119
903.565	8065
903.683	8050
903.801	8001
903.919	8107
904.038	8115
904.156	8020
904.274	8054
904.392	8005
904.51	7932
904.627	7982
904.745	8077
904.863	8073
904.981	7925
905.098	7784
905.216	7818
905.334	7833
905.451	7833
905.569	7849
905.686	7902
905.803	7856
905.921	7769
906.038	7814
906.155	7799
906.272	7670
906.389	7712
906.506	7605
906.623	7628
906.74	7628
906.857	7514
906.974	7525
907.091	7613
907.208	7677
907.324	7597
907.441	7563
907.557	7426
907.674	7377
907.79	7392
907.907	7430
908.023	7388
908.139	7403
908.256	7403
908.372	7346
908.488	7316
908.604	7247
908.72	7194
908.836	7251
908.952	7232
909.068	7171
909.184	7327
909.3	7183
909.415	7263
909.531	7206
909.647	7107
909.762	7141
909.878	7004
909.993	7129
910.108	6993
910.224	7012
910.339	7103
910.454	7015
910.57	6932
910.685	6924
910.8	7122
910.915	7000
911.03	7023
911.145	6894
911.259	6772
911.374	6878
911.489	6802
911.604	6798
911.718	6612
911.833	6749
911.947	6646
912.062	6589
912.176	6635
912.291	6707
912.405	6639
912.519	6791
912.633	6840
912.748	6654
912.862	6623
912.976	6555
913.09	6479
913.204	6536
913.318	6555
913.431	6616
913.545	6635
913.659	6677
913.772	6646
913.886	6547
914	6532
914.113	6570
914.226	6566
914.34	6604
914.453	6494
914.566	6555
914.68	6521
914.793	6506
914.906	6437
915.019	6403
915.132	6311
915.245	6410
915.358	6342
915.47	6452
915.583	6369
915.696	6456
915.809	6445
915.921	6540
916.034	6391
916.146	6384
916.259	6369
916.371	6414
916.483	6429
916.595	6319
916.708	6395
916.82	6372
916.932	6357
917.044	6308
917.156	6388
917.268	6331
917.38	6361
917.491	6304
917.603	6327
917.715	6376
917.826	6422
917.938	6334
918.049	6273
918.161	6361
918.272	6452
918.384	6361
918.495	6262
918.606	6232
918.717	6178
918.828	6216
918.939	6266
919.05	6213
919.161	6178
919.272	6057
919.383	6095
919.494	6232
919.604	6372
919.715	6194
919.826	6224
919.936	6273
920.047	6308
920.157	6216
920.267	6429
920.378	6296
920.488	6296
920.598	6418
920.708	6563
920.818	6460
920.928	6395
921.038	6597
921.148	6506
921.258	6331
921.368	6319
921.477	6178
921.587	6102
921.697	6072
921.806	6144
921.916	6091
922.025	5912
922.134	5878
922.244	5878
922.353	5942
922.462	5794
922.571	5813
922.68	5676
922.789	5657
922.898	5691
923.007	5615
923.116	5722
923.224	5630
923.333	5589
923.442	5596
923.55	5558
923.659	5600
923.767	5600
923.876	5520
923.984	5566
924.092	5516
924.201	5501
924.309	5558
924.417	5478
924.525	5490
924.633	5474
924.741	6106
924.849	5330
924.956	5429
925.064	5345
925.172	5288
925.279	5261
925.387	5364
925.494	5307
925.602	5391
925.709	5376
925.816	5254
925.924	5311
926.031	5345
926.138	5277
926.245	5334
926.352	5170
926.459	5280
926.566	5387
926.673	5181
926.779	5109
926.886	5064
926.993	5060
927.099	4991
927.206	4995
927.312	4946
927.419	4976
927.525	4934
927.631	4987
927.737	4881
927.843	4793
927.95	4736
928.056	4812
928.162	4790
928.267	4835
928.373	5299
928.479	4831
928.585	4687
928.69	4733
928.796	4778
928.901	4683
929.007	4558
929.112	4626
929.218	4626
929.323	4596
929.428	4588
929.533	4618
929.638	4497
929.743	4500
929.848	4535
929.953	4481
930.058	4405
930.163	4303
930.267	4333
930.372	4398
930.477	4265
930.581	4413
930.685	4333
930.79	4253
930.894	4230
930.998	4227
931.103	4379
931.207	4150
931.311	4048
931.415	4006
931.519	3896
931.623	3956
