Data from glass_V78500241_2399.txt Node
Date: Wed Sep 01 19:31:07 CST 2021
User: usil
Spectrometer: V785-0024
Trigger mode: 0
Integration Time (sec): 4.000000E-1
Scans to average: 1
Nonlinearity correction enabled: false
Boxcar width: 0
Storing dark spectrum: false
XAxis mode: Wavelengths
Number of Pixels in Spectrum: 1024
>>>>>Begin Spectral Data<<<<<
801.071	3717
801.214	3709
801.356	3724
801.499	3736
801.641	3705
801.783	3835
801.926	3808
802.068	3781
802.211	3861
802.353	3880
802.496	3816
802.638	3854
802.78	3922
802.923	3941
803.065	3915
803.208	3827
803.35	3880
803.492	3896
803.635	3930
803.777	3827
803.919	3930
804.061	4105
804.204	3979
804.346	3953
804.488	3918
804.63	3994
804.773	3945
804.915	4025
805.057	4128
805.199	4044
805.341	4059
805.483	4154
805.626	4131
805.768	4120
805.91	4204
806.052	4249
806.194	4185
806.336	4341
806.478	4131
806.62	4166
806.762	4181
806.904	4230
807.046	4325
807.188	4238
807.33	4192
807.472	4211
807.614	4162
807.756	4227
807.898	4173
808.04	4207
808.182	4268
808.324	4280
808.465	4329
808.607	4447
808.749	4451
808.891	4447
809.033	4485
809.174	4386
809.316	4246
809.458	4234
809.6	4150
809.741	4120
809.883	4131
810.025	4192
810.166	4166
810.308	4227
810.45	4227
810.591	4238
810.733	4287
810.875	4527
811.016	4782
811.158	5109
811.299	5258
811.441	5265
811.582	5067
811.724	4683
811.865	4432
812.007	4462
812.148	4405
812.29	4436
812.431	4390
812.573	4363
812.714	4379
812.855	4371
812.997	4383
813.138	4440
813.279	4360
813.421	4386
813.562	4352
813.703	4367
813.845	4303
813.986	4291
814.127	4200
814.268	4257
814.41	4299
814.551	4261
814.692	4352
814.833	4246
814.974	4314
815.115	4306
815.256	4188
815.397	4238
815.539	4238
815.68	4173
815.821	4223
815.962	4284
816.103	4253
816.244	4238
816.385	4215
816.526	4265
816.666	4230
816.807	4101
816.948	4147
817.089	4173
817.23	4105
817.371	4086
817.512	4040
817.653	4051
817.793	4032
817.934	3983
818.075	4097
818.216	4051
818.356	4040
818.497	3983
818.638	3888
818.778	3915
818.919	3888
819.06	3846
819.2	3884
819.341	3846
819.481	3857
819.622	3907
819.762	4025
819.903	3937
820.043	3873
820.184	3850
820.324	3835
820.465	3873
820.605	3808
820.746	3861
820.886	3816
821.026	3937
821.167	3911
821.307	3972
821.447	3979
821.588	3907
821.728	3941
821.868	3918
822.008	3854
822.149	3854
822.289	3857
822.429	3800
822.569	3740
822.709	3778
822.849	3686
822.99	3709
823.13	3766
823.27	3804
823.41	3667
823.55	3675
823.69	3728
823.83	3747
823.97	3675
824.11	3599
824.25	3564
824.389	3667
824.529	3675
824.669	3610
824.809	3698
824.949	3709
825.089	3732
825.228	3648
825.368	3557
825.508	3534
825.648	3606
825.787	3564
825.927	3644
826.067	3603
826.206	3641
826.346	3781
826.485	3797
826.625	3896
826.765	3926
826.904	3778
827.044	3637
827.183	3492
827.323	3409
827.462	3450
827.601	3439
827.741	3424
827.88	3435
828.02	3363
828.159	3462
828.298	3492
828.437	3523
828.577	3450
828.716	3584
828.855	3504
828.994	3374
829.134	3378
829.273	3348
829.412	3329
829.551	3332
829.69	3355
829.829	3439
829.968	3492
830.107	3447
830.246	3473
830.385	3363
830.524	3321
830.663	3325
830.802	3264
830.941	3138
831.08	3207
831.219	3245
831.357	3245
831.496	3397
831.635	3203
831.774	3211
831.913	3180
832.051	3131
832.19	3150
832.329	3176
832.467	3097
832.606	3089
832.744	3150
832.883	3176
833.022	3188
833.16	3195
833.299	3283
833.437	3313
833.576	3340
833.714	3412
833.852	3443
833.991	3420
834.129	3469
834.267	3420
834.406	3397
834.544	3401
834.682	3424
834.821	3370
834.959	3584
835.097	3420
835.235	3530
835.373	3450
835.511	3492
835.65	3454
835.788	3458
835.926	3378
836.064	3363
836.202	3393
836.34	3553
836.478	3587
836.615	3488
836.753	3572
836.891	3622
837.029	3564
837.167	3595
837.305	3599
837.443	3534
837.58	3458
837.718	3587
837.856	3587
837.993	3488
838.131	3599
838.269	3572
838.406	3576
838.544	3618
838.681	3447
838.819	3447
838.956	3374
839.094	3428
839.231	3416
839.369	3515
839.506	3682
839.643	3618
839.781	3511
839.918	3447
840.055	3519
840.193	3507
840.33	3511
840.467	3561
840.604	3606
840.742	3755
840.879	3534
841.016	3561
841.153	3572
841.29	3774
841.427	3736
841.564	3671
841.701	3759
841.838	3656
841.975	3652
842.112	3717
842.249	3599
842.385	3599
842.522	3827
842.659	3705
842.796	3641
842.933	3720
843.069	3663
843.206	3671
843.343	3751
843.479	3774
843.616	3850
843.752	3614
843.889	3682
844.025	3812
844.162	3732
844.298	3842
844.435	3793
844.571	3778
844.708	3915
844.844	4021
844.98	3964
845.117	4029
845.253	3896
845.389	3876
845.525	3964
845.661	3934
845.798	3903
845.934	4010
846.07	3964
846.206	4067
846.342	4105
846.478	4067
846.614	3979
846.75	3972
846.886	3892
847.022	4032
847.158	3945
847.294	3998
847.429	4010
847.565	3953
847.701	4227
847.837	3930
847.972	3884
848.108	3922
848.244	3991
848.379	3838
848.515	3800
848.65	3854
848.786	3831
848.921	3846
849.057	3899
849.192	3930
849.328	3873
849.463	3915
849.598	3857
849.734	3857
849.869	3816
850.004	3789
850.14	3800
850.275	3793
850.41	3751
850.545	3720
850.68	3747
850.815	3800
850.95	3762
851.085	3930
851.22	3869
851.355	3819
851.49	3778
851.625	3819
851.76	3823
851.895	3740
852.03	3728
852.165	3804
852.299	3865
852.434	3876
852.569	3850
852.703	3831
852.838	3930
852.973	3998
853.107	3960
853.242	3869
853.376	3865
853.511	3762
853.645	3808
853.78	3960
853.914	3892
854.048	3892
854.183	3884
854.317	3937
854.451	4093
854.585	3960
854.72	3930
854.854	4055
854.988	3956
855.122	4036
855.256	3884
855.39	4036
855.524	4120
855.658	4143
855.792	4105
855.926	4044
856.06	4147
856.194	4188
856.327	4154
856.461	4150
856.595	4158
856.729	4150
856.862	4242
856.996	4196
857.13	4268
857.263	4287
857.397	4329
857.53	4291
857.664	4352
857.797	4413
857.931	4421
858.064	4375
858.197	4421
858.331	4367
858.464	4356
858.597	4375
858.731	4390
858.864	4440
858.997	4481
859.13	4500
859.263	4497
859.396	4584
859.529	4516
859.662	4497
859.795	4489
859.928	4569
860.061	4748
860.194	4744
860.327	4626
860.46	4615
860.592	4759
860.725	4774
860.858	4774
860.99	4679
861.123	4679
861.256	4725
861.388	4771
861.521	5512
861.653	4729
861.786	4763
861.918	4752
862.05	4771
862.183	4824
862.315	4889
862.447	4919
862.58	4839
862.712	4801
862.844	4809
862.976	4881
863.108	4850
863.24	5159
863.372	4801
863.504	4889
863.636	4892
863.768	4919
863.9	4976
864.032	4934
864.164	4961
864.296	5022
864.428	5094
864.559	5170
864.691	5124
864.823	5109
864.954	5094
865.086	5132
865.217	5052
865.349	5151
865.48	5170
865.612	5174
865.743	5307
865.875	5162
866.006	5189
866.137	5250
866.269	5223
866.4	5223
866.531	5254
866.662	5201
866.793	5239
866.924	5250
867.055	5311
867.186	5349
867.317	5334
867.448	5299
867.579	5357
867.71	5379
867.841	5398
867.972	5452
868.103	5459
868.233	5459
868.364	5505
868.495	5589
868.625	5653
868.756	5733
868.886	5680
869.017	5718
869.147	5866
869.278	5859
869.408	5752
869.539	5840
869.669	5920
869.799	5897
869.929	6030
870.06	5969
870.19	6197
870.32	6144
870.45	6266
870.58	6395
870.71	6376
870.84	6429
870.97	6418
871.1	6464
871.23	6616
871.36	6646
871.489	6642
871.619	6741
871.749	6787
871.879	6875
872.008	6962
872.138	6928
872.267	6985
872.397	6993
872.526	6970
872.656	7095
872.785	7202
872.915	7339
873.044	7514
873.173	7457
873.303	7670
873.432	7811
873.561	7845
873.69	7890
873.819	7978
873.948	8221
874.077	8180
874.206	8355
874.335	8423
874.464	8632
874.593	8788
874.722	8925
874.851	9039
874.979	9275
875.108	9348
875.237	9370
875.365	9542
875.494	9595
875.623	9857
875.751	9854
875.88	9975
876.008	10158
876.136	10238
876.265	10546
876.393	10691
876.521	10672
876.65	10835
876.778	10809
876.906	10965
877.034	10934
877.162	11086
877.29	11124
877.418	11284
877.546	11379
877.674	11383
877.802	11493
877.93	11623
878.058	11558
878.185	11478
878.313	11676
878.441	11653
878.568	11729
878.696	11729
878.824	11771
878.951	11885
879.079	11912
879.206	12152
879.333	12064
879.461	11920
879.588	12053
879.715	12060
879.842	12155
879.97	12129
880.097	11866
880.224	11882
880.351	11809
880.478	11897
880.605	11882
880.732	11843
880.859	11999
880.986	11786
881.112	11824
881.239	11722
881.366	11611
881.493	11558
881.619	11509
881.746	11562
881.872	11455
881.999	11486
882.125	11410
882.252	11520
882.378	11589
882.505	11573
882.631	11356
882.757	11265
882.883	11311
883.01	11227
883.136	11231
883.262	11181
883.388	11071
883.514	11170
883.64	11166
883.766	11166
883.892	10927
884.018	10965
884.143	11071
884.269	11151
884.395	10816
884.52	10778
884.646	10763
884.772	10736
884.897	10618
885.023	10698
885.148	10805
885.274	10710
885.399	10702
885.524	10573
885.65	10558
885.775	10607
885.9	10504
886.025	10615
886.15	10474
886.275	10531
886.4	10390
886.525	10341
886.65	10398
886.775	10329
886.9	10512
887.025	10500
887.149	10257
887.274	10238
887.399	10177
887.523	10135
887.648	10143
887.773	10067
887.897	10185
888.021	10204
888.146	10181
888.27	10200
888.395	10234
888.519	10147
888.643	10185
888.767	10177
888.891	10048
889.015	9972
889.139	9949
889.263	9926
889.387	10059
889.511	10147
889.635	10082
889.759	9911
889.883	9953
890.006	10025
890.13	10040
890.254	9880
890.377	9876
890.501	9831
890.624	9892
890.748	9831
890.871	9797
890.995	9690
891.118	9652
891.241	9728
891.364	9751
891.488	9797
891.611	9766
891.734	9690
891.857	9800
891.98	9740
892.103	9781
892.226	9709
892.349	9618
892.471	9523
892.594	9538
892.717	9534
892.839	9603
892.962	9603
893.085	9610
893.207	9542
893.33	9488
893.452	9507
893.575	9564
893.697	9507
893.819	9606
893.941	9545
894.064	9591
894.186	9370
894.308	9351
894.43	9545
894.552	9587
894.674	9545
894.796	9355
894.918	9321
895.04	9310
895.161	9363
895.283	9313
895.405	9195
895.526	9226
895.648	9230
895.769	9241
895.891	9218
896.012	9184
896.134	9192
896.255	9222
896.376	9085
896.498	9161
896.619	9116
896.74	9043
896.861	9024
896.982	9294
897.103	9332
897.224	9165
897.345	9032
897.466	8986
897.587	8921
897.708	9055
897.828	9104
897.949	8948
898.07	8868
898.19	8910
898.311	8975
898.431	8838
898.552	8906
898.672	8933
898.792	9001
898.913	8918
899.033	8739
899.153	8720
899.273	8678
899.393	8766
899.513	8682
899.633	8735
899.753	8735
899.873	8629
899.993	8743
900.113	8720
900.232	8697
900.352	8720
900.472	8610
900.591	8488
900.711	8575
900.83	8484
900.95	8705
901.069	8693
901.189	8488
901.308	8408
901.427	8381
901.546	8377
901.665	8412
901.784	8434
901.904	8351
902.023	8237
902.141	8240
902.26	8221
902.379	8298
902.498	8214
902.617	8229
902.735	8286
902.854	8275
902.973	8317
903.091	8115
903.21	8084
903.328	8202
903.446	8107
903.565	8077
903.683	8103
903.801	8024
903.919	8210
904.038	8149
904.156	8069
904.274	8054
904.392	7947
904.51	7997
904.627	8027
904.745	8077
904.863	8084
904.981	7906
905.098	7871
905.216	7822
905.334	7887
905.451	7875
905.569	7951
905.686	7898
905.803	7928
905.921	7738
906.038	7887
906.155	7784
906.272	7750
906.389	7734
906.506	7571
906.623	7518
906.74	7601
906.857	7567
906.974	7613
907.091	7636
907.208	7746
907.324	7624
907.441	7548
907.557	7487
907.674	7369
907.79	7381
907.907	7449
908.023	7438
908.139	7384
908.256	7377
908.372	7426
908.488	7324
908.604	7255
908.72	7293
908.836	7278
908.952	7251
909.068	7251
909.184	7339
909.3	7247
909.415	7301
909.531	7228
909.647	7160
909.762	7069
909.878	7126
909.993	7122
910.108	7076
910.224	7084
910.339	7095
910.454	7023
910.57	6951
910.685	6962
910.8	7228
910.915	7061
911.03	6970
911.145	6932
911.259	6856
911.374	6909
911.489	6837
911.604	6798
911.718	6715
911.833	6745
911.947	6715
912.062	6582
912.176	6700
912.291	6673
912.405	6623
912.519	6840
912.633	6844
912.748	6684
912.862	6715
912.976	6593
913.09	6502
913.204	6528
913.318	6566
913.431	6646
913.545	6711
913.659	6711
913.772	6623
913.886	6578
914	6506
914.113	6585
914.226	6662
914.34	6669
914.453	6486
914.566	6509
914.68	6502
914.793	6509
914.906	6433
915.019	6327
915.132	6399
915.245	6399
915.358	6395
915.47	6445
915.583	6509
915.696	6433
915.809	6479
915.921	6528
916.034	6380
916.146	6426
916.259	6361
916.371	6464
916.483	6418
916.595	6391
916.708	6414
916.82	6410
916.932	6361
917.044	6384
917.156	6346
917.268	6251
917.38	6331
917.491	6308
917.603	6346
917.715	6369
917.826	6403
917.938	6315
918.049	6209
918.161	6365
918.272	6445
918.384	6426
918.495	6346
918.606	6296
918.717	6247
918.828	6224
918.939	6254
919.05	6178
919.161	6194
919.272	6167
919.383	6117
919.494	6372
919.604	6456
919.715	6270
919.826	6232
919.936	6270
920.047	6319
920.157	6258
920.267	6433
920.378	6300
920.488	6296
920.598	6429
920.708	6559
920.818	6506
920.928	6456
921.038	6582
921.148	6547
921.258	6376
921.368	6266
921.477	6178
921.587	6182
921.697	6030
921.806	6247
921.916	6053
922.025	5954
922.134	5920
922.244	5859
922.353	5954
922.462	5840
922.571	5745
922.68	5668
922.789	5710
922.898	5726
923.007	5611
923.116	5688
923.224	5634
923.333	5630
923.442	5566
923.55	5543
923.659	5619
923.767	5577
923.876	5528
923.984	5566
924.092	5474
924.201	5600
924.309	5577
924.417	5562
924.525	5505
924.633	5444
924.741	6258
924.849	5364
924.956	5482
925.064	5326
925.172	5326
925.279	5318
925.387	5357
925.494	5303
925.602	5433
925.709	5379
925.816	5284
925.924	5296
926.031	5368
926.138	5307
926.245	5250
926.352	5235
926.459	5292
926.566	5341
926.673	5265
926.779	5102
926.886	5094
926.993	5006
927.099	4987
927.206	4946
927.312	4938
927.419	4995
927.525	4934
927.631	4980
927.737	4896
927.843	4847
927.95	4771
928.056	4778
928.162	4820
928.267	4847
928.373	5231
928.479	4896
928.585	4687
928.69	4778
928.796	4801
928.901	4698
929.007	4573
929.112	4683
929.218	4599
929.323	4561
929.428	4546
929.533	4672
929.638	4542
929.743	4535
929.848	4558
929.953	4493
930.058	4478
930.163	4329
930.267	4295
930.372	4432
930.477	4284
930.581	4424
930.685	4344
930.79	4234
930.894	4295
930.998	4246
931.103	4398
931.207	4116
931.311	4063
931.415	3987
931.519	3926
931.623	3953
