Data from glass_V78500241_748.txt Node
Date: Wed Sep 01 19:19:41 CST 2021
User: usil
Spectrometer: V785-0024
Trigger mode: 0
Integration Time (sec): 4.000000E-1
Scans to average: 1
Nonlinearity correction enabled: false
Boxcar width: 0
Storing dark spectrum: false
XAxis mode: Wavelengths
Number of Pixels in Spectrum: 1024
>>>>>Begin Spectral Data<<<<<
801.071	3728
801.214	3751
801.356	3717
801.499	3755
801.641	3770
801.783	3789
801.926	3842
802.068	3835
802.211	3869
802.353	3918
802.496	3854
802.638	3876
802.78	3907
802.923	3888
803.065	3892
803.208	3861
803.35	3896
803.492	3892
803.635	3915
803.777	3804
803.919	3941
804.061	4177
804.204	3926
804.346	3968
804.488	3899
804.63	4078
804.773	3918
804.915	4067
805.057	4162
805.199	4055
805.341	4101
805.483	4158
805.626	4154
805.768	4147
805.91	4257
806.052	4230
806.194	4223
806.336	4344
806.478	4261
806.62	4192
806.762	4181
806.904	4257
807.046	4325
807.188	4238
807.33	4211
807.472	4265
807.614	4188
807.756	4272
807.898	4215
808.04	4207
808.182	4246
808.324	4360
808.465	4390
808.607	4470
808.749	4466
808.891	4455
809.033	4535
809.174	4432
809.316	4287
809.458	4223
809.6	4188
809.741	4200
809.883	4162
810.025	4223
810.166	4253
810.308	4219
810.45	4204
810.591	4261
810.733	4284
810.875	4516
811.016	4831
811.158	5155
811.299	5246
811.441	5307
811.582	5109
811.724	4767
811.865	4489
812.007	4470
812.148	4474
812.29	4413
812.431	4394
812.573	4440
812.714	4337
812.855	4421
812.997	4409
813.138	4500
813.279	4424
813.421	4413
813.562	4375
813.703	4367
813.845	4329
813.986	4227
814.127	4249
814.268	4284
814.41	4284
814.551	4272
814.692	4386
814.833	4238
814.974	4379
815.115	4318
815.256	4234
815.397	4261
815.539	4227
815.68	4204
815.821	4196
815.962	4371
816.103	4291
816.244	4257
816.385	4223
816.526	4291
816.666	4257
816.807	4082
816.948	4234
817.089	4181
817.23	4128
817.371	4044
817.512	4059
817.653	4090
817.793	4071
817.934	4010
818.075	4078
818.216	4135
818.356	4040
818.497	4036
818.638	3892
818.778	3926
818.919	3911
819.06	3880
819.2	3922
819.341	3918
819.481	3854
819.622	3896
819.762	4051
819.903	3972
820.043	3846
820.184	3854
820.324	3838
820.465	3899
820.605	3873
820.746	3854
820.886	3827
821.026	3930
821.167	3884
821.307	3968
821.447	3987
821.588	3937
821.728	3934
821.868	3975
822.008	3903
822.149	3968
822.289	3937
822.429	3793
822.569	3819
822.709	3797
822.849	3709
822.99	3740
823.13	3762
823.27	3774
823.41	3717
823.55	3740
823.69	3766
823.83	3755
823.97	3671
824.11	3614
824.25	3625
824.389	3644
824.529	3675
824.669	3629
824.809	3694
824.949	3728
825.089	3736
825.228	3740
825.368	3595
825.508	3572
825.648	3595
825.787	3629
825.927	3641
826.067	3660
826.206	3679
826.346	3766
826.485	3827
826.625	3884
826.765	3987
826.904	3846
827.044	3584
827.183	3515
827.323	3412
827.462	3473
827.601	3458
827.741	3443
827.88	3481
828.02	3378
828.159	3439
828.298	3477
828.437	3526
828.577	3469
828.716	3633
828.855	3507
828.994	3393
829.134	3401
829.273	3412
829.412	3370
829.551	3340
829.69	3374
829.829	3416
829.968	3526
830.107	3454
830.246	3485
830.385	3397
830.524	3378
830.663	3325
830.802	3253
830.941	3226
831.08	3214
831.219	3283
831.357	3332
831.496	3409
831.635	3241
831.774	3222
831.913	3199
832.051	3119
832.19	3173
832.329	3237
832.467	3142
832.606	3138
832.744	3230
832.883	3211
833.022	3157
833.16	3302
833.299	3302
833.437	3313
833.576	3378
833.714	3420
833.852	3450
833.991	3450
834.129	3454
834.267	3466
834.406	3412
834.544	3450
834.682	3477
834.821	3420
834.959	3603
835.097	3416
835.235	3526
835.373	3477
835.511	3492
835.65	3492
835.788	3538
835.926	3401
836.064	3397
836.202	3447
836.34	3572
836.478	3599
836.615	3572
836.753	3572
836.891	3614
837.029	3663
837.167	3595
837.305	3587
837.443	3523
837.58	3515
837.718	3580
837.856	3576
837.993	3545
838.131	3614
838.269	3599
838.406	3595
838.544	3633
838.681	3469
838.819	3485
838.956	3401
839.094	3351
839.231	3477
839.369	3504
839.506	3751
839.643	3637
839.781	3500
839.918	3488
840.055	3557
840.193	3523
840.33	3564
840.467	3523
840.604	3606
840.742	3804
840.879	3549
841.016	3576
841.153	3633
841.29	3755
841.427	3759
841.564	3770
841.701	3747
841.838	3740
841.975	3682
842.112	3717
842.249	3667
842.385	3663
842.522	3838
842.659	3724
842.796	3667
842.933	3713
843.069	3709
843.206	3709
843.343	3823
843.479	3808
843.616	3842
843.752	3641
843.889	3679
844.025	3873
844.162	3709
844.298	3865
844.435	3835
844.571	3785
844.708	3937
844.844	4025
844.98	4051
845.117	4055
845.253	3899
845.389	3915
845.525	3991
845.661	4013
845.798	3975
845.934	4029
846.07	4025
846.206	4071
846.342	4143
846.478	4101
846.614	3987
846.75	3964
846.886	3930
847.022	4101
847.158	3972
847.294	4006
847.429	4017
847.565	3994
847.701	4253
847.837	3903
847.972	3838
848.108	4036
848.244	3956
848.379	3865
848.515	3846
848.65	3884
848.786	3854
848.921	3842
849.057	3926
849.192	3964
849.328	3934
849.463	3930
849.598	3884
849.734	3876
849.869	3850
850.004	3781
850.14	3842
850.275	3808
850.41	3747
850.545	3751
850.68	3823
850.815	3816
850.95	3812
851.085	3941
851.22	3884
851.355	3850
851.49	3808
851.625	3800
851.76	3827
851.895	3743
852.03	3690
852.165	3835
852.299	3835
852.434	3903
852.569	3838
852.703	3899
852.838	3968
852.973	4029
853.107	4017
853.242	3857
853.376	3846
853.511	3781
853.645	3854
853.78	3983
853.914	3926
854.048	3918
854.183	3918
854.317	3945
854.451	4109
854.585	3983
854.72	3979
854.854	4055
854.988	3926
855.122	3994
855.256	3934
855.39	4040
855.524	4063
855.658	4135
855.792	4158
855.926	4162
856.06	4196
856.194	4204
856.327	4120
856.461	4112
856.595	4173
856.729	4169
856.862	4303
856.996	4227
857.13	4280
857.263	4325
857.397	4363
857.53	4295
857.664	4341
857.797	4383
857.931	4428
858.064	4409
858.197	4455
858.331	4459
858.464	4390
858.597	4272
858.731	4489
858.864	4512
858.997	4451
859.13	4519
859.263	4512
859.396	4630
859.529	4531
859.662	4558
859.795	4538
859.928	4626
860.061	4710
860.194	4698
860.327	4694
860.46	4637
860.592	4774
860.725	4717
860.858	4767
860.99	4683
861.123	4668
861.256	4714
861.388	4778
861.521	5387
861.653	4759
861.786	4721
861.918	4748
862.05	4801
862.183	4812
862.315	4900
862.447	4984
862.58	4877
862.712	4816
862.844	4801
862.976	4927
863.108	4908
863.24	5273
863.372	4858
863.504	4862
863.636	4915
863.768	4968
863.9	4987
864.032	4911
864.164	4995
864.296	5033
864.428	5075
864.559	5117
864.691	5128
864.823	5151
864.954	5147
865.086	5155
865.217	5117
865.349	5155
865.48	5181
865.612	5174
865.743	5307
865.875	5201
866.006	5261
866.137	5239
866.269	5246
866.4	5318
866.531	5265
866.662	5235
866.793	5216
866.924	5303
867.055	5315
867.186	5326
867.317	5345
867.448	5326
867.579	5387
867.71	5398
867.841	5417
867.972	5482
868.103	5520
868.233	5501
868.364	5554
868.495	5551
868.625	5699
868.756	5809
868.886	5707
869.017	5688
869.147	5874
869.278	5859
869.408	5847
869.539	5851
869.669	5969
869.799	5961
869.929	5992
870.06	6045
870.19	6216
870.32	6175
870.45	6308
870.58	6384
870.71	6475
870.84	6532
870.97	6407
871.1	6456
871.23	6585
871.36	6715
871.489	6662
871.619	6795
871.749	6810
871.879	6882
872.008	7019
872.138	7015
872.267	6966
872.397	6970
872.526	7019
872.656	7084
872.785	7206
872.915	7381
873.044	7620
873.173	7506
873.303	7655
873.432	7742
873.561	7868
873.69	7955
873.819	7986
873.948	8149
874.077	8279
874.206	8347
874.335	8427
874.464	8682
874.593	8830
874.722	8994
874.851	9180
874.979	9203
875.108	9412
875.237	9447
875.365	9466
875.494	9614
875.623	9797
875.751	9812
875.88	10048
876.008	10188
876.136	10181
876.265	10531
876.393	10736
876.521	10771
876.65	10843
876.778	10854
876.906	10889
877.034	11029
877.162	11105
877.29	11109
877.418	11334
877.546	11402
877.674	11410
877.802	11467
877.93	11547
878.058	11528
878.185	11581
878.313	11665
878.441	11745
878.568	11646
878.696	11866
878.824	11874
878.951	11874
879.079	11950
879.206	12133
879.333	12045
879.461	11954
879.588	12079
879.715	12087
879.842	12270
879.97	12140
880.097	11847
880.224	11855
880.351	11950
880.478	11885
880.605	11840
880.732	11813
880.859	12041
880.986	11870
881.112	11847
881.239	11676
881.366	11672
881.493	11642
881.619	11505
881.746	11600
881.872	11512
881.999	11573
882.125	11501
882.252	11532
882.378	11497
882.505	11600
882.631	11467
882.757	11223
882.883	11299
883.01	11284
883.136	11174
883.262	11140
883.388	11121
883.514	11258
883.64	11185
883.766	11094
883.892	11014
884.018	10995
884.143	11056
884.269	11067
884.395	10858
884.52	10854
884.646	10729
884.772	10721
884.897	10691
885.023	10786
885.148	10717
885.274	10816
885.399	10649
885.524	10607
885.65	10573
885.775	10580
885.9	10554
886.025	10561
886.15	10596
886.275	10508
886.4	10402
886.525	10447
886.65	10440
886.775	10436
886.9	10481
887.025	10550
887.149	10432
887.274	10196
887.399	10169
887.523	10291
887.648	10143
887.773	10147
887.897	10234
888.021	10268
888.146	10272
888.27	10291
888.395	10261
888.519	10150
888.643	10093
888.767	10261
888.891	10120
889.015	10010
889.139	10059
889.263	9930
889.387	10055
889.511	10097
889.635	10082
889.759	9960
889.883	9991
890.006	10002
890.13	10051
890.254	9956
890.377	9953
890.501	9907
890.624	9907
890.748	9949
890.871	9812
890.995	9770
891.118	9679
891.241	9823
891.364	9759
891.488	9915
891.611	9724
891.734	9778
891.857	9759
891.98	9698
892.103	9766
892.226	9720
892.349	9743
892.471	9561
892.594	9644
892.717	9606
892.839	9629
892.962	9633
893.085	9641
893.207	9591
893.33	9504
893.452	9500
893.575	9622
893.697	9507
893.819	9656
893.941	9599
894.064	9595
894.186	9454
894.308	9382
894.43	9572
894.552	9648
894.674	9549
894.796	9435
894.918	9370
895.04	9313
895.161	9367
895.283	9351
895.405	9207
895.526	9169
895.648	9275
895.769	9249
895.891	9367
896.012	9218
896.134	9298
896.255	9222
896.376	9169
896.498	9192
896.619	9165
896.74	9089
896.861	9104
896.982	9287
897.103	9313
897.224	9207
897.345	9066
897.466	9032
897.587	9085
897.708	9131
897.828	8990
897.949	8979
898.07	8979
898.19	8906
898.311	8948
898.431	8952
898.552	8933
898.672	8944
898.792	8952
898.913	8910
899.033	8785
899.153	8682
899.273	8731
899.393	8720
899.513	8781
899.633	8788
899.753	8750
899.873	8705
899.993	8777
900.113	8651
900.232	8731
900.352	8655
900.472	8648
900.591	8594
900.711	8613
900.83	8518
900.95	8670
901.069	8602
901.189	8629
901.308	8423
901.427	8396
901.546	8461
901.665	8469
901.784	8537
901.904	8415
902.023	8294
902.141	8248
902.26	8240
902.379	8286
902.498	8218
902.617	8233
902.735	8279
902.854	8347
902.973	8275
903.091	8138
903.21	8111
903.328	8191
903.446	8153
903.565	8096
903.683	8081
903.801	8031
903.919	8103
904.038	8202
904.156	8024
904.274	8103
904.392	8008
904.51	8069
904.627	8142
904.745	8088
904.863	8096
904.981	7947
905.098	7940
905.216	7849
905.334	7947
905.451	7898
905.569	7852
905.686	7925
905.803	7970
905.921	7792
906.038	7845
906.155	7795
906.272	7719
906.389	7731
906.506	7624
906.623	7700
906.74	7575
906.857	7495
906.974	7563
907.091	7723
907.208	7700
907.324	7616
907.441	7548
907.557	7491
907.674	7457
907.79	7422
907.907	7434
908.023	7381
908.139	7445
908.256	7335
908.372	7441
908.488	7301
908.604	7327
908.72	7278
908.836	7308
908.952	7285
909.068	7285
909.184	7346
909.3	7297
909.415	7285
909.531	7301
909.647	7122
909.762	7122
909.878	7084
909.993	7072
910.108	7156
910.224	7122
910.339	7152
910.454	6996
910.57	7053
910.685	6981
910.8	7183
910.915	7141
911.03	7023
911.145	6932
911.259	6897
911.374	6886
911.489	6867
911.604	6833
911.718	6722
911.833	6760
911.947	6696
912.062	6677
912.176	6700
912.291	6711
912.405	6730
912.519	6878
912.633	6818
912.748	6715
912.862	6665
912.976	6669
913.09	6555
913.204	6547
913.318	6631
913.431	6646
913.545	6726
913.659	6760
913.772	6715
913.886	6578
914	6582
914.113	6604
914.226	6684
914.34	6639
914.453	6486
914.566	6654
914.68	6486
914.793	6563
914.906	6403
915.019	6418
915.132	6365
915.245	6426
915.358	6433
915.47	6429
915.583	6498
915.696	6448
915.809	6532
915.921	6532
916.034	6437
916.146	6388
916.259	6342
916.371	6509
916.483	6483
916.595	6384
916.708	6445
916.82	6441
916.932	6353
917.044	6384
917.156	6338
917.268	6315
917.38	6350
917.491	6315
917.603	6384
917.715	6380
917.826	6384
917.938	6292
918.049	6232
918.161	6357
918.272	6456
918.384	6414
918.495	6338
918.606	6258
918.717	6232
918.828	6235
918.939	6300
919.05	6213
919.161	6304
919.272	6148
919.383	6102
919.494	6334
919.604	6437
919.715	6308
919.826	6205
919.936	6247
920.047	6372
920.157	6323
920.267	6471
920.378	6308
920.488	6308
920.598	6448
920.708	6551
920.818	6498
920.928	6464
921.038	6555
921.148	6525
921.258	6327
921.368	6346
921.477	6190
921.587	6175
921.697	6030
921.806	6175
921.916	6087
922.025	5958
922.134	5908
922.244	5927
922.353	5965
922.462	5893
922.571	5783
922.68	5741
922.789	5672
922.898	5691
923.007	5638
923.116	5714
923.224	5657
923.333	5680
923.442	5642
923.55	5543
923.659	5562
923.767	5646
923.876	5532
923.984	5589
924.092	5524
924.201	5505
924.309	5547
924.417	5585
924.525	5448
924.633	5505
924.741	6091
924.849	5440
924.956	5490
925.064	5410
925.172	5357
925.279	5292
925.387	5376
925.494	5372
925.602	5406
925.709	5383
925.816	5296
925.924	5307
926.031	5357
926.138	5303
926.245	5280
926.352	5223
926.459	5421
926.566	5315
926.673	5261
926.779	5170
926.886	5128
926.993	5022
927.099	5010
927.206	4946
927.312	4968
927.419	4984
927.525	4984
927.631	5033
927.737	4908
927.843	4828
927.95	4805
928.056	4854
928.162	4850
928.267	4839
928.373	5372
928.479	4892
928.585	4736
928.69	4812
928.796	4831
928.901	4698
929.007	4615
929.112	4679
929.218	4656
929.323	4622
929.428	4580
929.533	4679
929.638	4558
929.743	4569
929.848	4592
929.953	4504
930.058	4409
930.163	4310
930.267	4356
930.372	4417
930.477	4337
930.581	4489
930.685	4360
930.79	4246
930.894	4249
930.998	4272
931.103	4413
931.207	4116
931.311	4120
931.415	4071
931.519	3934
931.623	3945
