Data from glass_V78500241_2723.txt Node
Date: Wed Sep 01 19:33:22 CST 2021
User: usil
Spectrometer: V785-0024
Trigger mode: 0
Integration Time (sec): 4.000000E-1
Scans to average: 1
Nonlinearity correction enabled: false
Boxcar width: 0
Storing dark spectrum: false
XAxis mode: Wavelengths
Number of Pixels in Spectrum: 1024
>>>>>Begin Spectral Data<<<<<
801.071	3717
801.214	3747
801.356	3698
801.499	3728
801.641	3690
801.783	3736
801.926	3835
802.068	3770
802.211	3850
802.353	3869
802.496	3800
802.638	3842
802.78	3876
802.923	3896
803.065	3892
803.208	3789
803.35	3876
803.492	3903
803.635	3846
803.777	3789
803.919	3876
804.061	4147
804.204	3968
804.346	3918
804.488	3884
804.63	4013
804.773	3937
804.915	3979
805.057	4139
805.199	4029
805.341	4074
805.483	4097
805.626	4059
805.768	4109
805.91	4200
806.052	4230
806.194	4227
806.336	4367
806.478	4185
806.62	4204
806.762	4177
806.904	4223
807.046	4303
807.188	4215
807.33	4173
807.472	4242
807.614	4166
807.756	4272
807.898	4234
808.04	4234
808.182	4234
808.324	4299
808.465	4341
808.607	4451
808.749	4398
808.891	4474
809.033	4440
809.174	4383
809.316	4249
809.458	4181
809.6	4169
809.741	4150
809.883	4124
810.025	4181
810.166	4211
810.308	4196
810.45	4238
810.591	4211
810.733	4333
810.875	4497
811.016	4820
811.158	5067
811.299	5223
811.441	5280
811.582	5064
811.724	4645
811.865	4500
812.007	4462
812.148	4413
812.29	4409
812.431	4421
812.573	4371
812.714	4363
812.855	4424
812.997	4360
813.138	4531
813.279	4421
813.421	4367
813.562	4318
813.703	4287
813.845	4306
813.986	4253
814.127	4200
814.268	4287
814.41	4265
814.551	4242
814.692	4329
814.833	4261
814.974	4284
815.115	4314
815.256	4253
815.397	4200
815.539	4211
815.68	4192
815.821	4181
815.962	4272
816.103	4249
816.244	4238
816.385	4204
816.526	4246
816.666	4181
816.807	4109
816.948	4128
817.089	4147
817.23	4097
817.371	4021
817.512	4044
817.653	4051
817.793	3987
817.934	3994
818.075	4055
818.216	4051
818.356	4067
818.497	3998
818.638	3941
818.778	3888
818.919	3880
819.06	3892
819.2	3899
819.341	3884
819.481	3785
819.622	3888
819.762	3983
819.903	3953
820.043	3823
820.184	3823
820.324	3800
820.465	3888
820.605	3838
820.746	3850
820.886	3770
821.026	3861
821.167	3896
821.307	3968
821.447	3956
821.588	3899
821.728	3922
821.868	3892
822.008	3850
822.149	3907
822.289	3888
822.429	3774
822.569	3747
822.709	3785
822.849	3743
822.99	3675
823.13	3747
823.27	3751
823.41	3694
823.55	3686
823.69	3713
823.83	3747
823.97	3667
824.11	3595
824.25	3572
824.389	3625
824.529	3660
824.669	3629
824.809	3713
824.949	3724
825.089	3701
825.228	3663
825.368	3572
825.508	3526
825.648	3549
825.787	3591
825.927	3580
826.067	3591
826.206	3622
826.346	3743
826.485	3781
826.625	3831
826.765	3922
826.904	3831
827.044	3622
827.183	3542
827.323	3397
827.462	3469
827.601	3428
827.741	3386
827.88	3458
828.02	3344
828.159	3416
828.298	3492
828.437	3519
828.577	3405
828.716	3580
828.855	3507
828.994	3359
829.134	3382
829.273	3386
829.412	3359
829.551	3336
829.69	3382
829.829	3401
829.968	3469
830.107	3439
830.246	3401
830.385	3374
830.524	3332
830.663	3287
830.802	3188
830.941	3188
831.08	3173
831.219	3253
831.357	3268
831.496	3382
831.635	3207
831.774	3169
831.913	3142
832.051	3100
832.19	3138
832.329	3188
832.467	3127
832.606	3119
832.744	3184
832.883	3173
833.022	3199
833.16	3264
833.299	3279
833.437	3310
833.576	3348
833.714	3397
833.852	3393
833.991	3389
834.129	3481
834.267	3416
834.406	3382
834.544	3416
834.682	3424
834.821	3424
834.959	3603
835.097	3439
835.235	3530
835.373	3473
835.511	3469
835.65	3439
835.788	3473
835.926	3374
836.064	3332
836.202	3405
836.34	3557
836.478	3587
836.615	3511
836.753	3557
836.891	3641
837.029	3576
837.167	3542
837.305	3545
837.443	3504
837.58	3526
837.718	3599
837.856	3526
837.993	3504
838.131	3606
838.269	3568
838.406	3584
838.544	3576
838.681	3435
838.819	3439
838.956	3374
839.094	3409
839.231	3462
839.369	3466
839.506	3724
839.643	3606
839.781	3515
839.918	3424
840.055	3526
840.193	3504
840.33	3485
840.467	3553
840.604	3580
840.742	3827
840.879	3542
841.016	3504
841.153	3576
841.29	3755
841.427	3720
841.564	3660
841.701	3698
841.838	3686
841.975	3652
842.112	3736
842.249	3603
842.385	3606
842.522	3823
842.659	3671
842.796	3679
842.933	3675
843.069	3644
843.206	3679
843.343	3778
843.479	3770
843.616	3804
843.752	3701
843.889	3656
844.025	3816
844.162	3686
844.298	3800
844.435	3785
844.571	3778
844.708	3899
844.844	3972
844.98	3994
845.117	4002
845.253	3941
845.389	3907
845.525	3964
845.661	3949
845.798	3907
845.934	3998
846.07	3975
846.206	4036
846.342	4112
846.478	4036
846.614	3949
846.75	3941
846.886	3934
847.022	4036
847.158	3907
847.294	4002
847.429	4010
847.565	3945
847.701	4246
847.837	3899
847.972	3884
848.108	3983
848.244	3926
848.379	3812
848.515	3827
848.65	3793
848.786	3827
848.921	3812
849.057	3964
849.192	3903
849.328	3903
849.463	3926
849.598	3880
849.734	3873
849.869	3812
850.004	3709
850.14	3793
850.275	3766
850.41	3743
850.545	3724
850.68	3724
850.815	3785
850.95	3778
851.085	3956
851.22	3835
851.355	3800
851.49	3755
851.625	3766
851.76	3766
851.895	3732
852.03	3690
852.165	3762
852.299	3838
852.434	3884
852.569	3831
852.703	3876
852.838	3934
852.973	3949
853.107	3960
853.242	3884
853.376	3827
853.511	3747
853.645	3835
853.78	3930
853.914	3892
854.048	3903
854.183	3892
854.317	3926
854.451	4048
854.585	3899
854.72	3926
854.854	4055
854.988	3892
855.122	3972
855.256	3953
855.39	4006
855.524	4090
855.658	4112
855.792	4090
855.926	4139
856.06	4169
856.194	4207
856.327	4135
856.461	4139
856.595	4143
856.729	4215
856.862	4242
856.996	4261
857.13	4337
857.263	4299
857.397	4352
857.53	4242
857.664	4352
857.797	4375
857.931	4371
858.064	4363
858.197	4447
858.331	4398
858.464	4367
858.597	4333
858.731	4394
858.864	4432
858.997	4451
859.13	4493
859.263	4481
859.396	4592
859.529	4497
859.662	4489
859.795	4519
859.928	4580
860.061	4706
860.194	4706
860.327	4672
860.46	4630
860.592	4668
860.725	4702
860.858	4786
860.99	4660
861.123	4626
861.256	4683
861.388	4755
861.521	5299
861.653	4702
861.786	4672
861.918	4710
862.05	4786
862.183	4824
862.315	4866
862.447	4904
862.58	4828
862.712	4778
862.844	4748
862.976	4850
863.108	4877
863.24	5231
863.372	4805
863.504	4919
863.636	4870
863.768	5018
863.9	4965
864.032	4904
864.164	4953
864.296	5029
864.428	5090
864.559	5056
864.691	5041
864.823	5086
864.954	5109
865.086	5109
865.217	5109
865.349	5045
865.48	5098
865.612	5204
865.743	5277
865.875	5132
866.006	5143
866.137	5250
866.269	5280
866.4	5227
866.531	5246
866.662	5227
866.793	5280
866.924	5284
867.055	5372
867.186	5330
867.317	5337
867.448	5315
867.579	5330
867.71	5360
867.841	5372
867.972	5387
868.103	5490
868.233	5436
868.364	5520
868.495	5474
868.625	5642
868.756	5771
868.886	5653
869.017	5710
869.147	5851
869.278	5866
869.408	5726
869.539	5790
869.669	5946
869.799	5866
869.929	5965
870.06	5961
870.19	6205
870.32	6190
870.45	6251
870.58	6296
870.71	6448
870.84	6361
870.97	6407
871.1	6437
871.23	6601
871.36	6620
871.489	6574
871.619	6738
871.749	6810
871.879	6852
872.008	6993
872.138	6970
872.267	6962
872.397	6985
872.526	7031
872.656	7065
872.785	7187
872.915	7396
873.044	7426
873.173	7518
873.303	7613
873.432	7822
873.561	7792
873.69	7890
873.819	7974
873.948	8130
874.077	8244
874.206	8347
874.335	8404
874.464	8667
874.593	8826
874.722	8944
874.851	9093
874.979	9245
875.108	9325
875.237	9408
875.365	9416
875.494	9564
875.623	9713
875.751	9835
875.88	9907
876.008	10120
876.136	10196
876.265	10569
876.393	10668
876.521	10717
876.65	10733
876.778	10858
876.906	10923
877.034	10927
877.162	11071
877.29	11147
877.418	11277
877.546	11368
877.674	11425
877.802	11551
877.93	11433
878.058	11547
878.185	11501
878.313	11684
878.441	11748
878.568	11615
878.696	11722
878.824	11813
878.951	11920
879.079	11961
879.206	12133
879.333	12072
879.461	11984
879.588	12045
879.715	12110
879.842	12216
879.97	12041
880.097	11885
880.224	11889
880.351	11855
880.478	11973
880.605	11756
880.732	11824
880.859	11977
880.986	11828
881.112	11836
881.239	11745
881.366	11661
881.493	11649
881.619	11528
881.746	11634
881.872	11471
881.999	11467
882.125	11421
882.252	11554
882.378	11516
882.505	11532
882.631	11356
882.757	11258
882.883	11273
883.01	11318
883.136	11128
883.262	11124
883.388	11113
883.514	11140
883.64	11162
883.766	11086
883.892	10900
884.018	10991
884.143	11143
884.269	11075
884.395	10812
884.52	10752
884.646	10752
884.772	10656
884.897	10683
885.023	10702
885.148	10656
885.274	10755
885.399	10691
885.524	10588
885.65	10569
885.775	10580
885.9	10580
886.025	10618
886.15	10542
886.275	10424
886.4	10382
886.525	10379
886.65	10310
886.775	10280
886.9	10440
887.025	10538
887.149	10348
887.274	10257
887.399	10238
887.523	10211
887.648	10128
887.773	10150
887.897	10185
888.021	10158
888.146	10097
888.27	10257
888.395	10177
888.519	10181
888.643	10188
888.767	10192
888.891	10059
889.015	10025
889.139	10029
889.263	9964
889.387	10021
889.511	10147
889.635	10090
889.759	9964
889.883	9968
890.006	9937
890.13	10124
890.254	9983
890.377	9941
890.501	9835
890.624	9865
890.748	9808
890.871	9736
890.995	9701
891.118	9709
891.241	9774
891.364	9705
891.488	9740
891.611	9728
891.734	9740
891.857	9774
891.98	9705
892.103	9690
892.226	9740
892.349	9690
892.471	9530
892.594	9625
892.717	9625
892.839	9584
892.962	9591
893.085	9542
893.207	9568
893.33	9439
893.452	9553
893.575	9576
893.697	9572
893.819	9625
893.941	9610
894.064	9545
894.186	9450
894.308	9321
894.43	9496
894.552	9538
894.674	9466
894.796	9408
894.918	9359
895.04	9344
895.161	9351
895.283	9287
895.405	9241
895.526	9268
895.648	9268
895.769	9275
895.891	9222
896.012	9195
896.134	9233
896.255	9173
896.376	9104
896.498	9036
896.619	9199
896.74	9070
896.861	9100
896.982	9222
897.103	9249
897.224	9138
897.345	9058
897.466	9017
897.587	9001
897.708	9138
897.828	9039
897.949	8933
898.07	8895
898.19	8895
898.311	8956
898.431	8857
898.552	8902
898.672	8998
898.792	9013
898.913	8925
899.033	8796
899.153	8750
899.273	8659
899.393	8716
899.513	8720
899.633	8716
899.753	8754
899.873	8678
899.993	8720
900.113	8663
900.232	8720
900.352	8632
900.472	8663
900.591	8522
900.711	8541
900.83	8556
900.95	8648
901.069	8640
901.189	8564
901.308	8415
901.427	8446
901.546	8476
901.665	8438
901.784	8381
901.904	8370
902.023	8351
902.141	8153
902.26	8183
902.379	8244
902.498	8164
902.617	8202
902.735	8320
902.854	8267
902.973	8271
903.091	8111
903.21	8054
903.328	8164
903.446	8142
903.565	8020
903.683	8119
903.801	8126
903.919	8103
904.038	8096
904.156	8084
904.274	8073
904.392	8050
904.51	8077
904.627	8012
904.745	8096
904.863	8039
904.981	7845
905.098	7871
905.216	7902
905.334	7890
905.451	7887
905.569	7845
905.686	7902
905.803	7906
905.921	7765
906.038	7830
906.155	7826
906.272	7750
906.389	7685
906.506	7552
906.623	7578
906.74	7620
906.857	7537
906.974	7578
907.091	7620
907.208	7670
907.324	7597
907.441	7616
907.557	7468
907.674	7453
907.79	7381
907.907	7369
908.023	7468
908.139	7346
908.256	7384
908.372	7343
908.488	7381
908.604	7255
908.72	7194
908.836	7293
908.952	7225
909.068	7228
909.184	7305
909.3	7259
909.415	7255
909.531	7206
909.647	7072
909.762	7084
909.878	7103
909.993	7088
910.108	7103
910.224	7050
910.339	7031
910.454	7023
910.57	6943
910.685	6939
910.8	7103
910.915	7069
911.03	6954
911.145	6932
911.259	6875
911.374	6863
911.489	6818
911.604	6818
911.718	6677
911.833	6711
911.947	6612
912.062	6612
912.176	6665
912.291	6749
912.405	6673
912.519	6818
912.633	6833
912.748	6745
912.862	6639
912.976	6612
913.09	6570
913.204	6631
913.318	6604
913.431	6658
913.545	6623
913.659	6650
913.772	6642
913.886	6547
914	6559
914.113	6623
914.226	6658
914.34	6604
914.453	6399
914.566	6559
914.68	6509
914.793	6464
914.906	6384
915.019	6369
915.132	6346
915.245	6429
915.358	6403
915.47	6395
915.583	6414
915.696	6498
915.809	6506
915.921	6509
916.034	6429
916.146	6391
916.259	6426
916.371	6464
916.483	6426
916.595	6391
916.708	6388
916.82	6388
916.932	6376
917.044	6365
917.156	6395
917.268	6300
917.38	6331
917.491	6327
917.603	6395
917.715	6407
917.826	6361
917.938	6311
918.049	6251
918.161	6281
918.272	6395
918.384	6445
918.495	6315
918.606	6232
918.717	6239
918.828	6266
918.939	6228
919.05	6182
919.161	6228
919.272	6110
919.383	6129
919.494	6205
919.604	6460
919.715	6228
919.826	6186
919.936	6235
920.047	6376
920.157	6270
920.267	6445
920.378	6308
920.488	6285
920.598	6422
920.708	6559
920.818	6475
920.928	6460
921.038	6608
921.148	6540
921.258	6357
921.368	6266
921.477	6167
921.587	6171
921.697	6079
921.806	6133
921.916	6049
922.025	5904
922.134	5885
922.244	5912
922.353	5958
922.462	5824
922.571	5790
922.68	5688
922.789	5608
922.898	5680
923.007	5585
923.116	5684
923.224	5627
923.333	5646
923.442	5589
923.55	5581
923.659	5566
923.767	5573
923.876	5558
923.984	5554
924.092	5551
924.201	5551
924.309	5589
924.417	5497
924.525	5429
924.633	5509
924.741	6243
924.849	5395
924.956	5459
925.064	5353
925.172	5299
925.279	5311
925.387	5322
925.494	5299
925.602	5353
925.709	5334
925.816	5235
925.924	5303
926.031	5311
926.138	5284
926.245	5311
926.352	5197
926.459	5326
926.566	5261
926.673	5231
926.779	5098
926.886	5113
926.993	5018
927.099	5064
927.206	4949
927.312	4965
927.419	5010
927.525	4908
927.631	5010
927.737	4896
927.843	4896
927.95	4721
928.056	4801
928.162	4786
928.267	4873
928.373	5330
928.479	4835
928.585	4660
928.69	4725
928.796	4774
928.901	4679
929.007	4592
929.112	4649
929.218	4641
929.323	4592
929.428	4535
929.533	4653
929.638	4542
929.743	4569
929.848	4470
929.953	4504
930.058	4462
930.163	4333
930.267	4333
930.372	4440
930.477	4344
930.581	4440
930.685	4367
930.79	4295
930.894	4268
930.998	4223
931.103	4329
931.207	4116
931.311	4071
931.415	4025
931.519	3854
931.623	3915
