Data from glass_V78500241_2722.txt Node
Date: Wed Sep 01 19:33:22 CST 2021
User: usil
Spectrometer: V785-0024
Trigger mode: 0
Integration Time (sec): 4.000000E-1
Scans to average: 1
Nonlinearity correction enabled: false
Boxcar width: 0
Storing dark spectrum: false
XAxis mode: Wavelengths
Number of Pixels in Spectrum: 1024
>>>>>Begin Spectral Data<<<<<
801.071	3724
801.214	3701
801.356	3671
801.499	3713
801.641	3709
801.783	3728
801.926	3816
802.068	3823
802.211	3823
802.353	3899
802.496	3846
802.638	3850
802.78	3896
802.923	3915
803.065	3884
803.208	3819
803.35	3918
803.492	3911
803.635	3880
803.777	3800
803.919	3876
804.061	4139
804.204	3949
804.346	3918
804.488	3896
804.63	4082
804.773	3972
804.915	4021
805.057	4147
805.199	4006
805.341	4055
805.483	4116
805.626	4131
805.768	4078
805.91	4185
806.052	4173
806.194	4204
806.336	4310
806.478	4173
806.62	4169
806.762	4219
806.904	4249
807.046	4284
807.188	4219
807.33	4188
807.472	4261
807.614	4181
807.756	4234
807.898	4181
808.04	4185
808.182	4287
808.324	4325
808.465	4360
808.607	4413
808.749	4462
808.891	4470
809.033	4523
809.174	4325
809.316	4284
809.458	4268
809.6	4173
809.741	4150
809.883	4158
810.025	4173
810.166	4242
810.308	4181
810.45	4242
810.591	4215
810.733	4265
810.875	4527
811.016	4816
811.158	5124
811.299	5265
811.441	5246
811.582	5018
811.724	4679
811.865	4436
812.007	4443
812.148	4424
812.29	4409
812.431	4356
812.573	4383
812.714	4356
812.855	4417
812.997	4386
813.138	4497
813.279	4402
813.421	4390
813.562	4318
813.703	4303
813.845	4329
813.986	4249
814.127	4211
814.268	4246
814.41	4284
814.551	4276
814.692	4341
814.833	4219
814.974	4234
815.115	4360
815.256	4272
815.397	4276
815.539	4230
815.68	4200
815.821	4173
815.962	4322
816.103	4318
816.244	4181
816.385	4211
816.526	4219
816.666	4169
816.807	4048
816.948	4143
817.089	4158
817.23	4135
817.371	4029
817.512	4002
817.653	4086
817.793	4025
817.934	4048
818.075	4067
818.216	4021
818.356	4048
818.497	3937
818.638	3861
818.778	3945
818.919	3892
819.06	3838
819.2	3926
819.341	3838
819.481	3827
819.622	3907
819.762	4036
819.903	3949
820.043	3854
820.184	3774
820.324	3819
820.465	3880
820.605	3850
820.746	3876
820.886	3797
821.026	3876
821.167	3873
821.307	3918
821.447	3983
821.588	3964
821.728	3956
821.868	3941
822.008	3873
822.149	3896
822.289	3899
822.429	3755
822.569	3755
822.709	3766
822.849	3656
822.99	3717
823.13	3740
823.27	3759
823.41	3717
823.55	3709
823.69	3762
823.83	3717
823.97	3705
824.11	3603
824.25	3530
824.389	3587
824.529	3671
824.669	3629
824.809	3682
824.949	3713
825.089	3732
825.228	3671
825.368	3580
825.508	3534
825.648	3603
825.787	3572
825.927	3641
826.067	3648
826.206	3641
826.346	3743
826.485	3785
826.625	3827
826.765	3892
826.904	3812
827.044	3580
827.183	3549
827.323	3439
827.462	3488
827.601	3393
827.741	3416
827.88	3439
828.02	3363
828.159	3416
828.298	3469
828.437	3519
828.577	3466
828.716	3591
828.855	3443
828.994	3351
829.134	3378
829.273	3386
829.412	3344
829.551	3306
829.69	3348
829.829	3416
829.968	3515
830.107	3428
830.246	3458
830.385	3363
830.524	3329
830.663	3298
830.802	3253
830.941	3176
831.08	3188
831.219	3230
831.357	3268
831.496	3397
831.635	3253
831.774	3176
831.913	3157
832.051	3100
832.19	3146
832.329	3192
832.467	3135
832.606	3077
832.744	3218
832.883	3154
833.022	3180
833.16	3245
833.299	3310
833.437	3336
833.576	3332
833.714	3401
833.852	3443
833.991	3439
834.129	3450
834.267	3443
834.406	3363
834.544	3435
834.682	3393
834.821	3397
834.959	3530
835.097	3382
835.235	3519
835.373	3485
835.511	3462
835.65	3515
835.788	3458
835.926	3443
836.064	3382
836.202	3359
836.34	3538
836.478	3644
836.615	3504
836.753	3606
836.891	3660
837.029	3564
837.167	3557
837.305	3549
837.443	3488
837.58	3519
837.718	3595
837.856	3561
837.993	3500
838.131	3564
838.269	3584
838.406	3580
838.544	3553
838.681	3443
838.819	3466
838.956	3393
839.094	3405
839.231	3439
839.369	3481
839.506	3701
839.643	3614
839.781	3469
839.918	3466
840.055	3473
840.193	3496
840.33	3523
840.467	3530
840.604	3591
840.742	3789
840.879	3511
841.016	3557
841.153	3584
841.29	3774
841.427	3686
841.564	3679
841.701	3701
841.838	3675
841.975	3682
842.112	3732
842.249	3622
842.385	3622
842.522	3823
842.659	3644
842.796	3694
842.933	3660
843.069	3671
843.206	3690
843.343	3797
843.479	3800
843.616	3816
843.752	3641
843.889	3671
844.025	3846
844.162	3698
844.298	3835
844.435	3755
844.571	3755
844.708	3876
844.844	3979
844.98	4010
845.117	4006
845.253	3922
845.389	3945
845.525	3964
845.661	3960
845.798	3915
845.934	3964
846.07	3945
846.206	4021
846.342	4105
846.478	4029
846.614	3945
846.75	3937
846.886	3869
847.022	4006
847.158	3972
847.294	3983
847.429	4025
847.565	4025
847.701	4257
847.837	3850
847.972	3915
848.108	3953
848.244	4013
848.379	3823
848.515	3827
848.65	3789
848.786	3804
848.921	3865
849.057	3892
849.192	3941
849.328	3892
849.463	3880
849.598	3896
849.734	3876
849.869	3831
850.004	3751
850.14	3770
850.275	3766
850.41	3762
850.545	3690
850.68	3774
850.815	3789
850.95	3804
851.085	3934
851.22	3876
851.355	3831
851.49	3751
851.625	3793
851.76	3759
851.895	3709
852.03	3736
852.165	3800
852.299	3880
852.434	3880
852.569	3850
852.703	3876
852.838	3869
852.973	3968
853.107	3979
853.242	3930
853.376	3854
853.511	3747
853.645	3816
853.78	3922
853.914	3911
854.048	3899
854.183	3869
854.317	3956
854.451	4067
854.585	3956
854.72	3953
854.854	4082
854.988	3964
855.122	4013
855.256	3892
855.39	3987
855.524	4120
855.658	4071
855.792	4128
855.926	4090
856.06	4116
856.194	4207
856.327	4120
856.461	4120
856.595	4120
856.729	4143
856.862	4268
856.996	4215
857.13	4257
857.263	4310
857.397	4322
857.53	4276
857.664	4318
857.797	4367
857.931	4360
858.064	4386
858.197	4390
858.331	4390
858.464	4325
858.597	4333
858.731	4413
858.864	4424
858.997	4493
859.13	4504
859.263	4481
859.396	4519
859.529	4478
859.662	4592
859.795	4538
859.928	4599
860.061	4664
860.194	4725
860.327	4649
860.46	4622
860.592	4694
860.725	4733
860.858	4710
860.99	4664
861.123	4706
861.256	4714
861.388	4755
861.521	5277
861.653	4736
861.786	4706
861.918	4752
862.05	4748
862.183	4847
862.315	4835
862.447	4915
862.58	4877
862.712	4809
862.844	4752
862.976	4870
863.108	4873
863.24	5284
863.372	4820
863.504	4889
863.636	4828
863.768	4949
863.9	4923
864.032	4919
864.164	4885
864.296	5014
864.428	5041
864.559	5117
864.691	5022
864.823	5083
864.954	5094
865.086	5113
865.217	5143
865.349	5113
865.48	5136
865.612	5197
865.743	5277
865.875	5166
866.006	5155
866.137	5280
866.269	5216
866.4	5242
866.531	5242
866.662	5201
866.793	5258
866.924	5250
867.055	5337
867.186	5372
867.317	5322
867.448	5273
867.579	5357
867.71	5349
867.841	5318
867.972	5417
868.103	5459
868.233	5482
868.364	5490
868.495	5482
868.625	5653
868.756	5733
868.886	5661
869.017	5733
869.147	5859
869.278	5855
869.408	5783
869.539	5817
869.669	5927
869.799	5912
869.929	6026
870.06	6011
870.19	6155
870.32	6201
870.45	6243
870.58	6315
870.71	6414
870.84	6467
870.97	6429
871.1	6388
871.23	6589
871.36	6639
871.489	6597
871.619	6730
871.749	6798
871.879	6844
872.008	6993
872.138	6939
872.267	6989
872.397	6924
872.526	7004
872.656	7069
872.785	7141
872.915	7301
873.044	7468
873.173	7544
873.303	7620
873.432	7677
873.561	7928
873.69	7940
873.819	7986
873.948	8134
874.077	8206
874.206	8252
874.335	8389
874.464	8636
874.593	8819
874.722	8967
874.851	9116
874.979	9256
875.108	9374
875.237	9355
875.365	9507
875.494	9743
875.623	9888
875.751	9880
875.88	10036
876.008	10143
876.136	10223
876.265	10550
876.393	10672
876.521	10790
876.65	10702
876.778	10869
876.906	10858
877.034	11010
877.162	11056
877.29	11060
877.418	11258
877.546	11391
877.674	11474
877.802	11436
877.93	11463
878.058	11592
878.185	11577
878.313	11627
878.441	11722
878.568	11615
878.696	11809
878.824	11859
878.951	11931
879.079	12019
879.206	12072
879.333	12049
879.461	11916
879.588	12049
879.715	12015
879.842	12175
879.97	12041
880.097	11897
880.224	11847
880.351	11893
880.478	11908
880.605	11851
880.732	11798
880.859	12095
880.986	11847
881.112	11817
881.239	11745
881.366	11642
881.493	11649
881.619	11505
881.746	11482
881.872	11547
881.999	11497
882.125	11570
882.252	11516
882.378	11532
882.505	11535
882.631	11379
882.757	11368
882.883	11383
883.01	11265
883.136	11201
883.262	11124
883.388	11067
883.514	11277
883.64	11201
883.766	11159
883.892	10980
884.018	10961
884.143	11052
884.269	11037
884.395	10835
884.52	10759
884.646	10721
884.772	10687
884.897	10694
885.023	10664
885.148	10702
885.274	10721
885.399	10683
885.524	10550
885.65	10577
885.775	10615
885.9	10584
886.025	10599
886.15	10558
886.275	10538
886.4	10348
886.525	10314
886.65	10367
886.775	10356
886.9	10489
887.025	10558
887.149	10257
887.274	10227
887.399	10150
887.523	10135
887.648	10112
887.773	10154
887.897	10268
888.021	10185
888.146	10093
888.27	10181
888.395	10204
888.519	10093
888.643	10177
888.767	10261
888.891	10063
889.015	10002
889.139	10063
889.263	9975
889.387	10010
889.511	10032
889.635	9998
889.759	9983
889.883	10002
890.006	9915
890.13	10101
890.254	9918
890.377	9972
890.501	9838
890.624	9854
890.748	9888
890.871	9789
890.995	9743
891.118	9633
891.241	9728
891.364	9694
891.488	9804
891.611	9747
891.734	9747
891.857	9755
891.98	9705
892.103	9751
892.226	9713
892.349	9675
892.471	9443
892.594	9591
892.717	9591
892.839	9644
892.962	9610
893.085	9663
893.207	9496
893.33	9454
893.452	9568
893.575	9599
893.697	9523
893.819	9580
893.941	9618
894.064	9606
894.186	9450
894.308	9378
894.43	9591
894.552	9633
894.674	9443
894.796	9401
894.918	9408
895.04	9245
895.161	9435
895.283	9408
895.405	9256
895.526	9211
895.648	9226
895.769	9245
895.891	9241
896.012	9226
896.134	9157
896.255	9085
896.376	9104
896.498	9146
896.619	9176
896.74	9036
896.861	9100
896.982	9176
897.103	9332
897.224	9203
897.345	9108
897.466	9005
897.587	9089
897.708	9127
897.828	9058
897.949	8944
898.07	8948
898.19	8948
898.311	9036
898.431	8967
898.552	8891
898.672	8933
898.792	8960
898.913	8891
899.033	8807
899.153	8708
899.273	8674
899.393	8727
899.513	8758
899.633	8693
899.753	8796
899.873	8720
899.993	8724
900.113	8670
900.232	8758
900.352	8663
900.472	8621
900.591	8552
900.711	8598
900.83	8484
900.95	8587
901.069	8644
901.189	8587
901.308	8400
901.427	8332
901.546	8404
901.665	8370
901.784	8552
901.904	8415
902.023	8358
902.141	8233
902.26	8172
902.379	8279
902.498	8294
902.617	8290
902.735	8339
902.854	8309
902.973	8362
903.091	8134
903.21	8145
903.328	8134
903.446	8100
903.565	7974
903.683	8039
903.801	8077
903.919	8115
904.038	8096
904.156	8016
904.274	8039
904.392	8024
904.51	8005
904.627	8001
904.745	8119
904.863	8020
904.981	7811
905.098	7864
905.216	7788
905.334	7909
905.451	7868
905.569	7852
905.686	7902
905.803	7921
905.921	7807
906.038	7860
906.155	7712
906.272	7734
906.389	7693
906.506	7613
906.623	7658
906.74	7556
906.857	7521
906.974	7578
907.091	7662
907.208	7693
907.324	7616
907.441	7552
907.557	7441
907.674	7495
907.79	7377
907.907	7350
908.023	7407
908.139	7434
908.256	7381
908.372	7358
908.488	7320
908.604	7289
908.72	7206
908.836	7244
908.952	7183
909.068	7209
909.184	7266
909.3	7244
909.415	7320
909.531	7308
909.647	7107
909.762	7141
909.878	7076
909.993	7057
910.108	7080
910.224	7042
910.339	7091
910.454	7069
910.57	7012
910.685	6928
910.8	7103
910.915	7084
911.03	6973
911.145	6867
911.259	6856
911.374	6833
911.489	6833
911.604	6764
911.718	6692
911.833	6719
911.947	6612
912.062	6563
912.176	6677
912.291	6692
912.405	6753
912.519	6772
912.633	6772
912.748	6722
912.862	6703
912.976	6566
913.09	6525
913.204	6642
913.318	6578
913.431	6711
913.545	6646
913.659	6707
913.772	6604
913.886	6532
914	6555
914.113	6589
914.226	6597
914.34	6597
914.453	6403
914.566	6604
914.68	6517
914.793	6521
914.906	6426
915.019	6441
915.132	6361
915.245	6422
915.358	6422
915.47	6391
915.583	6395
915.696	6452
915.809	6502
915.921	6578
916.034	6414
916.146	6380
916.259	6376
916.371	6441
916.483	6429
916.595	6361
916.708	6460
916.82	6376
916.932	6319
917.044	6376
917.156	6365
917.268	6338
917.38	6338
917.491	6277
917.603	6311
917.715	6350
917.826	6448
917.938	6258
918.049	6247
918.161	6315
918.272	6380
918.384	6422
918.495	6331
918.606	6205
918.717	6190
918.828	6243
918.939	6216
919.05	6216
919.161	6304
919.272	6159
919.383	6148
919.494	6289
919.604	6464
919.715	6258
919.826	6197
919.936	6178
920.047	6334
920.157	6270
920.267	6407
920.378	6304
920.488	6224
920.598	6429
920.708	6547
920.818	6483
920.928	6445
921.038	6612
921.148	6601
921.258	6331
921.368	6350
921.477	6171
921.587	6197
921.697	6068
921.806	6171
921.916	6026
922.025	5889
922.134	5931
922.244	5893
922.353	5950
922.462	5790
922.571	5794
922.68	5672
922.789	5649
922.898	5676
923.007	5528
923.116	5688
923.224	5665
923.333	5718
923.442	5592
923.55	5596
923.659	5570
923.767	5608
923.876	5512
923.984	5615
924.092	5539
924.201	5554
924.309	5524
924.417	5493
924.525	5452
924.633	5474
924.741	6232
924.849	5357
924.956	5433
925.064	5288
925.172	5258
925.279	5288
925.387	5322
925.494	5326
925.602	5425
925.709	5387
925.816	5261
925.924	5337
926.031	5322
926.138	5284
926.245	5299
926.352	5197
926.459	5246
926.566	5299
926.673	5162
926.779	5124
926.886	5121
926.993	5094
927.099	5006
927.206	4946
927.312	4927
927.419	4987
927.525	4980
927.631	4961
927.737	4892
927.843	4847
927.95	4793
928.056	4831
928.162	4812
928.267	4847
928.373	5349
928.479	4835
928.585	4691
928.69	4729
928.796	4767
928.901	4679
929.007	4546
929.112	4691
929.218	4611
929.323	4618
929.428	4580
929.533	4649
929.638	4485
929.743	4535
929.848	4550
929.953	4554
930.058	4440
930.163	4272
930.267	4348
930.372	4352
930.477	4306
930.581	4455
930.685	4394
930.79	4249
930.894	4284
930.998	4261
931.103	4386
931.207	4124
931.311	4101
931.415	4021
931.519	3934
931.623	3930
