Data from glass_V78500241_1465.txt Node
Date: Wed Sep 01 19:24:39 CST 2021
User: usil
Spectrometer: V785-0024
Trigger mode: 0
Integration Time (sec): 4.000000E-1
Scans to average: 1
Nonlinearity correction enabled: false
Boxcar width: 0
Storing dark spectrum: false
XAxis mode: Wavelengths
Number of Pixels in Spectrum: 1024
>>>>>Begin Spectral Data<<<<<
801.071	3751
801.214	3755
801.356	3713
801.499	3728
801.641	3755
801.783	3747
801.926	3842
802.068	3842
802.211	3854
802.353	3876
802.496	3789
802.638	3884
802.78	3888
802.923	3934
803.065	3869
803.208	3835
803.35	3869
803.492	3892
803.635	3941
803.777	3785
803.919	3865
804.061	4143
804.204	3941
804.346	3979
804.488	3930
804.63	4063
804.773	3994
804.915	3998
805.057	4124
805.199	4074
805.341	4082
805.483	4158
805.626	4124
805.768	4071
805.91	4219
806.052	4268
806.194	4204
806.336	4348
806.478	4227
806.62	4188
806.762	4185
806.904	4261
807.046	4287
807.188	4196
807.33	4196
807.472	4200
807.614	4207
807.756	4291
807.898	4219
808.04	4223
808.182	4333
808.324	4371
808.465	4417
808.607	4497
808.749	4424
808.891	4474
809.033	4527
809.174	4363
809.316	4291
809.458	4234
809.6	4173
809.741	4166
809.883	4154
810.025	4204
810.166	4215
810.308	4207
810.45	4295
810.591	4227
810.733	4295
810.875	4508
811.016	4835
811.158	5151
811.299	5303
811.441	5273
811.582	5041
811.724	4664
811.865	4421
812.007	4519
812.148	4405
812.29	4447
812.431	4462
812.573	4424
812.714	4352
812.855	4390
812.997	4432
813.138	4485
813.279	4386
813.421	4371
813.562	4413
813.703	4363
813.845	4348
813.986	4291
814.127	4246
814.268	4276
814.41	4284
814.551	4257
814.692	4310
814.833	4242
814.974	4322
815.115	4367
815.256	4291
815.397	4249
815.539	4268
815.68	4230
815.821	4227
815.962	4367
816.103	4242
816.244	4280
816.385	4223
816.526	4295
816.666	4219
816.807	4086
816.948	4162
817.089	4196
817.23	4143
817.371	4097
817.512	4078
817.653	4090
817.793	4036
817.934	3979
818.075	4078
818.216	4078
818.356	4040
818.497	4002
818.638	3911
818.778	3896
818.919	3903
819.06	3857
819.2	3899
819.341	3884
819.481	3873
819.622	3899
819.762	4025
819.903	3941
820.043	3873
820.184	3838
820.324	3812
820.465	3934
820.605	3880
820.746	3854
820.886	3793
821.026	3926
821.167	3911
821.307	4013
821.447	3983
821.588	3956
821.728	3949
821.868	3972
822.008	3869
822.149	3937
822.289	3934
822.429	3774
822.569	3747
822.709	3812
822.849	3686
822.99	3720
823.13	3793
823.27	3781
823.41	3728
823.55	3728
823.69	3679
823.83	3736
823.97	3675
824.11	3606
824.25	3572
824.389	3614
824.529	3625
824.669	3648
824.809	3724
824.949	3720
825.089	3755
825.228	3690
825.368	3564
825.508	3553
825.648	3549
825.787	3584
825.927	3610
826.067	3618
826.206	3656
826.346	3819
826.485	3808
826.625	3899
826.765	3979
826.904	3804
827.044	3599
827.183	3511
827.323	3443
827.462	3488
827.601	3439
827.741	3447
827.88	3481
828.02	3374
828.159	3466
828.298	3492
828.437	3515
828.577	3488
828.716	3599
828.855	3492
828.994	3374
829.134	3355
829.273	3397
829.412	3348
829.551	3359
829.69	3355
829.829	3386
829.968	3504
830.107	3431
830.246	3401
830.385	3393
830.524	3340
830.663	3344
830.802	3256
830.941	3211
831.08	3195
831.219	3256
831.357	3260
831.496	3389
831.635	3180
831.774	3218
831.913	3226
832.051	3150
832.19	3138
832.329	3199
832.467	3135
832.606	3085
832.744	3176
832.883	3192
833.022	3218
833.16	3260
833.299	3298
833.437	3306
833.576	3405
833.714	3420
833.852	3469
833.991	3431
834.129	3466
834.267	3431
834.406	3374
834.544	3412
834.682	3386
834.821	3405
834.959	3580
835.097	3443
835.235	3530
835.373	3462
835.511	3481
835.65	3492
835.788	3496
835.926	3393
836.064	3393
836.202	3393
836.34	3515
836.478	3656
836.615	3553
836.753	3595
836.891	3622
837.029	3568
837.167	3599
837.305	3511
837.443	3564
837.58	3481
837.718	3618
837.856	3526
837.993	3557
838.131	3584
838.269	3618
838.406	3610
838.544	3557
838.681	3469
838.819	3454
838.956	3359
839.094	3405
839.231	3458
839.369	3500
839.506	3717
839.643	3587
839.781	3496
839.918	3458
840.055	3519
840.193	3557
840.33	3572
840.467	3595
840.604	3576
840.742	3800
840.879	3534
841.016	3580
841.153	3561
841.29	3762
841.427	3713
841.564	3720
841.701	3747
841.838	3701
841.975	3686
842.112	3705
842.249	3637
842.385	3618
842.522	3812
842.659	3717
842.796	3641
842.933	3694
843.069	3717
843.206	3705
843.343	3812
843.479	3827
843.616	3842
843.752	3690
843.889	3652
844.025	3823
844.162	3732
844.298	3857
844.435	3774
844.571	3816
844.708	3892
844.844	4006
844.98	3987
845.117	4013
845.253	3930
845.389	3888
845.525	3956
845.661	4017
845.798	3915
845.934	3998
846.07	3934
846.206	4074
846.342	4101
846.478	4036
846.614	3998
846.75	3953
846.886	3907
847.022	4036
847.158	3968
847.294	3998
847.429	4002
847.565	4040
847.701	4261
847.837	3876
847.972	3903
848.108	3987
848.244	4025
848.379	3842
848.515	3823
848.65	3808
848.786	3838
848.921	3861
849.057	3953
849.192	3960
849.328	3896
849.463	3968
849.598	3846
849.734	3838
849.869	3857
850.004	3778
850.14	3812
850.275	3785
850.41	3740
850.545	3808
850.68	3762
850.815	3793
850.95	3800
851.085	3865
851.22	3926
851.355	3812
851.49	3778
851.625	3797
851.76	3797
851.895	3728
852.03	3766
852.165	3846
852.299	3831
852.434	3865
852.569	3850
852.703	3854
852.838	3884
852.973	4010
853.107	3987
853.242	3911
853.376	3831
853.511	3770
853.645	3823
853.78	3945
853.914	3888
854.048	3915
854.183	3876
854.317	3899
854.451	4109
854.585	3918
854.72	3941
854.854	4036
854.988	3987
855.122	4017
855.256	3930
855.39	3991
855.524	4116
855.658	4090
855.792	4097
855.926	4120
856.06	4158
856.194	4234
856.327	4112
856.461	4131
856.595	4124
856.729	4185
856.862	4287
856.996	4249
857.13	4348
857.263	4318
857.397	4333
857.53	4268
857.664	4398
857.797	4375
857.931	4424
858.064	4417
858.197	4443
858.331	4375
858.464	4390
858.597	4337
858.731	4424
858.864	4478
858.997	4409
859.13	4500
859.263	4519
859.396	4596
859.529	4485
859.662	4493
859.795	4565
859.928	4565
860.061	4694
860.194	4725
860.327	4649
860.46	4668
860.592	4725
860.725	4736
860.858	4755
860.99	4679
861.123	4672
861.256	4656
861.388	4736
861.521	5303
861.653	4679
861.786	4721
861.918	4755
862.05	4793
862.183	4812
862.315	4942
862.447	4987
862.58	4896
862.712	4793
862.844	4767
862.976	4801
863.108	4885
863.24	5242
863.372	4858
863.504	4911
863.636	4934
863.768	4961
863.9	4923
864.032	4934
864.164	4949
864.296	4999
864.428	5075
864.559	5094
864.691	5113
864.823	5094
864.954	5109
865.086	5166
865.217	5121
865.349	5128
865.48	5204
865.612	5193
865.743	5299
865.875	5201
866.006	5189
866.137	5204
866.269	5254
866.4	5208
866.531	5299
866.662	5284
866.793	5239
866.924	5318
867.055	5379
867.186	5349
867.317	5349
867.448	5334
867.579	5402
867.71	5398
867.841	5337
867.972	5455
868.103	5474
868.233	5516
868.364	5478
868.495	5585
868.625	5661
868.756	5790
868.886	5695
869.017	5733
869.147	5828
869.278	5859
869.408	5828
869.539	5882
869.669	5897
869.799	5927
869.929	5992
870.06	5999
870.19	6201
870.32	6220
870.45	6273
870.58	6346
870.71	6395
870.84	6437
870.97	6448
871.1	6506
871.23	6593
871.36	6745
871.489	6612
871.619	6757
871.749	6833
871.879	6970
872.008	6985
872.138	6954
872.267	7019
872.397	6989
872.526	7031
872.656	7107
872.785	7297
872.915	7400
873.044	7521
873.173	7502
873.303	7609
873.432	7837
873.561	7925
873.69	7951
873.819	8069
873.948	8172
874.077	8233
874.206	8385
874.335	8415
874.464	8625
874.593	8868
874.722	8925
874.851	9161
874.979	9268
875.108	9336
875.237	9386
875.365	9504
875.494	9671
875.623	9850
875.751	9918
875.88	10021
876.008	10147
876.136	10352
876.265	10447
876.393	10694
876.521	10755
876.65	10862
876.778	10869
876.906	10885
877.034	11037
877.162	11098
877.29	11193
877.418	11178
877.546	11372
877.674	11444
877.802	11520
877.93	11558
878.058	11532
878.185	11486
878.313	11585
878.441	11722
878.568	11653
878.696	11802
878.824	11851
878.951	11923
879.079	11988
879.206	12175
879.333	12060
879.461	11984
879.588	12015
879.715	12019
879.842	12243
879.97	12026
880.097	11893
880.224	11961
880.351	11863
880.478	11885
880.605	11809
880.732	11756
880.859	12030
880.986	11855
881.112	11878
881.239	11775
881.366	11668
881.493	11657
881.619	11547
881.746	11573
881.872	11547
881.999	11524
882.125	11482
882.252	11573
882.378	11482
882.505	11554
882.631	11307
882.757	11372
882.883	11170
883.01	11231
883.136	11162
883.262	11113
883.388	11109
883.514	11181
883.64	11162
883.766	11117
883.892	11067
884.018	11052
884.143	11083
884.269	11052
884.395	10805
884.52	10805
884.646	10797
884.772	10736
884.897	10618
885.023	10729
885.148	10698
885.274	10729
885.399	10664
885.524	10615
885.65	10569
885.775	10558
885.9	10516
886.025	10546
886.15	10550
886.275	10470
886.4	10375
886.525	10363
886.65	10341
886.775	10322
886.9	10500
887.025	10500
887.149	10367
887.274	10272
887.399	10196
887.523	10211
887.648	10112
887.773	10143
887.897	10223
888.021	10261
888.146	10120
888.27	10230
888.395	10227
888.519	10147
888.643	10238
888.767	10299
888.891	10082
889.015	10021
889.139	10029
889.263	9899
889.387	10071
889.511	10093
889.635	10086
889.759	9884
889.883	9979
890.006	10048
890.13	10097
890.254	9968
890.377	9911
890.501	9804
890.624	9846
890.748	9888
890.871	9747
890.995	9732
891.118	9751
891.241	9838
891.364	9720
891.488	9800
891.611	9705
891.734	9747
891.857	9736
891.98	9618
892.103	9705
892.226	9724
892.349	9682
892.471	9545
892.594	9606
892.717	9587
892.839	9576
892.962	9660
893.085	9671
893.207	9557
893.33	9526
893.452	9561
893.575	9648
893.697	9469
893.819	9625
893.941	9622
894.064	9625
894.186	9481
894.308	9405
894.43	9519
894.552	9641
894.674	9534
894.796	9401
894.918	9393
895.04	9348
895.161	9382
895.283	9367
895.405	9264
895.526	9310
895.648	9302
895.769	9199
895.891	9310
896.012	9264
896.134	9207
896.255	9169
896.376	9131
896.498	9184
896.619	9138
896.74	9055
896.861	9089
896.982	9214
897.103	9306
897.224	9161
897.345	9047
897.466	9028
897.587	9043
897.708	9089
897.828	8971
897.949	9070
898.07	8815
898.19	8929
898.311	9051
898.431	8906
898.552	8979
898.672	8948
898.792	8975
898.913	8921
899.033	8838
899.153	8693
899.273	8655
899.393	8701
899.513	8727
899.633	8697
899.753	8773
899.873	8708
899.993	8674
900.113	8674
900.232	8720
900.352	8655
900.472	8610
900.591	8545
900.711	8560
900.83	8583
900.95	8625
901.069	8735
901.189	8571
901.308	8476
901.427	8408
901.546	8442
901.665	8465
901.784	8480
901.904	8457
902.023	8279
902.141	8206
902.26	8176
902.379	8244
902.498	8233
902.617	8221
902.735	8282
902.854	8328
902.973	8259
903.091	8164
903.21	8138
903.328	8183
903.446	8164
903.565	8119
903.683	8103
903.801	8050
903.919	8119
904.038	8138
904.156	8077
904.274	8073
904.392	8069
904.51	7993
904.627	8081
904.745	8119
904.863	8092
904.981	7917
905.098	7883
905.216	7860
905.334	7909
905.451	7879
905.569	7852
905.686	7906
905.803	7898
905.921	7795
906.038	7906
906.155	7818
906.272	7681
906.389	7753
906.506	7677
906.623	7666
906.74	7586
906.857	7601
906.974	7556
907.091	7628
907.208	7731
907.324	7636
907.441	7594
907.557	7460
907.674	7438
907.79	7472
907.907	7430
908.023	7422
908.139	7362
908.256	7373
908.372	7384
908.488	7392
908.604	7308
908.72	7244
908.836	7305
908.952	7316
909.068	7293
909.184	7324
909.3	7251
909.415	7247
909.531	7270
909.647	7145
909.762	7141
909.878	7080
909.993	7084
910.108	7091
910.224	7023
910.339	7095
910.454	7061
910.57	7012
910.685	6989
910.8	7198
910.915	7091
911.03	7008
911.145	6932
911.259	6905
911.374	6901
911.489	6882
911.604	6734
911.718	6760
911.833	6764
911.947	6650
912.062	6566
912.176	6669
912.291	6757
912.405	6734
912.519	6840
912.633	6814
912.748	6760
912.862	6696
912.976	6616
913.09	6498
913.204	6597
913.318	6684
913.431	6711
913.545	6620
913.659	6745
913.772	6673
913.886	6566
914	6532
914.113	6662
914.226	6639
914.34	6544
914.453	6498
914.566	6642
914.68	6490
914.793	6536
914.906	6475
915.019	6384
915.132	6376
915.245	6391
915.358	6448
915.47	6467
915.583	6467
915.696	6433
915.809	6502
915.921	6563
916.034	6414
916.146	6467
916.259	6433
916.371	6498
916.483	6445
916.595	6395
916.708	6426
916.82	6391
916.932	6441
917.044	6391
917.156	6369
917.268	6350
917.38	6315
917.491	6323
917.603	6292
917.715	6376
917.826	6441
917.938	6395
918.049	6277
918.161	6369
918.272	6414
918.384	6433
918.495	6369
918.606	6258
918.717	6247
918.828	6323
918.939	6296
919.05	6228
919.161	6273
919.272	6201
919.383	6239
919.494	6319
919.604	6418
919.715	6239
919.826	6270
919.936	6281
920.047	6403
920.157	6319
920.267	6410
920.378	6361
920.488	6281
920.598	6448
920.708	6544
920.818	6460
920.928	6502
921.038	6582
921.148	6551
921.258	6319
921.368	6304
921.477	6159
921.587	6171
921.697	6106
921.806	6159
921.916	6079
922.025	5946
922.134	5904
922.244	5882
922.353	5923
922.462	5790
922.571	5844
922.68	5726
922.789	5619
922.898	5718
923.007	5665
923.116	5661
923.224	5672
923.333	5668
923.442	5581
923.55	5543
923.659	5596
923.767	5642
923.876	5570
923.984	5615
924.092	5539
924.201	5497
924.309	5478
924.417	5539
924.525	5448
924.633	5490
924.741	6079
924.849	5360
924.956	5474
925.064	5391
925.172	5311
925.279	5341
925.387	5315
925.494	5349
925.602	5368
925.709	5372
925.816	5246
925.924	5360
926.031	5410
926.138	5318
926.245	5311
926.352	5258
926.459	5303
926.566	5299
926.673	5204
926.779	5151
926.886	5102
926.993	5067
927.099	5033
927.206	4957
927.312	4961
927.419	4987
927.525	4972
927.631	5003
927.737	4854
927.843	4809
927.95	4816
928.056	4854
928.162	4839
928.267	4824
928.373	5277
928.479	4850
928.585	4710
928.69	4767
928.796	4755
928.901	4679
929.007	4596
929.112	4702
929.218	4649
929.323	4596
929.428	4580
929.533	4675
929.638	4565
929.743	4519
929.848	4523
929.953	4485
930.058	4478
930.163	4341
930.267	4333
930.372	4489
930.477	4280
930.581	4497
930.685	4390
930.79	4234
930.894	4303
930.998	4223
931.103	4440
931.207	4116
931.311	4074
931.415	4074
931.519	3926
931.623	3956
