Data from glass_V78500241_1782.txt Node
Date: Wed Sep 01 19:26:51 CST 2021
User: usil
Spectrometer: V785-0024
Trigger mode: 0
Integration Time (sec): 4.000000E-1
Scans to average: 1
Nonlinearity correction enabled: false
Boxcar width: 0
Storing dark spectrum: false
XAxis mode: Wavelengths
Number of Pixels in Spectrum: 1024
>>>>>Begin Spectral Data<<<<<
801.071	3732
801.214	3740
801.356	3675
801.499	3774
801.641	3709
801.783	3781
801.926	3865
802.068	3838
802.211	3903
802.353	3857
802.496	3827
802.638	3850
802.78	3888
802.923	3915
803.065	3888
803.208	3865
803.35	3865
803.492	3869
803.635	3896
803.777	3770
803.919	3918
804.061	4143
804.204	3953
804.346	3937
804.488	3922
804.63	4044
804.773	3937
804.915	4071
805.057	4166
805.199	3998
805.341	4090
805.483	4143
805.626	4112
805.768	4112
805.91	4253
806.052	4234
806.194	4169
806.336	4386
806.478	4188
806.62	4230
806.762	4169
806.904	4284
807.046	4348
807.188	4192
807.33	4204
807.472	4238
807.614	4238
807.756	4261
807.898	4234
808.04	4242
808.182	4280
808.324	4303
808.465	4398
808.607	4459
808.749	4466
808.891	4474
809.033	4516
809.174	4409
809.316	4230
809.458	4238
809.6	4158
809.741	4154
809.883	4109
810.025	4166
810.166	4196
810.308	4211
810.45	4295
810.591	4181
810.733	4242
810.875	4523
811.016	4835
811.158	5102
811.299	5265
811.441	5284
811.582	5056
811.724	4710
811.865	4478
812.007	4421
812.148	4398
812.29	4398
812.431	4432
812.573	4398
812.714	4371
812.855	4432
812.997	4379
813.138	4497
813.279	4428
813.421	4371
813.562	4390
813.703	4295
813.845	4306
813.986	4261
814.127	4200
814.268	4268
814.41	4249
814.551	4295
814.692	4363
814.833	4287
814.974	4272
815.115	4306
815.256	4265
815.397	4238
815.539	4200
815.68	4181
815.821	4227
815.962	4265
816.103	4280
816.244	4211
816.385	4257
816.526	4284
816.666	4246
816.807	4105
816.948	4215
817.089	4196
817.23	4101
817.371	4063
817.512	4059
817.653	4101
817.793	4002
817.934	4059
818.075	4082
818.216	4090
818.356	4116
818.497	3968
818.638	3896
818.778	3896
818.919	3899
819.06	3854
819.2	3949
819.341	3846
819.481	3842
819.622	3903
819.762	4006
819.903	3949
820.043	3873
820.184	3846
820.324	3854
820.465	3869
820.605	3842
820.746	3846
820.886	3831
821.026	3953
821.167	3953
821.307	3968
821.447	3926
821.588	3934
821.728	3918
821.868	3903
822.008	3892
822.149	3880
822.289	3888
822.429	3762
822.569	3770
822.709	3846
822.849	3705
822.99	3740
823.13	3732
823.27	3827
823.41	3709
823.55	3728
823.69	3698
823.83	3751
823.97	3728
824.11	3625
824.25	3572
824.389	3652
824.529	3641
824.669	3614
824.809	3705
824.949	3720
825.089	3724
825.228	3713
825.368	3610
825.508	3564
825.648	3587
825.787	3580
825.927	3629
826.067	3679
826.206	3675
826.346	3797
826.485	3865
826.625	3903
826.765	3964
826.904	3835
827.044	3591
827.183	3538
827.323	3435
827.462	3450
827.601	3428
827.741	3439
827.88	3458
828.02	3351
828.159	3420
828.298	3492
828.437	3580
828.577	3454
828.716	3595
828.855	3469
828.994	3367
829.134	3363
829.273	3355
829.412	3374
829.551	3355
829.69	3389
829.829	3378
829.968	3504
830.107	3488
830.246	3488
830.385	3397
830.524	3294
830.663	3332
830.802	3253
830.941	3222
831.08	3222
831.219	3233
831.357	3302
831.496	3386
831.635	3256
831.774	3180
831.913	3184
832.051	3108
832.19	3138
832.329	3173
832.467	3138
832.606	3108
832.744	3180
832.883	3180
833.022	3157
833.16	3256
833.299	3298
833.437	3321
833.576	3351
833.714	3405
833.852	3431
833.991	3469
834.129	3477
834.267	3412
834.406	3409
834.544	3443
834.682	3439
834.821	3416
834.959	3599
835.097	3473
835.235	3584
835.373	3504
835.511	3511
835.65	3458
835.788	3473
835.926	3386
836.064	3374
836.202	3378
836.34	3549
836.478	3614
836.615	3523
836.753	3564
836.891	3641
837.029	3625
837.167	3580
837.305	3549
837.443	3561
837.58	3500
837.718	3603
837.856	3564
837.993	3538
838.131	3595
838.269	3568
838.406	3606
838.544	3603
838.681	3496
838.819	3431
838.956	3389
839.094	3382
839.231	3447
839.369	3519
839.506	3690
839.643	3587
839.781	3439
839.918	3473
840.055	3557
840.193	3542
840.33	3538
840.467	3549
840.604	3584
840.742	3800
840.879	3572
841.016	3542
841.153	3595
841.29	3728
841.427	3720
841.564	3713
841.701	3736
841.838	3671
841.975	3663
842.112	3705
842.249	3663
842.385	3584
842.522	3793
842.659	3713
842.796	3667
842.933	3652
843.069	3728
843.206	3675
843.343	3812
843.479	3732
843.616	3774
843.752	3694
843.889	3698
844.025	3854
844.162	3728
844.298	3850
844.435	3819
844.571	3785
844.708	3854
844.844	3994
844.98	4029
845.117	4025
845.253	3975
845.389	3937
845.525	3956
845.661	3979
845.798	3926
845.934	3998
846.07	3960
846.206	4036
846.342	4109
846.478	4051
846.614	3979
846.75	3945
846.886	3945
847.022	4040
847.158	4006
847.294	3983
847.429	4044
847.565	3991
847.701	4306
847.837	3888
847.972	3842
848.108	3979
848.244	3983
848.379	3838
848.515	3797
848.65	3876
848.786	3838
848.921	3865
849.057	3934
849.192	3915
849.328	3915
849.463	3930
849.598	3861
849.734	3865
849.869	3842
850.004	3778
850.14	3800
850.275	3774
850.41	3778
850.545	3717
850.68	3789
850.815	3781
850.95	3781
851.085	3907
851.22	3842
851.355	3831
851.49	3819
851.625	3797
851.76	3793
851.895	3732
852.03	3717
852.165	3759
852.299	3838
852.434	3903
852.569	3892
852.703	3915
852.838	3937
852.973	4006
853.107	3960
853.242	3884
853.376	3846
853.511	3740
853.645	3831
853.78	3983
853.914	3930
854.048	3896
854.183	3876
854.317	3968
854.451	4044
854.585	3941
854.72	3972
854.854	4036
854.988	3899
855.122	4032
855.256	3926
855.39	4002
855.524	4082
855.658	4105
855.792	4078
855.926	4128
856.06	4192
856.194	4185
856.327	4154
856.461	4101
856.595	4131
856.729	4215
856.862	4295
856.996	4253
857.13	4272
857.263	4344
857.397	4352
857.53	4329
857.664	4383
857.797	4348
857.931	4398
858.064	4413
858.197	4436
858.331	4421
858.464	4371
858.597	4367
858.731	4466
858.864	4440
858.997	4432
859.13	4504
859.263	4565
859.396	4565
859.529	4573
859.662	4497
859.795	4535
859.928	4622
860.061	4721
860.194	4786
860.327	4641
860.46	4637
860.592	4763
860.725	4736
860.858	4733
860.99	4736
861.123	4702
861.256	4668
861.388	4771
861.521	5414
861.653	4717
861.786	4675
861.918	4744
862.05	4797
862.183	4839
862.315	4873
862.447	4892
862.58	4881
862.712	4790
862.844	4778
862.976	4824
863.108	4896
863.24	5258
863.372	4866
863.504	4911
863.636	4866
863.768	4961
863.9	4980
864.032	4934
864.164	4927
864.296	4995
864.428	5136
864.559	5147
864.691	5109
864.823	5155
864.954	5109
865.086	5121
865.217	5166
865.349	5083
865.48	5174
865.612	5136
865.743	5258
865.875	5170
866.006	5181
866.137	5181
866.269	5261
866.4	5265
866.531	5235
866.662	5250
866.793	5269
866.924	5307
867.055	5334
867.186	5296
867.317	5326
867.448	5345
867.579	5448
867.71	5376
867.841	5379
867.972	5452
868.103	5490
868.233	5436
868.364	5493
868.495	5577
868.625	5634
868.756	5786
868.886	5672
869.017	5756
869.147	5836
869.278	5916
869.408	5817
869.539	5851
869.669	5954
869.799	5935
869.929	5954
870.06	5969
870.19	6239
870.32	6216
870.45	6258
870.58	6308
870.71	6407
870.84	6479
870.97	6464
871.1	6395
871.23	6593
871.36	6616
871.489	6635
871.619	6749
871.749	6802
871.879	6844
872.008	6989
872.138	6970
872.267	7023
872.397	7015
872.526	7023
872.656	7091
872.785	7187
872.915	7438
873.044	7578
873.173	7575
873.303	7639
873.432	7734
873.561	7852
873.69	7887
873.819	8073
873.948	8123
874.077	8294
874.206	8366
874.335	8480
874.464	8648
874.593	8864
874.722	8956
874.851	9188
874.979	9211
875.108	9363
875.237	9428
875.365	9454
875.494	9576
875.623	9827
875.751	9831
875.88	10067
876.008	10124
876.136	10295
876.265	10500
876.393	10683
876.521	10714
876.65	10843
876.778	10797
876.906	10858
877.034	10984
877.162	11151
877.29	11155
877.418	11322
877.546	11383
877.674	11474
877.802	11512
877.93	11577
878.058	11608
878.185	11566
878.313	11600
878.441	11695
878.568	11657
878.696	11855
878.824	11878
878.951	11908
879.079	12007
879.206	12110
879.333	11984
879.461	12003
879.588	12140
879.715	12034
879.842	12254
879.97	12072
880.097	11874
880.224	11916
880.351	11866
880.478	11889
880.605	11832
880.732	11794
880.859	11965
880.986	11775
881.112	11836
881.239	11741
881.366	11615
881.493	11577
881.619	11471
881.746	11630
881.872	11558
881.999	11543
882.125	11471
882.252	11512
882.378	11535
882.505	11539
882.631	11337
882.757	11227
882.883	11326
883.01	11261
883.136	11254
883.262	11075
883.388	11010
883.514	11162
883.64	11193
883.766	11132
883.892	10957
884.018	11018
884.143	11098
884.269	11185
884.395	10858
884.52	10793
884.646	10725
884.772	10691
884.897	10618
885.023	10736
885.148	10755
885.274	10767
885.399	10637
885.524	10637
885.65	10660
885.775	10527
885.9	10603
886.025	10675
886.15	10512
886.275	10417
886.4	10379
886.525	10470
886.65	10344
886.775	10371
886.9	10474
887.025	10538
887.149	10344
887.274	10265
887.399	10181
887.523	10196
887.648	10143
887.773	10116
887.897	10318
888.021	10291
888.146	10097
888.27	10219
888.395	10188
888.519	10185
888.643	10169
888.767	10204
888.891	10124
889.015	9975
889.139	10021
889.263	9918
889.387	10071
889.511	10128
889.635	10074
889.759	9937
889.883	9983
890.006	10021
890.13	10093
890.254	9941
890.377	9945
890.501	9797
890.624	9800
890.748	9956
890.871	9781
890.995	9823
891.118	9762
891.241	9789
891.364	9778
891.488	9835
891.611	9698
891.734	9747
891.857	9755
891.98	9671
892.103	9755
892.226	9667
892.349	9724
892.471	9538
892.594	9667
892.717	9614
892.839	9576
892.962	9561
893.085	9652
893.207	9591
893.33	9504
893.452	9595
893.575	9591
893.697	9469
893.819	9656
893.941	9595
894.064	9603
894.186	9412
894.308	9408
894.43	9576
894.552	9481
894.674	9584
894.796	9397
894.918	9351
895.04	9332
895.161	9431
895.283	9291
895.405	9302
895.526	9226
895.648	9245
895.769	9199
895.891	9237
896.012	9241
896.134	9268
896.255	9233
896.376	9108
896.498	9142
896.619	9081
896.74	9028
896.861	9062
896.982	9237
897.103	9378
897.224	9138
897.345	9070
897.466	8994
897.587	9020
897.708	9119
897.828	8948
897.949	9013
898.07	8910
898.19	8891
898.311	9017
898.431	8891
898.552	8929
898.672	8971
898.792	8941
898.913	8914
899.033	8777
899.153	8754
899.273	8644
899.393	8701
899.513	8750
899.633	8701
899.753	8727
899.873	8701
899.993	8766
900.113	8655
900.232	8754
900.352	8667
900.472	8545
900.591	8594
900.711	8613
900.83	8598
900.95	8663
901.069	8678
901.189	8564
901.308	8454
901.427	8385
901.546	8469
901.665	8469
901.784	8503
901.904	8419
902.023	8294
902.141	8298
902.26	8279
902.379	8313
902.498	8176
902.617	8199
902.735	8294
902.854	8244
902.973	8271
903.091	8119
903.21	8218
903.328	8145
903.446	8115
903.565	8077
903.683	8058
903.801	8088
903.919	8065
904.038	8153
904.156	7963
904.274	8077
904.392	8058
904.51	8031
904.627	8069
904.745	8092
904.863	8088
904.981	7993
905.098	7909
905.216	7944
905.334	7887
905.451	7887
905.569	7852
905.686	7967
905.803	7967
905.921	7776
906.038	7921
906.155	7788
906.272	7772
906.389	7708
906.506	7628
906.623	7639
906.74	7643
906.857	7514
906.974	7643
907.091	7628
907.208	7674
907.324	7647
907.441	7578
907.557	7400
907.674	7472
907.79	7400
907.907	7411
908.023	7388
908.139	7419
908.256	7388
908.372	7396
908.488	7316
908.604	7346
908.72	7225
908.836	7285
908.952	7251
909.068	7244
909.184	7293
909.3	7278
909.415	7293
909.531	7255
909.647	7027
909.762	7141
909.878	7141
909.993	7126
910.108	7072
910.224	7160
910.339	7076
910.454	7034
910.57	6981
910.685	6932
910.8	7168
910.915	7069
911.03	6989
911.145	6886
911.259	6935
911.374	6928
911.489	6802
911.604	6787
911.718	6696
911.833	6692
911.947	6646
912.062	6654
912.176	6669
912.291	6726
912.405	6646
912.519	6768
912.633	6852
912.748	6673
912.862	6719
912.976	6597
913.09	6540
913.204	6574
913.318	6623
913.431	6669
913.545	6703
913.659	6745
913.772	6582
913.886	6544
914	6566
914.113	6601
914.226	6665
914.34	6593
914.453	6490
914.566	6593
914.68	6509
914.793	6547
914.906	6403
915.019	6388
915.132	6357
915.245	6410
915.358	6486
915.47	6456
915.583	6422
915.696	6509
915.809	6555
915.921	6540
916.034	6384
916.146	6384
916.259	6380
916.371	6441
916.483	6414
916.595	6369
916.708	6353
916.82	6422
916.932	6365
917.044	6384
917.156	6445
917.268	6289
917.38	6346
917.491	6296
917.603	6308
917.715	6426
917.826	6395
917.938	6342
918.049	6331
918.161	6327
918.272	6399
918.384	6395
918.495	6361
918.606	6258
918.717	6258
918.828	6285
918.939	6304
919.05	6216
919.161	6235
919.272	6129
919.383	6144
919.494	6285
919.604	6467
919.715	6327
919.826	6171
919.936	6239
920.047	6350
920.157	6251
920.267	6361
920.378	6342
920.488	6311
920.598	6418
920.708	6502
920.818	6452
920.928	6486
921.038	6574
921.148	6601
921.258	6372
921.368	6300
921.477	6239
921.587	6152
921.697	6083
921.806	6159
921.916	6083
922.025	5931
922.134	5889
922.244	5912
922.353	5969
922.462	5836
922.571	5794
922.68	5691
922.789	5615
922.898	5680
923.007	5642
923.116	5699
923.224	5638
923.333	5691
923.442	5653
923.55	5570
923.659	5589
923.767	5573
923.876	5490
923.984	5623
924.092	5562
924.201	5627
924.309	5482
924.417	5581
924.525	5478
924.633	5486
924.741	6232
924.849	5337
924.956	5505
925.064	5357
925.172	5311
925.279	5254
925.387	5311
925.494	5360
925.602	5398
925.709	5402
925.816	5261
925.924	5330
926.031	5360
926.138	5292
926.245	5280
926.352	5220
926.459	5284
926.566	5334
926.673	5197
926.779	5102
926.886	5098
926.993	5014
927.099	4984
927.206	4976
927.312	4949
927.419	4995
927.525	4976
927.631	4968
927.737	4915
927.843	4892
927.95	4786
928.056	4843
928.162	4820
928.267	4828
928.373	5364
928.479	4850
928.585	4691
928.69	4759
928.796	4763
928.901	4664
929.007	4596
929.112	4710
929.218	4672
929.323	4630
929.428	4596
929.533	4637
929.638	4485
929.743	4554
929.848	4527
929.953	4470
930.058	4466
930.163	4417
930.267	4333
930.372	4386
930.477	4295
930.581	4451
930.685	4375
930.79	4223
930.894	4276
930.998	4230
931.103	4447
931.207	4135
931.311	4093
931.415	4044
931.519	3949
931.623	3968
