Data from glass_V78500241_2329.txt Node
Date: Wed Sep 01 19:30:38 CST 2021
User: usil
Spectrometer: V785-0024
Trigger mode: 0
Integration Time (sec): 4.000000E-1
Scans to average: 1
Nonlinearity correction enabled: false
Boxcar width: 0
Storing dark spectrum: false
XAxis mode: Wavelengths
Number of Pixels in Spectrum: 1024
>>>>>Begin Spectral Data<<<<<
801.071	3747
801.214	3709
801.356	3713
801.499	3740
801.641	3755
801.783	3774
801.926	3865
802.068	3808
802.211	3873
802.353	3850
802.496	3846
802.638	3880
802.78	3930
802.923	3926
803.065	3869
803.208	3808
803.35	3854
803.492	3903
803.635	3907
803.777	3789
803.919	3892
804.061	4139
804.204	3941
804.346	3926
804.488	3934
804.63	4025
804.773	3975
804.915	3987
805.057	4131
805.199	4002
805.341	4067
805.483	4131
805.626	4143
805.768	4097
805.91	4207
806.052	4238
806.194	4185
806.336	4360
806.478	4192
806.62	4105
806.762	4200
806.904	4246
807.046	4287
807.188	4207
807.33	4173
807.472	4215
807.614	4200
807.756	4242
807.898	4230
808.04	4207
808.182	4287
808.324	4295
808.465	4417
808.607	4497
808.749	4462
808.891	4466
809.033	4512
809.174	4348
809.316	4253
809.458	4253
809.6	4120
809.741	4154
809.883	4112
810.025	4230
810.166	4143
810.308	4188
810.45	4200
810.591	4280
810.733	4284
810.875	4519
811.016	4831
811.158	5113
811.299	5288
811.441	5280
811.582	5067
811.724	4774
811.865	4447
812.007	4451
812.148	4424
812.29	4409
812.431	4394
812.573	4371
812.714	4352
812.855	4398
812.997	4375
813.138	4497
813.279	4379
813.421	4348
813.562	4371
813.703	4371
813.845	4348
813.986	4276
814.127	4211
814.268	4219
814.41	4284
814.551	4295
814.692	4284
814.833	4253
814.974	4329
815.115	4360
815.256	4215
815.397	4253
815.539	4253
815.68	4177
815.821	4192
815.962	4280
816.103	4306
816.244	4238
816.385	4234
816.526	4295
816.666	4177
816.807	4139
816.948	4150
817.089	4147
817.23	4086
817.371	4032
817.512	4040
817.653	4071
817.793	4051
817.934	3991
818.075	4055
818.216	4063
818.356	4036
818.497	3998
818.638	3922
818.778	3922
818.919	3857
819.06	3888
819.2	3937
819.341	3850
819.481	3854
819.622	3915
819.762	4040
819.903	3903
820.043	3854
820.184	3850
820.324	3842
820.465	3880
820.605	3873
820.746	3869
820.886	3766
821.026	3968
821.167	3903
821.307	3941
821.447	3987
821.588	3964
821.728	3941
821.868	3930
822.008	3831
822.149	3899
822.289	3903
822.429	3747
822.569	3751
822.709	3831
822.849	3720
822.99	3682
823.13	3701
823.27	3755
823.41	3713
823.55	3701
823.69	3751
823.83	3717
823.97	3656
824.11	3606
824.25	3584
824.389	3641
824.529	3656
824.669	3629
824.809	3709
824.949	3671
825.089	3701
825.228	3663
825.368	3545
825.508	3564
825.648	3553
825.787	3591
825.927	3584
826.067	3595
826.206	3663
826.346	3819
826.485	3816
826.625	3838
826.765	3926
826.904	3797
827.044	3603
827.183	3557
827.323	3450
827.462	3473
827.601	3420
827.741	3424
827.88	3405
828.02	3378
828.159	3409
828.298	3473
828.437	3511
828.577	3447
828.716	3587
828.855	3496
828.994	3374
829.134	3382
829.273	3367
829.412	3329
829.551	3317
829.69	3367
829.829	3405
829.968	3500
830.107	3389
830.246	3424
830.385	3397
830.524	3283
830.663	3325
830.802	3294
830.941	3218
831.08	3192
831.219	3256
831.357	3253
831.496	3412
831.635	3241
831.774	3199
831.913	3233
832.051	3085
832.19	3116
832.329	3272
832.467	3123
832.606	3131
832.744	3192
832.883	3176
833.022	3195
833.16	3222
833.299	3264
833.437	3325
833.576	3348
833.714	3374
833.852	3405
833.991	3420
834.129	3462
834.267	3443
834.406	3393
834.544	3363
834.682	3401
834.821	3389
834.959	3580
835.097	3389
835.235	3553
835.373	3481
835.511	3496
835.65	3447
835.788	3477
835.926	3416
836.064	3336
836.202	3401
836.34	3576
836.478	3618
836.615	3485
836.753	3599
836.891	3625
837.029	3614
837.167	3568
837.305	3538
837.443	3549
837.58	3485
837.718	3595
837.856	3557
837.993	3500
838.131	3564
838.269	3576
838.406	3595
838.544	3557
838.681	3443
838.819	3443
838.956	3359
839.094	3409
839.231	3431
839.369	3519
839.506	3732
839.643	3622
839.781	3485
839.918	3462
840.055	3481
840.193	3500
840.33	3526
840.467	3545
840.604	3610
840.742	3808
840.879	3526
841.016	3561
841.153	3580
841.29	3747
841.427	3720
841.564	3736
841.701	3724
841.838	3667
841.975	3671
842.112	3751
842.249	3641
842.385	3610
842.522	3800
842.659	3679
842.796	3682
842.933	3679
843.069	3701
843.206	3682
843.343	3797
843.479	3743
843.616	3774
843.752	3671
843.889	3652
844.025	3838
844.162	3694
844.298	3873
844.435	3789
844.571	3785
844.708	3926
844.844	3937
844.98	4002
845.117	4013
845.253	3945
845.389	3827
845.525	3956
845.661	3991
845.798	3907
845.934	4025
846.07	3949
846.206	4074
846.342	4097
846.478	4044
846.614	3968
846.75	3949
846.886	3911
847.022	3987
847.158	3987
847.294	3956
847.429	3998
847.565	3975
847.701	4207
847.837	3903
847.972	3880
848.108	3983
848.244	3945
848.379	3850
848.515	3812
848.65	3816
848.786	3842
848.921	3861
849.057	3934
849.192	3926
849.328	3888
849.463	3911
849.598	3838
849.734	3873
849.869	3827
850.004	3800
850.14	3789
850.275	3755
850.41	3740
850.545	3755
850.68	3793
850.815	3774
850.95	3816
851.085	3918
851.22	3850
851.355	3781
851.49	3774
851.625	3793
851.76	3781
851.895	3705
852.03	3694
852.165	3793
852.299	3854
852.434	3899
852.569	3842
852.703	3911
852.838	3918
852.973	4036
853.107	3945
853.242	3831
853.376	3823
853.511	3770
853.645	3797
853.78	3960
853.914	3892
854.048	3899
854.183	3884
854.317	3960
854.451	3987
854.585	3945
854.72	3934
854.854	4055
854.988	3934
855.122	3983
855.256	3922
855.39	4032
855.524	4109
855.658	4063
855.792	4101
855.926	4139
856.06	4169
856.194	4215
856.327	4162
856.461	4143
856.595	4154
856.729	4204
856.862	4284
856.996	4253
857.13	4299
857.263	4310
857.397	4291
857.53	4280
857.664	4322
857.797	4402
857.931	4440
858.064	4409
858.197	4413
858.331	4375
858.464	4386
858.597	4325
858.731	4386
858.864	4405
858.997	4428
859.13	4538
859.263	4558
859.396	4580
859.529	4538
859.662	4531
859.795	4516
859.928	4607
860.061	4691
860.194	4721
860.327	4630
860.46	4596
860.592	4725
860.725	4763
860.858	4744
860.99	4679
861.123	4725
861.256	4698
861.388	4755
861.521	5292
861.653	4729
861.786	4698
861.918	4755
862.05	4831
862.183	4885
862.315	4858
862.447	4934
862.58	4862
862.712	4767
862.844	4805
862.976	4854
863.108	4824
863.24	5189
863.372	4816
863.504	4858
863.636	4961
863.768	4949
863.9	4968
864.032	4927
864.164	4968
864.296	5025
864.428	5075
864.559	5140
864.691	5071
864.823	5113
864.954	5113
865.086	5174
865.217	5140
865.349	5086
865.48	5181
865.612	5128
865.743	5288
865.875	5216
866.006	5204
866.137	5231
866.269	5193
866.4	5227
866.531	5269
866.662	5223
866.793	5284
866.924	5299
867.055	5368
867.186	5334
867.317	5318
867.448	5330
867.579	5372
867.71	5402
867.841	5425
867.972	5444
868.103	5509
868.233	5509
868.364	5467
868.495	5512
868.625	5649
868.756	5729
868.886	5688
869.017	5688
869.147	5813
869.278	5824
869.408	5710
869.539	5840
869.669	5874
869.799	5866
869.929	5992
870.06	6003
870.19	6186
870.32	6247
870.45	6232
870.58	6334
870.71	6395
870.84	6433
870.97	6410
871.1	6475
871.23	6684
871.36	6620
871.489	6627
871.619	6719
871.749	6833
871.879	6852
872.008	6958
872.138	6981
872.267	7008
872.397	7000
872.526	6973
872.656	7076
872.785	7240
872.915	7350
873.044	7491
873.173	7529
873.303	7609
873.432	7776
873.561	7913
873.69	7909
873.819	7993
873.948	8123
874.077	8252
874.206	8282
874.335	8465
874.464	8632
874.593	8842
874.722	8872
874.851	9112
874.979	9260
875.108	9348
875.237	9397
875.365	9416
875.494	9652
875.623	9747
875.751	9819
875.88	10032
876.008	10112
876.136	10303
876.265	10519
876.393	10672
876.521	10729
876.65	10771
876.778	10934
876.906	10915
877.034	10930
877.162	11083
877.29	11170
877.418	11341
877.546	11364
877.674	11452
877.802	11520
877.93	11535
878.058	11585
878.185	11566
878.313	11649
878.441	11718
878.568	11653
878.696	11760
878.824	11840
878.951	11931
879.079	12019
879.206	12083
879.333	12076
879.461	12079
879.588	12022
879.715	11992
879.842	12197
879.97	12072
880.097	11965
880.224	11912
880.351	11851
880.478	11897
880.605	11912
880.732	11783
880.859	11942
880.986	11775
881.112	11843
881.239	11722
881.366	11619
881.493	11653
881.619	11547
881.746	11589
881.872	11455
881.999	11501
882.125	11436
882.252	11516
882.378	11501
882.505	11570
882.631	11364
882.757	11330
882.883	11372
883.01	11204
883.136	11170
883.262	11067
883.388	11132
883.514	11220
883.64	11166
883.766	11166
883.892	10995
884.018	11025
884.143	11052
884.269	11083
884.395	10858
884.52	10793
884.646	10805
884.772	10691
884.897	10736
885.023	10637
885.148	10744
885.274	10714
885.399	10672
885.524	10649
885.65	10599
885.775	10615
885.9	10588
886.025	10580
886.15	10542
886.275	10443
886.4	10322
886.525	10413
886.65	10337
886.775	10344
886.9	10474
887.025	10493
887.149	10344
887.274	10181
887.399	10215
887.523	10105
887.648	10169
887.773	10131
887.897	10253
888.021	10230
888.146	10074
888.27	10287
888.395	10196
888.519	10181
888.643	10192
888.767	10067
888.891	10093
889.015	10051
889.139	10010
889.263	10010
889.387	10025
889.511	10059
889.635	10067
889.759	9934
889.883	9937
890.006	9930
890.13	10032
890.254	9876
890.377	9903
890.501	9838
890.624	9956
890.748	9937
890.871	9819
890.995	9728
891.118	9694
891.241	9755
891.364	9770
891.488	9865
891.611	9740
891.734	9713
891.857	9778
891.98	9682
892.103	9709
892.226	9686
892.349	9690
892.471	9576
892.594	9633
892.717	9561
892.839	9561
892.962	9580
893.085	9682
893.207	9595
893.33	9454
893.452	9557
893.575	9603
893.697	9488
893.819	9599
893.941	9740
894.064	9591
894.186	9374
894.308	9359
894.43	9462
894.552	9504
894.674	9469
894.796	9359
894.918	9313
895.04	9279
895.161	9355
895.283	9351
895.405	9218
895.526	9237
895.648	9226
895.769	9233
895.891	9218
896.012	9241
896.134	9294
896.255	9142
896.376	9020
896.498	9161
896.619	9058
896.74	8956
896.861	9085
896.982	9256
897.103	9283
897.224	9097
897.345	8979
897.466	8990
897.587	8937
897.708	9104
897.828	9017
897.949	8979
898.07	8918
898.19	8918
898.311	8998
898.431	8857
898.552	8872
898.672	8899
898.792	8929
898.913	8891
899.033	8788
899.153	8754
899.273	8659
899.393	8678
899.513	8731
899.633	8743
899.753	8708
899.873	8602
899.993	8796
900.113	8777
900.232	8667
900.352	8629
900.472	8598
900.591	8541
900.711	8530
900.83	8533
900.95	8610
901.069	8693
901.189	8556
901.308	8442
901.427	8355
901.546	8442
901.665	8461
901.784	8480
901.904	8454
902.023	8286
902.141	8214
902.26	8237
902.379	8248
902.498	8142
902.617	8164
902.735	8301
902.854	8259
902.973	8191
903.091	8092
903.21	8157
903.328	8195
903.446	8123
903.565	8092
903.683	8096
903.801	8058
903.919	8111
904.038	8103
904.156	8035
904.274	8073
904.392	8012
904.51	7967
904.627	8008
904.745	8054
904.863	8103
904.981	7936
905.098	7917
905.216	7970
905.334	7913
905.451	7940
905.569	7826
905.686	7955
905.803	7947
905.921	7719
906.038	7871
906.155	7742
906.272	7689
906.389	7734
906.506	7685
906.623	7662
906.74	7563
906.857	7556
906.974	7506
907.091	7746
907.208	7685
907.324	7662
907.441	7537
907.557	7510
907.674	7464
907.79	7373
907.907	7434
908.023	7403
908.139	7464
908.256	7358
908.372	7415
908.488	7339
908.604	7255
908.72	7183
908.836	7202
908.952	7251
909.068	7171
909.184	7259
909.3	7255
909.415	7297
909.531	7331
909.647	7141
909.762	7118
909.878	7053
909.993	7095
910.108	7110
910.224	7031
910.339	7050
910.454	7015
910.57	7008
910.685	6973
910.8	7129
910.915	7107
911.03	7038
911.145	6897
911.259	6844
911.374	6916
911.489	6787
911.604	6825
911.718	6726
911.833	6696
911.947	6654
912.062	6650
912.176	6673
912.291	6688
912.405	6681
912.519	6783
912.633	6837
912.748	6749
912.862	6692
912.976	6623
913.09	6494
913.204	6570
913.318	6608
913.431	6639
913.545	6665
913.659	6734
913.772	6650
913.886	6627
914	6517
914.113	6635
914.226	6635
914.34	6623
914.453	6448
914.566	6574
914.68	6536
914.793	6532
914.906	6365
915.019	6418
915.132	6346
915.245	6483
915.358	6456
915.47	6429
915.583	6456
915.696	6494
915.809	6471
915.921	6532
916.034	6452
916.146	6388
916.259	6376
916.371	6467
916.483	6372
916.595	6376
916.708	6414
916.82	6388
916.932	6407
917.044	6422
917.156	6369
917.268	6262
917.38	6369
917.491	6334
917.603	6334
917.715	6365
917.826	6460
917.938	6308
918.049	6258
918.161	6350
918.272	6464
918.384	6395
918.495	6350
918.606	6251
918.717	6224
918.828	6277
918.939	6277
919.05	6194
919.161	6228
919.272	6110
919.383	6167
919.494	6327
919.604	6399
919.715	6266
919.826	6205
919.936	6281
920.047	6331
920.157	6262
920.267	6464
920.378	6323
920.488	6254
920.598	6456
920.708	6532
920.818	6517
920.928	6452
921.038	6593
921.148	6593
921.258	6365
921.368	6296
921.477	6232
921.587	6148
921.697	6087
921.806	6190
921.916	6117
922.025	5950
922.134	5920
922.244	5836
922.353	5916
922.462	5855
922.571	5824
922.68	5695
922.789	5665
922.898	5703
923.007	5623
923.116	5684
923.224	5691
923.333	5634
923.442	5596
923.55	5547
923.659	5577
923.767	5600
923.876	5486
923.984	5627
924.092	5501
924.201	5535
924.309	5554
924.417	5581
924.525	5490
924.633	5463
924.741	6228
924.849	5383
924.956	5425
925.064	5395
925.172	5330
925.279	5322
925.387	5292
925.494	5334
925.602	5398
925.709	5360
925.816	5197
925.924	5292
926.031	5364
926.138	5231
926.245	5330
926.352	5189
926.459	5273
926.566	5337
926.673	5220
926.779	5143
926.886	5105
926.993	5048
927.099	5045
927.206	4980
927.312	4919
927.419	5079
927.525	4949
927.631	4976
927.737	4858
927.843	4850
927.95	4736
928.056	4797
928.162	4782
928.267	4877
928.373	5212
928.479	4793
928.585	4694
928.69	4786
928.796	4736
928.901	4679
929.007	4607
929.112	4668
929.218	4672
929.323	4592
929.428	4596
929.533	4626
929.638	4493
929.743	4512
929.848	4535
929.953	4462
930.058	4447
930.163	4303
930.267	4329
930.372	4436
930.477	4284
930.581	4485
930.685	4318
930.79	4299
930.894	4268
930.998	4257
931.103	4383
931.207	4116
931.311	4040
931.415	4006
931.519	3892
931.623	3945
