Data from glass_V78500241_798.txt Node
Date: Wed Sep 01 19:20:01 CST 2021
User: usil
Spectrometer: V785-0024
Trigger mode: 0
Integration Time (sec): 4.000000E-1
Scans to average: 1
Nonlinearity correction enabled: false
Boxcar width: 0
Storing dark spectrum: false
XAxis mode: Wavelengths
Number of Pixels in Spectrum: 1024
>>>>>Begin Spectral Data<<<<<
801.071	3694
801.214	3759
801.356	3690
801.499	3762
801.641	3743
801.783	3759
801.926	3892
802.068	3850
802.211	3865
802.353	3884
802.496	3854
802.638	3884
802.78	3922
802.923	3934
803.065	3899
803.208	3835
803.35	3873
803.492	3953
803.635	3930
803.777	3838
803.919	3888
804.061	4147
804.204	3945
804.346	3903
804.488	3899
804.63	4040
804.773	3991
804.915	4029
805.057	4143
805.199	4090
805.341	4139
805.483	4150
805.626	4139
805.768	4150
805.91	4238
806.052	4204
806.194	4211
806.336	4402
806.478	4169
806.62	4158
806.762	4158
806.904	4246
807.046	4341
807.188	4249
807.33	4204
807.472	4265
807.614	4204
807.756	4257
807.898	4196
808.04	4215
808.182	4314
808.324	4341
808.465	4367
808.607	4443
808.749	4519
808.891	4462
809.033	4508
809.174	4405
809.316	4276
809.458	4257
809.6	4139
809.741	4173
809.883	4154
810.025	4284
810.166	4204
810.308	4246
810.45	4211
810.591	4280
810.733	4314
810.875	4489
811.016	4812
811.158	5185
811.299	5265
811.441	5296
811.582	5067
811.724	4706
811.865	4512
812.007	4443
812.148	4489
812.29	4451
812.431	4409
812.573	4394
812.714	4402
812.855	4421
812.997	4405
813.138	4512
813.279	4413
813.421	4390
813.562	4405
813.703	4329
813.845	4356
813.986	4253
814.127	4246
814.268	4249
814.41	4287
814.551	4268
814.692	4341
814.833	4246
814.974	4272
815.115	4356
815.256	4257
815.397	4238
815.539	4268
815.68	4230
815.821	4242
815.962	4291
816.103	4268
816.244	4284
816.385	4287
816.526	4280
816.666	4219
816.807	4109
816.948	4188
817.089	4169
817.23	4093
817.371	4055
817.512	4090
817.653	4109
817.793	4055
817.934	4051
818.075	4093
818.216	4120
818.356	4128
818.497	3983
818.638	3869
818.778	3945
818.919	3915
819.06	3899
819.2	3953
819.341	3873
819.481	3842
819.622	3903
819.762	4044
819.903	3994
820.043	3827
820.184	3857
820.324	3876
820.465	3835
820.605	3880
820.746	3873
820.886	3823
821.026	3937
821.167	3945
821.307	3994
821.447	3998
821.588	3956
821.728	3941
821.868	3941
822.008	3907
822.149	3975
822.289	3975
822.429	3770
822.569	3770
822.709	3797
822.849	3743
822.99	3743
823.13	3762
823.27	3812
823.41	3759
823.55	3747
823.69	3675
823.83	3785
823.97	3663
824.11	3591
824.25	3599
824.389	3633
824.529	3698
824.669	3667
824.809	3698
824.949	3736
825.089	3743
825.228	3743
825.368	3576
825.508	3606
825.648	3576
825.787	3599
825.927	3599
826.067	3606
826.206	3667
826.346	3804
826.485	3842
826.625	3888
826.765	3915
826.904	3827
827.044	3610
827.183	3553
827.323	3462
827.462	3496
827.601	3412
827.741	3450
827.88	3507
828.02	3378
828.159	3458
828.298	3492
828.437	3511
828.577	3466
828.716	3606
828.855	3473
828.994	3428
829.134	3378
829.273	3469
829.412	3329
829.551	3317
829.69	3382
829.829	3450
829.968	3515
830.107	3458
830.246	3447
830.385	3389
830.524	3355
830.663	3313
830.802	3294
830.941	3180
831.08	3230
831.219	3275
831.357	3253
831.496	3386
831.635	3222
831.774	3214
831.913	3195
832.051	3138
832.19	3138
832.329	3230
832.467	3176
832.606	3146
832.744	3176
832.883	3188
833.022	3207
833.16	3260
833.299	3294
833.437	3321
833.576	3378
833.714	3409
833.852	3450
833.991	3397
834.129	3481
834.267	3431
834.406	3473
834.544	3439
834.682	3409
834.821	3412
834.959	3587
835.097	3428
835.235	3561
835.373	3477
835.511	3530
835.65	3488
835.788	3492
835.926	3374
836.064	3405
836.202	3447
836.34	3557
836.478	3622
836.615	3557
836.753	3610
836.891	3656
837.029	3606
837.167	3587
837.305	3610
837.443	3568
837.58	3519
837.718	3622
837.856	3515
837.993	3538
838.131	3580
838.269	3561
838.406	3580
838.544	3587
838.681	3454
838.819	3450
838.956	3370
839.094	3397
839.231	3424
839.369	3526
839.506	3736
839.643	3660
839.781	3515
839.918	3447
840.055	3557
840.193	3511
840.33	3534
840.467	3545
840.604	3629
840.742	3819
840.879	3572
841.016	3561
841.153	3568
841.29	3743
841.427	3736
841.564	3686
841.701	3736
841.838	3728
841.975	3751
842.112	3671
842.249	3641
842.385	3599
842.522	3846
842.659	3701
842.796	3648
842.933	3709
843.069	3705
843.206	3720
843.343	3827
843.479	3770
843.616	3835
843.752	3686
843.889	3671
844.025	3892
844.162	3736
844.298	3896
844.435	3774
844.571	3804
844.708	3918
844.844	3998
844.98	4025
845.117	4040
845.253	3922
845.389	3899
845.525	3987
845.661	4002
845.798	3934
845.934	4013
846.07	3972
846.206	4071
846.342	4162
846.478	4059
846.614	3998
846.75	3911
846.886	3911
847.022	4059
847.158	3983
847.294	4032
847.429	4013
847.565	3987
847.701	4287
847.837	3953
847.972	3903
848.108	3987
848.244	4002
848.379	3861
848.515	3819
848.65	3766
848.786	3880
848.921	3907
849.057	3994
849.192	3975
849.328	3960
849.463	3949
849.598	3915
849.734	3842
849.869	3869
850.004	3838
850.14	3816
850.275	3781
850.41	3743
850.545	3800
850.68	3770
850.815	3812
850.95	3781
851.085	3934
851.22	3880
851.355	3812
851.49	3797
851.625	3816
851.76	3781
851.895	3728
852.03	3793
852.165	3804
852.299	3857
852.434	3937
852.569	3903
852.703	3896
852.838	3949
852.973	3994
853.107	3991
853.242	3899
853.376	3846
853.511	3762
853.645	3884
853.78	4010
853.914	3846
854.048	3911
854.183	3854
854.317	3911
854.451	4074
854.585	3979
854.72	3972
854.854	4071
854.988	3937
855.122	4002
855.256	3896
855.39	4055
855.524	4135
855.658	4135
855.792	4143
855.926	4143
856.06	4181
856.194	4196
856.327	4177
856.461	4150
856.595	4150
856.729	4188
856.862	4306
856.996	4227
857.13	4295
857.263	4348
857.397	4367
857.53	4329
857.664	4390
857.797	4405
857.931	4394
858.064	4394
858.197	4405
858.331	4443
858.464	4459
858.597	4371
858.731	4455
858.864	4440
858.997	4459
859.13	4512
859.263	4550
859.396	4615
859.529	4504
859.662	4489
859.795	4554
859.928	4630
860.061	4656
860.194	4759
860.327	4653
860.46	4607
860.592	4698
860.725	4774
860.858	4725
860.99	4736
861.123	4694
861.256	4691
861.388	4805
861.521	5414
861.653	4706
861.786	4710
861.918	4725
862.05	4736
862.183	4862
862.315	4915
862.447	4965
862.58	4908
862.712	4843
862.844	4790
862.976	4930
863.108	4873
863.24	5239
863.372	4831
863.504	4942
863.636	4873
863.768	4972
863.9	4980
864.032	4976
864.164	4927
864.296	5003
864.428	5109
864.559	5086
864.691	5124
864.823	5197
864.954	5155
865.086	5136
865.217	5140
865.349	5079
865.48	5162
865.612	5204
865.743	5315
865.875	5254
866.006	5189
866.137	5258
866.269	5223
866.4	5216
866.531	5299
866.662	5223
866.793	5303
866.924	5299
867.055	5349
867.186	5368
867.317	5292
867.448	5341
867.579	5398
867.71	5417
867.841	5368
867.972	5448
868.103	5474
868.233	5471
868.364	5558
868.495	5558
868.625	5665
868.756	5802
868.886	5680
869.017	5707
869.147	5893
869.278	5866
869.408	5821
869.539	5882
869.669	5950
869.799	5969
869.929	5961
870.06	6057
870.19	6232
870.32	6194
870.45	6262
870.58	6391
870.71	6445
870.84	6509
870.97	6437
871.1	6471
871.23	6654
871.36	6741
871.489	6620
871.619	6745
871.749	6768
871.879	6905
872.008	6954
872.138	6962
872.267	7012
872.397	7046
872.526	7038
872.656	7095
872.785	7187
872.915	7335
873.044	7518
873.173	7586
873.303	7674
873.432	7784
873.561	7913
873.69	7909
873.819	8031
873.948	8142
874.077	8275
874.206	8351
874.335	8446
874.464	8613
874.593	8910
874.722	8902
874.851	9119
874.979	9275
875.108	9405
875.237	9458
875.365	9515
875.494	9625
875.623	9850
875.751	9861
875.88	9972
876.008	10128
876.136	10265
876.265	10451
876.393	10767
876.521	10748
876.65	10850
876.778	10892
876.906	10927
877.034	10965
877.162	11102
877.29	11117
877.418	11254
877.546	11299
877.674	11493
877.802	11516
877.93	11608
878.058	11604
878.185	11661
878.313	11733
878.441	11798
878.568	11722
878.696	11813
878.824	11897
878.951	11965
879.079	12060
879.206	12087
879.333	12011
879.461	12053
879.588	12121
879.715	12060
879.842	12273
879.97	12095
880.097	11866
880.224	11855
880.351	11897
880.478	11859
880.605	11809
880.732	11885
880.859	11988
880.986	11847
881.112	11840
881.239	11859
881.366	11661
881.493	11638
881.619	11532
881.746	11512
881.872	11467
881.999	11558
882.125	11497
882.252	11592
882.378	11543
882.505	11547
882.631	11376
882.757	11368
882.883	11334
883.01	11299
883.136	11273
883.262	11151
883.388	11094
883.514	11250
883.64	11220
883.766	11102
883.892	10987
884.018	11025
884.143	11029
884.269	11147
884.395	10850
884.52	10725
884.646	10759
884.772	10801
884.897	10672
885.023	10702
885.148	10687
885.274	10816
885.399	10702
885.524	10577
885.65	10565
885.775	10577
885.9	10573
886.025	10630
886.15	10577
886.275	10390
886.4	10394
886.525	10382
886.65	10371
886.775	10379
886.9	10531
887.025	10565
887.149	10348
887.274	10265
887.399	10169
887.523	10200
887.648	10181
887.773	10059
887.897	10215
888.021	10223
888.146	10135
888.27	10215
888.395	10207
888.519	10158
888.643	10265
888.767	10211
888.891	10135
889.015	9945
889.139	10055
889.263	10093
889.387	10112
889.511	10128
889.635	10006
889.759	9915
889.883	9937
890.006	9968
890.13	10063
890.254	9949
890.377	9915
890.501	9865
890.624	9857
890.748	9911
890.871	9743
890.995	9778
891.118	9717
891.241	9705
891.364	9755
891.488	9842
891.611	9705
891.734	9797
891.857	9816
891.98	9682
892.103	9663
892.226	9682
892.349	9694
892.471	9534
892.594	9633
892.717	9618
892.839	9667
892.962	9591
893.085	9682
893.207	9610
893.33	9511
893.452	9504
893.575	9584
893.697	9526
893.819	9610
893.941	9663
894.064	9599
894.186	9469
894.308	9466
894.43	9580
894.552	9625
894.674	9534
894.796	9420
894.918	9416
895.04	9431
895.161	9428
895.283	9359
895.405	9272
895.526	9218
895.648	9275
895.769	9249
895.891	9237
896.012	9283
896.134	9180
896.255	9199
896.376	9123
896.498	9203
896.619	9123
896.74	9100
896.861	9173
896.982	9226
897.103	9374
897.224	9127
897.345	9104
897.466	9005
897.587	9005
897.708	9100
897.828	9112
897.949	8944
898.07	8925
898.19	8910
898.311	8948
898.431	8952
898.552	8998
898.672	8937
898.792	8899
898.913	8967
899.033	8834
899.153	8724
899.273	8606
899.393	8716
899.513	8750
899.633	8739
899.753	8758
899.873	8746
899.993	8788
900.113	8686
900.232	8727
900.352	8636
900.472	8625
900.591	8552
900.711	8625
900.83	8632
900.95	8689
901.069	8670
901.189	8507
901.308	8431
901.427	8438
901.546	8423
901.665	8434
901.784	8495
901.904	8366
902.023	8374
902.141	8267
902.26	8164
902.379	8301
902.498	8180
902.617	8214
902.735	8324
902.854	8351
902.973	8240
903.091	8130
903.21	8153
903.328	8195
903.446	8073
903.565	8054
903.683	8016
903.801	8111
903.919	8073
904.038	8172
904.156	8043
904.274	8084
904.392	8073
904.51	8035
904.627	8088
904.745	8168
904.863	8054
904.981	7951
905.098	7879
905.216	7833
905.334	7875
905.451	7913
905.569	7932
905.686	7982
905.803	7898
905.921	7822
906.038	7936
906.155	7837
906.272	7734
906.389	7750
906.506	7632
906.623	7670
906.74	7575
906.857	7575
906.974	7616
907.091	7643
907.208	7734
907.324	7685
907.441	7628
907.557	7445
907.674	7403
907.79	7369
907.907	7362
908.023	7510
908.139	7426
908.256	7388
908.372	7362
908.488	7346
908.604	7289
908.72	7244
908.836	7305
908.952	7297
909.068	7194
909.184	7327
909.3	7209
909.415	7274
909.531	7320
909.647	7152
909.762	7149
909.878	7118
909.993	7118
910.108	7145
910.224	7072
910.339	7126
910.454	7110
910.57	7042
910.685	6989
910.8	7149
910.915	7072
911.03	7012
911.145	6867
911.259	6833
911.374	6875
911.489	6848
911.604	6875
911.718	6726
911.833	6722
911.947	6658
912.062	6658
912.176	6696
912.291	6760
912.405	6684
912.519	6814
912.633	6863
912.748	6814
912.862	6730
912.976	6620
913.09	6570
913.204	6593
913.318	6692
913.431	6722
913.545	6745
913.659	6783
913.772	6692
913.886	6635
914	6601
914.113	6639
914.226	6608
914.34	6620
914.453	6528
914.566	6566
914.68	6509
914.793	6585
914.906	6456
915.019	6407
915.132	6350
915.245	6437
915.358	6498
915.47	6479
915.583	6414
915.696	6426
915.809	6574
915.921	6559
916.034	6422
916.146	6467
916.259	6426
916.371	6494
916.483	6467
916.595	6380
916.708	6361
916.82	6350
916.932	6369
917.044	6315
917.156	6399
917.268	6350
917.38	6365
917.491	6365
917.603	6365
917.715	6506
917.826	6479
917.938	6414
918.049	6232
918.161	6361
918.272	6410
918.384	6464
918.495	6346
918.606	6258
918.717	6220
918.828	6270
918.939	6304
919.05	6224
919.161	6254
919.272	6083
919.383	6144
919.494	6289
919.604	6395
919.715	6292
919.826	6228
919.936	6216
920.047	6467
920.157	6311
920.267	6452
920.378	6315
920.488	6266
920.598	6452
920.708	6616
920.818	6506
920.928	6490
921.038	6642
921.148	6540
921.258	6380
921.368	6346
921.477	6247
921.587	6155
921.697	6133
921.806	6201
921.916	6019
922.025	5950
922.134	5927
922.244	5916
922.353	5935
922.462	5920
922.571	5866
922.68	5691
922.789	5779
922.898	5676
923.007	5699
923.116	5672
923.224	5672
923.333	5680
923.442	5657
923.55	5634
923.659	5623
923.767	5623
923.876	5497
923.984	5596
924.092	5505
924.201	5573
924.309	5573
924.417	5627
924.525	5478
924.633	5478
924.741	6144
924.849	5425
924.956	5493
925.064	5315
925.172	5337
925.279	5307
925.387	5391
925.494	5311
925.602	5410
925.709	5387
925.816	5299
925.924	5341
926.031	5391
926.138	5307
926.245	5326
926.352	5265
926.459	5315
926.566	5334
926.673	5197
926.779	5159
926.886	5185
926.993	5121
927.099	5029
927.206	4976
927.312	4980
927.419	5041
927.525	4911
927.631	4980
927.737	4961
927.843	4908
927.95	4771
928.056	4847
928.162	4854
928.267	4847
928.373	5303
928.479	4858
928.585	4687
928.69	4782
928.796	4778
928.901	4729
929.007	4599
929.112	4698
929.218	4656
929.323	4588
929.428	4542
929.533	4668
929.638	4531
929.743	4542
929.848	4561
929.953	4481
930.058	4417
930.163	4344
930.267	4352
930.372	4462
930.477	4329
930.581	4504
930.685	4383
930.79	4257
930.894	4356
930.998	4287
931.103	4390
931.207	4131
931.311	4116
931.415	4048
931.519	3956
931.623	3949
