Data from glass_V78500241_2740.txt Node
Date: Wed Sep 01 19:33:29 CST 2021
User: usil
Spectrometer: V785-0024
Trigger mode: 0
Integration Time (sec): 4.000000E-1
Scans to average: 1
Nonlinearity correction enabled: false
Boxcar width: 0
Storing dark spectrum: false
XAxis mode: Wavelengths
Number of Pixels in Spectrum: 1024
>>>>>Begin Spectral Data<<<<<
801.071	3686
801.214	3717
801.356	3686
801.499	3705
801.641	3747
801.783	3778
801.926	3850
802.068	3808
802.211	3800
802.353	3838
802.496	3804
802.638	3865
802.78	3846
802.923	3918
803.065	3876
803.208	3854
803.35	3808
803.492	3880
803.635	3907
803.777	3842
803.919	3850
804.061	4128
804.204	3934
804.346	3949
804.488	3888
804.63	4029
804.773	3964
804.915	4059
805.057	4078
805.199	4029
805.341	4071
805.483	4124
805.626	4090
805.768	4101
805.91	4166
806.052	4238
806.194	4185
806.336	4375
806.478	4234
806.62	4162
806.762	4196
806.904	4234
807.046	4299
807.188	4177
807.33	4177
807.472	4169
807.614	4147
807.756	4249
807.898	4173
808.04	4215
808.182	4303
808.324	4299
808.465	4310
808.607	4432
808.749	4474
808.891	4443
809.033	4538
809.174	4421
809.316	4200
809.458	4211
809.6	4139
809.741	4101
809.883	4128
810.025	4185
810.166	4147
810.308	4192
810.45	4268
810.591	4207
810.733	4249
810.875	4489
811.016	4824
811.158	5117
811.299	5265
811.441	5273
811.582	5018
811.724	4660
811.865	4455
812.007	4489
812.148	4398
812.29	4390
812.431	4390
812.573	4325
812.714	4333
812.855	4409
812.997	4405
813.138	4432
813.279	4398
813.421	4390
813.562	4352
813.703	4268
813.845	4356
813.986	4230
814.127	4169
814.268	4261
814.41	4265
814.551	4253
814.692	4360
814.833	4223
814.974	4306
815.115	4329
815.256	4246
815.397	4207
815.539	4219
815.68	4150
815.821	4204
815.962	4310
816.103	4333
816.244	4196
816.385	4173
816.526	4234
816.666	4227
816.807	4051
816.948	4166
817.089	4143
817.23	4078
817.371	4055
817.512	4013
817.653	4059
817.793	4048
817.934	4040
818.075	4105
818.216	4074
818.356	4063
818.497	4006
818.638	3861
818.778	3880
818.919	3896
819.06	3854
819.2	3896
819.341	3884
819.481	3823
819.622	3922
819.762	3991
819.903	3941
820.043	3869
820.184	3831
820.324	3812
820.465	3838
820.605	3854
820.746	3865
820.886	3823
821.026	3888
821.167	3892
821.307	3941
821.447	3975
821.588	3892
821.728	3934
821.868	3888
822.008	3888
822.149	3850
822.289	3911
822.429	3728
822.569	3736
822.709	3785
822.849	3690
822.99	3701
823.13	3717
823.27	3770
823.41	3701
823.55	3709
823.69	3690
823.83	3724
823.97	3694
824.11	3603
824.25	3564
824.389	3644
824.529	3641
824.669	3622
824.809	3686
824.949	3717
825.089	3709
825.228	3682
825.368	3568
825.508	3553
825.648	3534
825.787	3610
825.927	3599
826.067	3618
826.206	3663
826.346	3724
826.485	3800
826.625	3865
826.765	3861
826.904	3857
827.044	3591
827.183	3507
827.323	3450
827.462	3466
827.601	3370
827.741	3389
827.88	3424
828.02	3359
828.159	3378
828.298	3458
828.437	3542
828.577	3420
828.716	3568
828.855	3523
828.994	3332
829.134	3367
829.273	3378
829.412	3294
829.551	3302
829.69	3359
829.829	3424
829.968	3485
830.107	3428
830.246	3428
830.385	3378
830.524	3363
830.663	3272
830.802	3230
830.941	3180
831.08	3203
831.219	3241
831.357	3256
831.496	3401
831.635	3226
831.774	3184
831.913	3184
832.051	3097
832.19	3138
832.329	3230
832.467	3150
832.606	3097
832.744	3116
832.883	3173
833.022	3199
833.16	3256
833.299	3302
833.437	3298
833.576	3321
833.714	3382
833.852	3378
833.991	3431
834.129	3462
834.267	3454
834.406	3378
834.544	3382
834.682	3393
834.821	3389
834.959	3553
835.097	3420
835.235	3477
835.373	3526
835.511	3469
835.65	3466
835.788	3481
835.926	3382
836.064	3374
836.202	3382
836.34	3576
836.478	3599
836.615	3538
836.753	3629
836.891	3587
837.029	3576
837.167	3572
837.305	3568
837.443	3542
837.58	3496
837.718	3603
837.856	3496
837.993	3538
838.131	3618
838.269	3545
838.406	3561
838.544	3572
838.681	3401
838.819	3439
838.956	3370
839.094	3321
839.231	3485
839.369	3481
839.506	3740
839.643	3622
839.781	3485
839.918	3412
840.055	3507
840.193	3523
840.33	3549
840.467	3568
840.604	3591
840.742	3785
840.879	3557
841.016	3534
841.153	3572
841.29	3690
841.427	3732
841.564	3705
841.701	3766
841.838	3698
841.975	3686
842.112	3698
842.249	3568
842.385	3576
842.522	3812
842.659	3648
842.796	3652
842.933	3694
843.069	3728
843.206	3656
843.343	3766
843.479	3804
843.616	3812
843.752	3652
843.889	3667
844.025	3850
844.162	3701
844.298	3857
844.435	3785
844.571	3804
844.708	3876
844.844	3991
844.98	4002
845.117	3994
845.253	3915
845.389	3880
845.525	3926
845.661	4013
845.798	3876
845.934	3968
846.07	3869
846.206	4025
846.342	4105
846.478	4063
846.614	3960
846.75	3918
846.886	3911
847.022	4044
847.158	3956
847.294	4013
847.429	3994
847.565	3964
847.701	4227
847.837	3896
847.972	3827
848.108	3934
848.244	3941
848.379	3823
848.515	3789
848.65	3827
848.786	3846
848.921	3854
849.057	3888
849.192	3907
849.328	3945
849.463	3892
849.598	3873
849.734	3880
849.869	3831
850.004	3759
850.14	3800
850.275	3789
850.41	3690
850.545	3747
850.68	3740
850.815	3789
850.95	3781
851.085	3918
851.22	3842
851.355	3819
851.49	3751
851.625	3789
851.76	3793
851.895	3732
852.03	3732
852.165	3766
852.299	3804
852.434	3880
852.569	3850
852.703	3892
852.838	3930
852.973	3968
853.107	3972
853.242	3911
853.376	3880
853.511	3713
853.645	3823
853.78	3937
853.914	3873
854.048	3896
854.183	3857
854.317	3930
854.451	4044
854.585	3934
854.72	3911
854.854	4021
854.988	3937
855.122	3987
855.256	3869
855.39	4036
855.524	4124
855.658	4109
855.792	4078
855.926	4135
856.06	4181
856.194	4204
856.327	4109
856.461	4139
856.595	4112
856.729	4112
856.862	4249
856.996	4261
857.13	4318
857.263	4287
857.397	4360
857.53	4287
857.664	4367
857.797	4390
857.931	4371
858.064	4375
858.197	4421
858.331	4375
858.464	4356
858.597	4352
858.731	4421
858.864	4455
858.997	4443
859.13	4485
859.263	4512
859.396	4569
859.529	4489
859.662	4470
859.795	4531
859.928	4569
860.061	4691
860.194	4729
860.327	4672
860.46	4615
860.592	4714
860.725	4812
860.858	4759
860.99	4710
861.123	4660
861.256	4675
861.388	4771
861.521	5284
861.653	4683
861.786	4649
861.918	4763
862.05	4755
862.183	4820
862.315	4858
862.447	4934
862.58	4850
862.712	4748
862.844	4748
862.976	4843
863.108	4835
863.24	5185
863.372	4812
863.504	4870
863.636	4873
863.768	4953
863.9	4877
864.032	4892
864.164	4934
864.296	4991
864.428	5006
864.559	5075
864.691	5124
864.823	5083
864.954	5079
865.086	5075
865.217	5041
865.349	5128
865.48	5136
865.612	5143
865.743	5250
865.875	5143
866.006	5147
866.137	5197
866.269	5181
866.4	5277
866.531	5223
866.662	5231
866.793	5239
866.924	5235
867.055	5318
867.186	5280
867.317	5303
867.448	5303
867.579	5395
867.71	5334
867.841	5326
867.972	5417
868.103	5444
868.233	5505
868.364	5452
868.495	5505
868.625	5634
868.756	5745
868.886	5627
869.017	5703
869.147	5786
869.278	5901
869.408	5771
869.539	5824
869.669	5912
869.799	5912
869.929	5908
870.06	5996
870.19	6186
870.32	6171
870.45	6224
870.58	6300
870.71	6422
870.84	6410
870.97	6414
871.1	6433
871.23	6570
871.36	6677
871.489	6623
871.619	6692
871.749	6779
871.879	6863
872.008	6958
872.138	6924
872.267	6962
872.397	6939
872.526	7008
872.656	7110
872.785	7190
872.915	7331
873.044	7472
873.173	7506
873.303	7613
873.432	7731
873.561	7871
873.69	7921
873.819	7959
873.948	8157
874.077	8244
874.206	8305
874.335	8404
874.464	8636
874.593	8800
874.722	8857
874.851	9032
874.979	9207
875.108	9283
875.237	9389
875.365	9492
875.494	9610
875.623	9854
875.751	9857
875.88	9964
876.008	10074
876.136	10276
876.265	10546
876.393	10611
876.521	10645
876.65	10801
876.778	10816
876.906	10938
877.034	11025
877.162	11075
877.29	11086
877.418	11227
877.546	11273
877.674	11516
877.802	11478
877.93	11516
878.058	11512
878.185	11524
878.313	11695
878.441	11764
878.568	11691
878.696	11802
878.824	11741
878.951	12003
879.079	12015
879.206	12076
879.333	11999
879.461	12003
879.588	12030
879.715	12060
879.842	12152
879.97	12076
880.097	11912
880.224	11805
880.351	11805
880.478	11874
880.605	11783
880.732	11805
880.859	12072
880.986	11741
881.112	11790
881.239	11737
881.366	11627
881.493	11589
881.619	11493
881.746	11642
881.872	11512
881.999	11520
882.125	11478
882.252	11478
882.378	11425
882.505	11478
882.631	11429
882.757	11364
882.883	11349
883.01	11250
883.136	11121
883.262	11147
883.388	11025
883.514	11128
883.64	11189
883.766	11121
883.892	10976
884.018	11006
884.143	11048
884.269	11109
884.395	10835
884.52	10744
884.646	10759
884.772	10668
884.897	10634
885.023	10717
885.148	10721
885.274	10706
885.399	10611
885.524	10580
885.65	10542
885.775	10615
885.9	10478
886.025	10531
886.15	10554
886.275	10470
886.4	10386
886.525	10413
886.65	10344
886.775	10348
886.9	10519
887.025	10519
887.149	10341
887.274	10211
887.399	10166
887.523	10093
887.648	10101
887.773	10101
887.897	10192
888.021	10230
888.146	10010
888.27	10337
888.395	10177
888.519	10143
888.643	10219
888.767	10204
888.891	9964
889.015	9983
889.139	10086
889.263	10029
889.387	10044
889.511	10120
889.635	10059
889.759	9907
889.883	9987
890.006	9991
890.13	10048
890.254	9975
890.377	9918
890.501	9808
890.624	9903
890.748	9869
890.871	9789
890.995	9831
891.118	9759
891.241	9736
891.364	9766
891.488	9827
891.611	9679
891.734	9789
891.857	9671
891.98	9724
892.103	9747
892.226	9686
892.349	9660
892.471	9549
892.594	9488
892.717	9511
892.839	9507
892.962	9553
893.085	9618
893.207	9530
893.33	9504
893.452	9530
893.575	9519
893.697	9458
893.819	9580
893.941	9633
894.064	9610
894.186	9511
894.308	9416
894.43	9515
894.552	9504
894.674	9496
894.796	9332
894.918	9386
895.04	9317
895.161	9370
895.283	9401
895.405	9218
895.526	9310
895.648	9237
895.769	9222
895.891	9218
896.012	9245
896.134	9180
896.255	9154
896.376	9093
896.498	9089
896.619	9074
896.74	9138
896.861	9047
896.982	9184
897.103	9253
897.224	9138
897.345	9032
897.466	8952
897.587	9005
897.708	9097
897.828	9062
897.949	8883
898.07	8826
898.19	8925
898.311	9039
898.431	8864
898.552	8895
898.672	8910
898.792	8891
898.913	8872
899.033	8743
899.153	8727
899.273	8708
899.393	8670
899.513	8720
899.633	8762
899.753	8686
899.873	8689
899.993	8735
900.113	8636
900.232	8667
900.352	8587
900.472	8610
900.591	8522
900.711	8556
900.83	8564
900.95	8651
901.069	8651
901.189	8552
901.308	8339
901.427	8450
901.546	8412
901.665	8454
901.784	8495
901.904	8343
902.023	8336
902.141	8172
902.26	8111
902.379	8237
902.498	8233
902.617	8195
902.735	8282
902.854	8244
902.973	8259
903.091	8092
903.21	8092
903.328	8115
903.446	8096
903.565	8050
903.683	8077
903.801	8001
903.919	8142
904.038	8164
904.156	8062
904.274	8073
904.392	8031
904.51	8058
904.627	8123
904.745	8065
904.863	8134
904.981	7902
905.098	7841
905.216	7864
905.334	7894
905.451	7906
905.569	7947
905.686	7925
905.803	7925
905.921	7738
906.038	7795
906.155	7852
906.272	7681
906.389	7689
906.506	7620
906.623	7632
906.74	7632
906.857	7525
906.974	7559
907.091	7651
907.208	7693
907.324	7605
907.441	7559
907.557	7457
907.674	7506
907.79	7422
907.907	7411
908.023	7502
908.139	7430
908.256	7453
908.372	7324
908.488	7392
908.604	7244
908.72	7278
908.836	7240
908.952	7289
909.068	7202
909.184	7278
909.3	7255
909.415	7266
909.531	7263
909.647	7107
909.762	7088
909.878	7072
909.993	7015
910.108	7061
910.224	7149
910.339	7091
910.454	7008
910.57	6973
910.685	6901
910.8	7164
910.915	7080
911.03	6981
911.145	6814
911.259	6840
911.374	6871
911.489	6852
911.604	6810
911.718	6696
911.833	6692
911.947	6688
912.062	6616
912.176	6669
912.291	6696
912.405	6669
912.519	6764
912.633	6810
912.748	6776
912.862	6631
912.976	6623
913.09	6528
913.204	6585
913.318	6608
913.431	6650
913.545	6650
913.659	6662
913.772	6639
913.886	6532
914	6509
914.113	6597
914.226	6612
914.34	6589
914.453	6486
914.566	6604
914.68	6483
914.793	6502
914.906	6399
915.019	6338
915.132	6372
915.245	6418
915.358	6494
915.47	6407
915.583	6467
915.696	6456
915.809	6547
915.921	6509
916.034	6407
916.146	6357
916.259	6361
916.371	6433
916.483	6490
916.595	6384
916.708	6414
916.82	6414
916.932	6353
917.044	6376
917.156	6391
917.268	6285
917.38	6323
917.491	6273
917.603	6331
917.715	6456
917.826	6426
917.938	6292
918.049	6289
918.161	6292
918.272	6429
918.384	6365
918.495	6327
918.606	6281
918.717	6148
918.828	6220
918.939	6273
919.05	6194
919.161	6247
919.272	6095
919.383	6171
919.494	6300
919.604	6350
919.715	6277
919.826	6167
919.936	6243
920.047	6289
920.157	6224
920.267	6433
920.378	6273
920.488	6235
920.598	6369
920.708	6494
920.818	6422
920.928	6441
921.038	6578
921.148	6528
921.258	6315
921.368	6285
921.477	6190
921.587	6190
921.697	6091
921.806	6121
921.916	6019
922.025	5920
922.134	5901
922.244	5836
922.353	5935
922.462	5863
922.571	5775
922.68	5699
922.789	5672
922.898	5638
923.007	5630
923.116	5680
923.224	5684
923.333	5649
923.442	5570
923.55	5554
923.659	5577
923.767	5600
923.876	5478
923.984	5570
924.092	5455
924.201	5535
924.309	5490
924.417	5543
924.525	5467
924.633	5520
924.741	6224
924.849	5330
924.956	5444
925.064	5292
925.172	5292
925.279	5357
925.387	5315
925.494	5277
925.602	5421
925.709	5379
925.816	5277
925.924	5337
926.031	5364
926.138	5288
926.245	5292
926.352	5201
926.459	5299
926.566	5341
926.673	5159
926.779	5136
926.886	5136
926.993	5067
927.099	4965
927.206	4900
927.312	4930
927.419	4991
927.525	4953
927.631	4930
927.737	4877
927.843	4885
927.95	4759
928.056	4771
928.162	4828
928.267	4831
928.373	5311
928.479	4873
928.585	4664
928.69	4744
928.796	4763
928.901	4672
929.007	4577
929.112	4683
929.218	4615
929.323	4584
929.428	4592
929.533	4656
929.638	4497
929.743	4550
929.848	4550
929.953	4493
930.058	4386
930.163	4322
930.267	4310
930.372	4459
930.477	4284
930.581	4417
930.685	4383
930.79	4227
930.894	4303
930.998	4230
931.103	4383
931.207	4128
931.311	4059
931.415	4006
931.519	3926
931.623	3937
