Data from glass_V78500241_2055.txt Node
Date: Wed Sep 01 19:28:44 CST 2021
User: usil
Spectrometer: V785-0024
Trigger mode: 0
Integration Time (sec): 4.000000E-1
Scans to average: 1
Nonlinearity correction enabled: false
Boxcar width: 0
Storing dark spectrum: false
XAxis mode: Wavelengths
Number of Pixels in Spectrum: 1024
>>>>>Begin Spectral Data<<<<<
801.071	3717
801.214	3793
801.356	3698
801.499	3698
801.641	3713
801.783	3720
801.926	3846
802.068	3835
802.211	3812
802.353	3888
802.496	3907
802.638	3861
802.78	3876
802.923	3903
803.065	3873
803.208	3778
803.35	3903
803.492	3865
803.635	3922
803.777	3766
803.919	3896
804.061	4166
804.204	3968
804.346	3972
804.488	3918
804.63	4040
804.773	3960
804.915	4017
805.057	4116
805.199	4013
805.341	4082
805.483	4150
805.626	4124
805.768	4105
805.91	4219
806.052	4188
806.194	4162
806.336	4413
806.478	4185
806.62	4128
806.762	4177
806.904	4249
807.046	4352
807.188	4200
807.33	4124
807.472	4227
807.614	4227
807.756	4223
807.898	4219
808.04	4188
808.182	4272
808.324	4306
808.465	4371
808.607	4455
808.749	4474
808.891	4485
809.033	4470
809.174	4421
809.316	4242
809.458	4215
809.6	4196
809.741	4185
809.883	4177
810.025	4211
810.166	4219
810.308	4223
810.45	4253
810.591	4196
810.733	4291
810.875	4523
811.016	4820
811.158	5132
811.299	5220
811.441	5280
811.582	5094
811.724	4683
811.865	4519
812.007	4443
812.148	4436
812.29	4421
812.431	4394
812.573	4390
812.714	4341
812.855	4428
812.997	4390
813.138	4447
813.279	4432
813.421	4421
813.562	4379
813.703	4287
813.845	4306
813.986	4249
814.127	4215
814.268	4276
814.41	4268
814.551	4272
814.692	4337
814.833	4249
814.974	4306
815.115	4333
815.256	4249
815.397	4227
815.539	4284
815.68	4162
815.821	4196
815.962	4280
816.103	4272
816.244	4257
816.385	4265
816.526	4280
816.666	4181
816.807	4086
816.948	4135
817.089	4185
817.23	4078
817.371	4086
817.512	4078
817.653	4086
817.793	3991
817.934	4086
818.075	4078
818.216	4059
818.356	4090
818.497	4021
818.638	3956
818.778	3892
818.919	3873
819.06	3880
819.2	3896
819.341	3835
819.481	3873
819.622	3899
819.762	4032
819.903	3968
820.043	3884
820.184	3831
820.324	3747
820.465	3899
820.605	3880
820.746	3846
820.886	3770
821.026	3930
821.167	3937
821.307	3968
821.447	3994
821.588	3937
821.728	3930
821.868	3953
822.008	3884
822.149	3930
822.289	3918
822.429	3785
822.569	3713
822.709	3759
822.849	3694
822.99	3671
823.13	3732
823.27	3785
823.41	3740
823.55	3800
823.69	3694
823.83	3755
823.97	3656
824.11	3618
824.25	3603
824.389	3641
824.529	3618
824.669	3652
824.809	3698
824.949	3717
825.089	3740
825.228	3705
825.368	3576
825.508	3564
825.648	3534
825.787	3580
825.927	3591
826.067	3656
826.206	3682
826.346	3800
826.485	3842
826.625	3865
826.765	3956
826.904	3827
827.044	3614
827.183	3534
827.323	3409
827.462	3481
827.601	3435
827.741	3447
827.88	3477
828.02	3310
828.159	3443
828.298	3439
828.437	3515
828.577	3507
828.716	3587
828.855	3485
828.994	3378
829.134	3382
829.273	3386
829.412	3348
829.551	3310
829.69	3359
829.829	3450
829.968	3530
830.107	3477
830.246	3409
830.385	3363
830.524	3370
830.663	3291
830.802	3233
830.941	3192
831.08	3214
831.219	3306
831.357	3233
831.496	3363
831.635	3279
831.774	3199
831.913	3180
832.051	3138
832.19	3154
832.329	3226
832.467	3161
832.606	3055
832.744	3142
832.883	3146
833.022	3146
833.16	3264
833.299	3317
833.437	3344
833.576	3336
833.714	3412
833.852	3447
833.991	3428
834.129	3485
834.267	3386
834.406	3393
834.544	3382
834.682	3428
834.821	3397
834.959	3545
835.097	3431
835.235	3526
835.373	3515
835.511	3462
835.65	3447
835.788	3469
835.926	3412
836.064	3378
836.202	3401
836.34	3549
836.478	3599
836.615	3545
836.753	3633
836.891	3667
837.029	3625
837.167	3576
837.305	3519
837.443	3515
837.58	3496
837.718	3572
837.856	3561
837.993	3545
838.131	3561
838.269	3595
838.406	3587
838.544	3542
838.681	3466
838.819	3466
838.956	3416
839.094	3363
839.231	3469
839.369	3500
839.506	3743
839.643	3679
839.781	3515
839.918	3492
840.055	3549
840.193	3526
840.33	3542
840.467	3599
840.604	3606
840.742	3812
840.879	3504
841.016	3523
841.153	3584
841.29	3789
841.427	3736
841.564	3709
841.701	3743
841.838	3682
841.975	3660
842.112	3679
842.249	3667
842.385	3622
842.522	3857
842.659	3694
842.796	3644
842.933	3740
843.069	3667
843.206	3713
843.343	3789
843.479	3774
843.616	3819
843.752	3686
843.889	3656
844.025	3884
844.162	3720
844.298	3842
844.435	3778
844.571	3759
844.708	3846
844.844	3994
844.98	4021
845.117	4013
845.253	3949
845.389	3930
845.525	3941
845.661	3972
845.798	3922
845.934	3979
846.07	3915
846.206	4063
846.342	4097
846.478	4048
846.614	3926
846.75	3945
846.886	3907
847.022	4032
847.158	3934
847.294	3987
847.429	4010
847.565	3987
847.701	4219
847.837	3857
847.972	3774
848.108	4010
848.244	3941
848.379	3873
848.515	3778
848.65	3797
848.786	3880
848.921	3854
849.057	3926
849.192	4006
849.328	3918
849.463	3945
849.598	3842
849.734	3835
849.869	3842
850.004	3778
850.14	3816
850.275	3789
850.41	3713
850.545	3751
850.68	3804
850.815	3774
850.95	3789
851.085	3911
851.22	3808
851.355	3861
851.49	3785
851.625	3823
851.76	3804
851.895	3720
852.03	3755
852.165	3778
852.299	3854
852.434	3861
852.569	3850
852.703	3876
852.838	3880
852.973	3960
853.107	3930
853.242	3869
853.376	3823
853.511	3747
853.645	3804
853.78	3987
853.914	3888
854.048	3865
854.183	3884
854.317	3922
854.451	4071
854.585	3956
854.72	3956
854.854	4044
854.988	3922
855.122	4013
855.256	3926
855.39	4021
855.524	4051
855.658	4029
855.792	4078
855.926	4093
856.06	4181
856.194	4196
856.327	4109
856.461	4078
856.595	4143
856.729	4135
856.862	4272
856.996	4246
857.13	4272
857.263	4325
857.397	4421
857.53	4223
857.664	4341
857.797	4409
857.931	4440
858.064	4447
858.197	4447
858.331	4375
858.464	4421
858.597	4367
858.731	4443
858.864	4424
858.997	4455
859.13	4500
859.263	4493
859.396	4615
859.529	4550
859.662	4577
859.795	4508
859.928	4592
860.061	4672
860.194	4729
860.327	4607
860.46	4580
860.592	4744
860.725	4767
860.858	4752
860.99	4733
861.123	4653
861.256	4755
861.388	4763
861.521	5444
861.653	4759
861.786	4710
861.918	4744
862.05	4778
862.183	4820
862.315	4858
862.447	4919
862.58	4843
862.712	4793
862.844	4763
862.976	4946
863.108	4873
863.24	5162
863.372	4824
863.504	4915
863.636	4927
863.768	4972
863.9	4934
864.032	4919
864.164	4957
864.296	5041
864.428	5025
864.559	5094
864.691	5147
864.823	5083
864.954	5083
865.086	5132
865.217	5136
865.349	5006
865.48	5143
865.612	5208
865.743	5303
865.875	5178
866.006	5216
866.137	5178
866.269	5201
866.4	5246
866.531	5231
866.662	5197
866.793	5254
866.924	5269
867.055	5318
867.186	5318
867.317	5334
867.448	5273
867.579	5398
867.71	5349
867.841	5391
867.972	5406
868.103	5425
868.233	5433
868.364	5554
868.495	5524
868.625	5676
868.756	5741
868.886	5676
869.017	5745
869.147	5832
869.278	5832
869.408	5809
869.539	5866
869.669	5935
869.799	5916
869.929	5977
870.06	6045
870.19	6209
870.32	6159
870.45	6254
870.58	6384
870.71	6407
870.84	6460
870.97	6418
871.1	6460
871.23	6654
871.36	6650
871.489	6639
871.619	6772
871.749	6779
871.879	6848
872.008	7000
872.138	7008
872.267	6966
872.397	6939
872.526	7053
872.656	7057
872.785	7156
872.915	7266
873.044	7514
873.173	7540
873.303	7582
873.432	7769
873.561	7894
873.69	7925
873.819	8005
873.948	8111
874.077	8164
874.206	8294
874.335	8427
874.464	8670
874.593	8800
874.722	8906
874.851	9085
874.979	9195
875.108	9374
875.237	9424
875.365	9466
875.494	9656
875.623	9781
875.751	9884
875.88	9998
876.008	10082
876.136	10303
876.265	10618
876.393	10683
876.521	10672
876.65	10873
876.778	10934
876.906	10885
877.034	10949
877.162	11117
877.29	11105
877.418	11311
877.546	11368
877.674	11410
877.802	11474
877.93	11543
878.058	11455
878.185	11642
878.313	11691
878.441	11653
878.568	11722
878.696	11745
878.824	11859
878.951	11916
879.079	11996
879.206	12178
879.333	12041
879.461	11912
879.588	12038
879.715	12129
879.842	12175
879.97	12102
880.097	11832
880.224	11859
880.351	11874
880.478	11912
880.605	11809
880.732	11817
880.859	12030
880.986	11847
881.112	11840
881.239	11680
881.366	11672
881.493	11547
881.619	11471
881.746	11570
881.872	11474
881.999	11532
882.125	11459
882.252	11551
882.378	11490
882.505	11554
882.631	11345
882.757	11246
882.883	11280
883.01	11212
883.136	11136
883.262	11094
883.388	11117
883.514	11242
883.64	11231
883.766	11102
883.892	10972
884.018	11029
884.143	11037
884.269	11056
884.395	10892
884.52	10752
884.646	10782
884.772	10755
884.897	10603
885.023	10698
885.148	10759
885.274	10752
885.399	10683
885.524	10577
885.65	10561
885.775	10538
885.9	10561
886.025	10561
886.15	10512
886.275	10421
886.4	10394
886.525	10405
886.65	10394
886.775	10341
886.9	10470
887.025	10462
887.149	10310
887.274	10246
887.399	10196
887.523	10192
887.648	10185
887.773	10063
887.897	10287
888.021	10196
888.146	10105
888.27	10204
888.395	10215
888.519	10188
888.643	10188
888.767	10162
888.891	10071
889.015	10051
889.139	10078
889.263	10044
889.387	10067
889.511	10048
889.635	10086
889.759	9903
889.883	10071
890.006	9975
890.13	10067
890.254	10013
890.377	9941
890.501	9831
890.624	9949
890.748	9861
890.871	9823
890.995	9701
891.118	9755
891.241	9759
891.364	9781
891.488	9819
891.611	9705
891.734	9800
891.857	9842
891.98	9713
892.103	9781
892.226	9759
892.349	9652
892.471	9511
892.594	9587
892.717	9564
892.839	9561
892.962	9629
893.085	9637
893.207	9507
893.33	9469
893.452	9496
893.575	9568
893.697	9458
893.819	9622
893.941	9644
894.064	9572
894.186	9435
894.308	9374
894.43	9519
894.552	9587
894.674	9526
894.796	9367
894.918	9359
895.04	9313
895.161	9378
895.283	9340
895.405	9161
895.526	9256
895.648	9218
895.769	9214
895.891	9329
896.012	9317
896.134	9203
896.255	9260
896.376	9135
896.498	9097
896.619	9093
896.74	9058
896.861	9135
896.982	9245
897.103	9336
897.224	9146
897.345	9085
897.466	9020
897.587	9032
897.708	9058
897.828	9013
897.949	8921
898.07	8918
898.19	8933
898.311	9051
898.431	8864
898.552	8975
898.672	8960
898.792	8944
898.913	8902
899.033	8819
899.153	8712
899.273	8735
899.393	8682
899.513	8743
899.633	8739
899.753	8708
899.873	8667
899.993	8727
900.113	8712
900.232	8610
900.352	8682
900.472	8629
900.591	8541
900.711	8629
900.83	8564
900.95	8697
901.069	8705
901.189	8537
901.308	8492
901.427	8404
901.546	8457
901.665	8419
901.784	8552
901.904	8366
902.023	8301
902.141	8210
902.26	8237
902.379	8298
902.498	8164
902.617	8176
902.735	8191
902.854	8256
902.973	8279
903.091	8111
903.21	8119
903.328	8225
903.446	8138
903.565	8058
903.683	8065
903.801	8046
903.919	8134
904.038	8069
904.156	7967
904.274	8142
904.392	8027
904.51	8054
904.627	8046
904.745	8016
904.863	8088
904.981	7814
905.098	7849
905.216	7856
905.334	7852
905.451	7921
905.569	7856
905.686	7894
905.803	7921
905.921	7814
906.038	7879
906.155	7811
906.272	7670
906.389	7704
906.506	7693
906.623	7575
906.74	7586
906.857	7537
906.974	7559
907.091	7658
907.208	7696
907.324	7639
907.441	7502
907.557	7422
907.674	7419
907.79	7358
907.907	7464
908.023	7457
908.139	7445
908.256	7316
908.372	7358
908.488	7278
908.604	7183
908.72	7206
908.836	7236
908.952	7266
909.068	7247
909.184	7282
909.3	7213
909.415	7324
909.531	7331
909.647	7171
909.762	7091
909.878	7000
909.993	7110
910.108	7084
910.224	7061
910.339	7133
910.454	7034
910.57	7015
910.685	6962
910.8	7126
910.915	7084
911.03	6989
911.145	6886
911.259	6890
911.374	6916
911.489	6859
911.604	6768
911.718	6715
911.833	6734
911.947	6673
912.062	6574
912.176	6703
912.291	6669
912.405	6646
912.519	6856
912.633	6779
912.748	6707
912.862	6688
912.976	6612
913.09	6513
913.204	6597
913.318	6582
913.431	6627
913.545	6681
913.659	6738
913.772	6623
913.886	6593
914	6585
914.113	6631
914.226	6677
914.34	6570
914.453	6486
914.566	6555
914.68	6532
914.793	6471
914.906	6407
915.019	6372
915.132	6372
915.245	6418
915.358	6460
915.47	6422
915.583	6441
915.696	6395
915.809	6498
915.921	6570
916.034	6410
916.146	6399
916.259	6369
916.371	6426
916.483	6426
916.595	6350
916.708	6384
916.82	6399
916.932	6395
917.044	6372
917.156	6350
917.268	6323
917.38	6357
917.491	6350
917.603	6327
917.715	6376
917.826	6456
917.938	6334
918.049	6247
918.161	6277
918.272	6369
918.384	6388
918.495	6292
918.606	6232
918.717	6201
918.828	6304
918.939	6258
919.05	6175
919.161	6289
919.272	6106
919.383	6155
919.494	6281
919.604	6407
919.715	6258
919.826	6186
919.936	6186
920.047	6281
920.157	6323
920.267	6391
920.378	6334
920.488	6254
920.598	6388
920.708	6555
920.818	6494
920.928	6448
921.038	6620
921.148	6585
921.258	6334
921.368	6315
921.477	6163
921.587	6175
921.697	6045
921.806	6182
921.916	6057
922.025	5984
922.134	5931
922.244	5923
922.353	5939
922.462	5813
922.571	5790
922.68	5756
922.789	5608
922.898	5661
923.007	5630
923.116	5646
923.224	5646
923.333	5634
923.442	5589
923.55	5562
923.659	5547
923.767	5596
923.876	5547
923.984	5608
924.092	5528
924.201	5543
924.309	5558
924.417	5528
924.525	5459
924.633	5459
924.741	6338
924.849	5360
924.956	5501
925.064	5303
925.172	5258
925.279	5296
925.387	5353
925.494	5227
925.602	5391
925.709	5368
925.816	5318
925.924	5334
926.031	5341
926.138	5273
926.245	5299
926.352	5189
926.459	5337
926.566	5307
926.673	5197
926.779	5117
926.886	5102
926.993	5003
927.099	4991
927.206	5003
927.312	4927
927.419	4984
927.525	4972
927.631	4949
927.737	4862
927.843	4858
927.95	4790
928.056	4793
928.162	4805
928.267	4805
928.373	5258
928.479	4866
928.585	4694
928.69	4721
928.796	4767
928.901	4664
929.007	4573
929.112	4675
929.218	4607
929.323	4622
929.428	4558
929.533	4630
929.638	4478
929.743	4542
929.848	4508
929.953	4519
930.058	4432
930.163	4356
930.267	4322
930.372	4443
930.477	4303
930.581	4459
930.685	4379
930.79	4215
930.894	4306
930.998	4268
931.103	4356
931.207	4147
931.311	4109
931.415	4029
931.519	3918
931.623	3975
