Data from glass_V78500241_935.txt Node
Date: Wed Sep 01 19:20:58 CST 2021
User: usil
Spectrometer: V785-0024
Trigger mode: 0
Integration Time (sec): 4.000000E-1
Scans to average: 1
Nonlinearity correction enabled: false
Boxcar width: 0
Storing dark spectrum: false
XAxis mode: Wavelengths
Number of Pixels in Spectrum: 1024
>>>>>Begin Spectral Data<<<<<
801.071	3747
801.214	3770
801.356	3717
801.499	3732
801.641	3743
801.783	3827
801.926	3911
802.068	3819
802.211	3861
802.353	3911
802.496	3857
802.638	3835
802.78	3915
802.923	3922
803.065	3956
803.208	3846
803.35	3884
803.492	3926
803.635	3930
803.777	3800
803.919	3892
804.061	4215
804.204	3945
804.346	3945
804.488	3918
804.63	4021
804.773	4036
804.915	4006
805.057	4139
805.199	4078
805.341	4147
805.483	4173
805.626	4135
805.768	4139
805.91	4192
806.052	4234
806.194	4196
806.336	4341
806.478	4246
806.62	4188
806.762	4227
806.904	4268
807.046	4379
807.188	4223
807.33	4162
807.472	4230
807.614	4204
807.756	4242
807.898	4227
808.04	4249
808.182	4344
808.324	4329
808.465	4436
808.607	4428
808.749	4508
808.891	4474
809.033	4481
809.174	4367
809.316	4249
809.458	4249
809.6	4139
809.741	4185
809.883	4196
810.025	4196
810.166	4196
810.308	4249
810.45	4257
810.591	4219
810.733	4314
810.875	4573
811.016	4866
811.158	5113
811.299	5296
811.441	5250
811.582	5086
811.724	4706
811.865	4428
812.007	4500
812.148	4432
812.29	4432
812.431	4394
812.573	4432
812.714	4337
812.855	4413
812.997	4390
813.138	4538
813.279	4447
813.421	4390
813.562	4390
813.703	4325
813.845	4360
813.986	4268
814.127	4291
814.268	4291
814.41	4287
814.551	4268
814.692	4371
814.833	4280
814.974	4318
815.115	4295
815.256	4265
815.397	4219
815.539	4227
815.68	4169
815.821	4215
815.962	4310
816.103	4268
816.244	4261
816.385	4234
816.526	4291
816.666	4261
816.807	4169
816.948	4230
817.089	4188
817.23	4116
817.371	4071
817.512	4093
817.653	4097
817.793	4021
817.934	4063
818.075	4093
818.216	4139
818.356	4093
818.497	3994
818.638	3926
818.778	3934
818.919	3922
819.06	3850
819.2	3991
819.341	3850
819.481	3850
819.622	3880
819.762	4082
819.903	3979
820.043	3854
820.184	3854
820.324	3816
820.465	3915
820.605	3888
820.746	3861
820.886	3823
821.026	3926
821.167	3941
821.307	4025
821.447	4029
821.588	3953
821.728	3979
821.868	3960
822.008	3892
822.149	3918
822.289	3915
822.429	3831
822.569	3781
822.709	3789
822.849	3717
822.99	3740
823.13	3755
823.27	3800
823.41	3770
823.55	3747
823.69	3713
823.83	3732
823.97	3694
824.11	3606
824.25	3599
824.389	3648
824.529	3663
824.669	3652
824.809	3709
824.949	3717
825.089	3675
825.228	3701
825.368	3614
825.508	3587
825.648	3595
825.787	3637
825.927	3610
826.067	3644
826.206	3717
826.346	3797
826.485	3842
826.625	3880
826.765	3930
826.904	3850
827.044	3603
827.183	3504
827.323	3412
827.462	3504
827.601	3443
827.741	3424
827.88	3466
828.02	3378
828.159	3447
828.298	3477
828.437	3549
828.577	3458
828.716	3618
828.855	3530
828.994	3363
829.134	3382
829.273	3363
829.412	3348
829.551	3340
829.69	3348
829.829	3397
829.968	3500
830.107	3462
830.246	3393
830.385	3409
830.524	3348
830.663	3268
830.802	3279
830.941	3203
831.08	3199
831.219	3272
831.357	3264
831.496	3420
831.635	3237
831.774	3192
831.913	3268
832.051	3127
832.19	3116
832.329	3245
832.467	3184
832.606	3161
832.744	3195
832.883	3188
833.022	3192
833.16	3302
833.299	3298
833.437	3340
833.576	3374
833.714	3420
833.852	3424
833.991	3435
834.129	3439
834.267	3439
834.406	3428
834.544	3409
834.682	3416
834.821	3412
834.959	3561
835.097	3420
835.235	3542
835.373	3504
835.511	3488
835.65	3473
835.788	3504
835.926	3409
836.064	3428
836.202	3382
836.34	3603
836.478	3580
836.615	3549
836.753	3591
836.891	3648
837.029	3648
837.167	3599
837.305	3591
837.443	3549
837.58	3515
837.718	3614
837.856	3576
837.993	3542
838.131	3603
838.269	3625
838.406	3603
838.544	3545
838.681	3481
838.819	3523
838.956	3412
839.094	3382
839.231	3466
839.369	3534
839.506	3793
839.643	3603
839.781	3496
839.918	3462
840.055	3561
840.193	3576
840.33	3568
840.467	3576
840.604	3580
840.742	3838
840.879	3576
841.016	3576
841.153	3561
841.29	3740
841.427	3732
841.564	3698
841.701	3755
841.838	3720
841.975	3660
842.112	3720
842.249	3648
842.385	3656
842.522	3838
842.659	3671
842.796	3701
842.933	3720
843.069	3663
843.206	3720
843.343	3831
843.479	3808
843.616	3816
843.752	3682
843.889	3709
844.025	3880
844.162	3736
844.298	3911
844.435	3785
844.571	3793
844.708	3926
844.844	3968
844.98	4059
845.117	4002
845.253	3926
845.389	3922
845.525	3960
845.661	3972
845.798	3926
845.934	3994
846.07	3956
846.206	4051
846.342	4097
846.478	4086
846.614	3972
846.75	3949
846.886	3926
847.022	4048
847.158	3972
847.294	3994
847.429	4044
847.565	3983
847.701	4234
847.837	3888
847.972	3865
848.108	4032
848.244	3964
848.379	3876
848.515	3812
848.65	3842
848.786	3846
848.921	3876
849.057	3945
849.192	3968
849.328	3892
849.463	3953
849.598	3888
849.734	3888
849.869	3873
850.004	3804
850.14	3812
850.275	3797
850.41	3709
850.545	3800
850.68	3770
850.815	3823
850.95	3819
851.085	3937
851.22	3869
851.355	3865
851.49	3800
851.625	3800
851.76	3789
851.895	3751
852.03	3759
852.165	3766
852.299	3816
852.434	3888
852.569	3876
852.703	3911
852.838	3922
852.973	3972
853.107	4002
853.242	3892
853.376	3888
853.511	3766
853.645	3850
853.78	3979
853.914	3975
854.048	3907
854.183	3918
854.317	3960
854.451	4086
854.585	3937
854.72	3998
854.854	4055
854.988	3937
855.122	4017
855.256	3975
855.39	4040
855.524	4109
855.658	4093
855.792	4055
855.926	4158
856.06	4169
856.194	4219
856.327	4169
856.461	4128
856.595	4154
856.729	4181
856.862	4287
856.996	4268
857.13	4295
857.263	4341
857.397	4344
857.53	4295
857.664	4371
857.797	4383
857.931	4432
858.064	4417
858.197	4455
858.331	4436
858.464	4383
858.597	4360
858.731	4470
858.864	4451
858.997	4451
859.13	4554
859.263	4569
859.396	4577
859.529	4519
859.662	4500
859.795	4531
859.928	4569
860.061	4706
860.194	4687
860.327	4634
860.46	4664
860.592	4744
860.725	4790
860.858	4824
860.99	4656
861.123	4675
861.256	4725
861.388	4740
861.521	5505
861.653	4702
861.786	4774
861.918	4717
862.05	4824
862.183	4828
862.315	4896
862.447	4946
862.58	4911
862.712	4850
862.844	4805
862.976	4858
863.108	4858
863.24	5162
863.372	4786
863.504	4915
863.636	4896
863.768	4991
863.9	4968
864.032	4927
864.164	4923
864.296	5033
864.428	5143
864.559	5121
864.691	5140
864.823	5117
864.954	5159
865.086	5140
865.217	5121
865.349	5132
865.48	5193
865.612	5239
865.743	5299
865.875	5189
866.006	5170
866.137	5235
866.269	5239
866.4	5265
866.531	5235
866.662	5246
866.793	5261
866.924	5284
867.055	5341
867.186	5360
867.317	5372
867.448	5330
867.579	5345
867.71	5376
867.841	5410
867.972	5474
868.103	5474
868.233	5486
868.364	5547
868.495	5581
868.625	5680
868.756	5771
868.886	5699
869.017	5771
869.147	5828
869.278	5859
869.408	5802
869.539	5844
869.669	5889
869.799	5965
869.929	5999
870.06	6060
870.19	6239
870.32	6186
870.45	6258
870.58	6361
870.71	6422
870.84	6486
870.97	6456
871.1	6509
871.23	6650
871.36	6741
871.489	6684
871.619	6776
871.749	6829
871.879	6848
872.008	6981
872.138	6966
872.267	6973
872.397	6954
872.526	7095
872.656	7103
872.785	7198
872.915	7457
873.044	7525
873.173	7556
873.303	7647
873.432	7742
873.561	7841
873.69	7902
873.819	8046
873.948	8149
874.077	8336
874.206	8389
874.335	8473
874.464	8739
874.593	8857
874.722	8906
874.851	9085
874.979	9313
875.108	9359
875.237	9473
875.365	9454
875.494	9614
875.623	9835
875.751	9835
875.88	10040
876.008	10135
876.136	10272
876.265	10527
876.393	10694
876.521	10714
876.65	10892
876.778	10915
876.906	10896
877.034	10995
877.162	11113
877.29	11189
877.418	11227
877.546	11402
877.674	11372
877.802	11452
877.93	11532
878.058	11566
878.185	11577
878.313	11691
878.441	11748
878.568	11638
878.696	11821
878.824	11889
878.951	12041
879.079	12015
879.206	12114
879.333	12026
879.461	11912
879.588	12121
879.715	12091
879.842	12235
879.97	12129
880.097	11859
880.224	11851
880.351	11832
880.478	11878
880.605	11832
880.732	11821
880.859	11882
880.986	11859
881.112	11866
881.239	11790
881.366	11665
881.493	11630
881.619	11516
881.746	11691
881.872	11562
881.999	11520
882.125	11551
882.252	11592
882.378	11509
882.505	11623
882.631	11406
882.757	11280
882.883	11288
883.01	11265
883.136	11284
883.262	11132
883.388	11048
883.514	11121
883.64	11193
883.766	11113
883.892	10942
884.018	10999
884.143	11079
884.269	11102
884.395	10881
884.52	10752
884.646	10835
884.772	10668
884.897	10668
885.023	10702
885.148	10767
885.274	10733
885.399	10683
885.524	10668
885.65	10641
885.775	10645
885.9	10561
886.025	10660
886.15	10546
886.275	10481
886.4	10432
886.525	10390
886.65	10398
886.775	10303
886.9	10481
887.025	10531
887.149	10360
887.274	10227
887.399	10154
887.523	10223
887.648	10143
887.773	10029
887.897	10223
888.021	10306
888.146	10093
888.27	10192
888.395	10204
888.519	10211
888.643	10143
888.767	10253
888.891	10032
889.015	10086
889.139	10063
889.263	9994
889.387	10059
889.511	10131
889.635	10032
889.759	9972
889.883	9945
890.006	10063
890.13	10101
890.254	9941
890.377	9949
890.501	9945
890.624	9873
890.748	9945
890.871	9819
890.995	9755
891.118	9778
891.241	9720
891.364	9743
891.488	9831
891.611	9770
891.734	9766
891.857	9766
891.98	9682
892.103	9740
892.226	9675
892.349	9694
892.471	9553
892.594	9606
892.717	9671
892.839	9603
892.962	9644
893.085	9663
893.207	9530
893.33	9504
893.452	9454
893.575	9572
893.697	9523
893.819	9542
893.941	9648
894.064	9622
894.186	9511
894.308	9389
894.43	9549
894.552	9618
894.674	9603
894.796	9382
894.918	9447
895.04	9389
895.161	9389
895.283	9317
895.405	9222
895.526	9264
895.648	9256
895.769	9321
895.891	9237
896.012	9298
896.134	9214
896.255	9237
896.376	9112
896.498	9146
896.619	9256
896.74	9020
896.861	9135
896.982	9272
897.103	9294
897.224	9173
897.345	9070
897.466	8956
897.587	9001
897.708	9131
897.828	9013
897.949	8933
898.07	8914
898.19	8891
898.311	9028
898.431	8899
898.552	8902
898.672	9062
898.792	8956
898.913	8933
899.033	8823
899.153	8731
899.273	8720
899.393	8739
899.513	8800
899.633	8754
899.753	8815
899.873	8667
899.993	8746
900.113	8720
900.232	8743
900.352	8693
900.472	8575
900.591	8579
900.711	8625
900.83	8522
900.95	8693
901.069	8640
901.189	8629
901.308	8450
901.427	8343
901.546	8393
901.665	8499
901.784	8579
901.904	8393
902.023	8282
902.141	8305
902.26	8237
902.379	8290
902.498	8237
902.617	8183
902.735	8252
902.854	8275
902.973	8240
903.091	8111
903.21	8187
903.328	8153
903.446	8161
903.565	8092
903.683	8096
903.801	8050
903.919	8119
904.038	8039
904.156	8046
904.274	8058
904.392	8008
904.51	8050
904.627	8077
904.745	8126
904.863	8107
904.981	7963
905.098	7883
905.216	7902
905.334	7906
905.451	7925
905.569	7974
905.686	7936
905.803	7921
905.921	7761
906.038	7909
906.155	7788
906.272	7719
906.389	7772
906.506	7613
906.623	7609
906.74	7575
906.857	7582
906.974	7567
907.091	7704
907.208	7693
907.324	7639
907.441	7582
907.557	7457
907.674	7415
907.79	7403
907.907	7381
908.023	7460
908.139	7419
908.256	7396
908.372	7373
908.488	7369
908.604	7274
908.72	7247
908.836	7263
908.952	7225
909.068	7308
909.184	7259
909.3	7335
909.415	7285
909.531	7301
909.647	7183
909.762	7171
909.878	7122
909.993	7107
910.108	7118
910.224	7103
910.339	7095
910.454	7118
910.57	7057
910.685	6935
910.8	7187
910.915	7103
911.03	7091
911.145	6909
911.259	6924
911.374	6909
911.489	6905
911.604	6802
911.718	6703
911.833	6715
911.947	6673
912.062	6631
912.176	6707
912.291	6749
912.405	6715
912.519	6901
912.633	6916
912.748	6741
912.862	6684
912.976	6635
913.09	6517
913.204	6585
913.318	6642
913.431	6738
913.545	6684
913.659	6711
913.772	6707
913.886	6597
914	6582
914.113	6639
914.226	6616
914.34	6642
914.453	6551
914.566	6570
914.68	6528
914.793	6517
914.906	6410
915.019	6376
915.132	6410
915.245	6460
915.358	6464
915.47	6506
915.583	6532
915.696	6483
915.809	6528
915.921	6566
916.034	6372
916.146	6407
916.259	6445
916.371	6509
916.483	6452
916.595	6407
916.708	6407
916.82	6433
916.932	6395
917.044	6376
917.156	6414
917.268	6315
917.38	6346
917.491	6372
917.603	6338
917.715	6407
917.826	6479
917.938	6350
918.049	6243
918.161	6334
918.272	6437
918.384	6418
918.495	6323
918.606	6311
918.717	6228
918.828	6289
918.939	6254
919.05	6216
919.161	6209
919.272	6152
919.383	6102
919.494	6273
919.604	6456
919.715	6353
919.826	6273
919.936	6277
920.047	6331
920.157	6277
920.267	6475
920.378	6357
920.488	6292
920.598	6483
920.708	6620
920.818	6429
920.928	6464
921.038	6604
921.148	6601
921.258	6395
921.368	6296
921.477	6319
921.587	6163
921.697	6102
921.806	6232
921.916	6068
922.025	5973
922.134	5908
922.244	5901
922.353	5954
922.462	5786
922.571	5794
922.68	5752
922.789	5661
922.898	5729
923.007	5661
923.116	5714
923.224	5703
923.333	5729
923.442	5611
923.55	5589
923.659	5600
923.767	5642
923.876	5562
923.984	5611
924.092	5505
924.201	5539
924.309	5554
924.417	5562
924.525	5509
924.633	5478
924.741	6133
924.849	5360
924.956	5490
925.064	5349
925.172	5372
925.279	5372
925.387	5391
925.494	5379
925.602	5429
925.709	5391
925.816	5311
925.924	5330
926.031	5372
926.138	5303
926.245	5269
926.352	5220
926.459	5296
926.566	5307
926.673	5201
926.779	5098
926.886	5140
926.993	5094
927.099	4999
927.206	4991
927.312	4987
927.419	5003
927.525	4953
927.631	5006
927.737	4854
927.843	4786
927.95	4771
928.056	4870
928.162	4870
928.267	4858
928.373	5349
928.479	4847
928.585	4706
928.69	4793
928.796	4771
928.901	4706
929.007	4622
929.112	4653
929.218	4641
929.323	4637
929.428	4584
929.533	4710
929.638	4542
929.743	4535
929.848	4554
929.953	4489
930.058	4443
930.163	4341
930.267	4398
930.372	4413
930.477	4356
930.581	4489
930.685	4363
930.79	4325
930.894	4287
930.998	4268
931.103	4379
931.207	4124
931.311	4074
931.415	4112
931.519	3949
931.623	3907
