Data from glass_V78500241_2072.txt Node
Date: Wed Sep 01 19:28:51 CST 2021
User: usil
Spectrometer: V785-0024
Trigger mode: 0
Integration Time (sec): 4.000000E-1
Scans to average: 1
Nonlinearity correction enabled: false
Boxcar width: 0
Storing dark spectrum: false
XAxis mode: Wavelengths
Number of Pixels in Spectrum: 1024
>>>>>Begin Spectral Data<<<<<
801.071	3740
801.214	3732
801.356	3698
801.499	3713
801.641	3747
801.783	3770
801.926	3869
802.068	3842
802.211	3800
802.353	3857
802.496	3823
802.638	3861
802.78	3873
802.923	3937
803.065	3896
803.208	3808
803.35	3842
803.492	3876
803.635	3918
803.777	3774
803.919	3873
804.061	4131
804.204	3934
804.346	3922
804.488	3934
804.63	4002
804.773	3953
804.915	4021
805.057	4124
805.199	4051
805.341	4017
805.483	4147
805.626	4143
805.768	4135
805.91	4158
806.052	4211
806.194	4204
806.336	4360
806.478	4238
806.62	4207
806.762	4162
806.904	4230
807.046	4333
807.188	4219
807.33	4166
807.472	4227
807.614	4188
807.756	4257
807.898	4169
808.04	4211
808.182	4306
808.324	4284
808.465	4375
808.607	4470
808.749	4421
808.891	4451
809.033	4455
809.174	4398
809.316	4276
809.458	4246
809.6	4166
809.741	4154
809.883	4158
810.025	4200
810.166	4211
810.308	4219
810.45	4253
810.591	4242
810.733	4280
810.875	4504
811.016	4797
811.158	5094
811.299	5273
811.441	5296
811.582	5037
811.724	4660
811.865	4474
812.007	4440
812.148	4436
812.29	4424
812.431	4413
812.573	4344
812.714	4405
812.855	4421
812.997	4455
813.138	4512
813.279	4398
813.421	4344
813.562	4352
813.703	4310
813.845	4348
813.986	4299
814.127	4211
814.268	4287
814.41	4287
814.551	4253
814.692	4329
814.833	4223
814.974	4306
815.115	4329
815.256	4272
815.397	4223
815.539	4249
815.68	4188
815.821	4211
815.962	4268
816.103	4272
816.244	4257
816.385	4230
816.526	4257
816.666	4177
816.807	4150
816.948	4207
817.089	4173
817.23	4093
817.371	4021
817.512	4063
817.653	4036
817.793	4048
817.934	4040
818.075	4128
818.216	4013
818.356	4101
818.497	3956
818.638	3835
818.778	3926
818.919	3880
819.06	3835
819.2	3918
819.341	3857
819.481	3854
819.622	3896
819.762	4055
819.903	3953
820.043	3873
820.184	3854
820.324	3808
820.465	3876
820.605	3857
820.746	3888
820.886	3781
821.026	3922
821.167	3918
821.307	3892
821.447	3983
821.588	3911
821.728	3934
821.868	3903
822.008	3865
822.149	3915
822.289	3896
822.429	3781
822.569	3770
822.709	3800
822.849	3724
822.99	3713
823.13	3766
823.27	3781
823.41	3701
823.55	3720
823.69	3732
823.83	3709
823.97	3637
824.11	3629
824.25	3587
824.389	3625
824.529	3629
824.669	3641
824.809	3724
824.949	3728
825.089	3736
825.228	3701
825.368	3591
825.508	3538
825.648	3572
825.787	3633
825.927	3633
826.067	3618
826.206	3667
826.346	3774
826.485	3850
826.625	3888
826.765	3937
826.904	3827
827.044	3625
827.183	3534
827.323	3443
827.462	3466
827.601	3435
827.741	3424
827.88	3473
828.02	3409
828.159	3443
828.298	3462
828.437	3549
828.577	3481
828.716	3599
828.855	3519
828.994	3359
829.134	3340
829.273	3397
829.412	3344
829.551	3332
829.69	3367
829.829	3424
829.968	3557
830.107	3443
830.246	3405
830.385	3389
830.524	3321
830.663	3279
830.802	3226
830.941	3184
831.08	3157
831.219	3275
831.357	3260
831.496	3424
831.635	3218
831.774	3207
831.913	3218
832.051	3131
832.19	3123
832.329	3207
832.467	3119
832.606	3131
832.744	3161
832.883	3203
833.022	3176
833.16	3222
833.299	3279
833.437	3355
833.576	3370
833.714	3397
833.852	3405
833.991	3485
834.129	3443
834.267	3466
834.406	3405
834.544	3428
834.682	3389
834.821	3401
834.959	3530
835.097	3409
835.235	3519
835.373	3500
835.511	3500
835.65	3492
835.788	3458
835.926	3428
836.064	3378
836.202	3393
836.34	3557
836.478	3568
836.615	3488
836.753	3584
836.891	3606
837.029	3599
837.167	3606
837.305	3572
837.443	3530
837.58	3504
837.718	3595
837.856	3545
837.993	3553
838.131	3580
838.269	3564
838.406	3599
838.544	3572
838.681	3454
838.819	3443
838.956	3367
839.094	3389
839.231	3435
839.369	3515
839.506	3698
839.643	3614
839.781	3500
839.918	3458
840.055	3507
840.193	3515
840.33	3526
840.467	3564
840.604	3591
840.742	3835
840.879	3507
841.016	3523
841.153	3610
841.29	3755
841.427	3728
841.564	3747
841.701	3755
841.838	3690
841.975	3701
842.112	3682
842.249	3622
842.385	3599
842.522	3812
842.659	3690
842.796	3667
842.933	3671
843.069	3663
843.206	3713
843.343	3823
843.479	3770
843.616	3797
843.752	3682
843.889	3663
844.025	3816
844.162	3740
844.298	3842
844.435	3747
844.571	3800
844.708	3888
844.844	3945
844.98	4029
845.117	4029
845.253	3941
845.389	3907
845.525	3945
845.661	3949
845.798	3907
845.934	3991
846.07	3983
846.206	4029
846.342	4150
846.478	4010
846.614	3994
846.75	3915
846.886	3907
847.022	4032
847.158	3975
847.294	3949
847.429	4055
847.565	3983
847.701	4192
847.837	3896
847.972	3835
848.108	3964
848.244	4029
848.379	3869
848.515	3823
848.65	3778
848.786	3865
848.921	3846
849.057	3930
849.192	3945
849.328	3896
849.463	3911
849.598	3854
849.734	3846
849.869	3861
850.004	3770
850.14	3816
850.275	3831
850.41	3743
850.545	3717
850.68	3781
850.815	3816
850.95	3774
851.085	3880
851.22	3838
851.355	3861
851.49	3751
851.625	3766
851.76	3774
851.895	3740
852.03	3709
852.165	3789
852.299	3819
852.434	3918
852.569	3857
852.703	3854
852.838	3911
852.973	3975
853.107	3975
853.242	3934
853.376	3854
853.511	3709
853.645	3831
853.78	3972
853.914	3907
854.048	3915
854.183	3926
854.317	3941
854.451	4086
854.585	3960
854.72	3945
854.854	4036
854.988	3949
855.122	3972
855.256	3911
855.39	3991
855.524	4101
855.658	4082
855.792	4135
855.926	4131
856.06	4150
856.194	4173
856.327	4101
856.461	4112
856.595	4158
856.729	4173
856.862	4230
856.996	4287
857.13	4303
857.263	4306
857.397	4367
857.53	4287
857.664	4337
857.797	4405
857.931	4405
858.064	4341
858.197	4417
858.331	4394
858.464	4386
858.597	4360
858.731	4417
858.864	4413
858.997	4428
859.13	4493
859.263	4493
859.396	4569
859.529	4527
859.662	4558
859.795	4538
859.928	4603
860.061	4691
860.194	4744
860.327	4656
860.46	4660
860.592	4729
860.725	4710
860.858	4721
860.99	4660
861.123	4687
861.256	4694
861.388	4721
861.521	5322
861.653	4733
861.786	4672
861.918	4733
862.05	4767
862.183	4820
862.315	4881
862.447	4904
862.58	4927
862.712	4744
862.844	4782
862.976	4911
863.108	4870
863.24	5193
863.372	4831
863.504	4862
863.636	4915
863.768	4919
863.9	5010
864.032	4911
864.164	4953
864.296	5052
864.428	5060
864.559	5090
864.691	5147
864.823	5162
864.954	5117
865.086	5147
865.217	5159
865.349	5086
865.48	5117
865.612	5178
865.743	5273
865.875	5208
866.006	5201
866.137	5235
866.269	5185
866.4	5311
866.531	5242
866.662	5181
866.793	5284
866.924	5269
867.055	5307
867.186	5311
867.317	5299
867.448	5368
867.579	5372
867.71	5353
867.841	5402
867.972	5452
868.103	5448
868.233	5455
868.364	5444
868.495	5581
868.625	5661
868.756	5798
868.886	5661
869.017	5684
869.147	5866
869.278	5863
869.408	5824
869.539	5794
869.669	5996
869.799	5916
869.929	5939
870.06	5996
870.19	6186
870.32	6220
870.45	6292
870.58	6315
870.71	6460
870.84	6456
870.97	6403
871.1	6445
871.23	6650
871.36	6692
871.489	6639
871.619	6749
871.749	6745
871.879	6837
872.008	6909
872.138	6970
872.267	7046
872.397	6958
872.526	7008
872.656	7057
872.785	7198
872.915	7346
873.044	7480
873.173	7529
873.303	7674
873.432	7712
873.561	7841
873.69	7906
873.819	8008
873.948	8161
874.077	8263
874.206	8305
874.335	8404
874.464	8583
874.593	8834
874.722	8952
874.851	9108
874.979	9214
875.108	9370
875.237	9416
875.365	9534
875.494	9663
875.623	9892
875.751	9827
875.88	9975
876.008	10154
876.136	10299
876.265	10580
876.393	10607
876.521	10664
876.65	10831
876.778	10786
876.906	10877
877.034	11010
877.162	11098
877.29	11151
877.418	11216
877.546	11372
877.674	11501
877.802	11402
877.93	11497
878.058	11520
878.185	11649
878.313	11672
878.441	11729
878.568	11623
878.696	11794
878.824	11946
878.951	11840
879.079	12022
879.206	12190
879.333	12030
879.461	11954
879.588	12098
879.715	12041
879.842	12155
879.97	12091
880.097	11939
880.224	11893
880.351	11859
880.478	11931
880.605	11843
880.732	11786
880.859	11927
880.986	11866
881.112	11855
881.239	11798
881.366	11760
881.493	11676
881.619	11627
881.746	11520
881.872	11497
881.999	11539
882.125	11524
882.252	11577
882.378	11452
882.505	11524
882.631	11345
882.757	11299
882.883	11341
883.01	11322
883.136	11193
883.262	11098
883.388	11090
883.514	11185
883.64	11086
883.766	11124
883.892	10919
884.018	11006
884.143	10976
884.269	11052
884.395	10866
884.52	10702
884.646	10744
884.772	10672
884.897	10698
885.023	10702
885.148	10721
885.274	10733
885.399	10626
885.524	10622
885.65	10630
885.775	10599
885.9	10523
886.025	10573
886.15	10542
886.275	10470
886.4	10459
886.525	10459
886.65	10402
886.775	10371
886.9	10485
887.025	10565
887.149	10333
887.274	10242
887.399	10200
887.523	10166
887.648	10101
887.773	10063
887.897	10249
888.021	10185
888.146	10078
888.27	10219
888.395	10303
888.519	10192
888.643	10105
888.767	10166
888.891	10086
889.015	9975
889.139	9991
889.263	9930
889.387	10048
889.511	10105
889.635	10109
889.759	10002
889.883	9987
890.006	10006
890.13	10032
890.254	9937
890.377	9953
890.501	9789
890.624	9945
890.748	9937
890.871	9823
890.995	9778
891.118	9728
891.241	9743
891.364	9671
891.488	9827
891.611	9778
891.734	9682
891.857	9766
891.98	9751
892.103	9740
892.226	9641
892.349	9671
892.471	9496
892.594	9553
892.717	9682
892.839	9633
892.962	9595
893.085	9660
893.207	9557
893.33	9511
893.452	9580
893.575	9652
893.697	9469
893.819	9606
893.941	9610
894.064	9614
894.186	9431
894.308	9435
894.43	9504
894.552	9557
894.674	9473
894.796	9336
894.918	9435
895.04	9389
895.161	9355
895.283	9332
895.405	9268
895.526	9260
895.648	9127
895.769	9150
895.891	9161
896.012	9287
896.134	9165
896.255	9169
896.376	9104
896.498	9097
896.619	9085
896.74	9104
896.861	9077
896.982	9241
897.103	9241
897.224	9173
897.345	9028
897.466	8975
897.587	9077
897.708	9077
897.828	9039
897.949	8933
898.07	8762
898.19	8921
898.311	9028
898.431	8910
898.552	8838
898.672	8971
898.792	8963
898.913	8895
899.033	8849
899.153	8712
899.273	8705
899.393	8686
899.513	8727
899.633	8678
899.753	8807
899.873	8746
899.993	8712
900.113	8674
900.232	8743
900.352	8629
900.472	8571
900.591	8556
900.711	8598
900.83	8526
900.95	8769
901.069	8682
901.189	8632
901.308	8393
901.427	8412
901.546	8442
901.665	8476
901.784	8476
901.904	8332
902.023	8252
902.141	8252
902.26	8176
902.379	8240
902.498	8168
902.617	8206
902.735	8313
902.854	8290
902.973	8271
903.091	8138
903.21	8069
903.328	8126
903.446	8115
903.565	8046
903.683	8069
903.801	8031
903.919	8073
904.038	8145
904.156	8054
904.274	8058
904.392	8031
904.51	7967
904.627	8039
904.745	8046
904.863	8130
904.981	7902
905.098	7837
905.216	7864
905.334	7841
905.451	7959
905.569	7841
905.686	7951
905.803	7940
905.921	7792
906.038	7936
906.155	7776
906.272	7651
906.389	7761
906.506	7708
906.623	7609
906.74	7601
906.857	7594
906.974	7575
907.091	7643
907.208	7712
907.324	7605
907.441	7563
907.557	7430
907.674	7422
907.79	7434
907.907	7426
908.023	7453
908.139	7422
908.256	7327
908.372	7400
908.488	7365
908.604	7244
908.72	7221
908.836	7285
908.952	7270
909.068	7244
909.184	7297
909.3	7263
909.415	7297
909.531	7228
909.647	7076
909.762	7107
909.878	7061
909.993	7099
910.108	7137
910.224	7061
910.339	7099
910.454	7065
910.57	7000
910.685	6935
910.8	7103
910.915	7152
911.03	7057
911.145	6901
911.259	6840
911.374	6871
911.489	6856
911.604	6814
911.718	6650
911.833	6722
911.947	6677
912.062	6540
912.176	6658
912.291	6700
912.405	6703
912.519	6818
912.633	6856
912.748	6779
912.862	6662
912.976	6593
913.09	6570
913.204	6566
913.318	6654
913.431	6623
913.545	6635
913.659	6684
913.772	6627
913.886	6566
914	6555
914.113	6589
914.226	6650
914.34	6544
914.453	6521
914.566	6620
914.68	6517
914.793	6525
914.906	6433
915.019	6391
915.132	6376
915.245	6448
915.358	6407
915.47	6426
915.583	6456
915.696	6445
915.809	6555
915.921	6479
916.034	6456
916.146	6395
916.259	6365
916.371	6513
916.483	6429
916.595	6426
916.708	6429
916.82	6384
916.932	6391
917.044	6353
917.156	6384
917.268	6334
917.38	6331
917.491	6331
917.603	6300
917.715	6448
917.826	6494
917.938	6319
918.049	6216
918.161	6331
918.272	6388
918.384	6407
918.495	6342
918.606	6258
918.717	6133
918.828	6296
918.939	6266
919.05	6216
919.161	6323
919.272	6140
919.383	6114
919.494	6304
919.604	6445
919.715	6319
919.826	6178
919.936	6197
920.047	6357
920.157	6247
920.267	6418
920.378	6289
920.488	6270
920.598	6483
920.708	6517
920.818	6452
920.928	6467
921.038	6593
921.148	6555
921.258	6353
921.368	6331
921.477	6201
921.587	6209
921.697	6049
921.806	6163
921.916	6095
922.025	5904
922.134	5904
922.244	5969
922.353	5950
922.462	5863
922.571	5821
922.68	5710
922.789	5695
922.898	5710
923.007	5649
923.116	5623
923.224	5668
923.333	5657
923.442	5543
923.55	5543
923.659	5535
923.767	5608
923.876	5585
923.984	5589
924.092	5539
924.201	5562
924.309	5581
924.417	5551
924.525	5512
924.633	5532
924.741	6277
924.849	5398
924.956	5425
925.064	5341
925.172	5315
925.279	5334
925.387	5345
925.494	5337
925.602	5406
925.709	5376
925.816	5284
925.924	5299
926.031	5315
926.138	5292
926.245	5345
926.352	5292
926.459	5303
926.566	5330
926.673	5193
926.779	5132
926.886	5132
926.993	5037
927.099	4987
927.206	4995
927.312	4949
927.419	5029
927.525	4999
927.631	4965
927.737	4923
927.843	4858
927.95	4805
928.056	4812
928.162	4812
928.267	4797
928.373	5220
928.479	4866
928.585	4706
928.69	4767
928.796	4744
928.901	4683
929.007	4630
929.112	4622
929.218	4584
929.323	4607
929.428	4603
929.533	4675
929.638	4500
929.743	4508
929.848	4546
929.953	4466
930.058	4443
930.163	4371
930.267	4287
930.372	4478
930.477	4352
930.581	4440
930.685	4363
930.79	4215
930.894	4272
930.998	4230
931.103	4386
931.207	4101
931.311	4093
931.415	4044
931.519	3888
931.623	3953
