Data from glass_V78500241_1880.txt Node
Date: Wed Sep 01 19:27:31 CST 2021
User: usil
Spectrometer: V785-0024
Trigger mode: 0
Integration Time (sec): 4.000000E-1
Scans to average: 1
Nonlinearity correction enabled: false
Boxcar width: 0
Storing dark spectrum: false
XAxis mode: Wavelengths
Number of Pixels in Spectrum: 1024
>>>>>Begin Spectral Data<<<<<
801.071	3747
801.214	3743
801.356	3694
801.499	3720
801.641	3759
801.783	3819
801.926	3861
802.068	3827
802.211	3812
802.353	3873
802.496	3823
802.638	3846
802.78	3930
802.923	3930
803.065	3876
803.208	3842
803.35	3892
803.492	3892
803.635	3918
803.777	3781
803.919	3880
804.061	4097
804.204	3953
804.346	3930
804.488	3907
804.63	4063
804.773	3937
804.915	4044
805.057	4158
805.199	4006
805.341	4105
805.483	4112
805.626	4116
805.768	4112
805.91	4227
806.052	4280
806.194	4188
806.336	4314
806.478	4223
806.62	4162
806.762	4124
806.904	4242
807.046	4325
807.188	4192
807.33	4135
807.472	4272
807.614	4200
807.756	4261
807.898	4204
808.04	4249
808.182	4265
808.324	4310
808.465	4356
808.607	4447
808.749	4485
808.891	4474
809.033	4451
809.174	4413
809.316	4280
809.458	4238
809.6	4181
809.741	4131
809.883	4131
810.025	4219
810.166	4147
810.308	4238
810.45	4253
810.591	4211
810.733	4310
810.875	4497
811.016	4805
811.158	5124
811.299	5254
811.441	5261
811.582	5109
811.724	4668
811.865	4443
812.007	4447
812.148	4405
812.29	4417
812.431	4390
812.573	4440
812.714	4360
812.855	4375
812.997	4436
813.138	4493
813.279	4424
813.421	4371
813.562	4344
813.703	4325
813.845	4325
813.986	4253
814.127	4204
814.268	4303
814.41	4268
814.551	4280
814.692	4329
814.833	4265
814.974	4299
815.115	4341
815.256	4276
815.397	4215
815.539	4253
815.68	4181
815.821	4227
815.962	4318
816.103	4253
816.244	4200
816.385	4215
816.526	4268
816.666	4204
816.807	4131
816.948	4135
817.089	4215
817.23	4105
817.371	4093
817.512	4074
817.653	4055
817.793	4025
817.934	4025
818.075	4139
818.216	4124
818.356	4063
818.497	3994
818.638	3983
818.778	3899
818.919	3857
819.06	3869
819.2	3930
819.341	3808
819.481	3865
819.622	3953
819.762	4029
819.903	3953
820.043	3873
820.184	3850
820.324	3838
820.465	3857
820.605	3850
820.746	3873
820.886	3759
821.026	3915
821.167	3911
821.307	3949
821.447	3975
821.588	3991
821.728	3945
821.868	3903
822.008	3869
822.149	3915
822.289	3926
822.429	3747
822.569	3740
822.709	3812
822.849	3682
822.99	3724
823.13	3778
823.27	3808
823.41	3694
823.55	3736
823.69	3709
823.83	3736
823.97	3637
824.11	3618
824.25	3591
824.389	3652
824.529	3679
824.669	3622
824.809	3660
824.949	3698
825.089	3762
825.228	3720
825.368	3561
825.508	3572
825.648	3534
825.787	3580
825.927	3641
826.067	3599
826.206	3656
826.346	3804
826.485	3873
826.625	3854
826.765	3945
826.904	3808
827.044	3610
827.183	3545
827.323	3447
827.462	3500
827.601	3447
827.741	3454
827.88	3435
828.02	3370
828.159	3443
828.298	3424
828.437	3507
828.577	3443
828.716	3561
828.855	3507
828.994	3359
829.134	3382
829.273	3397
829.412	3329
829.551	3325
829.69	3359
829.829	3477
829.968	3526
830.107	3458
830.246	3447
830.385	3359
830.524	3359
830.663	3332
830.802	3241
830.941	3203
831.08	3169
831.219	3294
831.357	3249
831.496	3420
831.635	3222
831.774	3165
831.913	3165
832.051	3131
832.19	3123
832.329	3176
832.467	3123
832.606	3119
832.744	3138
832.883	3173
833.022	3211
833.16	3256
833.299	3268
833.437	3351
833.576	3374
833.714	3393
833.852	3382
833.991	3481
834.129	3473
834.267	3424
834.406	3363
834.544	3405
834.682	3355
834.821	3374
834.959	3523
835.097	3439
835.235	3526
835.373	3473
835.511	3488
835.65	3443
835.788	3488
835.926	3378
836.064	3370
836.202	3378
836.34	3545
836.478	3595
836.615	3526
836.753	3568
836.891	3591
837.029	3584
837.167	3561
837.305	3557
837.443	3591
837.58	3496
837.718	3545
837.856	3538
837.993	3481
838.131	3595
838.269	3564
838.406	3587
838.544	3523
838.681	3462
838.819	3454
838.956	3367
839.094	3401
839.231	3439
839.369	3504
839.506	3743
839.643	3641
839.781	3462
839.918	3488
840.055	3526
840.193	3526
840.33	3534
840.467	3530
840.604	3564
840.742	3800
840.879	3553
841.016	3561
841.153	3584
841.29	3705
841.427	3724
841.564	3709
841.701	3732
841.838	3690
841.975	3717
842.112	3717
842.249	3587
842.385	3652
842.522	3797
842.659	3701
842.796	3671
842.933	3705
843.069	3690
843.206	3728
843.343	3835
843.479	3808
843.616	3793
843.752	3656
843.889	3663
844.025	3861
844.162	3694
844.298	3816
844.435	3808
844.571	3797
844.708	3934
844.844	3972
844.98	4013
845.117	4013
845.253	3926
845.389	3861
845.525	3968
845.661	3949
845.798	3941
845.934	3972
846.07	3941
846.206	4021
846.342	4154
846.478	4067
846.614	3979
846.75	3930
846.886	3854
847.022	4036
847.158	3972
847.294	3994
847.429	4010
847.565	3968
847.701	4219
847.837	3873
847.972	3850
848.108	3968
848.244	3983
848.379	3899
848.515	3816
848.65	3804
848.786	3861
848.921	3876
849.057	3953
849.192	3949
849.328	3911
849.463	3907
849.598	3861
849.734	3838
849.869	3812
850.004	3804
850.14	3827
850.275	3793
850.41	3762
850.545	3781
850.68	3816
850.815	3808
850.95	3747
851.085	3922
851.22	3888
851.355	3816
851.49	3804
851.625	3785
851.76	3766
851.895	3740
852.03	3724
852.165	3793
852.299	3850
852.434	3899
852.569	3850
852.703	3869
852.838	3960
852.973	4002
853.107	3968
853.242	3869
853.376	3838
853.511	3755
853.645	3838
853.78	3987
853.914	3892
854.048	3865
854.183	3861
854.317	3979
854.451	4051
854.585	3975
854.72	3903
854.854	4040
854.988	3911
855.122	3998
855.256	3911
855.39	4006
855.524	4109
855.658	4078
855.792	4109
855.926	4128
856.06	4177
856.194	4204
856.327	4124
856.461	4112
856.595	4169
856.729	4158
856.862	4310
856.996	4230
857.13	4276
857.263	4284
857.397	4341
857.53	4261
857.664	4329
857.797	4371
857.931	4409
858.064	4386
858.197	4447
858.331	4405
858.464	4386
858.597	4398
858.731	4455
858.864	4478
858.997	4504
859.13	4497
859.263	4489
859.396	4535
859.529	4474
859.662	4550
859.795	4497
859.928	4565
860.061	4740
860.194	4714
860.327	4675
860.46	4664
860.592	4740
860.725	4729
860.858	4790
860.99	4637
861.123	4675
861.256	4664
861.388	4790
861.521	5368
861.653	4752
861.786	4698
861.918	4736
862.05	4774
862.183	4866
862.315	4930
862.447	4923
862.58	4873
862.712	4759
862.844	4805
862.976	4877
863.108	4892
863.24	5124
863.372	4850
863.504	4915
863.636	4911
863.768	4923
863.9	4995
864.032	4946
864.164	4946
864.296	5022
864.428	5079
864.559	5083
864.691	5162
864.823	5098
864.954	5105
865.086	5121
865.217	5105
865.349	5060
865.48	5151
865.612	5143
865.743	5242
865.875	5193
866.006	5166
866.137	5204
866.269	5227
866.4	5239
866.531	5223
866.662	5189
866.793	5235
866.924	5318
867.055	5379
867.186	5326
867.317	5326
867.448	5299
867.579	5372
867.71	5368
867.841	5372
867.972	5414
868.103	5486
868.233	5509
868.364	5497
868.495	5562
868.625	5668
868.756	5745
868.886	5646
869.017	5684
869.147	5859
869.278	5836
869.408	5798
869.539	5790
869.669	5946
869.799	5923
869.929	5996
870.06	6019
870.19	6182
870.32	6194
870.45	6285
870.58	6342
870.71	6395
870.84	6418
870.97	6437
871.1	6456
871.23	6627
871.36	6681
871.489	6669
871.619	6760
871.749	6890
871.879	6840
872.008	6913
872.138	6958
872.267	7031
872.397	7027
872.526	7076
872.656	7069
872.785	7133
872.915	7377
873.044	7514
873.173	7571
873.303	7734
873.432	7700
873.561	7875
873.69	7951
873.819	8005
873.948	8172
874.077	8233
874.206	8279
874.335	8408
874.464	8625
874.593	8872
874.722	8971
874.851	9135
874.979	9138
875.108	9367
875.237	9363
875.365	9408
875.494	9637
875.623	9876
875.751	9880
875.88	9968
876.008	10139
876.136	10261
876.265	10485
876.393	10717
876.521	10683
876.65	10831
876.778	10843
876.906	10885
877.034	11041
877.162	11086
877.29	11140
877.418	11292
877.546	11410
877.674	11414
877.802	11493
877.93	11532
878.058	11600
878.185	11570
878.313	11642
878.441	11794
878.568	11703
878.696	11817
878.824	11817
878.951	11950
879.079	11992
879.206	12083
879.333	11999
879.461	12045
879.588	12030
879.715	12076
879.842	12228
879.97	12091
880.097	11843
880.224	11950
880.351	11836
880.478	11824
880.605	11863
880.732	11817
880.859	12034
880.986	11866
881.112	11946
881.239	11786
881.366	11615
881.493	11596
881.619	11512
881.746	11543
881.872	11539
881.999	11501
882.125	11478
882.252	11471
882.378	11474
882.505	11486
882.631	11433
882.757	11353
882.883	11341
883.01	11284
883.136	11151
883.262	11113
883.388	11121
883.514	11155
883.64	11159
883.766	11155
883.892	11056
884.018	10881
884.143	11102
884.269	11086
884.395	10820
884.52	10778
884.646	10759
884.772	10672
884.897	10645
885.023	10729
885.148	10755
885.274	10740
885.399	10706
885.524	10569
885.65	10554
885.775	10675
885.9	10550
886.025	10580
886.15	10500
886.275	10470
886.4	10318
886.525	10493
886.65	10371
886.775	10306
886.9	10451
887.025	10538
887.149	10356
887.274	10204
887.399	10230
887.523	10215
887.648	10211
887.773	10249
887.897	10272
888.021	10192
888.146	10105
888.27	10204
888.395	10238
888.519	10169
888.643	10230
888.767	10219
888.891	10021
889.015	10040
889.139	10044
889.263	10010
889.387	10063
889.511	10116
889.635	10048
889.759	9949
889.883	10002
890.006	9960
890.13	10082
890.254	9880
890.377	9949
890.501	9850
890.624	9831
890.748	9911
890.871	9854
890.995	9747
891.118	9648
891.241	9778
891.364	9781
891.488	9831
891.611	9694
891.734	9759
891.857	9793
891.98	9713
892.103	9766
892.226	9705
892.349	9667
892.471	9534
892.594	9641
892.717	9568
892.839	9603
892.962	9633
893.085	9686
893.207	9576
893.33	9492
893.452	9538
893.575	9564
893.697	9485
893.819	9667
893.941	9656
894.064	9561
894.186	9370
894.308	9363
894.43	9492
894.552	9622
894.674	9519
894.796	9355
894.918	9367
895.04	9298
895.161	9378
895.283	9397
895.405	9272
895.526	9253
895.648	9283
895.769	9256
895.891	9283
896.012	9283
896.134	9173
896.255	9165
896.376	9104
896.498	9142
896.619	9180
896.74	9116
896.861	9066
896.982	9344
897.103	9302
897.224	9199
897.345	9058
897.466	9051
897.587	8982
897.708	9131
897.828	9104
897.949	8929
898.07	8880
898.19	8929
898.311	9043
898.431	8834
898.552	8933
898.672	8994
898.792	8948
898.913	8902
899.033	8796
899.153	8792
899.273	8636
899.393	8667
899.513	8720
899.633	8746
899.753	8762
899.873	8720
899.993	8739
900.113	8686
900.232	8758
900.352	8644
900.472	8579
900.591	8533
900.711	8560
900.83	8564
900.95	8682
901.069	8674
901.189	8613
901.308	8370
901.427	8347
901.546	8385
901.665	8461
901.784	8473
901.904	8408
902.023	8377
902.141	8233
902.26	8313
902.379	8305
902.498	8210
902.617	8259
902.735	8339
902.854	8313
902.973	8279
903.091	8100
903.21	8077
903.328	8058
903.446	8050
903.565	7993
903.683	8138
903.801	8065
903.919	8088
904.038	8088
904.156	8058
904.274	8020
904.392	8046
904.51	8062
904.627	8046
904.745	8088
904.863	8088
904.981	7917
905.098	7909
905.216	7852
905.334	7849
905.451	7883
905.569	7909
905.686	7883
905.803	7909
905.921	7845
906.038	7860
906.155	7803
906.272	7723
906.389	7643
906.506	7655
906.623	7605
906.74	7582
906.857	7506
906.974	7647
907.091	7655
907.208	7704
907.324	7613
907.441	7521
907.557	7460
907.674	7400
907.79	7396
907.907	7384
908.023	7396
908.139	7400
908.256	7381
908.372	7381
908.488	7316
908.604	7266
908.72	7206
908.836	7339
908.952	7278
909.068	7202
909.184	7343
909.3	7209
909.415	7259
909.531	7240
909.647	7050
909.762	7107
909.878	7110
909.993	7122
910.108	7084
910.224	7053
910.339	7099
910.454	7050
910.57	7015
910.685	6913
910.8	7164
910.915	7141
911.03	7015
911.145	6962
911.259	6814
911.374	6920
911.489	6848
911.604	6768
911.718	6715
911.833	6696
911.947	6635
912.062	6566
912.176	6658
912.291	6760
912.405	6662
912.519	6814
912.633	6776
912.748	6734
912.862	6726
912.976	6623
913.09	6589
913.204	6593
913.318	6650
913.431	6627
913.545	6719
913.659	6639
913.772	6669
913.886	6517
914	6536
914.113	6684
914.226	6662
914.34	6608
914.453	6521
914.566	6559
914.68	6532
914.793	6506
914.906	6391
915.019	6365
915.132	6308
915.245	6471
915.358	6410
915.47	6391
915.583	6403
915.696	6471
915.809	6540
915.921	6612
916.034	6426
916.146	6422
916.259	6376
916.371	6498
916.483	6460
916.595	6338
916.708	6429
916.82	6365
916.932	6346
917.044	6426
917.156	6388
917.268	6346
917.38	6342
917.491	6319
917.603	6369
917.715	6353
917.826	6369
917.938	6323
918.049	6224
918.161	6319
918.272	6433
918.384	6391
918.495	6296
918.606	6273
918.717	6182
918.828	6262
918.939	6289
919.05	6254
919.161	6251
919.272	6182
919.383	6159
919.494	6331
919.604	6418
919.715	6289
919.826	6175
919.936	6190
920.047	6372
920.157	6277
920.267	6410
920.378	6327
920.488	6289
920.598	6426
920.708	6559
920.818	6410
920.928	6483
921.038	6578
921.148	6578
921.258	6372
921.368	6304
921.477	6190
921.587	6205
921.697	6106
921.806	6213
921.916	6106
922.025	5927
922.134	5916
922.244	5863
922.353	5931
922.462	5923
922.571	5775
922.68	5680
922.789	5672
922.898	5745
923.007	5676
923.116	5695
923.224	5638
923.333	5657
923.442	5570
923.55	5501
923.659	5592
923.767	5638
923.876	5543
923.984	5600
924.092	5509
924.201	5570
924.309	5528
924.417	5554
924.525	5463
924.633	5467
924.741	6178
924.849	5402
924.956	5497
925.064	5303
925.172	5288
925.279	5311
925.387	5379
925.494	5345
925.602	5440
925.709	5410
925.816	5284
925.924	5307
926.031	5307
926.138	5292
926.245	5326
926.352	5208
926.459	5318
926.566	5296
926.673	5185
926.779	5105
926.886	5117
926.993	4991
927.099	4980
927.206	4976
927.312	5022
927.419	5003
927.525	4980
927.631	4965
927.737	4919
927.843	4911
927.95	4759
928.056	4843
928.162	4793
928.267	4847
928.373	5292
928.479	4919
928.585	4660
928.69	4729
928.796	4755
928.901	4668
929.007	4615
929.112	4653
929.218	4580
929.323	4649
929.428	4573
929.533	4710
929.638	4489
929.743	4527
929.848	4584
929.953	4508
930.058	4390
930.163	4337
930.267	4360
930.372	4402
930.477	4272
930.581	4497
930.685	4360
930.79	4287
930.894	4310
930.998	4238
931.103	4394
931.207	4067
931.311	4063
931.415	4059
931.519	3937
931.623	3956
