Data from glass_V78500241_2345.txt Node
Date: Wed Sep 01 19:30:45 CST 2021
User: usil
Spectrometer: V785-0024
Trigger mode: 0
Integration Time (sec): 4.000000E-1
Scans to average: 1
Nonlinearity correction enabled: false
Boxcar width: 0
Storing dark spectrum: false
XAxis mode: Wavelengths
Number of Pixels in Spectrum: 1024
>>>>>Begin Spectral Data<<<<<
801.071	3762
801.214	3778
801.356	3717
801.499	3713
801.641	3709
801.783	3770
801.926	3842
802.068	3827
802.211	3804
802.353	3869
802.496	3831
802.638	3903
802.78	3907
802.923	3934
803.065	3846
803.208	3865
803.35	3861
803.492	3876
803.635	3892
803.777	3812
803.919	3842
804.061	4166
804.204	3918
804.346	3998
804.488	3930
804.63	4036
804.773	3972
804.915	4048
805.057	4135
805.199	3983
805.341	4082
805.483	4097
805.626	4143
805.768	4051
805.91	4188
806.052	4272
806.194	4196
806.336	4344
806.478	4207
806.62	4124
806.762	4173
806.904	4246
807.046	4325
807.188	4223
807.33	4150
807.472	4230
807.614	4147
807.756	4246
807.898	4143
808.04	4204
808.182	4268
808.324	4333
808.465	4367
808.607	4413
808.749	4466
808.891	4455
809.033	4478
809.174	4379
809.316	4299
809.458	4238
809.6	4154
809.741	4154
809.883	4120
810.025	4230
810.166	4215
810.308	4204
810.45	4223
810.591	4181
810.733	4310
810.875	4516
811.016	4763
811.158	5124
811.299	5212
811.441	5273
811.582	5052
811.724	4687
811.865	4447
812.007	4451
812.148	4398
812.29	4447
812.431	4394
812.573	4432
812.714	4402
812.855	4386
812.997	4398
813.138	4447
813.279	4424
813.421	4367
813.562	4402
813.703	4333
813.845	4295
813.986	4238
814.127	4242
814.268	4242
814.41	4265
814.551	4230
814.692	4360
814.833	4265
814.974	4276
815.115	4291
815.256	4287
815.397	4242
815.539	4253
815.68	4204
815.821	4207
815.962	4299
816.103	4322
816.244	4223
816.385	4211
816.526	4257
816.666	4207
816.807	4143
816.948	4143
817.089	4169
817.23	4063
817.371	4067
817.512	4017
817.653	4112
817.793	3983
817.934	4036
818.075	4055
818.216	4048
818.356	4109
818.497	4002
818.638	3930
818.778	3907
818.919	3880
819.06	3876
819.2	3892
819.341	3880
819.481	3827
819.622	3907
819.762	3979
819.903	3922
820.043	3857
820.184	3835
820.324	3850
820.465	3899
820.605	3857
820.746	3888
820.886	3778
821.026	3907
821.167	3922
821.307	3994
821.447	3975
821.588	3964
821.728	3911
821.868	3926
822.008	3854
822.149	3846
822.289	3907
822.429	3766
822.569	3747
822.709	3785
822.849	3686
822.99	3728
823.13	3762
823.27	3785
823.41	3675
823.55	3732
823.69	3679
823.83	3701
823.97	3675
824.11	3625
824.25	3549
824.389	3633
824.529	3633
824.669	3671
824.809	3694
824.949	3740
825.089	3732
825.228	3660
825.368	3584
825.508	3564
825.648	3603
825.787	3595
825.927	3587
826.067	3610
826.206	3652
826.346	3774
826.485	3827
826.625	3846
826.765	3899
826.904	3846
827.044	3606
827.183	3564
827.323	3458
827.462	3469
827.601	3458
827.741	3424
827.88	3462
828.02	3374
828.159	3428
828.298	3496
828.437	3538
828.577	3485
828.716	3614
828.855	3424
828.994	3367
829.134	3336
829.273	3382
829.412	3374
829.551	3329
829.69	3306
829.829	3435
829.968	3542
830.107	3458
830.246	3428
830.385	3367
830.524	3336
830.663	3272
830.802	3245
830.941	3192
831.08	3192
831.219	3237
831.357	3294
831.496	3367
831.635	3169
831.774	3173
831.913	3184
832.051	3116
832.19	3161
832.329	3199
832.467	3112
832.606	3104
832.744	3146
832.883	3173
833.022	3157
833.16	3237
833.299	3287
833.437	3325
833.576	3363
833.714	3416
833.852	3443
833.991	3439
834.129	3473
834.267	3412
834.406	3416
834.544	3431
834.682	3378
834.821	3416
834.959	3587
835.097	3428
835.235	3557
835.373	3488
835.511	3500
835.65	3447
835.788	3466
835.926	3389
836.064	3340
836.202	3367
836.34	3580
836.478	3603
836.615	3534
836.753	3591
836.891	3629
837.029	3625
837.167	3599
837.305	3538
837.443	3504
837.58	3526
837.718	3633
837.856	3526
837.993	3553
838.131	3576
838.269	3576
838.406	3557
838.544	3542
838.681	3447
838.819	3447
838.956	3401
839.094	3397
839.231	3435
839.369	3526
839.506	3762
839.643	3641
839.781	3458
839.918	3477
840.055	3515
840.193	3488
840.33	3481
840.467	3576
840.604	3557
840.742	3759
840.879	3511
841.016	3568
841.153	3595
841.29	3774
841.427	3705
841.564	3682
841.701	3701
841.838	3701
841.975	3686
842.112	3701
842.249	3591
842.385	3633
842.522	3804
842.659	3660
842.796	3652
842.933	3671
843.069	3694
843.206	3690
843.343	3838
843.479	3770
843.616	3781
843.752	3637
843.889	3713
844.025	3846
844.162	3701
844.298	3850
844.435	3804
844.571	3785
844.708	3850
844.844	3949
844.98	3975
845.117	3983
845.253	3918
845.389	3911
845.525	3937
845.661	3953
845.798	3876
845.934	3991
846.07	3994
846.206	4067
846.342	4139
846.478	4010
846.614	3968
846.75	3911
846.886	3892
847.022	4051
847.158	4002
847.294	3998
847.429	4006
847.565	4029
847.701	4261
847.837	3911
847.972	3835
848.108	3983
848.244	3983
848.379	3842
848.515	3835
848.65	3835
848.786	3804
848.921	3827
849.057	3934
849.192	3922
849.328	3888
849.463	3911
849.598	3854
849.734	3838
849.869	3827
850.004	3797
850.14	3812
850.275	3770
850.41	3717
850.545	3774
850.68	3778
850.815	3823
850.95	3774
851.085	3896
851.22	3869
851.355	3827
851.49	3808
851.625	3759
851.76	3724
851.895	3770
852.03	3736
852.165	3823
852.299	3842
852.434	3888
852.569	3819
852.703	3850
852.838	3896
852.973	3994
853.107	3983
853.242	3899
853.376	3831
853.511	3793
853.645	3838
853.78	3941
853.914	3903
854.048	3926
854.183	3915
854.317	3956
854.451	4078
854.585	3949
854.72	3896
854.854	4017
854.988	3934
855.122	3994
855.256	3926
855.39	4025
855.524	4067
855.658	4021
855.792	4090
855.926	4124
856.06	4181
856.194	4200
856.327	4116
856.461	4131
856.595	4158
856.729	4173
856.862	4234
856.996	4249
857.13	4295
857.263	4310
857.397	4341
857.53	4333
857.664	4375
857.797	4356
857.931	4379
858.064	4375
858.197	4440
858.331	4405
858.464	4333
858.597	4322
858.731	4417
858.864	4436
858.997	4493
859.13	4504
859.263	4538
859.396	4546
859.529	4508
859.662	4493
859.795	4497
859.928	4626
860.061	4683
860.194	4778
860.327	4664
860.46	4641
860.592	4702
860.725	4740
860.858	4786
860.99	4691
861.123	4702
861.256	4694
861.388	4752
861.521	5242
861.653	4717
861.786	4691
861.918	4767
862.05	4801
862.183	4835
862.315	4881
862.447	4927
862.58	4881
862.712	4790
862.844	4790
862.976	4877
863.108	4858
863.24	5178
863.372	4801
863.504	4896
863.636	4927
863.768	4972
863.9	4968
864.032	4908
864.164	4968
864.296	5060
864.428	5094
864.559	5121
864.691	5117
864.823	5128
864.954	5109
865.086	5132
865.217	5143
865.349	5033
865.48	5162
865.612	5136
865.743	5299
865.875	5174
866.006	5147
866.137	5216
866.269	5212
866.4	5284
866.531	5216
866.662	5204
866.793	5250
866.924	5269
867.055	5303
867.186	5299
867.317	5303
867.448	5280
867.579	5322
867.71	5353
867.841	5341
867.972	5414
868.103	5436
868.233	5463
868.364	5532
868.495	5570
868.625	5630
868.756	5726
868.886	5665
869.017	5703
869.147	5798
869.278	5885
869.408	5805
869.539	5817
869.669	5939
869.799	5882
869.929	5935
870.06	6026
870.19	6190
870.32	6167
870.45	6235
870.58	6388
870.71	6357
870.84	6452
870.97	6376
871.1	6426
871.23	6631
871.36	6722
871.489	6669
871.619	6707
871.749	6772
871.879	6852
872.008	6901
872.138	6947
872.267	6920
872.397	6996
872.526	7057
872.656	7042
872.785	7217
872.915	7384
873.044	7487
873.173	7510
873.303	7613
873.432	7734
873.561	7921
873.69	7909
873.819	7967
873.948	8187
874.077	8244
874.206	8320
874.335	8484
874.464	8625
874.593	8826
874.722	8941
874.851	9036
874.979	9173
875.108	9310
875.237	9382
875.365	9515
875.494	9542
875.623	9846
875.751	9800
875.88	10025
876.008	10188
876.136	10268
876.265	10531
876.393	10637
876.521	10622
876.65	10824
876.778	10843
876.906	10858
877.034	11045
877.162	11121
877.29	11105
877.418	11288
877.546	11379
877.674	11360
877.802	11509
877.93	11532
878.058	11493
878.185	11547
878.313	11657
878.441	11714
878.568	11657
878.696	11794
878.824	11908
878.951	11893
879.079	11984
879.206	12072
879.333	11999
879.461	11977
879.588	12060
879.715	12068
879.842	12201
879.97	12060
880.097	11912
880.224	11935
880.351	11920
880.478	11931
880.605	11904
880.732	11866
880.859	11931
880.986	11859
881.112	11893
881.239	11699
881.366	11653
881.493	11589
881.619	11558
881.746	11554
881.872	11581
881.999	11589
882.125	11459
882.252	11535
882.378	11543
882.505	11516
882.631	11372
882.757	11292
882.883	11277
883.01	11299
883.136	11178
883.262	11143
883.388	11086
883.514	11227
883.64	11212
883.766	11178
883.892	10934
884.018	11022
884.143	11006
884.269	11098
884.395	10828
884.52	10828
884.646	10809
884.772	10675
884.897	10740
885.023	10679
885.148	10717
885.274	10717
885.399	10672
885.524	10615
885.65	10565
885.775	10592
885.9	10573
886.025	10599
886.15	10558
886.275	10409
886.4	10363
886.525	10428
886.65	10382
886.775	10295
886.9	10405
887.025	10561
887.149	10402
887.274	10230
887.399	10169
887.523	10147
887.648	10135
887.773	10086
887.897	10219
888.021	10280
888.146	10048
888.27	10173
888.395	10181
888.519	10169
888.643	10169
888.767	10223
888.891	10078
889.015	9926
889.139	10071
889.263	9945
889.387	10002
889.511	10120
889.635	10040
889.759	9987
889.883	9926
890.006	9926
890.13	10093
890.254	9960
890.377	10013
890.501	9884
890.624	9941
890.748	9930
890.871	9766
890.995	9781
891.118	9724
891.241	9728
891.364	9759
891.488	9831
891.611	9690
891.734	9728
891.857	9717
891.98	9736
892.103	9774
892.226	9682
892.349	9713
892.471	9504
892.594	9591
892.717	9629
892.839	9614
892.962	9576
893.085	9641
893.207	9629
893.33	9473
893.452	9515
893.575	9534
893.697	9488
893.819	9603
893.941	9610
894.064	9606
894.186	9386
894.308	9386
894.43	9492
894.552	9603
894.674	9553
894.796	9420
894.918	9351
895.04	9275
895.161	9298
895.283	9329
895.405	9214
895.526	9245
895.648	9279
895.769	9313
895.891	9237
896.012	9211
896.134	9233
896.255	9161
896.376	9100
896.498	9154
896.619	9077
896.74	9020
896.861	9123
896.982	9283
897.103	9313
897.224	9146
897.345	9028
897.466	8975
897.587	8967
897.708	9089
897.828	8994
897.949	8986
898.07	8845
898.19	8857
898.311	8979
898.431	8906
898.552	8910
898.672	8929
898.792	8914
898.913	8921
899.033	8807
899.153	8708
899.273	8686
899.393	8678
899.513	8766
899.633	8773
899.753	8689
899.873	8686
899.993	8762
900.113	8686
900.232	8777
900.352	8670
900.472	8689
900.591	8587
900.711	8571
900.83	8556
900.95	8617
901.069	8682
901.189	8564
901.308	8423
901.427	8396
901.546	8427
901.665	8446
901.784	8480
901.904	8336
902.023	8301
902.141	8210
902.26	8267
902.379	8305
902.498	8233
902.617	8195
902.735	8309
902.854	8301
902.973	8309
903.091	8123
903.21	8164
903.328	8138
903.446	8115
903.565	8012
903.683	8081
903.801	8062
903.919	8084
904.038	8149
904.156	8073
904.274	8103
904.392	7963
904.51	7989
904.627	8024
904.745	8069
904.863	8050
904.981	7959
905.098	7871
905.216	7887
905.334	7871
905.451	7928
905.569	7883
905.686	7928
905.803	7883
905.921	7818
906.038	7822
906.155	7803
906.272	7700
906.389	7700
906.506	7628
906.623	7620
906.74	7590
906.857	7438
906.974	7613
907.091	7609
907.208	7738
907.324	7597
907.441	7578
907.557	7468
907.674	7426
907.79	7377
907.907	7430
908.023	7400
908.139	7441
908.256	7411
908.372	7381
908.488	7346
908.604	7293
908.72	7202
908.836	7270
908.952	7293
909.068	7240
909.184	7285
909.3	7289
909.415	7331
909.531	7244
909.647	7168
909.762	7061
909.878	7099
909.993	7091
910.108	7076
910.224	7057
910.339	7149
910.454	7084
910.57	7046
910.685	6989
910.8	7168
910.915	7099
911.03	7008
911.145	6871
911.259	6890
911.374	6878
911.489	6859
911.604	6810
911.718	6642
911.833	6711
911.947	6620
912.062	6616
912.176	6673
912.291	6662
912.405	6719
912.519	6795
912.633	6806
912.748	6654
912.862	6684
912.976	6616
913.09	6536
913.204	6604
913.318	6570
913.431	6642
913.545	6684
913.659	6722
913.772	6627
913.886	6559
914	6525
914.113	6608
914.226	6662
914.34	6597
914.453	6544
914.566	6635
914.68	6536
914.793	6532
914.906	6384
915.019	6399
915.132	6346
915.245	6456
915.358	6441
915.47	6437
915.583	6433
915.696	6467
915.809	6498
915.921	6639
916.034	6445
916.146	6395
916.259	6391
916.371	6513
916.483	6399
916.595	6353
916.708	6452
916.82	6376
916.932	6350
917.044	6365
917.156	6418
917.268	6304
917.38	6285
917.491	6296
917.603	6273
917.715	6361
917.826	6388
917.938	6334
918.049	6251
918.161	6323
918.272	6410
918.384	6418
918.495	6376
918.606	6258
918.717	6235
918.828	6289
918.939	6277
919.05	6197
919.161	6213
919.272	6098
919.383	6140
919.494	6315
919.604	6407
919.715	6292
919.826	6190
919.936	6201
920.047	6262
920.157	6262
920.267	6429
920.378	6365
920.488	6270
920.598	6445
920.708	6555
920.818	6429
920.928	6460
921.038	6658
921.148	6582
921.258	6331
921.368	6331
921.477	6178
921.587	6197
921.697	6117
921.806	6144
921.916	6095
922.025	5992
922.134	5927
922.244	5904
922.353	5939
922.462	5821
922.571	5726
922.68	5726
922.789	5688
922.898	5714
923.007	5562
923.116	5676
923.224	5630
923.333	5661
923.442	5570
923.55	5562
923.659	5566
923.767	5570
923.876	5558
923.984	5634
924.092	5497
924.201	5596
924.309	5566
924.417	5547
924.525	5512
924.633	5528
924.741	6289
924.849	5341
924.956	5493
925.064	5311
925.172	5284
925.279	5273
925.387	5315
925.494	5299
925.602	5414
925.709	5353
925.816	5261
925.924	5299
926.031	5334
926.138	5258
926.245	5303
926.352	5147
926.459	5307
926.566	5307
926.673	5178
926.779	5147
926.886	5136
926.993	5045
927.099	4999
927.206	5010
927.312	4980
927.419	4965
927.525	4946
927.631	4953
927.737	4900
927.843	4889
927.95	4771
928.056	4782
928.162	4816
928.267	4824
928.373	5368
928.479	4805
928.585	4694
928.69	4698
928.796	4786
928.901	4698
929.007	4561
929.112	4683
929.218	4626
929.323	4584
929.428	4535
929.533	4637
929.638	4504
929.743	4519
929.848	4546
929.953	4523
930.058	4440
930.163	4280
930.267	4306
930.372	4413
930.477	4303
930.581	4474
930.685	4363
930.79	4249
930.894	4303
930.998	4238
931.103	4379
931.207	4082
931.311	4101
931.415	4036
931.519	3899
931.623	3918
