Data from glass_V78500241_138.txt Node
Date: Wed Sep 01 19:15:27 CST 2021
User: usil
Spectrometer: V785-0024
Trigger mode: 0
Integration Time (sec): 4.000000E-1
Scans to average: 1
Nonlinearity correction enabled: false
Boxcar width: 0
Storing dark spectrum: false
XAxis mode: Wavelengths
Number of Pixels in Spectrum: 1024
>>>>>Begin Spectral Data<<<<<
801.071	3762
801.214	3781
801.356	3747
801.499	3770
801.641	3774
801.783	3785
801.926	3896
802.068	3819
802.211	3884
802.353	3892
802.496	3812
802.638	3903
802.78	3884
802.923	3941
803.065	3903
803.208	3876
803.35	3873
803.492	3922
803.635	3960
803.777	3804
803.919	3945
804.061	4192
804.204	3968
804.346	3899
804.488	3937
804.63	4036
804.773	4002
804.915	4048
805.057	4078
805.199	4059
805.341	4116
805.483	4131
805.626	4154
805.768	4173
805.91	4227
806.052	4242
806.194	4249
806.336	4360
806.478	4223
806.62	4196
806.762	4158
806.904	4257
807.046	4348
807.188	4276
807.33	4219
807.472	4303
807.614	4215
807.756	4284
807.898	4276
808.04	4242
808.182	4314
808.324	4303
808.465	4417
808.607	4508
808.749	4470
808.891	4428
809.033	4554
809.174	4432
809.316	4265
809.458	4268
809.6	4181
809.741	4173
809.883	4166
810.025	4211
810.166	4276
810.308	4272
810.45	4318
810.591	4238
810.733	4268
810.875	4558
811.016	4854
811.158	5132
811.299	5288
811.441	5296
811.582	5086
811.724	4721
811.865	4436
812.007	4478
812.148	4428
812.29	4440
812.431	4432
812.573	4325
812.714	4363
812.855	4497
812.997	4432
813.138	4478
813.279	4440
813.421	4436
813.562	4371
813.703	4348
813.845	4322
813.986	4253
814.127	4261
814.268	4227
814.41	4314
814.551	4246
814.692	4325
814.833	4242
814.974	4295
815.115	4367
815.256	4295
815.397	4268
815.539	4310
815.68	4185
815.821	4211
815.962	4341
816.103	4329
816.244	4227
816.385	4257
816.526	4310
816.666	4223
816.807	4116
816.948	4223
817.089	4196
817.23	4147
817.371	4078
817.512	4090
817.653	4101
817.793	4036
817.934	4082
818.075	4090
818.216	4105
818.356	4105
818.497	4032
818.638	3953
818.778	3964
818.919	3899
819.06	3873
819.2	3937
819.341	3892
819.481	3808
819.622	3892
819.762	4044
819.903	3987
820.043	3880
820.184	3823
820.324	3865
820.465	3861
820.605	3903
820.746	3926
820.886	3800
821.026	3979
821.167	3922
821.307	3949
821.447	4021
821.588	3945
821.728	3964
821.868	3907
822.008	3888
822.149	3964
822.289	3941
822.429	3819
822.569	3770
822.709	3827
822.849	3740
822.99	3751
823.13	3800
823.27	3831
823.41	3705
823.55	3747
823.69	3732
823.83	3766
823.97	3713
824.11	3591
824.25	3591
824.389	3641
824.529	3663
824.669	3633
824.809	3713
824.949	3800
825.089	3751
825.228	3720
825.368	3561
825.508	3599
825.648	3561
825.787	3618
825.927	3633
826.067	3644
826.206	3698
826.346	3793
826.485	3861
826.625	3850
826.765	3949
826.904	3854
827.044	3614
827.183	3564
827.323	3454
827.462	3519
827.601	3447
827.741	3447
827.88	3488
828.02	3412
828.159	3447
828.298	3515
828.437	3526
828.577	3466
828.716	3595
828.855	3496
828.994	3359
829.134	3378
829.273	3389
829.412	3336
829.551	3363
829.69	3397
829.829	3416
829.968	3507
830.107	3469
830.246	3473
830.385	3378
830.524	3367
830.663	3340
830.802	3256
830.941	3199
831.08	3230
831.219	3260
831.357	3283
831.496	3409
831.635	3287
831.774	3195
831.913	3226
832.051	3131
832.19	3169
832.329	3188
832.467	3154
832.606	3112
832.744	3188
832.883	3207
833.022	3214
833.16	3264
833.299	3298
833.437	3340
833.576	3382
833.714	3424
833.852	3454
833.991	3412
834.129	3488
834.267	3485
834.406	3397
834.544	3443
834.682	3477
834.821	3443
834.959	3587
835.097	3412
835.235	3534
835.373	3439
835.511	3523
835.65	3469
835.788	3447
835.926	3370
836.064	3348
836.202	3420
836.34	3603
836.478	3572
836.615	3568
836.753	3622
836.891	3648
837.029	3591
837.167	3599
837.305	3542
837.443	3564
837.58	3504
837.718	3622
837.856	3557
837.993	3534
838.131	3584
838.269	3587
838.406	3614
838.544	3595
838.681	3439
838.819	3458
838.956	3397
839.094	3431
839.231	3469
839.369	3553
839.506	3747
839.643	3648
839.781	3530
839.918	3492
840.055	3542
840.193	3587
840.33	3542
840.467	3584
840.604	3568
840.742	3819
840.879	3545
841.016	3553
841.153	3644
841.29	3759
841.427	3755
841.564	3762
841.701	3720
841.838	3751
841.975	3686
842.112	3682
842.249	3656
842.385	3679
842.522	3831
842.659	3690
842.796	3698
842.933	3724
843.069	3686
843.206	3724
843.343	3857
843.479	3804
843.616	3850
843.752	3671
843.889	3713
844.025	3835
844.162	3747
844.298	3857
844.435	3827
844.571	3766
844.708	3937
844.844	4006
844.98	4032
845.117	4013
845.253	3987
845.389	3899
845.525	3994
845.661	3956
845.798	3937
845.934	4013
846.07	3975
846.206	4063
846.342	4143
846.478	4109
846.614	4040
846.75	3968
846.886	3945
847.022	4071
847.158	3975
847.294	4029
847.429	4006
847.565	4048
847.701	4253
847.837	3899
847.972	3892
848.108	3983
848.244	3987
848.379	3865
848.515	3869
848.65	3831
848.786	3861
848.921	3865
849.057	3934
849.192	3949
849.328	3941
849.463	3937
849.598	3899
849.734	3857
849.869	3857
850.004	3827
850.14	3846
850.275	3785
850.41	3804
850.545	3759
850.68	3762
850.815	3789
850.95	3827
851.085	3972
851.22	3865
851.355	3842
851.49	3831
851.625	3816
851.76	3812
851.895	3759
852.03	3732
852.165	3857
852.299	3816
852.434	3896
852.569	3884
852.703	3865
852.838	3960
852.973	4006
853.107	4010
853.242	3918
853.376	3865
853.511	3835
853.645	3831
853.78	3968
853.914	3934
854.048	3873
854.183	3915
854.317	3953
854.451	4097
854.585	3994
854.72	3975
854.854	4055
854.988	3949
855.122	3994
855.256	3968
855.39	4036
855.524	4139
855.658	4105
855.792	4112
855.926	4150
856.06	4150
856.194	4188
856.327	4120
856.461	4169
856.595	4150
856.729	4135
856.862	4299
856.996	4284
857.13	4265
857.263	4367
857.397	4417
857.53	4303
857.664	4348
857.797	4375
857.931	4470
858.064	4371
858.197	4474
858.331	4386
858.464	4436
858.597	4375
858.731	4485
858.864	4462
858.997	4497
859.13	4588
859.263	4538
859.396	4622
859.529	4519
859.662	4546
859.795	4542
859.928	4641
860.061	4767
860.194	4774
860.327	4645
860.46	4664
860.592	4782
860.725	4763
860.858	4755
860.99	4691
861.123	4706
861.256	4740
861.388	4786
861.521	5566
861.653	4767
861.786	4740
861.918	4778
862.05	4831
862.183	4847
862.315	4892
862.447	4942
862.58	4873
862.712	4793
862.844	4809
862.976	4930
863.108	4919
863.24	5261
863.372	4835
863.504	4911
863.636	4866
863.768	4980
863.9	4946
864.032	4904
864.164	5003
864.296	5052
864.428	5117
864.559	5105
864.691	5121
864.823	5105
864.954	5075
865.086	5166
865.217	5121
865.349	5090
865.48	5140
865.612	5189
865.743	5345
865.875	5239
866.006	5185
866.137	5269
866.269	5250
866.4	5284
866.531	5250
866.662	5307
866.793	5315
866.924	5269
867.055	5398
867.186	5326
867.317	5311
867.448	5307
867.579	5368
867.71	5379
867.841	5372
867.972	5482
868.103	5516
868.233	5478
868.364	5474
868.495	5562
868.625	5680
868.756	5813
868.886	5668
869.017	5775
869.147	5836
869.278	5882
869.408	5840
869.539	5824
869.669	5912
869.799	5935
869.929	6053
870.06	6045
870.19	6213
870.32	6197
870.45	6281
870.58	6296
870.71	6418
870.84	6467
870.97	6509
871.1	6475
871.23	6719
871.36	6726
871.489	6646
871.619	6730
871.749	6776
871.879	6897
872.008	7000
872.138	7008
872.267	7038
872.397	7012
872.526	7072
872.656	7168
872.785	7190
872.915	7403
873.044	7563
873.173	7578
873.303	7624
873.432	7727
873.561	7871
873.69	7913
873.819	8062
873.948	8172
874.077	8290
874.206	8279
874.335	8461
874.464	8602
874.593	8910
874.722	8986
874.851	9097
874.979	9222
875.108	9374
875.237	9454
875.365	9515
875.494	9625
875.623	9903
875.751	9804
875.88	10010
876.008	10120
876.136	10268
876.265	10519
876.393	10736
876.521	10653
876.65	10881
876.778	10873
876.906	10892
877.034	11014
877.162	11117
877.29	11105
877.418	11288
877.546	11345
877.674	11471
877.802	11535
877.93	11467
878.058	11547
878.185	11577
878.313	11653
878.441	11703
878.568	11703
878.696	11805
878.824	11802
878.951	11916
879.079	11961
879.206	12110
879.333	12045
879.461	11977
879.588	12034
879.715	11916
879.842	12213
879.97	12072
880.097	11904
880.224	11889
880.351	11958
880.478	11942
880.605	11855
880.732	11737
880.859	12045
880.986	11832
881.112	11893
881.239	11767
881.366	11638
881.493	11630
881.619	11493
881.746	11535
881.872	11543
881.999	11497
882.125	11539
882.252	11573
882.378	11490
882.505	11585
882.631	11341
882.757	11345
882.883	11356
883.01	11284
883.136	11239
883.262	11086
883.388	11121
883.514	11143
883.64	11231
883.766	11174
883.892	11079
884.018	10961
884.143	11048
884.269	11109
884.395	10862
884.52	10710
884.646	10820
884.772	10649
884.897	10706
885.023	10599
885.148	10778
885.274	10759
885.399	10649
885.524	10592
885.65	10569
885.775	10546
885.9	10607
886.025	10580
886.15	10542
886.275	10466
886.4	10451
886.525	10436
886.65	10363
886.775	10402
886.9	10394
887.025	10538
887.149	10348
887.274	10181
887.399	10265
887.523	10154
887.648	10215
887.773	10109
887.897	10325
888.021	10082
888.146	10124
888.27	10207
888.395	10253
888.519	10139
888.643	10280
888.767	10219
888.891	10135
889.015	10097
889.139	10131
889.263	9987
889.387	10131
889.511	10086
889.635	10082
889.759	9983
889.883	10017
890.006	9991
890.13	10074
890.254	9926
890.377	9964
890.501	9888
890.624	9869
890.748	9899
890.871	9838
890.995	9816
891.118	9728
891.241	9793
891.364	9785
891.488	9808
891.611	9717
891.734	9724
891.857	9842
891.98	9713
892.103	9808
892.226	9679
892.349	9690
892.471	9511
892.594	9538
892.717	9709
892.839	9679
892.962	9656
893.085	9675
893.207	9564
893.33	9507
893.452	9568
893.575	9614
893.697	9439
893.819	9542
893.941	9663
894.064	9660
894.186	9500
894.308	9374
894.43	9542
894.552	9564
894.674	9561
894.796	9378
894.918	9504
895.04	9367
895.161	9367
895.283	9367
895.405	9302
895.526	9355
895.648	9264
895.769	9249
895.891	9256
896.012	9264
896.134	9233
896.255	9260
896.376	9165
896.498	9157
896.619	9150
896.74	9085
896.861	9085
896.982	9291
897.103	9302
897.224	9169
897.345	9032
897.466	8952
897.587	9112
897.708	9104
897.828	9047
897.949	8979
898.07	8868
898.19	8952
898.311	8956
898.431	8826
898.552	8929
898.672	8979
898.792	8975
898.913	8944
899.033	8811
899.153	8720
899.273	8663
899.393	8743
899.513	8804
899.633	8762
899.753	8735
899.873	8693
899.993	8701
900.113	8705
900.232	8758
900.352	8640
900.472	8610
900.591	8526
900.711	8541
900.83	8533
900.95	8705
901.069	8769
901.189	8587
901.308	8446
901.427	8412
901.546	8408
901.665	8431
901.784	8503
901.904	8419
902.023	8286
902.141	8240
902.26	8199
902.379	8282
902.498	8282
902.617	8218
902.735	8309
902.854	8328
902.973	8275
903.091	8149
903.21	8130
903.328	8225
903.446	8096
903.565	8092
903.683	8142
903.801	8103
903.919	8191
904.038	8115
904.156	8084
904.274	8081
904.392	7997
904.51	8054
904.627	8008
904.745	8115
904.863	8153
904.981	7978
905.098	7883
905.216	7921
905.334	7970
905.451	7944
905.569	7799
905.686	7947
905.803	7917
905.921	7765
906.038	7909
906.155	7818
906.272	7715
906.389	7769
906.506	7666
906.623	7643
906.74	7575
906.857	7552
906.974	7578
907.091	7693
907.208	7742
907.324	7700
907.441	7597
907.557	7438
907.674	7419
907.79	7476
907.907	7415
908.023	7441
908.139	7460
908.256	7438
908.372	7430
908.488	7415
908.604	7335
908.72	7225
908.836	7293
908.952	7228
909.068	7240
909.184	7403
909.3	7278
909.415	7308
909.531	7285
909.647	7107
909.762	7149
909.878	7126
909.993	7145
910.108	7137
910.224	7122
910.339	7046
910.454	7072
910.57	7050
910.685	7015
910.8	7171
910.915	7156
911.03	7038
911.145	6928
911.259	6913
911.374	6939
911.489	6833
911.604	6772
911.718	6662
911.833	6760
911.947	6650
912.062	6673
912.176	6745
912.291	6772
912.405	6715
912.519	6798
912.633	6825
912.748	6795
912.862	6726
912.976	6593
913.09	6593
913.204	6601
913.318	6639
913.431	6662
913.545	6715
913.659	6703
913.772	6677
913.886	6551
914	6623
914.113	6623
914.226	6700
914.34	6642
914.453	6490
914.566	6601
914.68	6589
914.793	6544
914.906	6448
915.019	6376
915.132	6334
915.245	6448
915.358	6475
915.47	6395
915.583	6471
915.696	6498
915.809	6536
915.921	6593
916.034	6422
916.146	6391
916.259	6414
916.371	6464
916.483	6445
916.595	6422
916.708	6429
916.82	6391
916.932	6460
917.044	6380
917.156	6384
917.268	6399
917.38	6372
917.491	6350
917.603	6342
917.715	6380
917.826	6494
917.938	6365
918.049	6296
918.161	6331
918.272	6376
918.384	6464
918.495	6350
918.606	6285
918.717	6224
918.828	6296
918.939	6315
919.05	6251
919.161	6281
919.272	6144
919.383	6144
919.494	6327
919.604	6395
919.715	6285
919.826	6277
919.936	6239
920.047	6323
920.157	6311
920.267	6479
920.378	6331
920.488	6342
920.598	6456
920.708	6574
920.818	6456
920.928	6426
921.038	6589
921.148	6608
921.258	6399
921.368	6262
921.477	6270
921.587	6178
921.697	6072
921.806	6209
921.916	6163
922.025	5950
922.134	5946
922.244	5901
922.353	5973
922.462	5836
922.571	5847
922.68	5707
922.789	5661
922.898	5710
923.007	5703
923.116	5733
923.224	5710
923.333	5623
923.442	5676
923.55	5581
923.659	5627
923.767	5615
923.876	5566
923.984	5646
924.092	5486
924.201	5551
924.309	5585
924.417	5543
924.525	5467
924.633	5520
924.741	6129
924.849	5414
924.956	5539
925.064	5376
925.172	5315
925.279	5368
925.387	5383
925.494	5364
925.602	5417
925.709	5345
925.816	5239
925.924	5292
926.031	5322
926.138	5345
926.245	5376
926.352	5254
926.459	5280
926.566	5315
926.673	5231
926.779	5159
926.886	5075
926.993	5025
927.099	5086
927.206	4946
927.312	4984
927.419	5010
927.525	5056
927.631	4915
927.737	4923
927.843	4877
927.95	4828
928.056	4805
928.162	4828
928.267	4900
928.373	5425
928.479	4866
928.585	4694
928.69	4729
928.796	4790
928.901	4755
929.007	4615
929.112	4698
929.218	4664
929.323	4607
929.428	4584
929.533	4653
929.638	4512
929.743	4519
929.848	4538
929.953	4516
930.058	4481
930.163	4322
930.267	4352
930.372	4478
930.477	4329
930.581	4500
930.685	4394
930.79	4249
930.894	4314
930.998	4246
931.103	4379
931.207	4154
931.311	4071
931.415	4059
931.519	3956
931.623	3953
