Data from glass_V78500241_678.txt Node
Date: Wed Sep 01 19:19:11 CST 2021
User: usil
Spectrometer: V785-0024
Trigger mode: 0
Integration Time (sec): 4.000000E-1
Scans to average: 1
Nonlinearity correction enabled: false
Boxcar width: 0
Storing dark spectrum: false
XAxis mode: Wavelengths
Number of Pixels in Spectrum: 1024
>>>>>Begin Spectral Data<<<<<
801.071	3759
801.214	3778
801.356	3709
801.499	3770
801.641	3717
801.783	3770
801.926	3846
802.068	3857
802.211	3880
802.353	3880
802.496	3880
802.638	3930
802.78	3896
802.923	3911
803.065	3922
803.208	3835
803.35	3911
803.492	3903
803.635	3956
803.777	3838
803.919	3907
804.061	4169
804.204	3949
804.346	3953
804.488	3922
804.63	4025
804.773	3975
804.915	4086
805.057	4200
805.199	4051
805.341	4109
805.483	4162
805.626	4139
805.768	4158
805.91	4196
806.052	4257
806.194	4150
806.336	4360
806.478	4177
806.62	4166
806.762	4116
806.904	4265
807.046	4337
807.188	4192
807.33	4230
807.472	4230
807.614	4211
807.756	4287
807.898	4230
808.04	4249
808.182	4322
808.324	4318
808.465	4436
808.607	4421
808.749	4459
808.891	4451
809.033	4504
809.174	4432
809.316	4261
809.458	4238
809.6	4143
809.741	4128
809.883	4154
810.025	4219
810.166	4192
810.308	4196
810.45	4284
810.591	4268
810.733	4291
810.875	4519
811.016	4820
811.158	5162
811.299	5345
811.441	5322
811.582	5052
811.724	4675
811.865	4489
812.007	4459
812.148	4470
812.29	4413
812.431	4405
812.573	4402
812.714	4424
812.855	4432
812.997	4424
813.138	4478
813.279	4409
813.421	4409
813.562	4360
813.703	4367
813.845	4356
813.986	4268
814.127	4265
814.268	4261
814.41	4299
814.551	4295
814.692	4337
814.833	4272
814.974	4329
815.115	4337
815.256	4276
815.397	4246
815.539	4287
815.68	4234
815.821	4268
815.962	4287
816.103	4310
816.244	4219
816.385	4272
816.526	4284
816.666	4192
816.807	4101
816.948	4207
817.089	4166
817.23	4116
817.371	4074
817.512	4063
817.653	4154
817.793	3994
817.934	4006
818.075	4082
818.216	4101
818.356	4040
818.497	4013
818.638	3934
818.778	3865
818.919	3903
819.06	3876
819.2	3930
819.341	3846
819.481	3896
819.622	3918
819.762	3975
819.903	3972
820.043	3892
820.184	3823
820.324	3846
820.465	3930
820.605	3865
820.746	3892
820.886	3797
821.026	3941
821.167	3960
821.307	4006
821.447	4040
821.588	4040
821.728	3972
821.868	3934
822.008	3922
822.149	3930
822.289	3896
822.429	3789
822.569	3785
822.709	3797
822.849	3671
822.99	3759
823.13	3800
823.27	3835
823.41	3747
823.55	3740
823.69	3701
823.83	3770
823.97	3740
824.11	3629
824.25	3625
824.389	3686
824.529	3671
824.669	3610
824.809	3705
824.949	3793
825.089	3717
825.228	3747
825.368	3610
825.508	3564
825.648	3580
825.787	3648
825.927	3679
826.067	3679
826.206	3663
826.346	3800
826.485	3827
826.625	3911
826.765	3941
826.904	3857
827.044	3618
827.183	3511
827.323	3454
827.462	3519
827.601	3477
827.741	3412
827.88	3485
828.02	3405
828.159	3462
828.298	3511
828.437	3557
828.577	3481
828.716	3625
828.855	3553
828.994	3420
829.134	3359
829.273	3386
829.412	3329
829.551	3344
829.69	3378
829.829	3416
829.968	3515
830.107	3477
830.246	3485
830.385	3412
830.524	3367
830.663	3351
830.802	3260
830.941	3203
831.08	3192
831.219	3275
831.357	3253
831.496	3428
831.635	3272
831.774	3207
831.913	3211
832.051	3108
832.19	3169
832.329	3249
832.467	3161
832.606	3142
832.744	3165
832.883	3188
833.022	3195
833.16	3272
833.299	3298
833.437	3291
833.576	3370
833.714	3405
833.852	3447
833.991	3481
834.129	3469
834.267	3439
834.406	3428
834.544	3420
834.682	3458
834.821	3428
834.959	3568
835.097	3462
835.235	3538
835.373	3545
835.511	3538
835.65	3462
835.788	3504
835.926	3374
836.064	3397
836.202	3416
836.34	3587
836.478	3595
836.615	3538
836.753	3603
836.891	3690
837.029	3633
837.167	3584
837.305	3572
837.443	3568
837.58	3526
837.718	3591
837.856	3580
837.993	3545
838.131	3618
838.269	3584
838.406	3599
838.544	3614
838.681	3511
838.819	3488
838.956	3386
839.094	3431
839.231	3450
839.369	3553
839.506	3759
839.643	3618
839.781	3481
839.918	3439
840.055	3526
840.193	3526
840.33	3519
840.467	3591
840.604	3637
840.742	3808
840.879	3584
841.016	3572
841.153	3614
841.29	3755
841.427	3705
841.564	3724
841.701	3736
841.838	3720
841.975	3694
842.112	3743
842.249	3660
842.385	3610
842.522	3854
842.659	3713
842.796	3637
842.933	3732
843.069	3705
843.206	3717
843.343	3865
843.479	3823
843.616	3808
843.752	3652
843.889	3705
844.025	3861
844.162	3793
844.298	3903
844.435	3804
844.571	3793
844.708	3934
844.844	4021
844.98	4067
845.117	3998
845.253	3930
845.389	3926
845.525	3983
845.661	3960
845.798	3945
845.934	4048
846.07	3968
846.206	4040
846.342	4116
846.478	4017
846.614	3972
846.75	3918
846.886	3918
847.022	4025
847.158	3907
847.294	4013
847.429	4082
847.565	3975
847.701	4223
847.837	3888
847.972	3899
848.108	4017
848.244	3994
848.379	3880
848.515	3842
848.65	3842
848.786	3850
848.921	3892
849.057	3964
849.192	3956
849.328	3896
849.463	3915
849.598	3915
849.734	3880
849.869	3812
850.004	3808
850.14	3869
850.275	3789
850.41	3762
850.545	3789
850.68	3831
850.815	3823
850.95	3789
851.085	3998
851.22	3896
851.355	3831
851.49	3835
851.625	3835
851.76	3812
851.895	3770
852.03	3759
852.165	3781
852.299	3896
852.434	3918
852.569	3907
852.703	3876
852.838	3960
852.973	4090
853.107	3998
853.242	3896
853.376	3876
853.511	3781
853.645	3880
853.78	3979
853.914	3876
854.048	3945
854.183	3892
854.317	3983
854.451	4097
854.585	3953
854.72	3964
854.854	4051
854.988	3922
855.122	4048
855.256	3941
855.39	4013
855.524	4112
855.658	4116
855.792	4131
855.926	4135
856.06	4158
856.194	4215
856.327	4143
856.461	4139
856.595	4188
856.729	4207
856.862	4348
856.996	4314
857.13	4333
857.263	4390
857.397	4352
857.53	4284
857.664	4360
857.797	4398
857.931	4474
858.064	4413
858.197	4451
858.331	4390
858.464	4398
858.597	4383
858.731	4451
858.864	4462
858.997	4512
859.13	4512
859.263	4535
859.396	4599
859.529	4493
859.662	4550
859.795	4577
859.928	4573
860.061	4740
860.194	4736
860.327	4637
860.46	4668
860.592	4763
860.725	4736
860.858	4763
860.99	4729
861.123	4687
861.256	4683
861.388	4805
861.521	5296
861.653	4733
861.786	4736
861.918	4721
862.05	4820
862.183	4858
862.315	4885
862.447	4934
862.58	4866
862.712	4835
862.844	4801
862.976	4885
863.108	4866
863.24	5307
863.372	4843
863.504	4930
863.636	4908
863.768	4980
863.9	4984
864.032	4946
864.164	4892
864.296	5022
864.428	5079
864.559	5136
864.691	5128
864.823	5109
864.954	5128
865.086	5147
865.217	5197
865.349	5094
865.48	5201
865.612	5254
865.743	5322
865.875	5174
866.006	5216
866.137	5269
866.269	5269
866.4	5269
866.531	5239
866.662	5212
866.793	5330
866.924	5318
867.055	5311
867.186	5326
867.317	5326
867.448	5368
867.579	5383
867.71	5410
867.841	5406
867.972	5478
868.103	5463
868.233	5463
868.364	5524
868.495	5543
868.625	5627
868.756	5786
868.886	5665
869.017	5764
869.147	5817
869.278	5885
869.408	5805
869.539	5832
869.669	5923
869.799	5923
869.929	6003
870.06	5973
870.19	6224
870.32	6186
870.45	6292
870.58	6388
870.71	6456
870.84	6448
870.97	6426
871.1	6414
871.23	6631
871.36	6669
871.489	6677
871.619	6730
871.749	6833
871.879	6913
872.008	6973
872.138	7023
872.267	7065
872.397	6993
872.526	7061
872.656	7107
872.785	7194
872.915	7392
873.044	7571
873.173	7548
873.303	7655
873.432	7792
873.561	7841
873.69	8005
873.819	7963
873.948	8161
874.077	8244
874.206	8351
874.335	8454
874.464	8667
874.593	8895
874.722	8918
874.851	9127
874.979	9272
875.108	9329
875.237	9507
875.365	9511
875.494	9675
875.623	9781
875.751	9838
875.88	10002
876.008	10090
876.136	10287
876.265	10538
876.393	10710
876.521	10790
876.65	10809
876.778	10767
876.906	10873
877.034	11010
877.162	11029
877.29	11155
877.418	11318
877.546	11326
877.674	11493
877.802	11528
877.93	11554
878.058	11547
878.185	11570
878.313	11592
878.441	11779
878.568	11665
878.696	11870
878.824	11874
878.951	12019
879.079	11999
879.206	12106
879.333	12053
879.461	12011
879.588	12087
879.715	12083
879.842	12243
879.97	12098
880.097	11901
880.224	11897
880.351	11923
880.478	11939
880.605	11817
880.732	11843
880.859	11935
880.986	11824
881.112	11870
881.239	11824
881.366	11695
881.493	11573
881.619	11490
881.746	11649
881.872	11509
881.999	11615
882.125	11471
882.252	11528
882.378	11486
882.505	11577
882.631	11353
882.757	11273
882.883	11299
883.01	11261
883.136	11227
883.262	11170
883.388	11014
883.514	11250
883.64	11166
883.766	11162
883.892	11029
884.018	10957
884.143	11132
884.269	11109
884.395	10805
884.52	10744
884.646	10812
884.772	10729
884.897	10706
885.023	10698
885.148	10793
885.274	10805
885.399	10698
885.524	10706
885.65	10596
885.775	10653
885.9	10485
886.025	10649
886.15	10512
886.275	10462
886.4	10405
886.525	10409
886.65	10325
886.775	10379
886.9	10451
887.025	10470
887.149	10344
887.274	10219
887.399	10200
887.523	10215
887.648	10143
887.773	10097
887.897	10230
888.021	10242
888.146	10128
888.27	10200
888.395	10280
888.519	10185
888.643	10238
888.767	10261
888.891	10109
889.015	10051
889.139	9983
889.263	10059
889.387	10097
889.511	10131
889.635	10116
889.759	9987
889.883	10010
890.006	9991
890.13	10059
890.254	9911
890.377	9991
890.501	9880
890.624	9915
890.748	9983
890.871	9804
890.995	9743
891.118	9770
891.241	9781
891.364	9766
891.488	9846
891.611	9812
891.734	9728
891.857	9774
891.98	9766
892.103	9789
892.226	9770
892.349	9690
892.471	9561
892.594	9637
892.717	9633
892.839	9622
892.962	9637
893.085	9633
893.207	9610
893.33	9492
893.452	9572
893.575	9595
893.697	9534
893.819	9641
893.941	9644
894.064	9561
894.186	9408
894.308	9367
894.43	9618
894.552	9587
894.674	9595
894.796	9363
894.918	9416
895.04	9313
895.161	9401
895.283	9378
895.405	9237
895.526	9317
895.648	9264
895.769	9253
895.891	9294
896.012	9298
896.134	9275
896.255	9207
896.376	9100
896.498	9070
896.619	9119
896.74	9081
896.861	9142
896.982	9298
897.103	9428
897.224	9154
897.345	9123
897.466	9028
897.587	9047
897.708	9165
897.828	9032
897.949	8937
898.07	8845
898.19	8883
898.311	9047
898.431	8952
898.552	9036
898.672	9024
898.792	8952
898.913	8933
899.033	8842
899.153	8720
899.273	8613
899.393	8712
899.513	8777
899.633	8800
899.753	8750
899.873	8678
899.993	8804
900.113	8693
900.232	8716
900.352	8708
900.472	8648
900.591	8556
900.711	8568
900.83	8522
900.95	8674
901.069	8758
901.189	8541
901.308	8434
901.427	8423
901.546	8412
901.665	8560
901.784	8533
901.904	8385
902.023	8404
902.141	8168
902.26	8309
902.379	8256
902.498	8229
902.617	8161
902.735	8294
902.854	8301
902.973	8202
903.091	8176
903.21	8149
903.328	8187
903.446	8134
903.565	8142
903.683	8073
903.801	8062
903.919	8176
904.038	8183
904.156	8058
904.274	8111
904.392	7978
904.51	7986
904.627	8062
904.745	8043
904.863	8119
904.981	7940
905.098	7826
905.216	7868
905.334	7955
905.451	7890
905.569	7883
905.686	8008
905.803	7986
905.921	7818
906.038	7830
906.155	7860
906.272	7750
906.389	7742
906.506	7693
906.623	7643
906.74	7624
906.857	7514
906.974	7590
907.091	7700
907.208	7677
907.324	7636
907.441	7662
907.557	7483
907.674	7464
907.79	7403
907.907	7464
908.023	7521
908.139	7434
908.256	7377
908.372	7384
908.488	7377
908.604	7247
908.72	7270
908.836	7316
908.952	7240
909.068	7308
909.184	7377
909.3	7263
909.415	7335
909.531	7316
909.647	7118
909.762	7160
909.878	7133
909.993	7194
910.108	7152
910.224	7141
910.339	7152
910.454	7034
910.57	7008
910.685	7012
910.8	7091
910.915	7103
911.03	7042
911.145	6928
911.259	6882
911.374	6928
911.489	6947
911.604	6776
911.718	6719
911.833	6768
911.947	6692
912.062	6631
912.176	6715
912.291	6696
912.405	6787
912.519	6795
912.633	6856
912.748	6696
912.862	6658
912.976	6620
913.09	6559
913.204	6635
913.318	6578
913.431	6722
913.545	6719
913.659	6738
913.772	6677
913.886	6525
914	6646
914.113	6669
914.226	6635
914.34	6620
914.453	6490
914.566	6604
914.68	6559
914.793	6551
914.906	6452
915.019	6403
915.132	6403
915.245	6426
915.358	6433
915.47	6479
915.583	6456
915.696	6509
915.809	6506
915.921	6604
916.034	6426
916.146	6403
916.259	6414
916.371	6452
916.483	6494
916.595	6418
916.708	6407
916.82	6395
916.932	6410
917.044	6437
917.156	6407
917.268	6369
917.38	6346
917.491	6315
917.603	6399
917.715	6418
917.826	6410
917.938	6334
918.049	6254
918.161	6403
918.272	6452
918.384	6490
918.495	6369
918.606	6319
918.717	6232
918.828	6273
918.939	6311
919.05	6209
919.161	6254
919.272	6098
919.383	6148
919.494	6285
919.604	6429
919.715	6369
919.826	6239
919.936	6304
920.047	6357
920.157	6334
920.267	6467
920.378	6327
920.488	6285
920.598	6471
920.708	6582
920.818	6460
920.928	6509
921.038	6662
921.148	6604
921.258	6361
921.368	6292
921.477	6254
921.587	6220
921.697	6087
921.806	6121
921.916	6110
922.025	5954
922.134	5927
922.244	5935
922.353	5942
922.462	5832
922.571	5802
922.68	5733
922.789	5748
922.898	5699
923.007	5634
923.116	5680
923.224	5714
923.333	5668
923.442	5642
923.55	5577
923.659	5596
923.767	5642
923.876	5539
923.984	5589
924.092	5524
924.201	5589
924.309	5547
924.417	5524
924.525	5516
924.633	5516
924.741	6182
924.849	5376
924.956	5486
925.064	5368
925.172	5296
925.279	5345
925.387	5345
925.494	5318
925.602	5452
925.709	5414
925.816	5201
925.924	5318
926.031	5398
926.138	5303
926.245	5265
926.352	5197
926.459	5311
926.566	5322
926.673	5220
926.779	5174
926.886	5170
926.993	5052
927.099	4976
927.206	4995
927.312	4934
927.419	4999
927.525	4991
927.631	5052
927.737	4919
927.843	4900
927.95	4771
928.056	4793
928.162	4816
928.267	4824
928.373	5357
928.479	4809
928.585	4634
928.69	4786
928.796	4820
928.901	4725
929.007	4584
929.112	4687
929.218	4664
929.323	4584
929.428	4618
929.533	4698
929.638	4554
929.743	4550
929.848	4538
929.953	4535
930.058	4481
930.163	4402
930.267	4360
930.372	4455
930.477	4325
930.581	4459
930.685	4371
930.79	4314
930.894	4303
930.998	4280
931.103	4375
931.207	4116
931.311	4112
931.415	4101
931.519	3998
931.623	3979
