Data from glass_V78500241_1352.txt Node
Date: Wed Sep 01 19:23:52 CST 2021
User: usil
Spectrometer: V785-0024
Trigger mode: 0
Integration Time (sec): 4.000000E-1
Scans to average: 1
Nonlinearity correction enabled: false
Boxcar width: 0
Storing dark spectrum: false
XAxis mode: Wavelengths
Number of Pixels in Spectrum: 1024
>>>>>Begin Spectral Data<<<<<
801.071	3728
801.214	3781
801.356	3694
801.499	3759
801.641	3720
801.783	3781
801.926	3850
802.068	3850
802.211	3892
802.353	3865
802.496	3842
802.638	3876
802.78	3892
802.923	3953
803.065	3876
803.208	3873
803.35	3899
803.492	3846
803.635	3918
803.777	3804
803.919	3880
804.061	4158
804.204	3968
804.346	3949
804.488	3896
804.63	4051
804.773	3991
804.915	4013
805.057	4097
805.199	4048
805.341	4093
805.483	4185
805.626	4128
805.768	4147
805.91	4219
806.052	4261
806.194	4265
806.336	4371
806.478	4219
806.62	4215
806.762	4188
806.904	4268
807.046	4333
807.188	4181
807.33	4173
807.472	4230
807.614	4200
807.756	4268
807.898	4227
808.04	4219
808.182	4276
808.324	4341
808.465	4360
808.607	4459
808.749	4394
808.891	4462
809.033	4489
809.174	4409
809.316	4246
809.458	4280
809.6	4162
809.741	4116
809.883	4143
810.025	4204
810.166	4196
810.308	4223
810.45	4196
810.591	4261
810.733	4291
810.875	4508
811.016	4835
811.158	5094
811.299	5322
811.441	5296
811.582	5105
811.724	4725
811.865	4413
812.007	4497
812.148	4466
812.29	4459
812.431	4421
812.573	4417
812.714	4390
812.855	4424
812.997	4436
813.138	4489
813.279	4428
813.421	4402
813.562	4367
813.703	4314
813.845	4360
813.986	4246
814.127	4230
814.268	4295
814.41	4306
814.551	4276
814.692	4360
814.833	4284
814.974	4329
815.115	4363
815.256	4265
815.397	4207
815.539	4291
815.68	4211
815.821	4204
815.962	4325
816.103	4272
816.244	4272
816.385	4230
816.526	4284
816.666	4211
816.807	4131
816.948	4150
817.089	4143
817.23	4135
817.371	4071
817.512	4051
817.653	4090
817.793	4040
817.934	4021
818.075	4086
818.216	4082
818.356	4105
818.497	3987
818.638	3888
818.778	3956
818.919	3899
819.06	3850
819.2	3911
819.341	3857
819.481	3857
819.622	3892
819.762	4025
819.903	3953
820.043	3861
820.184	3812
820.324	3827
820.465	3876
820.605	3876
820.746	3899
820.886	3812
821.026	3945
821.167	3907
821.307	3979
821.447	3945
821.588	3922
821.728	3930
821.868	3979
822.008	3892
822.149	3869
822.289	3907
822.429	3781
822.569	3770
822.709	3736
822.849	3705
822.99	3736
823.13	3759
823.27	3808
823.41	3728
823.55	3774
823.69	3720
823.83	3785
823.97	3671
824.11	3648
824.25	3591
824.389	3690
824.529	3671
824.669	3622
824.809	3671
824.949	3736
825.089	3705
825.228	3694
825.368	3564
825.508	3564
825.648	3580
825.787	3614
825.927	3644
826.067	3629
826.206	3682
826.346	3823
826.485	3800
826.625	3865
826.765	3937
826.904	3835
827.044	3584
827.183	3519
827.323	3447
827.462	3458
827.601	3431
827.741	3405
827.88	3477
828.02	3401
828.159	3428
828.298	3485
828.437	3564
828.577	3462
828.716	3587
828.855	3511
828.994	3370
829.134	3359
829.273	3393
829.412	3291
829.551	3302
829.69	3367
829.829	3450
829.968	3545
830.107	3435
830.246	3481
830.385	3401
830.524	3359
830.663	3279
830.802	3249
830.941	3230
831.08	3233
831.219	3298
831.357	3249
831.496	3428
831.635	3245
831.774	3218
831.913	3211
832.051	3116
832.19	3184
832.329	3218
832.467	3119
832.606	3097
832.744	3165
832.883	3180
833.022	3230
833.16	3260
833.299	3287
833.437	3313
833.576	3401
833.714	3416
833.852	3473
833.991	3435
834.129	3485
834.267	3439
834.406	3393
834.544	3428
834.682	3454
834.821	3401
834.959	3576
835.097	3450
835.235	3561
835.373	3507
835.511	3504
835.65	3488
835.788	3530
835.926	3389
836.064	3389
836.202	3412
836.34	3553
836.478	3595
836.615	3545
836.753	3610
836.891	3644
837.029	3644
837.167	3595
837.305	3530
837.443	3542
837.58	3488
837.718	3587
837.856	3576
837.993	3515
838.131	3610
838.269	3629
838.406	3580
838.544	3545
838.681	3431
838.819	3454
838.956	3401
839.094	3367
839.231	3473
839.369	3538
839.506	3770
839.643	3648
839.781	3469
839.918	3473
840.055	3530
840.193	3511
840.33	3584
840.467	3576
840.604	3629
840.742	3789
840.879	3519
841.016	3526
841.153	3606
841.29	3755
841.427	3728
841.564	3709
841.701	3724
841.838	3713
841.975	3675
842.112	3732
842.249	3633
842.385	3652
842.522	3793
842.659	3698
842.796	3667
842.933	3717
843.069	3686
843.206	3648
843.343	3823
843.479	3797
843.616	3857
843.752	3671
843.889	3671
844.025	3816
844.162	3675
844.298	3831
844.435	3781
844.571	3736
844.708	3949
844.844	3975
844.98	3991
845.117	4017
845.253	3956
845.389	3899
845.525	3915
845.661	3983
845.798	3937
845.934	3987
846.07	3953
846.206	4063
846.342	4154
846.478	4105
846.614	3987
846.75	3979
846.886	3892
847.022	4044
847.158	3987
847.294	4048
847.429	4036
847.565	4002
847.701	4257
847.837	3854
847.972	3838
848.108	3987
848.244	4010
848.379	3884
848.515	3789
848.65	3793
848.786	3857
848.921	3899
849.057	3911
849.192	3949
849.328	3896
849.463	3945
849.598	3869
849.734	3838
849.869	3842
850.004	3797
850.14	3819
850.275	3808
850.41	3740
850.545	3736
850.68	3785
850.815	3781
850.95	3835
851.085	3949
851.22	3888
851.355	3838
851.49	3774
851.625	3816
851.76	3835
851.895	3770
852.03	3751
852.165	3759
852.299	3842
852.434	3857
852.569	3896
852.703	3911
852.838	3930
852.973	3968
853.107	4021
853.242	3903
853.376	3842
853.511	3762
853.645	3854
853.78	3975
853.914	3941
854.048	3865
854.183	3937
854.317	3941
854.451	4071
854.585	3956
854.72	3930
854.854	4078
854.988	3937
855.122	3987
855.256	3949
855.39	4010
855.524	4112
855.658	4120
855.792	4112
855.926	4158
856.06	4169
856.194	4177
856.327	4166
856.461	4101
856.595	4162
856.729	4196
856.862	4299
856.996	4280
857.13	4303
857.263	4379
857.397	4329
857.53	4234
857.664	4363
857.797	4413
857.931	4421
858.064	4386
858.197	4436
858.331	4398
858.464	4360
858.597	4363
858.731	4493
858.864	4436
858.997	4409
859.13	4481
859.263	4542
859.396	4580
859.529	4527
859.662	4497
859.795	4561
859.928	4618
860.061	4694
860.194	4748
860.327	4687
860.46	4653
860.592	4702
860.725	4786
860.858	4812
860.99	4744
861.123	4641
861.256	4698
861.388	4721
861.521	5562
861.653	4733
861.786	4725
861.918	4721
862.05	4771
862.183	4850
862.315	4877
862.447	4923
862.58	4930
862.712	4763
862.844	4778
862.976	4892
863.108	4866
863.24	5223
863.372	4824
863.504	4885
863.636	4892
863.768	4987
863.9	4961
864.032	4934
864.164	5014
864.296	5014
864.428	5052
864.559	5140
864.691	5155
864.823	5143
864.954	5132
865.086	5178
865.217	5162
865.349	5105
865.48	5124
865.612	5151
865.743	5311
865.875	5166
866.006	5136
866.137	5216
866.269	5296
866.4	5231
866.531	5250
866.662	5284
866.793	5265
866.924	5258
867.055	5353
867.186	5337
867.317	5337
867.448	5284
867.579	5391
867.71	5402
867.841	5345
867.972	5455
868.103	5448
868.233	5497
868.364	5532
868.495	5562
868.625	5653
868.756	5790
868.886	5589
869.017	5695
869.147	5866
869.278	5851
869.408	5786
869.539	5802
869.669	5893
869.799	5923
869.929	5969
870.06	6022
870.19	6194
870.32	6182
870.45	6270
870.58	6357
870.71	6486
870.84	6506
870.97	6407
871.1	6460
871.23	6684
871.36	6700
871.489	6642
871.619	6783
871.749	6810
871.879	6916
872.008	6993
872.138	6981
872.267	7061
872.397	7015
872.526	7004
872.656	7084
872.785	7266
872.915	7362
873.044	7533
873.173	7544
873.303	7647
873.432	7662
873.561	7860
873.69	7864
873.819	7951
873.948	8153
874.077	8267
874.206	8290
874.335	8385
874.464	8648
874.593	8868
874.722	8925
874.851	9104
874.979	9268
875.108	9374
875.237	9447
875.365	9519
875.494	9660
875.623	9823
875.751	9846
875.88	10048
876.008	10166
876.136	10322
876.265	10508
876.393	10790
876.521	10698
876.65	10748
876.778	10892
876.906	10862
877.034	10953
877.162	11140
877.29	11136
877.418	11318
877.546	11318
877.674	11482
877.802	11474
877.93	11452
878.058	11452
878.185	11615
878.313	11707
878.441	11726
878.568	11691
878.696	11802
878.824	11855
878.951	11923
879.079	11988
879.206	12125
879.333	12098
879.461	11923
879.588	12087
879.715	12114
879.842	12266
879.97	12091
880.097	11935
880.224	11828
880.351	11878
880.478	11920
880.605	11863
880.732	11847
880.859	11958
880.986	11809
881.112	11912
881.239	11786
881.366	11638
881.493	11684
881.619	11547
881.746	11615
881.872	11547
881.999	11490
882.125	11436
882.252	11566
882.378	11566
882.505	11478
882.631	11349
882.757	11299
882.883	11273
883.01	11307
883.136	11201
883.262	11132
883.388	11121
883.514	11246
883.64	11178
883.766	11067
883.892	11048
884.018	10946
884.143	11045
884.269	11121
884.395	10763
884.52	10835
884.646	10675
884.772	10706
884.897	10736
885.023	10668
885.148	10660
885.274	10816
885.399	10771
885.524	10592
885.65	10607
885.775	10546
885.9	10569
886.025	10588
886.15	10573
886.275	10447
886.4	10272
886.525	10432
886.65	10299
886.775	10333
886.9	10436
887.025	10523
887.149	10363
887.274	10261
887.399	10177
887.523	10162
887.648	10162
887.773	10097
887.897	10272
888.021	10181
888.146	10112
888.27	10257
888.395	10147
888.519	10227
888.643	10223
888.767	10242
888.891	10071
889.015	10013
889.139	10086
889.263	10074
889.387	10071
889.511	10124
889.635	10090
889.759	10029
889.883	10074
890.006	9975
890.13	10071
890.254	9903
890.377	9934
890.501	9884
890.624	9823
890.748	9960
890.871	9709
890.995	9778
891.118	9747
891.241	9804
891.364	9694
891.488	9846
891.611	9751
891.734	9759
891.857	9861
891.98	9652
892.103	9789
892.226	9743
892.349	9660
892.471	9564
892.594	9500
892.717	9603
892.839	9599
892.962	9629
893.085	9675
893.207	9584
893.33	9515
893.452	9458
893.575	9656
893.697	9507
893.819	9618
893.941	9599
894.064	9545
894.186	9450
894.308	9412
894.43	9572
894.552	9561
894.674	9496
894.796	9416
894.918	9386
895.04	9348
895.161	9355
895.283	9363
895.405	9203
895.526	9294
895.648	9245
895.769	9233
895.891	9253
896.012	9329
896.134	9154
896.255	9203
896.376	9104
896.498	9066
896.619	9116
896.74	9112
896.861	9074
896.982	9336
897.103	9329
897.224	9203
897.345	9085
897.466	9051
897.587	9001
897.708	9089
897.828	9017
897.949	8921
898.07	8785
898.19	8941
898.311	8975
898.431	8876
898.552	8914
898.672	9009
898.792	8998
898.913	8895
899.033	8826
899.153	8739
899.273	8739
899.393	8708
899.513	8693
899.633	8769
899.753	8788
899.873	8598
899.993	8792
900.113	8758
900.232	8750
900.352	8659
900.472	8621
900.591	8526
900.711	8659
900.83	8556
900.95	8655
901.069	8705
901.189	8598
901.308	8446
901.427	8476
901.546	8393
901.665	8400
901.784	8526
901.904	8336
902.023	8377
902.141	8191
902.26	8195
902.379	8279
902.498	8275
902.617	8164
902.735	8305
902.854	8263
902.973	8290
903.091	8111
903.21	8107
903.328	8187
903.446	8103
903.565	8046
903.683	8123
903.801	8107
903.919	8210
904.038	8043
904.156	8027
904.274	8081
904.392	8012
904.51	7986
904.627	8092
904.745	8096
904.863	8111
904.981	7909
905.098	7902
905.216	7860
905.334	7894
905.451	7913
905.569	7879
905.686	7974
905.803	7868
905.921	7803
906.038	7864
906.155	7833
906.272	7677
906.389	7719
906.506	7651
906.623	7655
906.74	7639
906.857	7552
906.974	7590
907.091	7658
907.208	7734
907.324	7658
907.441	7624
907.557	7453
907.674	7434
907.79	7441
907.907	7384
908.023	7403
908.139	7468
908.256	7388
908.372	7335
908.488	7362
908.604	7293
908.72	7217
908.836	7232
908.952	7263
909.068	7316
909.184	7289
909.3	7263
909.415	7343
909.531	7293
909.647	7194
909.762	7126
909.878	7069
909.993	7110
910.108	7126
910.224	7069
910.339	7080
910.454	7065
910.57	6977
910.685	6996
910.8	7118
910.915	7107
911.03	7027
911.145	6897
911.259	6951
911.374	6875
911.489	6844
911.604	6825
911.718	6677
911.833	6753
911.947	6654
912.062	6646
912.176	6730
912.291	6662
912.405	6707
912.519	6848
912.633	6814
912.748	6707
912.862	6692
912.976	6608
913.09	6570
913.204	6616
913.318	6582
913.431	6654
913.545	6700
913.659	6738
913.772	6673
913.886	6536
914	6563
914.113	6650
914.226	6642
914.34	6589
914.453	6467
914.566	6631
914.68	6460
914.793	6563
914.906	6418
915.019	6460
915.132	6376
915.245	6456
915.358	6418
915.47	6456
915.583	6380
915.696	6509
915.809	6513
915.921	6574
916.034	6407
916.146	6372
916.259	6357
916.371	6555
916.483	6426
916.595	6407
916.708	6403
916.82	6350
916.932	6380
917.044	6399
917.156	6403
917.268	6281
917.38	6380
917.491	6327
917.603	6311
917.715	6426
917.826	6433
917.938	6304
918.049	6273
918.161	6323
918.272	6456
918.384	6369
918.495	6338
918.606	6285
918.717	6262
918.828	6251
918.939	6277
919.05	6194
919.161	6266
919.272	6125
919.383	6136
919.494	6239
919.604	6410
919.715	6311
919.826	6254
919.936	6262
920.047	6353
920.157	6239
920.267	6509
920.378	6262
920.488	6296
920.598	6486
920.708	6563
920.818	6479
920.928	6506
921.038	6654
921.148	6589
921.258	6331
921.368	6319
921.477	6186
921.587	6186
921.697	6072
921.806	6220
921.916	6057
922.025	5897
922.134	5908
922.244	5847
922.353	5969
922.462	5802
922.571	5821
922.68	5745
922.789	5653
922.898	5707
923.007	5642
923.116	5714
923.224	5630
923.333	5608
923.442	5619
923.55	5543
923.659	5600
923.767	5684
923.876	5512
923.984	5608
924.092	5512
924.201	5630
924.309	5547
924.417	5566
924.525	5501
924.633	5547
924.741	6311
924.849	5436
924.956	5478
925.064	5391
925.172	5311
925.279	5292
925.387	5360
925.494	5402
925.602	5429
925.709	5429
925.816	5284
925.924	5326
926.031	5334
926.138	5353
926.245	5330
926.352	5216
926.459	5318
926.566	5376
926.673	5223
926.779	5113
926.886	5117
926.993	5025
927.099	4972
927.206	4976
927.312	4889
927.419	5064
927.525	4934
927.631	4949
927.737	4843
927.843	4866
927.95	4793
928.056	4858
928.162	4809
928.267	4854
928.373	5353
928.479	4805
928.585	4706
928.69	4759
928.796	4801
928.901	4653
929.007	4588
929.112	4653
929.218	4630
929.323	4618
929.428	4573
929.533	4664
929.638	4516
929.743	4531
929.848	4584
929.953	4504
930.058	4443
930.163	4303
930.267	4318
930.372	4466
930.477	4299
930.581	4481
930.685	4363
930.79	4257
930.894	4291
930.998	4265
931.103	4390
931.207	4101
931.311	4059
931.415	4048
931.519	3941
931.623	3941
