Data from glass_V78500241_1026.txt Node
Date: Wed Sep 01 19:21:36 CST 2021
User: usil
Spectrometer: V785-0024
Trigger mode: 0
Integration Time (sec): 4.000000E-1
Scans to average: 1
Nonlinearity correction enabled: false
Boxcar width: 0
Storing dark spectrum: false
XAxis mode: Wavelengths
Number of Pixels in Spectrum: 1024
>>>>>Begin Spectral Data<<<<<
801.071	3747
801.214	3808
801.356	3671
801.499	3740
801.641	3766
801.783	3762
801.926	3869
802.068	3857
802.211	3854
802.353	3880
802.496	3884
802.638	3899
802.78	3888
802.923	3934
803.065	3884
803.208	3854
803.35	3861
803.492	3926
803.635	3918
803.777	3854
803.919	3907
804.061	4162
804.204	3991
804.346	3964
804.488	3926
804.63	4051
804.773	3968
804.915	4063
805.057	4128
805.199	4040
805.341	4048
805.483	4150
805.626	4120
805.768	4135
805.91	4207
806.052	4246
806.194	4204
806.336	4383
806.478	4215
806.62	4238
806.762	4246
806.904	4249
807.046	4322
807.188	4219
807.33	4192
807.472	4246
807.614	4177
807.756	4276
807.898	4173
808.04	4230
808.182	4306
808.324	4325
808.465	4379
808.607	4481
808.749	4459
808.891	4455
809.033	4497
809.174	4379
809.316	4280
809.458	4215
809.6	4120
809.741	4124
809.883	4162
810.025	4215
810.166	4230
810.308	4253
810.45	4238
810.591	4200
810.733	4333
810.875	4481
811.016	4793
811.158	5170
811.299	5258
811.441	5288
811.582	5136
811.724	4733
811.865	4459
812.007	4481
812.148	4485
812.29	4421
812.431	4459
812.573	4394
812.714	4386
812.855	4474
812.997	4409
813.138	4489
813.279	4405
813.421	4394
813.562	4360
813.703	4352
813.845	4333
813.986	4253
814.127	4211
814.268	4219
814.41	4314
814.551	4242
814.692	4322
814.833	4234
814.974	4344
815.115	4329
815.256	4268
815.397	4246
815.539	4246
815.68	4196
815.821	4211
815.962	4322
816.103	4306
816.244	4215
816.385	4242
816.526	4318
816.666	4242
816.807	4105
816.948	4169
817.089	4196
817.23	4173
817.371	4078
817.512	4071
817.653	4090
817.793	4074
817.934	4006
818.075	4128
818.216	4078
818.356	4128
818.497	4013
818.638	3945
818.778	3911
818.919	3892
819.06	3896
819.2	3930
819.341	3827
819.481	3797
819.622	3926
819.762	4029
819.903	3960
820.043	3930
820.184	3865
820.324	3819
820.465	3888
820.605	3880
820.746	3915
820.886	3774
821.026	3930
821.167	3911
821.307	3975
821.447	4010
821.588	4010
821.728	3937
821.868	3953
822.008	3869
822.149	3956
822.289	3896
822.429	3789
822.569	3827
822.709	3785
822.849	3675
822.99	3709
823.13	3762
823.27	3766
823.41	3709
823.55	3728
823.69	3709
823.83	3743
823.97	3690
824.11	3595
824.25	3584
824.389	3656
824.529	3686
824.669	3614
824.809	3759
824.949	3766
825.089	3759
825.228	3732
825.368	3572
825.508	3591
825.648	3625
825.787	3614
825.927	3625
826.067	3603
826.206	3694
826.346	3800
826.485	3865
826.625	3880
826.765	3926
826.904	3819
827.044	3606
827.183	3542
827.323	3435
827.462	3519
827.601	3431
827.741	3450
827.88	3485
828.02	3409
828.159	3412
828.298	3488
828.437	3523
828.577	3496
828.716	3599
828.855	3485
828.994	3348
829.134	3378
829.273	3412
829.412	3374
829.551	3310
829.69	3393
829.829	3386
829.968	3545
830.107	3469
830.246	3420
830.385	3378
830.524	3344
830.663	3332
830.802	3256
830.941	3214
831.08	3188
831.219	3317
831.357	3268
831.496	3450
831.635	3264
831.774	3203
831.913	3195
832.051	3097
832.19	3116
832.329	3245
832.467	3131
832.606	3097
832.744	3180
832.883	3180
833.022	3176
833.16	3298
833.299	3294
833.437	3363
833.576	3389
833.714	3439
833.852	3412
833.991	3424
834.129	3439
834.267	3450
834.406	3405
834.544	3431
834.682	3386
834.821	3374
834.959	3622
835.097	3424
835.235	3515
835.373	3526
835.511	3542
835.65	3466
835.788	3526
835.926	3405
836.064	3420
836.202	3397
836.34	3603
836.478	3629
836.615	3500
836.753	3603
836.891	3660
837.029	3603
837.167	3637
837.305	3557
837.443	3572
837.58	3530
837.718	3629
837.856	3542
837.993	3599
838.131	3595
838.269	3603
838.406	3603
838.544	3599
838.681	3507
838.819	3481
838.956	3409
839.094	3378
839.231	3466
839.369	3519
839.506	3709
839.643	3629
839.781	3519
839.918	3496
840.055	3557
840.193	3504
840.33	3580
840.467	3545
840.604	3591
840.742	3785
840.879	3576
841.016	3622
841.153	3633
841.29	3766
841.427	3713
841.564	3740
841.701	3717
841.838	3705
841.975	3698
842.112	3705
842.249	3644
842.385	3656
842.522	3793
842.659	3717
842.796	3660
842.933	3736
843.069	3766
843.206	3747
843.343	3812
843.479	3793
843.616	3827
843.752	3667
843.889	3698
844.025	3850
844.162	3690
844.298	3869
844.435	3797
844.571	3800
844.708	3922
844.844	4002
844.98	4017
845.117	4006
845.253	3930
845.389	3937
845.525	3926
845.661	3922
845.798	3930
845.934	3991
846.07	3964
846.206	4116
846.342	4135
846.478	4097
846.614	3987
846.75	3972
846.886	3899
847.022	4071
847.158	3987
847.294	3960
847.429	4048
847.565	3987
847.701	4227
847.837	3926
847.972	3892
848.108	4074
848.244	3979
848.379	3884
848.515	3842
848.65	3831
848.786	3819
848.921	3880
849.057	3911
849.192	3937
849.328	3945
849.463	3930
849.598	3899
849.734	3873
849.869	3823
850.004	3766
850.14	3831
850.275	3778
850.41	3762
850.545	3759
850.68	3800
850.815	3781
850.95	3827
851.085	3964
851.22	3865
851.355	3819
851.49	3778
851.625	3778
851.76	3785
851.895	3724
852.03	3728
852.165	3816
852.299	3854
852.434	3960
852.569	3896
852.703	3907
852.838	3903
852.973	3994
853.107	4013
853.242	3926
853.376	3861
853.511	3778
853.645	3865
853.78	3994
853.914	3899
854.048	3911
854.183	3899
854.317	3915
854.451	4063
854.585	3941
854.72	3941
854.854	4063
854.988	3941
855.122	4025
855.256	3926
855.39	4071
855.524	4074
855.658	4105
855.792	4120
855.926	4181
856.06	4196
856.194	4188
856.327	4131
856.461	4196
856.595	4173
856.729	4177
856.862	4284
856.996	4234
857.13	4280
857.263	4306
857.397	4379
857.53	4299
857.664	4371
857.797	4394
857.931	4451
858.064	4367
858.197	4440
858.331	4390
858.464	4371
858.597	4356
858.731	4421
858.864	4470
858.997	4459
859.13	4459
859.263	4535
859.396	4588
859.529	4516
859.662	4550
859.795	4573
859.928	4584
860.061	4706
860.194	4744
860.327	4630
860.46	4683
860.592	4740
860.725	4759
860.858	4805
860.99	4668
861.123	4653
861.256	4721
861.388	4797
861.521	5452
861.653	4809
861.786	4714
861.918	4782
862.05	4805
862.183	4896
862.315	4866
862.447	4915
862.58	4934
862.712	4771
862.844	4790
862.976	4923
863.108	4862
863.24	5254
863.372	4790
863.504	4904
863.636	4946
863.768	4991
863.9	4946
864.032	4934
864.164	4919
864.296	5048
864.428	5094
864.559	5140
864.691	5151
864.823	5143
864.954	5113
865.086	5136
865.217	5132
865.349	5117
865.48	5178
865.612	5162
865.743	5280
865.875	5193
866.006	5193
866.137	5269
866.269	5242
866.4	5284
866.531	5235
866.662	5242
866.793	5223
866.924	5284
867.055	5315
867.186	5311
867.317	5349
867.448	5334
867.579	5376
867.71	5349
867.841	5372
867.972	5398
868.103	5482
868.233	5448
868.364	5535
868.495	5524
868.625	5707
868.756	5817
868.886	5668
869.017	5707
869.147	5824
869.278	5878
869.408	5836
869.539	5863
869.669	5958
869.799	5908
869.929	6015
870.06	6019
870.19	6197
870.32	6239
870.45	6300
870.58	6296
870.71	6456
870.84	6513
870.97	6471
871.1	6418
871.23	6620
871.36	6722
871.489	6688
871.619	6772
871.749	6837
871.879	6894
872.008	6973
872.138	7004
872.267	6962
872.397	7015
872.526	7008
872.656	7050
872.785	7240
872.915	7324
873.044	7502
873.173	7643
873.303	7643
873.432	7780
873.561	7917
873.69	7860
873.819	8005
873.948	8187
874.077	8309
874.206	8328
874.335	8374
874.464	8667
874.593	8868
874.722	8845
874.851	9104
874.979	9230
875.108	9462
875.237	9370
875.365	9507
875.494	9663
875.623	9740
875.751	9892
875.88	10055
876.008	10128
876.136	10287
876.265	10573
876.393	10702
876.521	10694
876.65	10782
876.778	10942
876.906	10968
877.034	11018
877.162	11105
877.29	11166
877.418	11254
877.546	11398
877.674	11433
877.802	11547
877.93	11539
878.058	11604
878.185	11653
878.313	11676
878.441	11798
878.568	11562
878.696	11836
878.824	11824
878.951	11969
879.079	12041
879.206	12182
879.333	11999
879.461	11992
879.588	12125
879.715	12102
879.842	12266
879.97	12133
880.097	11893
880.224	11828
880.351	11912
880.478	11901
880.605	11863
880.732	11870
880.859	12087
880.986	11794
881.112	11843
881.239	11821
881.366	11748
881.493	11642
881.619	11516
881.746	11562
881.872	11543
881.999	11505
882.125	11520
882.252	11551
882.378	11497
882.505	11630
882.631	11368
882.757	11277
882.883	11284
883.01	11223
883.136	11162
883.262	11124
883.388	11151
883.514	11292
883.64	11174
883.766	11064
883.892	10965
884.018	10987
884.143	10991
884.269	11086
884.395	10858
884.52	10771
884.646	10816
884.772	10714
884.897	10714
885.023	10691
885.148	10683
885.274	10767
885.399	10687
885.524	10637
885.65	10592
885.775	10603
885.9	10596
886.025	10592
886.15	10615
886.275	10489
886.4	10413
886.525	10485
886.65	10337
886.775	10356
886.9	10527
887.025	10626
887.149	10443
887.274	10188
887.399	10227
887.523	10101
887.648	10200
887.773	10147
887.897	10135
888.021	10246
888.146	10147
888.27	10268
888.395	10253
888.519	10135
888.643	10265
888.767	10219
888.891	10044
889.015	10021
889.139	10013
889.263	9998
889.387	10147
889.511	10173
889.635	10109
889.759	9994
889.883	9945
890.006	9934
890.13	10131
890.254	9964
890.377	9895
890.501	9918
890.624	9880
890.748	9888
890.871	9800
890.995	9804
891.118	9743
891.241	9774
891.364	9766
891.488	9884
891.611	9804
891.734	9728
891.857	9842
891.98	9720
892.103	9812
892.226	9751
892.349	9694
892.471	9564
892.594	9580
892.717	9614
892.839	9530
892.962	9652
893.085	9663
893.207	9530
893.33	9492
893.452	9526
893.575	9553
893.697	9542
893.819	9660
893.941	9622
894.064	9599
894.186	9492
894.308	9466
894.43	9511
894.552	9648
894.674	9515
894.796	9370
894.918	9363
895.04	9325
895.161	9397
895.283	9367
895.405	9329
895.526	9268
895.648	9222
895.769	9260
895.891	9218
896.012	9313
896.134	9180
896.255	9203
896.376	9097
896.498	9188
896.619	9100
896.74	9108
896.861	9077
896.982	9291
897.103	9336
897.224	9230
897.345	9116
897.466	9070
897.587	9032
897.708	9150
897.828	9066
897.949	8975
898.07	8883
898.19	8933
898.311	8937
898.431	8925
898.552	8990
898.672	9070
898.792	8956
898.913	8944
899.033	8758
899.153	8716
899.273	8739
899.393	8697
899.513	8750
899.633	8773
899.753	8731
899.873	8663
899.993	8727
900.113	8758
900.232	8762
900.352	8697
900.472	8644
900.591	8606
900.711	8655
900.83	8537
900.95	8705
901.069	8724
901.189	8575
901.308	8473
901.427	8450
901.546	8461
901.665	8518
901.784	8495
901.904	8415
902.023	8358
902.141	8248
902.26	8233
902.379	8313
902.498	8187
902.617	8191
902.735	8336
902.854	8263
902.973	8244
903.091	8138
903.21	8111
903.328	8199
903.446	8096
903.565	8100
903.683	8123
903.801	8031
903.919	8062
904.038	8164
904.156	8039
904.274	8111
904.392	8096
904.51	8069
904.627	8039
904.745	8096
904.863	8088
904.981	7909
905.098	7864
905.216	7894
905.334	7875
905.451	7879
905.569	7887
905.686	7875
905.803	7868
905.921	7772
906.038	7852
906.155	7811
906.272	7780
906.389	7708
906.506	7643
906.623	7655
906.74	7620
906.857	7590
906.974	7601
907.091	7662
907.208	7723
907.324	7628
907.441	7578
907.557	7434
907.674	7472
907.79	7411
907.907	7434
908.023	7487
908.139	7445
908.256	7422
908.372	7365
908.488	7331
908.604	7255
908.72	7282
908.836	7213
908.952	7301
909.068	7263
909.184	7350
909.3	7312
909.415	7312
909.531	7297
909.647	7118
909.762	7133
909.878	7095
909.993	7118
910.108	7118
910.224	7129
910.339	7107
910.454	7019
910.57	7027
910.685	6939
910.8	7156
910.915	7069
911.03	6993
911.145	6935
911.259	6928
911.374	6916
911.489	6897
911.604	6833
911.718	6738
911.833	6696
911.947	6620
912.062	6620
912.176	6749
912.291	6772
912.405	6658
912.519	6878
912.633	6840
912.748	6734
912.862	6741
912.976	6608
913.09	6513
913.204	6578
913.318	6700
913.431	6631
913.545	6650
913.659	6783
913.772	6650
913.886	6570
914	6551
914.113	6646
914.226	6593
914.34	6574
914.453	6532
914.566	6593
914.68	6555
914.793	6502
914.906	6395
915.019	6384
915.132	6384
915.245	6414
915.358	6410
915.47	6403
915.583	6460
915.696	6467
915.809	6506
915.921	6540
916.034	6433
916.146	6448
916.259	6380
916.371	6494
916.483	6433
916.595	6395
916.708	6380
916.82	6365
916.932	6384
917.044	6426
917.156	6353
917.268	6254
917.38	6338
917.491	6346
917.603	6357
917.715	6410
917.826	6441
917.938	6334
918.049	6296
918.161	6376
918.272	6395
918.384	6433
918.495	6353
918.606	6224
918.717	6258
918.828	6273
918.939	6304
919.05	6201
919.161	6247
919.272	6163
919.383	6155
919.494	6273
919.604	6422
919.715	6323
919.826	6220
919.936	6270
920.047	6350
920.157	6289
920.267	6452
920.378	6399
920.488	6315
920.598	6437
920.708	6502
920.818	6494
920.928	6467
921.038	6700
921.148	6585
921.258	6410
921.368	6350
921.477	6220
921.587	6133
921.697	6136
921.806	6182
921.916	6091
922.025	5954
922.134	5931
922.244	5859
922.353	5942
922.462	5923
922.571	5844
922.68	5657
922.789	5707
922.898	5718
923.007	5642
923.116	5657
923.224	5627
923.333	5691
923.442	5570
923.55	5608
923.659	5649
923.767	5642
923.876	5501
923.984	5596
924.092	5520
924.201	5585
924.309	5520
924.417	5520
924.525	5478
924.633	5524
924.741	6296
924.849	5376
924.956	5497
925.064	5414
925.172	5337
925.279	5322
925.387	5376
925.494	5398
925.602	5429
925.709	5376
925.816	5269
925.924	5311
926.031	5364
926.138	5315
926.245	5311
926.352	5204
926.459	5315
926.566	5345
926.673	5201
926.779	5083
926.886	5162
926.993	5025
927.099	5037
927.206	4938
927.312	4911
927.419	5018
927.525	4972
927.631	5022
927.737	4896
927.843	4847
927.95	4797
928.056	4782
928.162	4816
928.267	4858
928.373	5387
928.479	4835
928.585	4702
928.69	4782
928.796	4793
928.901	4675
929.007	4573
929.112	4759
929.218	4618
929.323	4592
929.428	4554
929.533	4668
929.638	4459
929.743	4535
929.848	4561
929.953	4531
930.058	4432
930.163	4417
930.267	4371
930.372	4409
930.477	4329
930.581	4478
930.685	4348
930.79	4310
930.894	4314
930.998	4291
931.103	4360
931.207	4139
931.311	4097
931.415	4067
931.519	3964
931.623	3960
