Data from glass_V78500241_1932.txt Node
Date: Wed Sep 01 19:27:53 CST 2021
User: usil
Spectrometer: V785-0024
Trigger mode: 0
Integration Time (sec): 4.000000E-1
Scans to average: 1
Nonlinearity correction enabled: false
Boxcar width: 0
Storing dark spectrum: false
XAxis mode: Wavelengths
Number of Pixels in Spectrum: 1024
>>>>>Begin Spectral Data<<<<<
801.071	3717
801.214	3732
801.356	3713
801.499	3720
801.641	3759
801.783	3781
801.926	3831
802.068	3835
802.211	3876
802.353	3884
802.496	3842
802.638	3857
802.78	3953
802.923	3922
803.065	3922
803.208	3873
803.35	3854
803.492	3903
803.635	3953
803.777	3781
803.919	3876
804.061	4139
804.204	3994
804.346	3956
804.488	3880
804.63	4029
804.773	3956
804.915	4025
805.057	4135
805.199	4082
805.341	4093
805.483	4131
805.626	4150
805.768	4139
805.91	4238
806.052	4230
806.194	4177
806.336	4363
806.478	4177
806.62	4196
806.762	4192
806.904	4219
807.046	4348
807.188	4238
807.33	4185
807.472	4242
807.614	4204
807.756	4253
807.898	4188
808.04	4246
808.182	4291
808.324	4306
808.465	4360
808.607	4421
808.749	4481
808.891	4466
809.033	4527
809.174	4352
809.316	4265
809.458	4230
809.6	4181
809.741	4162
809.883	4131
810.025	4207
810.166	4227
810.308	4188
810.45	4242
810.591	4204
810.733	4287
810.875	4512
811.016	4828
811.158	5113
811.299	5303
811.441	5235
811.582	5018
811.724	4668
811.865	4459
812.007	4489
812.148	4409
812.29	4386
812.431	4386
812.573	4428
812.714	4363
812.855	4421
812.997	4455
813.138	4485
813.279	4447
813.421	4360
813.562	4383
813.703	4314
813.845	4329
813.986	4227
814.127	4246
814.268	4276
814.41	4249
814.551	4223
814.692	4333
814.833	4253
814.974	4261
815.115	4398
815.256	4268
815.397	4249
815.539	4246
815.68	4192
815.821	4207
815.962	4333
816.103	4291
816.244	4230
816.385	4246
816.526	4276
816.666	4177
816.807	4150
816.948	4158
817.089	4185
817.23	4120
817.371	4032
817.512	4017
817.653	4051
817.793	3991
817.934	4063
818.075	4120
818.216	4112
818.356	4074
818.497	3983
818.638	3949
818.778	3876
818.919	3880
819.06	3838
819.2	3926
819.341	3838
819.481	3842
819.622	3922
819.762	4021
819.903	3975
820.043	3880
820.184	3778
820.324	3850
820.465	3888
820.605	3831
820.746	3869
820.886	3808
821.026	3884
821.167	3899
821.307	3979
821.447	3956
821.588	3926
821.728	3960
821.868	3907
822.008	3869
822.149	3903
822.289	3922
822.429	3736
822.569	3736
822.709	3838
822.849	3694
822.99	3705
823.13	3751
823.27	3785
823.41	3705
823.55	3751
823.69	3732
823.83	3778
823.97	3637
824.11	3622
824.25	3572
824.389	3633
824.529	3701
824.669	3625
824.809	3728
824.949	3770
825.089	3717
825.228	3675
825.368	3572
825.508	3561
825.648	3564
825.787	3587
825.927	3629
826.067	3606
826.206	3679
826.346	3732
826.485	3846
826.625	3823
826.765	3907
826.904	3785
827.044	3637
827.183	3515
827.323	3412
827.462	3477
827.601	3439
827.741	3409
827.88	3462
828.02	3363
828.159	3477
828.298	3530
828.437	3534
828.577	3485
828.716	3584
828.855	3481
828.994	3386
829.134	3351
829.273	3348
829.412	3332
829.551	3351
829.69	3382
829.829	3420
829.968	3519
830.107	3477
830.246	3405
830.385	3359
830.524	3344
830.663	3306
830.802	3222
830.941	3184
831.08	3157
831.219	3249
831.357	3272
831.496	3401
831.635	3237
831.774	3173
831.913	3188
832.051	3146
832.19	3150
832.329	3195
832.467	3127
832.606	3089
832.744	3161
832.883	3173
833.022	3203
833.16	3226
833.299	3291
833.437	3310
833.576	3378
833.714	3393
833.852	3416
833.991	3439
834.129	3488
834.267	3458
834.406	3386
834.544	3397
834.682	3401
834.821	3416
834.959	3564
835.097	3416
835.235	3496
835.373	3511
835.511	3507
835.65	3447
835.788	3458
835.926	3351
836.064	3370
836.202	3416
836.34	3606
836.478	3587
836.615	3507
836.753	3564
836.891	3595
837.029	3618
837.167	3629
837.305	3553
837.443	3545
837.58	3504
837.718	3591
837.856	3557
837.993	3564
838.131	3576
838.269	3572
838.406	3572
838.544	3549
838.681	3450
838.819	3393
838.956	3382
839.094	3382
839.231	3450
839.369	3507
839.506	3713
839.643	3625
839.781	3481
839.918	3462
840.055	3500
840.193	3553
840.33	3557
840.467	3584
840.604	3618
840.742	3797
840.879	3572
841.016	3568
841.153	3610
841.29	3732
841.427	3694
841.564	3717
841.701	3751
841.838	3720
841.975	3663
842.112	3713
842.249	3637
842.385	3614
842.522	3793
842.659	3686
842.796	3701
842.933	3682
843.069	3682
843.206	3705
843.343	3827
843.479	3789
843.616	3816
843.752	3682
843.889	3637
844.025	3812
844.162	3701
844.298	3850
844.435	3800
844.571	3804
844.708	3876
844.844	3956
844.98	3994
845.117	3956
845.253	3930
845.389	3892
845.525	3945
845.661	3964
845.798	3922
845.934	3998
846.07	3964
846.206	4048
846.342	4116
846.478	4055
846.614	3922
846.75	3941
846.886	3930
847.022	4006
847.158	3991
847.294	4002
847.429	3987
847.565	3937
847.701	4204
847.837	3888
847.972	3854
848.108	3968
848.244	3979
848.379	3842
848.515	3857
848.65	3854
848.786	3819
848.921	3816
849.057	3937
849.192	3911
849.328	3884
849.463	3896
849.598	3873
849.734	3850
849.869	3854
850.004	3778
850.14	3819
850.275	3781
850.41	3740
850.545	3740
850.68	3800
850.815	3797
850.95	3789
851.085	3945
851.22	3865
851.355	3827
851.49	3778
851.625	3793
851.76	3823
851.895	3682
852.03	3701
852.165	3816
852.299	3850
852.434	3880
852.569	3831
852.703	3861
852.838	3953
852.973	4010
853.107	3998
853.242	3915
853.376	3827
853.511	3762
853.645	3838
853.78	3991
853.914	3922
854.048	3884
854.183	3907
854.317	3949
854.451	4044
854.585	3930
854.72	3934
854.854	4055
854.988	3941
855.122	3972
855.256	3915
855.39	4006
855.524	4112
855.658	4067
855.792	4105
855.926	4135
856.06	4139
856.194	4177
856.327	4135
856.461	4120
856.595	4143
856.729	4177
856.862	4257
856.996	4219
857.13	4329
857.263	4318
857.397	4390
857.53	4333
857.664	4344
857.797	4371
857.931	4421
858.064	4348
858.197	4485
858.331	4394
858.464	4417
858.597	4341
858.731	4470
858.864	4455
858.997	4470
859.13	4504
859.263	4550
859.396	4607
859.529	4546
859.662	4565
859.795	4546
859.928	4577
860.061	4698
860.194	4714
860.327	4660
860.46	4637
860.592	4763
860.725	4736
860.858	4801
860.99	4691
861.123	4679
861.256	4706
861.388	4759
861.521	5376
861.653	4759
861.786	4706
861.918	4714
862.05	4790
862.183	4873
862.315	4892
862.447	4934
862.58	4873
862.712	4767
862.844	4843
862.976	4866
863.108	4858
863.24	5170
863.372	4816
863.504	4930
863.636	4866
863.768	4976
863.9	4938
864.032	4942
864.164	4968
864.296	5003
864.428	5105
864.559	5147
864.691	5094
864.823	5132
864.954	5117
865.086	5090
865.217	5166
865.349	5090
865.48	5174
865.612	5197
865.743	5288
865.875	5197
866.006	5170
866.137	5189
866.269	5227
866.4	5208
866.531	5284
866.662	5246
866.793	5231
866.924	5284
867.055	5334
867.186	5315
867.317	5364
867.448	5296
867.579	5425
867.71	5383
867.841	5398
867.972	5421
868.103	5482
868.233	5516
868.364	5478
868.495	5528
868.625	5615
868.756	5767
868.886	5688
869.017	5714
869.147	5844
869.278	5878
869.408	5840
869.539	5771
869.669	5920
869.799	5942
869.929	5996
870.06	6038
870.19	6167
870.32	6186
870.45	6262
870.58	6331
870.71	6437
870.84	6433
870.97	6407
871.1	6437
871.23	6639
871.36	6669
871.489	6612
871.619	6741
871.749	6753
871.879	6837
872.008	6932
872.138	6905
872.267	6996
872.397	6943
872.526	7050
872.656	7076
872.785	7232
872.915	7354
873.044	7518
873.173	7468
873.303	7639
873.432	7780
873.561	7799
873.69	7921
873.819	7993
873.948	8153
874.077	8237
874.206	8259
874.335	8465
874.464	8594
874.593	8868
874.722	8895
874.851	9127
874.979	9214
875.108	9386
875.237	9325
875.365	9424
875.494	9644
875.623	9854
875.751	9812
875.88	10021
876.008	10093
876.136	10280
876.265	10474
876.393	10660
876.521	10729
876.65	10828
876.778	10820
876.906	10946
877.034	10953
877.162	11067
877.29	11140
877.418	11220
877.546	11376
877.674	11486
877.802	11532
877.93	11539
878.058	11611
878.185	11501
878.313	11642
878.441	11726
878.568	11657
878.696	11752
878.824	11828
878.951	11931
879.079	11984
879.206	12133
879.333	12068
879.461	11961
879.588	12038
879.715	12121
879.842	12228
879.97	12003
880.097	11866
880.224	11942
880.351	11920
880.478	11920
880.605	11802
880.732	11764
880.859	11996
880.986	11840
881.112	11836
881.239	11684
881.366	11657
881.493	11676
881.619	11497
881.746	11600
881.872	11448
881.999	11490
882.125	11547
882.252	11493
882.378	11505
882.505	11554
882.631	11440
882.757	11254
882.883	11353
883.01	11235
883.136	11235
883.262	11113
883.388	11193
883.514	11166
883.64	11185
883.766	11102
883.892	11003
884.018	10877
884.143	11064
884.269	11105
884.395	10843
884.52	10698
884.646	10797
884.772	10755
884.897	10558
885.023	10729
885.148	10641
885.274	10706
885.399	10687
885.524	10641
885.65	10603
885.775	10550
885.9	10569
886.025	10618
886.15	10569
886.275	10466
886.4	10333
886.525	10325
886.65	10409
886.775	10394
886.9	10558
887.025	10538
887.149	10341
887.274	10261
887.399	10215
887.523	10143
887.648	10169
887.773	10139
887.897	10314
888.021	10135
888.146	10105
888.27	10204
888.395	10246
888.519	10223
888.643	10211
888.767	10196
888.891	10055
889.015	10040
889.139	10021
889.263	9987
889.387	10032
889.511	10063
889.635	10013
889.759	9949
889.883	9854
890.006	9983
890.13	10025
890.254	9880
890.377	9949
890.501	9774
890.624	9850
890.748	9953
890.871	9770
890.995	9812
891.118	9698
891.241	9728
891.364	9713
891.488	9869
891.611	9770
891.734	9759
891.857	9755
891.98	9766
892.103	9675
892.226	9705
892.349	9751
892.471	9530
892.594	9591
892.717	9530
892.839	9644
892.962	9599
893.085	9622
893.207	9526
893.33	9496
893.452	9545
893.575	9656
893.697	9454
893.819	9637
893.941	9622
894.064	9545
894.186	9488
894.308	9431
894.43	9454
894.552	9572
894.674	9504
894.796	9332
894.918	9340
895.04	9340
895.161	9378
895.283	9389
895.405	9253
895.526	9275
895.648	9199
895.769	9123
895.891	9279
896.012	9245
896.134	9237
896.255	9138
896.376	9161
896.498	9119
896.619	9211
896.74	9138
896.861	9100
896.982	9260
897.103	9332
897.224	9173
897.345	9085
897.466	9017
897.587	8998
897.708	9097
897.828	8998
897.949	8979
898.07	8838
898.19	8864
898.311	9005
898.431	8979
898.552	8899
898.672	8960
898.792	8902
898.913	8960
899.033	8823
899.153	8693
899.273	8629
899.393	8697
899.513	8762
899.633	8800
899.753	8777
899.873	8667
899.993	8743
900.113	8762
900.232	8712
900.352	8629
900.472	8613
900.591	8579
900.711	8606
900.83	8552
900.95	8701
901.069	8632
901.189	8526
901.308	8412
901.427	8396
901.546	8381
901.665	8469
901.784	8522
901.904	8362
902.023	8263
902.141	8218
902.26	8161
902.379	8286
902.498	8180
902.617	8221
902.735	8202
902.854	8328
902.973	8195
903.091	8119
903.21	8134
903.328	8176
903.446	8157
903.565	8157
903.683	8081
903.801	8084
903.919	8073
904.038	8073
904.156	8050
904.274	8054
904.392	8027
904.51	7894
904.627	8077
904.745	8073
904.863	8092
904.981	7906
905.098	7799
905.216	7967
905.334	7845
905.451	7860
905.569	7875
905.686	7894
905.803	7849
905.921	7750
906.038	7940
906.155	7776
906.272	7681
906.389	7723
906.506	7575
906.623	7563
906.74	7620
906.857	7590
906.974	7597
907.091	7681
907.208	7719
907.324	7670
907.441	7594
907.557	7415
907.674	7415
907.79	7396
907.907	7415
908.023	7460
908.139	7403
908.256	7320
908.372	7400
908.488	7327
908.604	7324
908.72	7217
908.836	7278
908.952	7244
909.068	7217
909.184	7255
909.3	7278
909.415	7297
909.531	7228
909.647	7122
909.762	7084
909.878	7107
909.993	7114
910.108	7114
910.224	7103
910.339	7019
910.454	7080
910.57	7012
910.685	6932
910.8	7168
910.915	7080
911.03	7034
911.145	6897
911.259	6821
911.374	6905
911.489	6878
911.604	6783
911.718	6726
911.833	6722
911.947	6639
912.062	6616
912.176	6681
912.291	6730
912.405	6783
912.519	6791
912.633	6871
912.748	6707
912.862	6749
912.976	6604
913.09	6498
913.204	6582
913.318	6635
913.431	6604
913.545	6677
913.659	6760
913.772	6658
913.886	6597
914	6513
914.113	6612
914.226	6574
914.34	6578
914.453	6475
914.566	6574
914.68	6498
914.793	6509
914.906	6391
915.019	6388
915.132	6338
915.245	6422
915.358	6426
915.47	6460
915.583	6475
915.696	6403
915.809	6509
915.921	6608
916.034	6456
916.146	6403
916.259	6395
916.371	6471
916.483	6441
916.595	6448
916.708	6365
916.82	6388
916.932	6391
917.044	6414
917.156	6388
917.268	6388
917.38	6342
917.491	6384
917.603	6350
917.715	6399
917.826	6441
917.938	6365
918.049	6273
918.161	6376
918.272	6422
918.384	6395
918.495	6342
918.606	6239
918.717	6216
918.828	6254
918.939	6228
919.05	6186
919.161	6235
919.272	6110
919.383	6232
919.494	6315
919.604	6452
919.715	6289
919.826	6194
919.936	6232
920.047	6323
920.157	6311
920.267	6467
920.378	6304
920.488	6258
920.598	6448
920.708	6536
920.818	6418
920.928	6460
921.038	6597
921.148	6604
921.258	6338
921.368	6296
921.477	6182
921.587	6171
921.697	6148
921.806	6140
921.916	6114
922.025	5973
922.134	5950
922.244	5866
922.353	5984
922.462	5882
922.571	5752
922.68	5718
922.789	5688
922.898	5676
923.007	5665
923.116	5745
923.224	5611
923.333	5668
923.442	5600
923.55	5592
923.659	5600
923.767	5592
923.876	5566
923.984	5619
924.092	5452
924.201	5566
924.309	5520
924.417	5505
924.525	5505
924.633	5474
924.741	6277
924.849	5402
924.956	5455
925.064	5337
925.172	5341
925.279	5303
925.387	5383
925.494	5322
925.602	5433
925.709	5364
925.816	5311
925.924	5318
926.031	5402
926.138	5337
926.245	5322
926.352	5220
926.459	5284
926.566	5315
926.673	5204
926.779	5151
926.886	5124
926.993	5098
927.099	4991
927.206	4938
927.312	4942
927.419	5022
927.525	5003
927.631	5003
927.737	4892
927.843	4843
927.95	4778
928.056	4824
928.162	4839
928.267	4862
928.373	5345
928.479	4858
928.585	4675
928.69	4805
928.796	4759
928.901	4675
929.007	4573
929.112	4656
929.218	4622
929.323	4596
929.428	4497
929.533	4683
929.638	4462
929.743	4615
929.848	4546
929.953	4462
930.058	4405
930.163	4341
930.267	4375
930.372	4424
930.477	4291
930.581	4462
930.685	4356
930.79	4272
930.894	4227
930.998	4249
931.103	4371
931.207	4124
931.311	4071
931.415	4044
931.519	3956
931.623	3930
