Data from glass_V78500241_2668.txt Node
Date: Wed Sep 01 19:32:59 CST 2021
User: usil
Spectrometer: V785-0024
Trigger mode: 0
Integration Time (sec): 4.000000E-1
Scans to average: 1
Nonlinearity correction enabled: false
Boxcar width: 0
Storing dark spectrum: false
XAxis mode: Wavelengths
Number of Pixels in Spectrum: 1024
>>>>>Begin Spectral Data<<<<<
801.071	3751
801.214	3732
801.356	3686
801.499	3747
801.641	3709
801.783	3774
801.926	3831
802.068	3831
802.211	3827
802.353	3850
802.496	3793
802.638	3880
802.78	3937
802.923	3930
803.065	3892
803.208	3831
803.35	3884
803.492	3884
803.635	3915
803.777	3816
803.919	3865
804.061	4166
804.204	3960
804.346	3949
804.488	3884
804.63	4029
804.773	3930
804.915	3975
805.057	4166
805.199	3994
805.341	4074
805.483	4169
805.626	4162
805.768	4090
805.91	4207
806.052	4215
806.194	4211
806.336	4341
806.478	4215
806.62	4143
806.762	4242
806.904	4249
807.046	4333
807.188	4207
807.33	4173
807.472	4227
807.614	4135
807.756	4246
807.898	4196
808.04	4154
808.182	4257
808.324	4322
808.465	4356
808.607	4459
808.749	4394
808.891	4462
809.033	4478
809.174	4383
809.316	4280
809.458	4204
809.6	4162
809.741	4196
809.883	4154
810.025	4131
810.166	4185
810.308	4177
810.45	4192
810.591	4211
810.733	4295
810.875	4500
811.016	4793
811.158	5109
811.299	5292
811.441	5296
811.582	5018
811.724	4641
811.865	4462
812.007	4447
812.148	4462
812.29	4440
812.431	4413
812.573	4440
812.714	4421
812.855	4390
812.997	4402
813.138	4451
813.279	4348
813.421	4322
813.562	4356
813.703	4318
813.845	4352
813.986	4207
814.127	4185
814.268	4238
814.41	4306
814.551	4249
814.692	4291
814.833	4265
814.974	4306
815.115	4344
815.256	4249
815.397	4185
815.539	4211
815.68	4192
815.821	4223
815.962	4284
816.103	4257
816.244	4230
816.385	4196
816.526	4257
816.666	4188
816.807	4143
816.948	4162
817.089	4154
817.23	4078
817.371	4036
817.512	4055
817.653	4074
817.793	4059
817.934	4032
818.075	4067
818.216	4040
818.356	4078
818.497	3979
818.638	3899
818.778	3899
818.919	3880
819.06	3899
819.2	3842
819.341	3846
819.481	3835
819.622	3907
819.762	3979
819.903	4010
820.043	3835
820.184	3762
820.324	3804
820.465	3827
820.605	3857
820.746	3842
820.886	3785
821.026	3869
821.167	3903
821.307	3972
821.447	3922
821.588	3968
821.728	3956
821.868	3907
822.008	3831
822.149	3922
822.289	3911
822.429	3732
822.569	3759
822.709	3770
822.849	3660
822.99	3701
823.13	3762
823.27	3766
823.41	3720
823.55	3667
823.69	3717
823.83	3720
823.97	3705
824.11	3599
824.25	3572
824.389	3625
824.529	3671
824.669	3584
824.809	3694
824.949	3686
825.089	3717
825.228	3682
825.368	3576
825.508	3511
825.648	3599
825.787	3603
825.927	3599
826.067	3599
826.206	3675
826.346	3800
826.485	3808
826.625	3835
826.765	3937
826.904	3838
827.044	3591
827.183	3504
827.323	3454
827.462	3458
827.601	3412
827.741	3447
827.88	3454
828.02	3393
828.159	3439
828.298	3481
828.437	3530
828.577	3439
828.716	3576
828.855	3477
828.994	3374
829.134	3382
829.273	3378
829.412	3340
829.551	3310
829.69	3378
829.829	3439
829.968	3488
830.107	3443
830.246	3416
830.385	3386
830.524	3336
830.663	3298
830.802	3233
830.941	3211
831.08	3165
831.219	3222
831.357	3222
831.496	3428
831.635	3214
831.774	3211
831.913	3207
832.051	3097
832.19	3146
832.329	3184
832.467	3131
832.606	3135
832.744	3161
832.883	3123
833.022	3169
833.16	3218
833.299	3321
833.437	3317
833.576	3359
833.714	3386
833.852	3428
833.991	3424
834.129	3428
834.267	3416
834.406	3416
834.544	3348
834.682	3389
834.821	3386
834.959	3557
835.097	3439
835.235	3477
835.373	3447
835.511	3496
835.65	3439
835.788	3450
835.926	3393
836.064	3325
836.202	3378
836.34	3584
836.478	3625
836.615	3515
836.753	3545
836.891	3572
837.029	3576
837.167	3584
837.305	3523
837.443	3534
837.58	3500
837.718	3606
837.856	3534
837.993	3530
838.131	3603
838.269	3580
838.406	3553
838.544	3610
838.681	3469
838.819	3409
838.956	3355
839.094	3389
839.231	3443
839.369	3523
839.506	3709
839.643	3618
839.781	3473
839.918	3477
840.055	3511
840.193	3500
840.33	3492
840.467	3530
840.604	3572
840.742	3819
840.879	3534
841.016	3542
841.153	3568
841.29	3781
841.427	3698
841.564	3709
841.701	3709
841.838	3675
841.975	3656
842.112	3713
842.249	3633
842.385	3641
842.522	3808
842.659	3705
842.796	3667
842.933	3652
843.069	3713
843.206	3698
843.343	3743
843.479	3755
843.616	3804
843.752	3671
843.889	3701
844.025	3873
844.162	3694
844.298	3800
844.435	3762
844.571	3800
844.708	3884
844.844	3941
844.98	3991
845.117	3956
845.253	3876
845.389	3873
845.525	3953
845.661	3975
845.798	3896
845.934	3975
846.07	3960
846.206	4029
846.342	4086
846.478	4055
846.614	3930
846.75	3949
846.886	3930
847.022	4029
847.158	3941
847.294	3998
847.429	3994
847.565	3998
847.701	4169
847.837	3857
847.972	3823
848.108	3975
848.244	3956
848.379	3873
848.515	3831
848.65	3781
848.786	3835
848.921	3854
849.057	3896
849.192	3968
849.328	3884
849.463	3873
849.598	3846
849.734	3850
849.869	3857
850.004	3766
850.14	3861
850.275	3774
850.41	3740
850.545	3709
850.68	3762
850.815	3770
850.95	3804
851.085	3903
851.22	3873
851.355	3831
851.49	3740
851.625	3743
851.76	3808
851.895	3713
852.03	3724
852.165	3819
852.299	3816
852.434	3857
852.569	3842
852.703	3876
852.838	3960
852.973	4063
853.107	3998
853.242	3850
853.376	3823
853.511	3793
853.645	3819
853.78	3953
853.914	3865
854.048	3884
854.183	3884
854.317	3926
854.451	4067
854.585	3945
854.72	3972
854.854	4032
854.988	3899
855.122	4017
855.256	3930
855.39	4036
855.524	4101
855.658	4093
855.792	4082
855.926	4143
856.06	4166
856.194	4204
856.327	4154
856.461	4097
856.595	4147
856.729	4162
856.862	4276
856.996	4234
857.13	4265
857.263	4299
857.397	4329
857.53	4299
857.664	4341
857.797	4352
857.931	4375
858.064	4356
858.197	4421
858.331	4386
858.464	4383
858.597	4272
858.731	4402
858.864	4500
858.997	4443
859.13	4481
859.263	4542
859.396	4538
859.529	4523
859.662	4527
859.795	4542
859.928	4577
860.061	4717
860.194	4683
860.327	4675
860.46	4653
860.592	4748
860.725	4744
860.858	4714
860.99	4645
861.123	4660
861.256	4714
861.388	4714
861.521	5406
861.653	4744
861.786	4729
861.918	4653
862.05	4748
862.183	4812
862.315	4889
862.447	4934
862.58	4843
862.712	4740
862.844	4759
862.976	4870
863.108	4858
863.24	5227
863.372	4858
863.504	4896
863.636	4919
863.768	4949
863.9	4961
864.032	4938
864.164	4923
864.296	4961
864.428	5067
864.559	5102
864.691	5124
864.823	5140
864.954	5086
865.086	5094
865.217	5102
865.349	5094
865.48	5174
865.612	5201
865.743	5277
865.875	5201
866.006	5162
866.137	5223
866.269	5201
866.4	5220
866.531	5212
866.662	5185
866.793	5273
866.924	5235
867.055	5341
867.186	5296
867.317	5296
867.448	5322
867.579	5353
867.71	5368
867.841	5364
867.972	5379
868.103	5490
868.233	5383
868.364	5478
868.495	5520
868.625	5718
868.756	5764
868.886	5691
869.017	5710
869.147	5893
869.278	5832
869.408	5775
869.539	5802
869.669	5916
869.799	5866
869.929	5935
870.06	6003
870.19	6171
870.32	6152
870.45	6251
870.58	6311
870.71	6502
870.84	6433
870.97	6437
871.1	6433
871.23	6654
871.36	6646
871.489	6639
871.619	6681
871.749	6768
871.879	6814
872.008	6958
872.138	6901
872.267	7000
872.397	7019
872.526	6985
872.656	7080
872.785	7118
872.915	7308
873.044	7483
873.173	7533
873.303	7647
873.432	7769
873.561	7826
873.69	7890
873.819	8016
873.948	8153
874.077	8225
874.206	8298
874.335	8328
874.464	8632
874.593	8868
874.722	8906
874.851	9116
874.979	9154
875.108	9310
875.237	9370
875.365	9519
875.494	9648
875.623	9808
875.751	9861
875.88	9960
876.008	10124
876.136	10265
876.265	10478
876.393	10725
876.521	10687
876.65	10793
876.778	10805
876.906	10946
877.034	10900
877.162	11025
877.29	11162
877.418	11360
877.546	11322
877.674	11467
877.802	11387
877.93	11414
878.058	11589
878.185	11585
878.313	11649
878.441	11707
878.568	11646
878.696	11752
878.824	11855
878.951	11863
879.079	12022
879.206	12072
879.333	12034
879.461	11961
879.588	12076
879.715	12034
879.842	12232
879.97	12064
880.097	11904
880.224	11897
880.351	11863
880.478	11931
880.605	11885
880.732	11828
880.859	11984
880.986	11783
881.112	11775
881.239	11752
881.366	11688
881.493	11592
881.619	11535
881.746	11634
881.872	11493
881.999	11459
882.125	11360
882.252	11421
882.378	11512
882.505	11554
882.631	11402
882.757	11284
882.883	11288
883.01	11235
883.136	11242
883.262	11181
883.388	11067
883.514	11162
883.64	11155
883.766	11113
883.892	11117
884.018	10953
884.143	11045
884.269	11083
884.395	10873
884.52	10782
884.646	10771
884.772	10694
884.897	10618
885.023	10668
885.148	10668
885.274	10702
885.399	10653
885.524	10561
885.65	10542
885.775	10527
885.9	10485
886.025	10611
886.15	10516
886.275	10432
886.4	10436
886.525	10440
886.65	10360
886.775	10261
886.9	10481
887.025	10447
887.149	10367
887.274	10227
887.399	10185
887.523	10124
887.648	10131
887.773	10109
887.897	10147
888.021	10204
888.146	10036
888.27	10181
888.395	10173
888.519	10188
888.643	10135
888.767	10265
888.891	10086
889.015	9991
889.139	9937
889.263	10029
889.387	10063
889.511	10074
889.635	10078
889.759	9972
889.883	9937
890.006	10032
890.13	10082
890.254	9998
890.377	9964
890.501	9838
890.624	9831
890.748	9861
890.871	9808
890.995	9827
891.118	9663
891.241	9759
891.364	9724
891.488	9789
891.611	9709
891.734	9679
891.857	9740
891.98	9656
892.103	9713
892.226	9724
892.349	9644
892.471	9496
892.594	9523
892.717	9679
892.839	9618
892.962	9580
893.085	9652
893.207	9587
893.33	9511
893.452	9519
893.575	9584
893.697	9469
893.819	9591
893.941	9572
894.064	9618
894.186	9363
894.308	9382
894.43	9485
894.552	9545
894.674	9530
894.796	9279
894.918	9348
895.04	9405
895.161	9332
895.283	9287
895.405	9272
895.526	9279
895.648	9211
895.769	9157
895.891	9214
896.012	9268
896.134	9226
896.255	9142
896.376	9127
896.498	9085
896.619	9093
896.74	9043
896.861	9150
896.982	9230
897.103	9321
897.224	9123
897.345	9058
897.466	9001
897.587	9013
897.708	9036
897.828	9047
897.949	8941
898.07	8773
898.19	8918
898.311	8956
898.431	8849
898.552	8883
898.672	8941
898.792	8910
898.913	8921
899.033	8743
899.153	8819
899.273	8629
899.393	8731
899.513	8781
899.633	8693
899.753	8758
899.873	8678
899.993	8807
900.113	8667
900.232	8708
900.352	8587
900.472	8560
900.591	8564
900.711	8564
900.83	8556
900.95	8659
901.069	8708
901.189	8552
901.308	8450
901.427	8385
901.546	8457
901.665	8484
901.784	8495
901.904	8389
902.023	8313
902.141	8221
902.26	8183
902.379	8248
902.498	8180
902.617	8195
902.735	8229
902.854	8305
902.973	8237
903.091	8073
903.21	8115
903.328	8145
903.446	8088
903.565	8050
903.683	8046
903.801	8012
903.919	8100
904.038	8065
904.156	7989
904.274	8084
904.392	8103
904.51	7974
904.627	8058
904.745	8043
904.863	8130
904.981	7970
905.098	7799
905.216	7883
905.334	7833
905.451	7879
905.569	7883
905.686	7925
905.803	7902
905.921	7753
906.038	7894
906.155	7731
906.272	7738
906.389	7738
906.506	7647
906.623	7605
906.74	7567
906.857	7563
906.974	7567
907.091	7662
907.208	7712
907.324	7578
907.441	7506
907.557	7400
907.674	7445
907.79	7388
907.907	7381
908.023	7422
908.139	7365
908.256	7384
908.372	7392
908.488	7312
908.604	7263
908.72	7228
908.836	7301
908.952	7244
909.068	7236
909.184	7244
909.3	7206
909.415	7301
909.531	7308
909.647	7141
909.762	7107
909.878	7088
909.993	7065
910.108	7061
910.224	7000
910.339	7137
910.454	6996
910.57	6905
910.685	6954
910.8	7107
910.915	7122
911.03	7012
911.145	6897
911.259	6791
911.374	6844
911.489	6829
911.604	6818
911.718	6715
911.833	6776
911.947	6593
912.062	6612
912.176	6703
912.291	6692
912.405	6730
912.519	6852
912.633	6840
912.748	6642
912.862	6677
912.976	6620
913.09	6509
913.204	6540
913.318	6578
913.431	6696
913.545	6711
913.659	6681
913.772	6646
913.886	6582
914	6540
914.113	6608
914.226	6642
914.34	6547
914.453	6483
914.566	6597
914.68	6582
914.793	6498
914.906	6365
915.019	6369
915.132	6296
915.245	6475
915.358	6418
915.47	6471
915.583	6399
915.696	6494
915.809	6536
915.921	6513
916.034	6380
916.146	6384
916.259	6365
916.371	6517
916.483	6452
916.595	6361
916.708	6426
916.82	6403
916.932	6323
917.044	6346
917.156	6353
917.268	6232
917.38	6361
917.491	6285
917.603	6289
917.715	6361
917.826	6418
917.938	6292
918.049	6201
918.161	6304
918.272	6426
918.384	6395
918.495	6369
918.606	6220
918.717	6213
918.828	6205
918.939	6239
919.05	6194
919.161	6266
919.272	6106
919.383	6201
919.494	6281
919.604	6384
919.715	6296
919.826	6266
919.936	6239
920.047	6338
920.157	6239
920.267	6395
920.378	6308
920.488	6224
920.598	6388
920.708	6559
920.818	6418
920.928	6395
921.038	6635
921.148	6536
921.258	6323
921.368	6281
921.477	6224
921.587	6209
921.697	6095
921.806	6171
921.916	6022
922.025	5969
922.134	5912
922.244	5931
922.353	5904
922.462	5851
922.571	5771
922.68	5726
922.789	5653
922.898	5714
923.007	5573
923.116	5691
923.224	5672
923.333	5676
923.442	5573
923.55	5520
923.659	5608
923.767	5619
923.876	5505
923.984	5566
924.092	5562
924.201	5551
924.309	5516
924.417	5547
924.525	5482
924.633	5474
924.741	6296
924.849	5337
924.956	5444
925.064	5372
925.172	5288
925.279	5258
925.387	5337
925.494	5334
925.602	5421
925.709	5337
925.816	5292
925.924	5299
926.031	5353
926.138	5269
926.245	5307
926.352	5208
926.459	5345
926.566	5315
926.673	5201
926.779	5117
926.886	5151
926.993	5033
927.099	5006
927.206	4991
927.312	4957
927.419	4949
927.525	4968
927.631	4972
927.737	4866
927.843	4885
927.95	4763
928.056	4809
928.162	4797
928.267	4793
928.373	5231
928.479	4824
928.585	4672
928.69	4736
928.796	4774
928.901	4691
929.007	4599
929.112	4660
929.218	4580
929.323	4550
929.428	4535
929.533	4687
929.638	4478
929.743	4554
929.848	4599
929.953	4470
930.058	4443
930.163	4360
930.267	4329
930.372	4432
930.477	4284
930.581	4428
930.685	4318
930.79	4238
930.894	4257
930.998	4272
931.103	4363
931.207	4078
931.311	4055
931.415	4032
931.519	3949
931.623	3937
