Data from glass_V78500241_1093.txt Node
Date: Wed Sep 01 19:22:04 CST 2021
User: usil
Spectrometer: V785-0024
Trigger mode: 0
Integration Time (sec): 4.000000E-1
Scans to average: 1
Nonlinearity correction enabled: false
Boxcar width: 0
Storing dark spectrum: false
XAxis mode: Wavelengths
Number of Pixels in Spectrum: 1024
>>>>>Begin Spectral Data<<<<<
801.071	3736
801.214	3781
801.356	3698
801.499	3720
801.641	3743
801.783	3800
801.926	3888
802.068	3842
802.211	3823
802.353	3915
802.496	3835
802.638	3892
802.78	3865
802.923	3979
803.065	3899
803.208	3869
803.35	3857
803.492	3926
803.635	3907
803.777	3838
803.919	3907
804.061	4162
804.204	3960
804.346	3941
804.488	3892
804.63	4025
804.773	3987
804.915	4032
805.057	4185
805.199	4086
805.341	4074
805.483	4154
805.626	4173
805.768	4128
805.91	4219
806.052	4215
806.194	4223
806.336	4306
806.478	4261
806.62	4207
806.762	4215
806.904	4261
807.046	4363
807.188	4219
807.33	4200
807.472	4257
807.614	4200
807.756	4253
807.898	4185
808.04	4215
808.182	4287
808.324	4329
808.465	4371
808.607	4462
808.749	4421
808.891	4424
809.033	4493
809.174	4383
809.316	4314
809.458	4276
809.6	4185
809.741	4135
809.883	4169
810.025	4192
810.166	4272
810.308	4230
810.45	4234
810.591	4211
810.733	4306
810.875	4493
811.016	4816
811.158	5140
811.299	5269
811.441	5299
811.582	5079
811.724	4672
811.865	4455
812.007	4481
812.148	4417
812.29	4459
812.431	4443
812.573	4428
812.714	4383
812.855	4436
812.997	4413
813.138	4447
813.279	4424
813.421	4409
813.562	4421
813.703	4348
813.845	4360
813.986	4246
814.127	4265
814.268	4280
814.41	4306
814.551	4211
814.692	4367
814.833	4257
814.974	4268
815.115	4318
815.256	4257
815.397	4227
815.539	4207
815.68	4185
815.821	4204
815.962	4299
816.103	4276
816.244	4242
816.385	4280
816.526	4268
816.666	4200
816.807	4143
816.948	4200
817.089	4204
817.23	4090
817.371	4029
817.512	4017
817.653	4097
817.793	4086
817.934	4048
818.075	4093
818.216	4082
818.356	4116
818.497	4032
818.638	3949
818.778	3937
818.919	3903
819.06	3903
819.2	3945
819.341	3869
819.481	3876
819.622	3911
819.762	4017
819.903	3941
820.043	3850
820.184	3846
820.324	3846
820.465	3846
820.605	3846
820.746	3880
820.886	3793
821.026	3896
821.167	3869
821.307	3983
821.447	4006
821.588	3945
821.728	3968
821.868	3945
822.008	3873
822.149	3953
822.289	3899
822.429	3781
822.569	3797
822.709	3831
822.849	3774
822.99	3747
823.13	3778
823.27	3770
823.41	3751
823.55	3728
823.69	3717
823.83	3717
823.97	3686
824.11	3625
824.25	3625
824.389	3656
824.529	3660
824.669	3682
824.809	3755
824.949	3785
825.089	3751
825.228	3686
825.368	3576
825.508	3549
825.648	3568
825.787	3648
825.927	3663
826.067	3618
826.206	3694
826.346	3793
826.485	3857
826.625	3850
826.765	3991
826.904	3865
827.044	3595
827.183	3549
827.323	3439
827.462	3496
827.601	3450
827.741	3469
827.88	3450
828.02	3401
828.159	3466
828.298	3515
828.437	3576
828.577	3492
828.716	3587
828.855	3526
828.994	3359
829.134	3401
829.273	3386
829.412	3359
829.551	3370
829.69	3370
829.829	3439
829.968	3523
830.107	3454
830.246	3447
830.385	3374
830.524	3370
830.663	3329
830.802	3268
830.941	3230
831.08	3211
831.219	3249
831.357	3298
831.496	3466
831.635	3272
831.774	3214
831.913	3195
832.051	3138
832.19	3131
832.329	3203
832.467	3131
832.606	3104
832.744	3184
832.883	3176
833.022	3195
833.16	3233
833.299	3291
833.437	3348
833.576	3393
833.714	3370
833.852	3447
833.991	3466
834.129	3519
834.267	3507
834.406	3439
834.544	3420
834.682	3439
834.821	3397
834.959	3614
835.097	3401
835.235	3526
835.373	3462
835.511	3507
835.65	3492
835.788	3500
835.926	3393
836.064	3367
836.202	3405
836.34	3580
836.478	3633
836.615	3526
836.753	3629
836.891	3675
837.029	3599
837.167	3587
837.305	3545
837.443	3526
837.58	3504
837.718	3633
837.856	3576
837.993	3534
838.131	3625
838.269	3584
838.406	3618
838.544	3580
838.681	3447
838.819	3488
838.956	3389
839.094	3412
839.231	3447
839.369	3523
839.506	3717
839.643	3637
839.781	3469
839.918	3504
840.055	3542
840.193	3545
840.33	3553
840.467	3534
840.604	3595
840.742	3800
840.879	3553
841.016	3595
841.153	3610
841.29	3740
841.427	3717
841.564	3740
841.701	3770
841.838	3705
841.975	3701
842.112	3724
842.249	3671
842.385	3606
842.522	3812
842.659	3717
842.796	3679
842.933	3740
843.069	3648
843.206	3732
843.343	3789
843.479	3762
843.616	3778
843.752	3648
843.889	3701
844.025	3865
844.162	3728
844.298	3865
844.435	3793
844.571	3781
844.708	3884
844.844	3983
844.98	4017
845.117	4071
845.253	3884
845.389	3918
845.525	3998
845.661	3930
845.798	3956
845.934	4055
846.07	3949
846.206	4055
846.342	4109
846.478	4082
846.614	4040
846.75	3911
846.886	3907
847.022	4059
847.158	3964
847.294	4006
847.429	4036
847.565	4048
847.701	4291
847.837	3873
847.972	3846
848.108	3968
848.244	4021
848.379	3861
848.515	3850
848.65	3827
848.786	3865
848.921	3884
849.057	3930
849.192	3956
849.328	3846
849.463	3930
849.598	3842
849.734	3869
849.869	3850
850.004	3812
850.14	3800
850.275	3785
850.41	3762
850.545	3770
850.68	3812
850.815	3774
850.95	3823
851.085	3972
851.22	3854
851.355	3831
851.49	3793
851.625	3789
851.76	3804
851.895	3766
852.03	3740
852.165	3797
852.299	3831
852.434	3911
852.569	3854
852.703	3854
852.838	3994
852.973	3987
853.107	4002
853.242	3915
853.376	3812
853.511	3812
853.645	3804
853.78	3987
853.914	3903
854.048	3884
854.183	3922
854.317	3926
854.451	4082
854.585	3994
854.72	3960
854.854	4090
854.988	3968
855.122	4032
855.256	3937
855.39	4025
855.524	4131
855.658	4128
855.792	4109
855.926	4109
856.06	4169
856.194	4249
856.327	4150
856.461	4139
856.595	4158
856.729	4196
856.862	4280
856.996	4207
857.13	4325
857.263	4325
857.397	4386
857.53	4268
857.664	4337
857.797	4398
857.931	4451
858.064	4371
858.197	4508
858.331	4413
858.464	4402
858.597	4337
858.731	4440
858.864	4459
858.997	4413
859.13	4565
859.263	4573
859.396	4561
859.529	4531
859.662	4569
859.795	4554
859.928	4607
860.061	4714
860.194	4763
860.327	4672
860.46	4656
860.592	4744
860.725	4759
860.858	4824
860.99	4714
861.123	4679
861.256	4733
861.388	4733
861.521	5421
861.653	4767
861.786	4710
861.918	4733
862.05	4790
862.183	4881
862.315	4911
862.447	4900
862.58	4866
862.712	4824
862.844	4801
862.976	4896
863.108	4919
863.24	5185
863.372	4828
863.504	4843
863.636	4942
863.768	4968
863.9	4999
864.032	4900
864.164	4942
864.296	5041
864.428	5083
864.559	5064
864.691	5086
864.823	5143
864.954	5124
865.086	5143
865.217	5174
865.349	5132
865.48	5147
865.612	5246
865.743	5360
865.875	5189
866.006	5189
866.137	5273
866.269	5204
866.4	5261
866.531	5280
866.662	5193
866.793	5273
866.924	5246
867.055	5357
867.186	5364
867.317	5353
867.448	5322
867.579	5357
867.71	5387
867.841	5406
867.972	5417
868.103	5486
868.233	5452
868.364	5497
868.495	5642
868.625	5630
868.756	5813
868.886	5630
869.017	5767
869.147	5847
869.278	5836
869.408	5786
869.539	5893
869.669	5939
869.799	5908
869.929	5999
870.06	6045
870.19	6190
870.32	6194
870.45	6243
870.58	6369
870.71	6422
870.84	6506
870.97	6429
871.1	6460
871.23	6642
871.36	6669
871.489	6696
871.619	6753
871.749	6890
871.879	6837
872.008	6973
872.138	6981
872.267	7099
872.397	7061
872.526	6993
872.656	7084
872.785	7149
872.915	7362
873.044	7571
873.173	7639
873.303	7681
873.432	7795
873.561	7902
873.69	8001
873.819	7986
873.948	8164
874.077	8286
874.206	8286
874.335	8457
874.464	8693
874.593	8895
874.722	8979
874.851	9165
874.979	9241
875.108	9329
875.237	9401
875.365	9500
875.494	9660
875.623	9915
875.751	9865
875.88	9994
876.008	10200
876.136	10398
876.265	10493
876.393	10683
876.521	10778
876.65	10908
876.778	10816
876.906	10946
877.034	11064
877.162	11075
877.29	11204
877.418	11311
877.546	11318
877.674	11387
877.802	11444
877.93	11509
878.058	11539
878.185	11600
878.313	11497
878.441	11741
878.568	11726
878.696	11767
878.824	11786
878.951	11885
879.079	11996
879.206	12087
879.333	12026
879.461	12019
879.588	12038
879.715	12125
879.842	12155
879.97	12015
880.097	11882
880.224	11920
880.351	11904
880.478	11866
880.605	11946
880.732	11821
880.859	12022
880.986	11870
881.112	11908
881.239	11710
881.366	11684
881.493	11630
881.619	11665
881.746	11512
881.872	11532
881.999	11493
882.125	11497
882.252	11535
882.378	11482
882.505	11547
882.631	11387
882.757	11284
882.883	11345
883.01	11231
883.136	11178
883.262	11098
883.388	11014
883.514	11197
883.64	11166
883.766	11121
883.892	11025
884.018	11064
884.143	11037
884.269	11029
884.395	10854
884.52	10793
884.646	10892
884.772	10767
884.897	10702
885.023	10736
885.148	10736
885.274	10710
885.399	10725
885.524	10675
885.65	10565
885.775	10641
885.9	10558
886.025	10588
886.15	10580
886.275	10504
886.4	10428
886.525	10382
886.65	10329
886.775	10352
886.9	10508
887.025	10546
887.149	10348
887.274	10230
887.399	10230
887.523	10166
887.648	10143
887.773	10120
887.897	10333
888.021	10291
888.146	10158
888.27	10173
888.395	10249
888.519	10207
888.643	10207
888.767	10166
888.891	10086
889.015	10048
889.139	10021
889.263	10048
889.387	10032
889.511	10185
889.635	10128
889.759	9979
889.883	10025
890.006	10063
890.13	10192
890.254	9907
890.377	9998
890.501	9846
890.624	9915
890.748	9876
890.871	9838
890.995	9789
891.118	9762
891.241	9785
891.364	9812
891.488	9732
891.611	9751
891.734	9778
891.857	9740
891.98	9781
892.103	9740
892.226	9728
892.349	9656
892.471	9561
892.594	9561
892.717	9564
892.839	9675
892.962	9564
893.085	9675
893.207	9515
893.33	9523
893.452	9534
893.575	9595
893.697	9473
893.819	9610
893.941	9648
894.064	9587
894.186	9405
894.308	9355
894.43	9542
894.552	9538
894.674	9538
894.796	9428
894.918	9496
895.04	9424
895.161	9485
895.283	9310
895.405	9245
895.526	9294
895.648	9237
895.769	9233
895.891	9275
896.012	9332
896.134	9222
896.255	9233
896.376	9146
896.498	9188
896.619	9169
896.74	9032
896.861	9100
896.982	9298
897.103	9268
897.224	9169
897.345	9119
897.466	9070
897.587	9020
897.708	9093
897.828	8982
897.949	8914
898.07	8823
898.19	8929
898.311	9074
898.431	9005
898.552	8880
898.672	8979
898.792	8918
898.913	8952
899.033	8868
899.153	8716
899.273	8625
899.393	8739
899.513	8773
899.633	8750
899.753	8785
899.873	8659
899.993	8724
900.113	8746
900.232	8769
900.352	8663
900.472	8613
900.591	8568
900.711	8594
900.83	8556
900.95	8636
901.069	8716
901.189	8590
901.308	8396
901.427	8377
901.546	8438
901.665	8438
901.784	8507
901.904	8423
902.023	8393
902.141	8248
902.26	8259
902.379	8298
902.498	8240
902.617	8240
902.735	8282
902.854	8218
902.973	8229
903.091	8081
903.21	8187
903.328	8126
903.446	8149
903.565	8065
903.683	8077
903.801	8073
903.919	8096
904.038	8157
904.156	7989
904.274	8065
904.392	8031
904.51	8027
904.627	7989
904.745	8073
904.863	8100
904.981	7921
905.098	7902
905.216	7833
905.334	7936
905.451	7913
905.569	7868
905.686	7982
905.803	7936
905.921	7833
906.038	7871
906.155	7784
906.272	7753
906.389	7700
906.506	7666
906.623	7601
906.74	7586
906.857	7544
906.974	7575
907.091	7636
907.208	7693
907.324	7655
907.441	7575
907.557	7495
907.674	7430
907.79	7411
907.907	7453
908.023	7438
908.139	7472
908.256	7282
908.372	7362
908.488	7377
908.604	7285
908.72	7225
908.836	7266
908.952	7232
909.068	7282
909.184	7422
909.3	7179
909.415	7274
909.531	7247
909.647	7122
909.762	7126
909.878	7088
909.993	7107
910.108	7110
910.224	7053
910.339	7065
910.454	7065
910.57	6966
910.685	6962
910.8	7145
910.915	7069
911.03	7069
911.145	6913
911.259	6852
911.374	6894
911.489	6795
911.604	6757
911.718	6703
911.833	6738
911.947	6601
912.062	6642
912.176	6730
912.291	6677
912.405	6730
912.519	6825
912.633	6856
912.748	6757
912.862	6688
912.976	6566
913.09	6525
913.204	6623
913.318	6566
913.431	6654
913.545	6677
913.659	6711
913.772	6677
913.886	6589
914	6578
914.113	6540
914.226	6639
914.34	6608
914.453	6490
914.566	6604
914.68	6570
914.793	6540
914.906	6441
915.019	6403
915.132	6357
915.245	6391
915.358	6467
915.47	6448
915.583	6479
915.696	6456
915.809	6517
915.921	6528
916.034	6437
916.146	6426
916.259	6395
916.371	6456
916.483	6559
916.595	6319
916.708	6437
916.82	6407
916.932	6380
917.044	6365
917.156	6467
917.268	6308
917.38	6388
917.491	6289
917.603	6331
917.715	6422
917.826	6391
917.938	6346
918.049	6277
918.161	6369
918.272	6403
918.384	6437
918.495	6353
918.606	6235
918.717	6197
918.828	6239
918.939	6315
919.05	6216
919.161	6213
919.272	6182
919.383	6186
919.494	6254
919.604	6410
919.715	6315
919.826	6194
919.936	6300
920.047	6311
920.157	6334
920.267	6486
920.378	6331
920.488	6353
920.598	6483
920.708	6551
920.818	6475
920.928	6471
921.038	6578
921.148	6532
921.258	6353
921.368	6357
921.477	6213
921.587	6228
921.697	6114
921.806	6155
921.916	6083
922.025	5961
922.134	5942
922.244	5893
922.353	6007
922.462	5874
922.571	5836
922.68	5722
922.789	5665
922.898	5714
923.007	5634
923.116	5691
923.224	5676
923.333	5668
923.442	5623
923.55	5596
923.659	5592
923.767	5619
923.876	5596
923.984	5638
924.092	5501
924.201	5547
924.309	5547
924.417	5596
924.525	5482
924.633	5493
924.741	6277
924.849	5406
924.956	5497
925.064	5425
925.172	5345
925.279	5341
925.387	5429
925.494	5364
925.602	5455
925.709	5402
925.816	5277
925.924	5326
926.031	5402
926.138	5349
926.245	5349
926.352	5254
926.459	5299
926.566	5311
926.673	5181
926.779	5117
926.886	5121
926.993	5029
927.099	5064
927.206	5022
927.312	4976
927.419	5041
927.525	4953
927.631	4991
927.737	4949
927.843	4870
927.95	4755
928.056	4850
928.162	4862
928.267	4873
928.373	5311
928.479	4839
928.585	4729
928.69	4744
928.796	4805
928.901	4675
929.007	4611
929.112	4687
929.218	4641
929.323	4634
929.428	4573
929.533	4672
929.638	4493
929.743	4565
929.848	4546
929.953	4538
930.058	4459
930.163	4329
930.267	4398
930.372	4478
930.477	4348
930.581	4440
930.685	4413
930.79	4257
930.894	4299
930.998	4268
931.103	4398
931.207	4147
931.311	4090
931.415	4032
931.519	3907
931.623	3922
