Data from glass_V78500241_1939.txt Node
Date: Wed Sep 01 19:27:56 CST 2021
User: usil
Spectrometer: V785-0024
Trigger mode: 0
Integration Time (sec): 4.000000E-1
Scans to average: 1
Nonlinearity correction enabled: false
Boxcar width: 0
Storing dark spectrum: false
XAxis mode: Wavelengths
Number of Pixels in Spectrum: 1024
>>>>>Begin Spectral Data<<<<<
801.071	3743
801.214	3770
801.356	3709
801.499	3774
801.641	3759
801.783	3770
801.926	3838
802.068	3812
802.211	3888
802.353	3896
802.496	3835
802.638	3918
802.78	3888
802.923	3922
803.065	3873
803.208	3838
803.35	3876
803.492	3892
803.635	3865
803.777	3812
803.919	3911
804.061	4109
804.204	3934
804.346	3926
804.488	3922
804.63	3998
804.773	3979
804.915	4063
805.057	4112
805.199	4029
805.341	4116
805.483	4169
805.626	4162
805.768	4158
805.91	4211
806.052	4196
806.194	4185
806.336	4310
806.478	4154
806.62	4150
806.762	4192
806.904	4227
807.046	4337
807.188	4188
807.33	4192
807.472	4257
807.614	4173
807.756	4230
807.898	4181
808.04	4204
808.182	4257
808.324	4329
808.465	4356
808.607	4489
808.749	4443
808.891	4428
809.033	4478
809.174	4409
809.316	4272
809.458	4261
809.6	4181
809.741	4128
809.883	4154
810.025	4230
810.166	4272
810.308	4230
810.45	4234
810.591	4223
810.733	4303
810.875	4500
811.016	4843
811.158	5109
811.299	5246
811.441	5254
811.582	5075
811.724	4740
811.865	4481
812.007	4512
812.148	4443
812.29	4379
812.431	4386
812.573	4421
812.714	4341
812.855	4386
812.997	4428
813.138	4512
813.279	4443
813.421	4356
813.562	4360
813.703	4329
813.845	4329
813.986	4265
814.127	4261
814.268	4249
814.41	4291
814.551	4261
814.692	4314
814.833	4306
814.974	4257
815.115	4299
815.256	4249
815.397	4219
815.539	4242
815.68	4246
815.821	4223
815.962	4287
816.103	4265
816.244	4215
816.385	4242
816.526	4284
816.666	4143
816.807	4063
816.948	4188
817.089	4196
817.23	4105
817.371	4021
817.512	4086
817.653	4048
817.793	4048
817.934	4029
818.075	4082
818.216	4082
818.356	4105
818.497	3998
818.638	3953
818.778	3915
818.919	3880
819.06	3876
819.2	3873
819.341	3884
819.481	3838
819.622	3899
819.762	3983
819.903	3949
820.043	3857
820.184	3808
820.324	3804
820.465	3884
820.605	3865
820.746	3823
820.886	3793
821.026	3937
821.167	3975
821.307	4010
821.447	3956
821.588	3953
821.728	3937
821.868	3907
822.008	3846
822.149	3869
822.289	3903
822.429	3804
822.569	3766
822.709	3800
822.849	3698
822.99	3709
823.13	3747
823.27	3793
823.41	3720
823.55	3701
823.69	3705
823.83	3743
823.97	3667
824.11	3580
824.25	3595
824.389	3622
824.529	3660
824.669	3652
824.809	3701
824.949	3793
825.089	3759
825.228	3713
825.368	3599
825.508	3599
825.648	3572
825.787	3633
825.927	3663
826.067	3660
826.206	3622
826.346	3762
826.485	3831
826.625	3888
826.765	3930
826.904	3793
827.044	3614
827.183	3549
827.323	3439
827.462	3504
827.601	3420
827.741	3397
827.88	3435
828.02	3386
828.159	3435
828.298	3443
828.437	3545
828.577	3504
828.716	3618
828.855	3500
828.994	3367
829.134	3393
829.273	3382
829.412	3374
829.551	3317
829.69	3378
829.829	3439
829.968	3511
830.107	3443
830.246	3412
830.385	3355
830.524	3348
830.663	3302
830.802	3226
830.941	3180
831.08	3184
831.219	3237
831.357	3253
831.496	3378
831.635	3222
831.774	3169
831.913	3218
832.051	3123
832.19	3119
832.329	3207
832.467	3138
832.606	3100
832.744	3165
832.883	3195
833.022	3207
833.16	3253
833.299	3291
833.437	3313
833.576	3367
833.714	3351
833.852	3428
833.991	3443
834.129	3458
834.267	3405
834.406	3378
834.544	3447
834.682	3420
834.821	3428
834.959	3584
835.097	3443
835.235	3526
835.373	3534
835.511	3492
835.65	3473
835.788	3488
835.926	3389
836.064	3351
836.202	3378
836.34	3549
836.478	3584
836.615	3530
836.753	3584
836.891	3606
837.029	3587
837.167	3591
837.305	3587
837.443	3507
837.58	3530
837.718	3644
837.856	3580
837.993	3473
838.131	3580
838.269	3587
838.406	3568
838.544	3584
838.681	3504
838.819	3462
838.956	3378
839.094	3363
839.231	3431
839.369	3500
839.506	3728
839.643	3622
839.781	3519
839.918	3447
840.055	3526
840.193	3526
840.33	3534
840.467	3564
840.604	3587
840.742	3808
840.879	3515
841.016	3530
841.153	3572
841.29	3755
841.427	3701
841.564	3762
841.701	3770
841.838	3667
841.975	3667
842.112	3728
842.249	3652
842.385	3629
842.522	3781
842.659	3667
842.796	3637
842.933	3686
843.069	3709
843.206	3694
843.343	3816
843.479	3789
843.616	3793
843.752	3671
843.889	3644
844.025	3842
844.162	3717
844.298	3838
844.435	3816
844.571	3793
844.708	3903
844.844	3972
844.98	3979
845.117	4071
845.253	3941
845.389	3846
845.525	3991
845.661	3968
845.798	3922
845.934	4010
846.07	3934
846.206	4044
846.342	4139
846.478	4036
846.614	3915
846.75	3918
846.886	3899
847.022	4101
847.158	3949
847.294	4025
847.429	3994
847.565	3987
847.701	4227
847.837	3888
847.972	3880
848.108	3960
848.244	3979
848.379	3857
848.515	3793
848.65	3842
848.786	3850
848.921	3850
849.057	3892
849.192	3956
849.328	3903
849.463	3926
849.598	3876
849.734	3915
849.869	3793
850.004	3778
850.14	3808
850.275	3812
850.41	3713
850.545	3762
850.68	3766
850.815	3778
850.95	3736
851.085	3911
851.22	3846
851.355	3819
851.49	3793
851.625	3800
851.76	3800
851.895	3724
852.03	3736
852.165	3778
852.299	3835
852.434	3896
852.569	3888
852.703	3846
852.838	3869
852.973	4006
853.107	3964
853.242	3892
853.376	3838
853.511	3781
853.645	3804
853.78	3994
853.914	3911
854.048	3857
854.183	3873
854.317	3964
854.451	4059
854.585	3968
854.72	3934
854.854	4051
854.988	3922
855.122	3972
855.256	3934
855.39	3998
855.524	4097
855.658	4071
855.792	4086
855.926	4143
856.06	4158
856.194	4196
856.327	4112
856.461	4139
856.595	4143
856.729	4185
856.862	4261
856.996	4234
857.13	4265
857.263	4303
857.397	4352
857.53	4284
857.664	4337
857.797	4409
857.931	4379
858.064	4390
858.197	4451
858.331	4386
858.464	4375
858.597	4318
858.731	4405
858.864	4451
858.997	4485
859.13	4478
859.263	4546
859.396	4592
859.529	4508
859.662	4558
859.795	4523
859.928	4622
860.061	4687
860.194	4725
860.327	4672
860.46	4645
860.592	4733
860.725	4763
860.858	4752
860.99	4675
861.123	4675
861.256	4694
861.388	4778
861.521	5429
861.653	4710
861.786	4691
861.918	4717
862.05	4790
862.183	4759
862.315	4873
862.447	4892
862.58	4896
862.712	4793
862.844	4786
862.976	4881
863.108	4919
863.24	5140
863.372	4850
863.504	4889
863.636	4881
863.768	4946
863.9	4934
864.032	4919
864.164	5014
864.296	5052
864.428	5045
864.559	5124
864.691	5143
864.823	5094
864.954	5113
865.086	5140
865.217	5113
865.349	5056
865.48	5178
865.612	5197
865.743	5254
865.875	5147
866.006	5170
866.137	5212
866.269	5258
866.4	5254
866.531	5250
866.662	5197
866.793	5273
866.924	5246
867.055	5357
867.186	5318
867.317	5341
867.448	5292
867.579	5391
867.71	5391
867.841	5315
867.972	5414
868.103	5429
868.233	5459
868.364	5543
868.495	5497
868.625	5585
868.756	5824
868.886	5665
869.017	5699
869.147	5851
869.278	5893
869.408	5813
869.539	5836
869.669	5901
869.799	5908
869.929	5988
870.06	6003
870.19	6194
870.32	6197
870.45	6254
870.58	6372
870.71	6410
870.84	6494
870.97	6399
871.1	6429
871.23	6593
871.36	6696
871.489	6593
871.619	6764
871.749	6787
871.879	6878
872.008	6981
872.138	6970
872.267	7042
872.397	7031
872.526	7000
872.656	7118
872.785	7171
872.915	7377
873.044	7521
873.173	7575
873.303	7616
873.432	7719
873.561	7841
873.69	7875
873.819	7932
873.948	8134
874.077	8252
874.206	8374
874.335	8396
874.464	8659
874.593	8876
874.722	8918
874.851	9131
874.979	9275
875.108	9351
875.237	9435
875.365	9485
875.494	9614
875.623	9869
875.751	9857
875.88	10010
876.008	10207
876.136	10303
876.265	10462
876.393	10752
876.521	10653
876.65	10797
876.778	10885
876.906	10873
877.034	10885
877.162	11124
877.29	11109
877.418	11220
877.546	11318
877.674	11414
877.802	11455
877.93	11474
878.058	11528
878.185	11619
878.313	11657
878.441	11653
878.568	11699
878.696	11889
878.824	11771
878.951	11942
879.079	12034
879.206	12190
879.333	12007
879.461	11965
879.588	12026
879.715	12072
879.842	12197
879.97	12083
880.097	11767
880.224	11855
880.351	11923
880.478	11863
880.605	11870
880.732	11794
880.859	11942
880.986	11802
881.112	11878
881.239	11703
881.366	11642
881.493	11570
881.619	11474
881.746	11585
881.872	11486
881.999	11486
882.125	11505
882.252	11455
882.378	11429
882.505	11528
882.631	11299
882.757	11181
882.883	11235
883.01	11212
883.136	11178
883.262	11155
883.388	11094
883.514	11136
883.64	11105
883.766	11033
883.892	11071
884.018	10942
884.143	11075
884.269	11136
884.395	10908
884.52	10774
884.646	10809
884.772	10721
884.897	10588
885.023	10698
885.148	10733
885.274	10736
885.399	10748
885.524	10607
885.65	10641
885.775	10497
885.9	10531
886.025	10615
886.15	10565
886.275	10478
886.4	10352
886.525	10424
886.65	10405
886.775	10394
886.9	10478
887.025	10527
887.149	10348
887.274	10253
887.399	10207
887.523	10139
887.648	10086
887.773	10166
887.897	10242
888.021	10219
888.146	10120
888.27	10158
888.395	10169
888.519	10166
888.643	10211
888.767	10249
888.891	10143
889.015	10067
889.139	10021
889.263	9934
889.387	10074
889.511	10211
889.635	10086
889.759	9991
889.883	10006
890.006	9998
890.13	10025
890.254	10017
890.377	9903
890.501	9812
890.624	9850
890.748	9835
890.871	9835
890.995	9770
891.118	9682
891.241	9698
891.364	9766
891.488	9800
891.611	9705
891.734	9797
891.857	9736
891.98	9778
892.103	9728
892.226	9686
892.349	9732
892.471	9564
892.594	9633
892.717	9637
892.839	9545
892.962	9572
893.085	9671
893.207	9603
893.33	9504
893.452	9587
893.575	9675
893.697	9485
893.819	9580
893.941	9622
894.064	9606
894.186	9435
894.308	9428
894.43	9504
894.552	9587
894.674	9515
894.796	9367
894.918	9367
895.04	9306
895.161	9393
895.283	9336
895.405	9348
895.526	9370
895.648	9211
895.769	9131
895.891	9272
896.012	9325
896.134	9268
896.255	9138
896.376	9070
896.498	9226
896.619	9146
896.74	9077
896.861	9066
896.982	9233
897.103	9302
897.224	9173
897.345	9024
897.466	8941
897.587	9043
897.708	9093
897.828	9001
897.949	8967
898.07	8902
898.19	8891
898.311	8925
898.431	8887
898.552	8960
898.672	8994
898.792	8861
898.913	8902
899.033	8819
899.153	8701
899.273	8655
899.393	8735
899.513	8731
899.633	8708
899.753	8819
899.873	8651
899.993	8811
900.113	8693
900.232	8739
900.352	8682
900.472	8648
900.591	8488
900.711	8564
900.83	8499
900.95	8655
901.069	8701
901.189	8545
901.308	8473
901.427	8377
901.546	8442
901.665	8461
901.784	8480
901.904	8343
902.023	8320
902.141	8275
902.26	8180
902.379	8294
902.498	8191
902.617	8176
902.735	8320
902.854	8267
902.973	8206
903.091	8092
903.21	8172
903.328	8164
903.446	8142
903.565	8035
903.683	8050
903.801	8035
903.919	8187
904.038	8115
904.156	8016
904.274	8069
904.392	7986
904.51	7932
904.627	8054
904.745	8062
904.863	8115
904.981	7909
905.098	7887
905.216	7894
905.334	7906
905.451	7868
905.569	7928
905.686	7898
905.803	7902
905.921	7769
906.038	7849
906.155	7776
906.272	7715
906.389	7662
906.506	7620
906.623	7666
906.74	7597
906.857	7514
906.974	7567
907.091	7693
907.208	7662
907.324	7628
907.441	7620
907.557	7487
907.674	7411
907.79	7392
907.907	7396
908.023	7400
908.139	7400
908.256	7339
908.372	7324
908.488	7327
908.604	7316
908.72	7194
908.836	7228
908.952	7228
909.068	7289
909.184	7297
909.3	7232
909.415	7232
909.531	7274
909.647	7088
909.762	7118
909.878	7069
909.993	7122
910.108	7103
910.224	7107
910.339	7088
910.454	7038
910.57	6977
910.685	6939
910.8	7133
910.915	7137
911.03	7042
911.145	6890
911.259	6825
911.374	6878
911.489	6806
911.604	6806
911.718	6711
911.833	6810
911.947	6631
912.062	6604
912.176	6692
912.291	6703
912.405	6673
912.519	6753
912.633	6894
912.748	6749
912.862	6673
912.976	6639
913.09	6513
913.204	6620
913.318	6593
913.431	6669
913.545	6650
913.659	6665
913.772	6620
913.886	6555
914	6559
914.113	6608
914.226	6631
914.34	6532
914.453	6547
914.566	6585
914.68	6536
914.793	6506
914.906	6433
915.019	6365
915.132	6369
915.245	6380
915.358	6429
915.47	6429
915.583	6490
915.696	6452
915.809	6506
915.921	6559
916.034	6410
916.146	6414
916.259	6327
916.371	6483
916.483	6464
916.595	6384
916.708	6467
916.82	6372
916.932	6342
917.044	6380
917.156	6384
917.268	6285
917.38	6334
917.491	6319
917.603	6380
917.715	6369
917.826	6403
917.938	6300
918.049	6216
918.161	6331
918.272	6350
918.384	6410
918.495	6331
918.606	6178
918.717	6171
918.828	6300
918.939	6258
919.05	6167
919.161	6228
919.272	6155
919.383	6125
919.494	6327
919.604	6422
919.715	6239
919.826	6254
919.936	6254
920.047	6323
920.157	6300
920.267	6445
920.378	6380
920.488	6270
920.598	6391
920.708	6570
920.818	6464
920.928	6426
921.038	6635
921.148	6566
921.258	6323
921.368	6292
921.477	6140
921.587	6155
921.697	6079
921.806	6148
921.916	6117
922.025	5954
922.134	5901
922.244	5912
922.353	5969
922.462	5855
922.571	5817
922.68	5722
922.789	5691
922.898	5699
923.007	5649
923.116	5665
923.224	5638
923.333	5657
923.442	5638
923.55	5577
923.659	5570
923.767	5592
923.876	5547
923.984	5581
924.092	5493
924.201	5577
924.309	5512
924.417	5566
924.525	5471
924.633	5501
924.741	6289
924.849	5364
924.956	5482
925.064	5345
925.172	5261
925.279	5299
925.387	5326
925.494	5265
925.602	5406
925.709	5376
925.816	5220
925.924	5318
926.031	5387
926.138	5322
926.245	5284
926.352	5197
926.459	5299
926.566	5368
926.673	5204
926.779	5121
926.886	5098
926.993	5033
927.099	4972
927.206	5018
927.312	4999
927.419	5041
927.525	4984
927.631	5025
927.737	4904
927.843	4854
927.95	4763
928.056	4774
928.162	4816
928.267	4881
928.373	5288
928.479	4847
928.585	4641
928.69	4714
928.796	4782
928.901	4710
929.007	4618
929.112	4717
929.218	4630
929.323	4580
929.428	4535
929.533	4717
929.638	4611
929.743	4512
929.848	4561
929.953	4508
930.058	4428
930.163	4379
930.267	4303
930.372	4424
930.477	4352
930.581	4474
930.685	4371
930.79	4223
930.894	4284
930.998	4295
931.103	4322
931.207	4112
931.311	4063
931.415	4067
931.519	3926
931.623	3915
