Data from glass_V78500241_372.txt Node
Date: Wed Sep 01 19:17:04 CST 2021
User: usil
Spectrometer: V785-0024
Trigger mode: 0
Integration Time (sec): 4.000000E-1
Scans to average: 1
Nonlinearity correction enabled: false
Boxcar width: 0
Storing dark spectrum: false
XAxis mode: Wavelengths
Number of Pixels in Spectrum: 1024
>>>>>Begin Spectral Data<<<<<
801.071	3770
801.214	3778
801.356	3743
801.499	3762
801.641	3751
801.783	3755
801.926	3861
802.068	3857
802.211	3876
802.353	3876
802.496	3835
802.638	3888
802.78	3945
802.923	3968
803.065	3960
803.208	3876
803.35	3884
803.492	3892
803.635	3915
803.777	3793
803.919	3930
804.061	4158
804.204	3987
804.346	3941
804.488	3926
804.63	4051
804.773	3998
804.915	4044
805.057	4192
805.199	4055
805.341	4101
805.483	4150
805.626	4150
805.768	4124
805.91	4227
806.052	4276
806.194	4230
806.336	4375
806.478	4253
806.62	4192
806.762	4249
806.904	4299
807.046	4394
807.188	4234
807.33	4158
807.472	4238
807.614	4196
807.756	4257
807.898	4211
808.04	4211
808.182	4268
808.324	4287
808.465	4394
808.607	4466
808.749	4493
808.891	4504
809.033	4500
809.174	4394
809.316	4272
809.458	4280
809.6	4211
809.741	4147
809.883	4181
810.025	4227
810.166	4192
810.308	4234
810.45	4257
810.591	4257
810.733	4337
810.875	4592
811.016	4809
811.158	5181
811.299	5315
811.441	5311
811.582	5060
811.724	4725
811.865	4519
812.007	4466
812.148	4466
812.29	4413
812.431	4402
812.573	4474
812.714	4367
812.855	4440
812.997	4413
813.138	4497
813.279	4455
813.421	4371
813.562	4402
813.703	4363
813.845	4363
813.986	4295
814.127	4253
814.268	4310
814.41	4303
814.551	4280
814.692	4352
814.833	4287
814.974	4337
815.115	4402
815.256	4268
815.397	4227
815.539	4246
815.68	4192
815.821	4249
815.962	4280
816.103	4291
816.244	4253
816.385	4242
816.526	4272
816.666	4230
816.807	4067
816.948	4196
817.089	4192
817.23	4139
817.371	4078
817.512	4067
817.653	4105
817.793	4048
817.934	4051
818.075	4128
818.216	4101
818.356	4120
818.497	3983
818.638	3930
818.778	3918
818.919	3899
819.06	3888
819.2	3960
819.341	3857
819.481	3850
819.622	3930
819.762	4013
819.903	3899
820.043	3869
820.184	3850
820.324	3797
820.465	3876
820.605	3854
820.746	3892
820.886	3812
821.026	3941
821.167	3934
821.307	3987
821.447	3975
821.588	3991
821.728	3972
821.868	3949
822.008	3876
822.149	3915
822.289	3915
822.429	3816
822.569	3797
822.709	3770
822.849	3682
822.99	3732
823.13	3831
823.27	3762
823.41	3728
823.55	3736
823.69	3671
823.83	3755
823.97	3660
824.11	3618
824.25	3614
824.389	3652
824.529	3671
824.669	3637
824.809	3743
824.949	3740
825.089	3804
825.228	3705
825.368	3637
825.508	3587
825.648	3572
825.787	3618
825.927	3644
826.067	3682
826.206	3663
826.346	3804
826.485	3865
826.625	3922
826.765	4010
826.904	3823
827.044	3656
827.183	3553
827.323	3481
827.462	3538
827.601	3439
827.741	3473
827.88	3488
828.02	3378
828.159	3458
828.298	3485
828.437	3530
828.577	3511
828.716	3641
828.855	3488
828.994	3367
829.134	3374
829.273	3386
829.412	3351
829.551	3317
829.69	3363
829.829	3435
829.968	3496
830.107	3428
830.246	3420
830.385	3386
830.524	3336
830.663	3313
830.802	3294
830.941	3230
831.08	3245
831.219	3279
831.357	3256
831.496	3370
831.635	3214
831.774	3226
831.913	3249
832.051	3150
832.19	3127
832.329	3214
832.467	3157
832.606	3093
832.744	3218
832.883	3211
833.022	3207
833.16	3291
833.299	3302
833.437	3359
833.576	3348
833.714	3409
833.852	3416
833.991	3466
834.129	3469
834.267	3431
834.406	3435
834.544	3435
834.682	3443
834.821	3431
834.959	3591
835.097	3412
835.235	3538
835.373	3481
835.511	3473
835.65	3488
835.788	3469
835.926	3378
836.064	3374
836.202	3397
836.34	3622
836.478	3622
836.615	3545
836.753	3606
836.891	3652
837.029	3610
837.167	3595
837.305	3538
837.443	3549
837.58	3534
837.718	3614
837.856	3561
837.993	3564
838.131	3576
838.269	3572
838.406	3603
838.544	3591
838.681	3477
838.819	3443
838.956	3405
839.094	3435
839.231	3466
839.369	3485
839.506	3736
839.643	3690
839.781	3561
839.918	3485
840.055	3507
840.193	3591
840.33	3545
840.467	3595
840.604	3648
840.742	3793
840.879	3538
841.016	3557
841.153	3584
841.29	3835
841.427	3740
841.564	3740
841.701	3759
841.838	3732
841.975	3644
842.112	3709
842.249	3606
842.385	3644
842.522	3835
842.659	3694
842.796	3686
842.933	3690
843.069	3667
843.206	3728
843.343	3838
843.479	3759
843.616	3865
843.752	3713
843.889	3675
844.025	3869
844.162	3736
844.298	3831
844.435	3804
844.571	3808
844.708	3937
844.844	3979
844.98	4040
845.117	4017
845.253	3960
845.389	3941
845.525	3960
845.661	4025
845.798	3926
845.934	4040
846.07	3949
846.206	4071
846.342	4112
846.478	4101
846.614	3975
846.75	3926
846.886	3911
847.022	4040
847.158	3991
847.294	4006
847.429	4059
847.565	4006
847.701	4265
847.837	3903
847.972	3857
848.108	4002
848.244	3975
848.379	3861
848.515	3819
848.65	3789
848.786	3892
848.921	3903
849.057	3941
849.192	3964
849.328	3896
849.463	3926
849.598	3876
849.734	3869
849.869	3846
850.004	3812
850.14	3823
850.275	3778
850.41	3751
850.545	3774
850.68	3774
850.815	3793
850.95	3823
851.085	3934
851.22	3876
851.355	3850
851.49	3804
851.625	3778
851.76	3766
851.895	3755
852.03	3736
852.165	3789
852.299	3884
852.434	3888
852.569	3873
852.703	3979
852.838	3953
852.973	4029
853.107	4021
853.242	3876
853.376	3888
853.511	3804
853.645	3842
853.78	3972
853.914	3930
854.048	3880
854.183	3915
854.317	3941
854.451	4090
854.585	4002
854.72	3953
854.854	4063
854.988	3956
855.122	4040
855.256	3941
855.39	4040
855.524	4158
855.658	4097
855.792	4147
855.926	4139
856.06	4173
856.194	4196
856.327	4131
856.461	4128
856.595	4147
856.729	4158
856.862	4287
856.996	4261
857.13	4325
857.263	4363
857.397	4356
857.53	4272
857.664	4360
857.797	4386
857.931	4459
858.064	4398
858.197	4474
858.331	4405
858.464	4405
858.597	4352
858.731	4443
858.864	4440
858.997	4485
859.13	4565
859.263	4497
859.396	4599
859.529	4554
859.662	4512
859.795	4603
859.928	4577
860.061	4736
860.194	4774
860.327	4683
860.46	4622
860.592	4694
860.725	4736
860.858	4786
860.99	4725
861.123	4733
861.256	4702
861.388	4767
861.521	5414
861.653	4740
861.786	4725
861.918	4771
862.05	4862
862.183	4854
862.315	4919
862.447	5010
862.58	4858
862.712	4778
862.844	4805
862.976	4835
863.108	4911
863.24	5284
863.372	4835
863.504	4877
863.636	4900
863.768	4984
863.9	5037
864.032	4968
864.164	4915
864.296	5060
864.428	5143
864.559	5159
864.691	5105
864.823	5109
864.954	5189
865.086	5140
865.217	5197
865.349	5170
865.48	5162
865.612	5185
865.743	5273
865.875	5174
866.006	5185
866.137	5246
866.269	5280
866.4	5246
866.531	5239
866.662	5250
866.793	5299
866.924	5254
867.055	5391
867.186	5364
867.317	5368
867.448	5345
867.579	5391
867.71	5372
867.841	5402
867.972	5455
868.103	5474
868.233	5505
868.364	5509
868.495	5562
868.625	5741
868.756	5813
868.886	5707
869.017	5764
869.147	5885
869.278	5866
869.408	5859
869.539	5832
869.669	5973
869.799	5908
869.929	6022
870.06	6068
870.19	6140
870.32	6194
870.45	6235
870.58	6395
870.71	6437
870.84	6532
870.97	6422
871.1	6437
871.23	6646
871.36	6696
871.489	6696
871.619	6779
871.749	6840
871.879	6890
872.008	6932
872.138	7000
872.267	7027
872.397	7019
872.526	7053
872.656	7091
872.785	7240
872.915	7384
873.044	7567
873.173	7537
873.303	7655
873.432	7788
873.561	7871
873.69	7852
873.819	7982
873.948	8123
874.077	8153
874.206	8275
874.335	8427
874.464	8617
874.593	8876
874.722	8944
874.851	9131
874.979	9222
875.108	9382
875.237	9439
875.365	9488
875.494	9637
875.623	9808
875.751	9827
875.88	10032
876.008	10211
876.136	10329
876.265	10550
876.393	10702
876.521	10778
876.65	10847
876.778	10885
876.906	10873
877.034	10961
877.162	11128
877.29	11162
877.418	11318
877.546	11345
877.674	11486
877.802	11463
877.93	11547
878.058	11547
878.185	11577
878.313	11615
878.441	11726
878.568	11707
878.696	11805
878.824	11935
878.951	11946
879.079	11996
879.206	12129
879.333	12015
879.461	12022
879.588	12053
879.715	12045
879.842	12167
879.97	12079
880.097	11935
880.224	11870
880.351	11912
880.478	11958
880.605	11824
880.732	11889
880.859	12034
880.986	11794
881.112	11946
881.239	11798
881.366	11695
881.493	11642
881.619	11638
881.746	11589
881.872	11505
881.999	11486
882.125	11474
882.252	11608
882.378	11398
882.505	11649
882.631	11459
882.757	11356
882.883	11372
883.01	11280
883.136	11201
883.262	11090
883.388	11048
883.514	11185
883.64	11147
883.766	11102
883.892	10896
884.018	10980
884.143	11045
884.269	11128
884.395	10930
884.52	10797
884.646	10812
884.772	10717
884.897	10660
885.023	10706
885.148	10721
885.274	10759
885.399	10698
885.524	10622
885.65	10679
885.775	10561
885.9	10538
886.025	10664
886.15	10519
886.275	10398
886.4	10363
886.525	10394
886.65	10382
886.775	10348
886.9	10527
887.025	10516
887.149	10367
887.274	10211
887.399	10219
887.523	10185
887.648	10200
887.773	10082
887.897	10318
888.021	10188
888.146	10082
888.27	10280
888.395	10204
888.519	10173
888.643	10150
888.767	10207
888.891	10063
889.015	10010
889.139	10051
889.263	9975
889.387	10051
889.511	10101
889.635	10109
889.759	9994
889.883	9922
890.006	9983
890.13	10158
890.254	9903
890.377	9987
890.501	9911
890.624	9884
890.748	9934
890.871	9819
890.995	9800
891.118	9660
891.241	9789
891.364	9743
891.488	9816
891.611	9736
891.734	9755
891.857	9755
891.98	9740
892.103	9728
892.226	9701
892.349	9644
892.471	9599
892.594	9622
892.717	9561
892.839	9694
892.962	9557
893.085	9682
893.207	9545
893.33	9591
893.452	9523
893.575	9625
893.697	9538
893.819	9652
893.941	9614
894.064	9591
894.186	9466
894.308	9454
894.43	9561
894.552	9568
894.674	9507
894.796	9389
894.918	9378
895.04	9382
895.161	9351
895.283	9416
895.405	9378
895.526	9233
895.648	9241
895.769	9344
895.891	9275
896.012	9378
896.134	9249
896.255	9195
896.376	9169
896.498	9093
896.619	9165
896.74	9047
896.861	9127
896.982	9313
897.103	9287
897.224	9135
897.345	9127
897.466	9047
897.587	9039
897.708	9043
897.828	9062
897.949	8880
898.07	8845
898.19	8956
898.311	9028
898.431	8910
898.552	8933
898.672	9024
898.792	8941
898.913	8872
899.033	8788
899.153	8758
899.273	8594
899.393	8750
899.513	8644
899.633	8792
899.753	8754
899.873	8766
899.993	8762
900.113	8773
900.232	8807
900.352	8708
900.472	8659
900.591	8552
900.711	8629
900.83	8632
900.95	8682
901.069	8762
901.189	8579
901.308	8537
901.427	8419
901.546	8499
901.665	8434
901.784	8537
901.904	8358
902.023	8389
902.141	8237
902.26	8199
902.379	8256
902.498	8183
902.617	8202
902.735	8362
902.854	8263
902.973	8313
903.091	8149
903.21	8077
903.328	8172
903.446	8149
903.565	8050
903.683	8123
903.801	8069
903.919	8088
904.038	8157
904.156	8027
904.274	8027
904.392	8092
904.51	8058
904.627	8088
904.745	7997
904.863	8100
904.981	7982
905.098	7868
905.216	7868
905.334	7856
905.451	7925
905.569	7917
905.686	7928
905.803	7974
905.921	7803
906.038	7856
906.155	7807
906.272	7753
906.389	7681
906.506	7643
906.623	7670
906.74	7620
906.857	7578
906.974	7616
907.091	7567
907.208	7788
907.324	7609
907.441	7594
907.557	7464
907.674	7392
907.79	7468
907.907	7445
908.023	7453
908.139	7483
908.256	7388
908.372	7407
908.488	7400
908.604	7312
908.72	7217
908.836	7255
908.952	7247
909.068	7255
909.184	7312
909.3	7228
909.415	7301
909.531	7263
909.647	7084
909.762	7129
909.878	7110
909.993	7103
910.108	7084
910.224	7076
910.339	7160
910.454	7050
910.57	7038
910.685	6935
910.8	7187
910.915	7118
911.03	7012
911.145	6901
911.259	6920
911.374	6905
911.489	6882
911.604	6852
911.718	6711
911.833	6684
911.947	6669
912.062	6646
912.176	6776
912.291	6696
912.405	6726
912.519	6829
912.633	6821
912.748	6738
912.862	6722
912.976	6601
913.09	6555
913.204	6620
913.318	6593
913.431	6662
913.545	6692
913.659	6753
913.772	6608
913.886	6582
914	6540
914.113	6627
914.226	6639
914.34	6669
914.453	6467
914.566	6551
914.68	6566
914.793	6566
914.906	6441
915.019	6437
915.132	6369
915.245	6456
915.358	6452
915.47	6414
915.583	6509
915.696	6532
915.809	6532
915.921	6604
916.034	6464
916.146	6395
916.259	6395
916.371	6506
916.483	6475
916.595	6407
916.708	6395
916.82	6464
916.932	6414
917.044	6448
917.156	6471
917.268	6296
917.38	6369
917.491	6311
917.603	6357
917.715	6441
917.826	6418
917.938	6304
918.049	6273
918.161	6372
918.272	6464
918.384	6429
918.495	6429
918.606	6258
918.717	6232
918.828	6323
918.939	6296
919.05	6190
919.161	6247
919.272	6114
919.383	6232
919.494	6292
919.604	6395
919.715	6292
919.826	6186
919.936	6213
920.047	6327
920.157	6323
920.267	6418
920.378	6327
920.488	6270
920.598	6464
920.708	6597
920.818	6490
920.928	6471
921.038	6665
921.148	6604
921.258	6410
921.368	6270
921.477	6197
921.587	6243
921.697	6076
921.806	6148
921.916	6106
922.025	6007
922.134	5927
922.244	5893
922.353	5931
922.462	5855
922.571	5817
922.68	5745
922.789	5684
922.898	5729
923.007	5661
923.116	5722
923.224	5710
923.333	5623
923.442	5596
923.55	5623
923.659	5638
923.767	5653
923.876	5585
923.984	5642
924.092	5558
924.201	5592
924.309	5551
924.417	5543
924.525	5482
924.633	5535
924.741	6277
924.849	5357
924.956	5512
925.064	5395
925.172	5334
925.279	5337
925.387	5326
925.494	5326
925.602	5474
925.709	5398
925.816	5258
925.924	5334
926.031	5379
926.138	5311
926.245	5349
926.352	5242
926.459	5303
926.566	5349
926.673	5216
926.779	5143
926.886	5117
926.993	4984
927.099	5018
927.206	4972
927.312	4942
927.419	4995
927.525	4976
927.631	4999
927.737	4946
927.843	4881
927.95	4793
928.056	4812
928.162	4877
928.267	4862
928.373	5277
928.479	4862
928.585	4656
928.69	4778
928.796	4786
928.901	4702
929.007	4599
929.112	4694
929.218	4664
929.323	4569
929.428	4611
929.533	4675
929.638	4500
929.743	4523
929.848	4569
929.953	4440
930.058	4455
930.163	4344
930.267	4379
930.372	4500
930.477	4337
930.581	4504
930.685	4344
930.79	4242
930.894	4287
930.998	4257
931.103	4402
931.207	4086
931.311	4093
931.415	4090
931.519	3968
931.623	3964
