Data from glass_V78500241_1874.txt Node
Date: Wed Sep 01 19:27:29 CST 2021
User: usil
Spectrometer: V785-0024
Trigger mode: 0
Integration Time (sec): 4.000000E-1
Scans to average: 1
Nonlinearity correction enabled: false
Boxcar width: 0
Storing dark spectrum: false
XAxis mode: Wavelengths
Number of Pixels in Spectrum: 1024
>>>>>Begin Spectral Data<<<<<
801.071	3766
801.214	3747
801.356	3701
801.499	3770
801.641	3732
801.783	3774
801.926	3819
802.068	3838
802.211	3873
802.353	3922
802.496	3835
802.638	3869
802.78	3903
802.923	3911
803.065	3896
803.208	3854
803.35	3854
803.492	3873
803.635	3892
803.777	3800
803.919	3888
804.061	4120
804.204	3930
804.346	3899
804.488	3911
804.63	4017
804.773	3934
804.915	4040
805.057	4173
805.199	4036
805.341	4078
805.483	4116
805.626	4063
805.768	4131
805.91	4227
806.052	4200
806.194	4188
806.336	4375
806.478	4230
806.62	4158
806.762	4147
806.904	4276
807.046	4363
807.188	4173
807.33	4166
807.472	4246
807.614	4173
807.756	4230
807.898	4219
808.04	4196
808.182	4242
808.324	4360
808.465	4371
808.607	4470
808.749	4481
808.891	4432
809.033	4504
809.174	4417
809.316	4238
809.458	4242
809.6	4200
809.741	4185
809.883	4128
810.025	4185
810.166	4215
810.308	4204
810.45	4276
810.591	4227
810.733	4265
810.875	4508
811.016	4790
811.158	5140
811.299	5223
811.441	5322
811.582	5014
811.724	4702
811.865	4443
812.007	4424
812.148	4436
812.29	4402
812.431	4394
812.573	4375
812.714	4371
812.855	4409
812.997	4436
813.138	4470
813.279	4409
813.421	4383
813.562	4402
813.703	4314
813.845	4344
813.986	4257
814.127	4192
814.268	4268
814.41	4284
814.551	4284
814.692	4314
814.833	4204
814.974	4299
815.115	4318
815.256	4223
815.397	4257
815.539	4215
815.68	4227
815.821	4211
815.962	4333
816.103	4287
816.244	4169
816.385	4215
816.526	4268
816.666	4242
816.807	4097
816.948	4185
817.089	4162
817.23	4147
817.371	4055
817.512	4063
817.653	4036
817.793	4010
817.934	4036
818.075	4086
818.216	4029
818.356	4093
818.497	3956
818.638	3918
818.778	3911
818.919	3926
819.06	3850
819.2	3941
819.341	3846
819.481	3869
819.622	3896
819.762	3998
819.903	3983
820.043	3846
820.184	3842
820.324	3873
820.465	3865
820.605	3812
820.746	3926
820.886	3816
821.026	3884
821.167	3934
821.307	3945
821.447	3918
821.588	3949
821.728	3953
821.868	3903
822.008	3861
822.149	3911
822.289	3892
822.429	3740
822.569	3751
822.709	3800
822.849	3682
822.99	3682
823.13	3816
823.27	3770
823.41	3667
823.55	3732
823.69	3698
823.83	3751
823.97	3694
824.11	3584
824.25	3614
824.389	3648
824.529	3660
824.669	3629
824.809	3743
824.949	3724
825.089	3720
825.228	3728
825.368	3595
825.508	3538
825.648	3519
825.787	3644
825.927	3625
826.067	3603
826.206	3648
826.346	3781
826.485	3823
826.625	3888
826.765	3964
826.904	3835
827.044	3610
827.183	3538
827.323	3462
827.462	3485
827.601	3435
827.741	3401
827.88	3405
828.02	3378
828.159	3416
828.298	3454
828.437	3507
828.577	3466
828.716	3580
828.855	3488
828.994	3405
829.134	3363
829.273	3363
829.412	3344
829.551	3317
829.69	3359
829.829	3439
829.968	3507
830.107	3458
830.246	3401
830.385	3386
830.524	3344
830.663	3329
830.802	3260
830.941	3180
831.08	3203
831.219	3264
831.357	3260
831.496	3386
831.635	3237
831.774	3237
831.913	3176
832.051	3116
832.19	3169
832.329	3226
832.467	3146
832.606	3131
832.744	3116
832.883	3150
833.022	3180
833.16	3207
833.299	3329
833.437	3321
833.576	3355
833.714	3431
833.852	3447
833.991	3473
834.129	3481
834.267	3466
834.406	3412
834.544	3447
834.682	3424
834.821	3424
834.959	3530
835.097	3428
835.235	3526
835.373	3481
835.511	3500
835.65	3477
835.788	3500
835.926	3389
836.064	3386
836.202	3435
836.34	3534
836.478	3618
836.615	3542
836.753	3591
836.891	3637
837.029	3633
837.167	3564
837.305	3603
837.443	3545
837.58	3473
837.718	3580
837.856	3606
837.993	3545
838.131	3622
838.269	3564
838.406	3637
838.544	3576
838.681	3454
838.819	3420
838.956	3382
839.094	3405
839.231	3393
839.369	3500
839.506	3736
839.643	3622
839.781	3492
839.918	3485
840.055	3545
840.193	3519
840.33	3507
840.467	3557
840.604	3587
840.742	3797
840.879	3545
841.016	3534
841.153	3584
841.29	3759
841.427	3686
841.564	3759
841.701	3728
841.838	3762
841.975	3679
842.112	3690
842.249	3625
842.385	3614
842.522	3808
842.659	3682
842.796	3663
842.933	3724
843.069	3705
843.206	3682
843.343	3827
843.479	3797
843.616	3838
843.752	3652
843.889	3709
844.025	3869
844.162	3694
844.298	3831
844.435	3797
844.571	3785
844.708	3873
844.844	3930
844.98	4010
845.117	3998
845.253	3896
845.389	3865
845.525	3892
845.661	3994
845.798	3915
845.934	4040
846.07	3918
846.206	4017
846.342	4135
846.478	4063
846.614	3956
846.75	3915
846.886	3922
847.022	3991
847.158	3949
847.294	4013
847.429	4010
847.565	4021
847.701	4253
847.837	3865
847.972	3816
848.108	3964
848.244	3949
848.379	3869
848.515	3789
848.65	3808
848.786	3823
848.921	3846
849.057	3922
849.192	3937
849.328	3896
849.463	3896
849.598	3907
849.734	3869
849.869	3857
850.004	3789
850.14	3838
850.275	3785
850.41	3743
850.545	3743
850.68	3789
850.815	3800
850.95	3804
851.085	3934
851.22	3873
851.355	3827
851.49	3793
851.625	3724
851.76	3789
851.895	3736
852.03	3736
852.165	3770
852.299	3816
852.434	3926
852.569	3865
852.703	3831
852.838	3873
852.973	4013
853.107	3975
853.242	3884
853.376	3835
853.511	3759
853.645	3857
853.78	4002
853.914	3915
854.048	3884
854.183	3869
854.317	3930
854.451	4032
854.585	3907
854.72	3937
854.854	4063
854.988	3960
855.122	3975
855.256	3899
855.39	3968
855.524	4082
855.658	4078
855.792	4055
855.926	4173
856.06	4188
856.194	4181
856.327	4150
856.461	4116
856.595	4090
856.729	4150
856.862	4276
856.996	4196
857.13	4329
857.263	4318
857.397	4352
857.53	4276
857.664	4337
857.797	4390
857.931	4394
858.064	4383
858.197	4455
858.331	4375
858.464	4375
858.597	4356
858.731	4478
858.864	4447
858.997	4493
859.13	4493
859.263	4516
859.396	4546
859.529	4546
859.662	4519
859.795	4558
859.928	4573
860.061	4656
860.194	4729
860.327	4599
860.46	4641
860.592	4729
860.725	4767
860.858	4778
860.99	4660
861.123	4714
861.256	4729
861.388	4778
861.521	5357
861.653	4687
861.786	4694
861.918	4771
862.05	4740
862.183	4835
862.315	4854
862.447	4919
862.58	4866
862.712	4790
862.844	4774
862.976	4911
863.108	4892
863.24	5136
863.372	4843
863.504	4870
863.636	4881
863.768	4968
863.9	4938
864.032	4934
864.164	4980
864.296	4972
864.428	5083
864.559	5067
864.691	5105
864.823	5155
864.954	5060
865.086	5052
865.217	5136
865.349	5128
865.48	5170
865.612	5189
865.743	5307
865.875	5181
866.006	5113
866.137	5201
866.269	5261
866.4	5254
866.531	5269
866.662	5265
866.793	5280
866.924	5296
867.055	5311
867.186	5349
867.317	5357
867.448	5345
867.579	5337
867.71	5414
867.841	5376
867.972	5452
868.103	5467
868.233	5463
868.364	5516
868.495	5554
868.625	5646
868.756	5741
868.886	5604
869.017	5752
869.147	5840
869.278	5897
869.408	5828
869.539	5836
869.669	5866
869.799	5912
869.929	5988
870.06	5996
870.19	6182
870.32	6190
870.45	6239
870.58	6346
870.71	6456
870.84	6464
870.97	6407
871.1	6445
871.23	6642
871.36	6646
871.489	6642
871.619	6726
871.749	6798
871.879	6798
872.008	7000
872.138	6909
872.267	7015
872.397	6996
872.526	6993
872.656	7095
872.785	7152
872.915	7343
873.044	7468
873.173	7563
873.303	7575
873.432	7750
873.561	7856
873.69	7928
873.819	7993
873.948	8248
874.077	8233
874.206	8328
874.335	8412
874.464	8640
874.593	8807
874.722	8933
874.851	9070
874.979	9294
875.108	9351
875.237	9420
875.365	9424
875.494	9648
875.623	9835
875.751	9869
875.88	10010
876.008	10120
876.136	10284
876.265	10424
876.393	10649
876.521	10675
876.65	10828
876.778	10816
876.906	10877
877.034	10949
877.162	11090
877.29	11094
877.418	11326
877.546	11273
877.674	11455
877.802	11528
877.93	11554
878.058	11509
878.185	11604
878.313	11657
878.441	11691
878.568	11592
878.696	11817
878.824	11912
878.951	11874
879.079	12068
879.206	12125
879.333	11973
879.461	12057
879.588	12053
879.715	12057
879.842	12254
879.97	12041
880.097	11828
880.224	11843
880.351	11897
880.478	11931
880.605	11798
880.732	11756
880.859	12003
880.986	11813
881.112	11851
881.239	11741
881.366	11638
881.493	11661
881.619	11573
881.746	11585
881.872	11573
881.999	11573
882.125	11406
882.252	11501
882.378	11455
882.505	11577
882.631	11353
882.757	11288
882.883	11356
883.01	11288
883.136	11162
883.262	11037
883.388	11121
883.514	11254
883.64	11155
883.766	11071
883.892	10915
884.018	10957
884.143	11079
884.269	11071
884.395	10786
884.52	10786
884.646	10774
884.772	10687
884.897	10687
885.023	10637
885.148	10679
885.274	10782
885.399	10736
885.524	10672
885.65	10645
885.775	10573
885.9	10577
886.025	10645
886.15	10561
886.275	10443
886.4	10333
886.525	10436
886.65	10398
886.775	10337
886.9	10424
887.025	10542
887.149	10325
887.274	10200
887.399	10207
887.523	10219
887.648	10105
887.773	10109
887.897	10177
888.021	10200
888.146	10074
888.27	10230
888.395	10150
888.519	10238
888.643	10265
888.767	10177
888.891	10078
889.015	10017
889.139	10025
889.263	9922
889.387	10063
889.511	10097
889.635	10063
889.759	9956
889.883	10017
890.006	10044
890.13	10097
890.254	9949
890.377	9991
890.501	9850
890.624	9835
890.748	9903
890.871	9755
890.995	9797
891.118	9679
891.241	9759
891.364	9637
891.488	9785
891.611	9785
891.734	9701
891.857	9770
891.98	9793
892.103	9770
892.226	9709
892.349	9644
892.471	9507
892.594	9572
892.717	9629
892.839	9538
892.962	9587
893.085	9679
893.207	9599
893.33	9507
893.452	9507
893.575	9572
893.697	9481
893.819	9625
893.941	9614
894.064	9637
894.186	9458
894.308	9416
894.43	9488
894.552	9629
894.674	9511
894.796	9348
894.918	9370
895.04	9363
895.161	9382
895.283	9389
895.405	9245
895.526	9264
895.648	9218
895.769	9279
895.891	9275
896.012	9306
896.134	9218
896.255	9142
896.376	9097
896.498	9180
896.619	9165
896.74	9047
896.861	9100
896.982	9230
897.103	9287
897.224	9192
897.345	9070
897.466	9032
897.587	9013
897.708	9135
897.828	9055
897.949	8899
898.07	8811
898.19	8929
898.311	9055
898.431	8895
898.552	8975
898.672	8979
898.792	8963
898.913	8872
899.033	8811
899.153	8739
899.273	8682
899.393	8716
899.513	8735
899.633	8716
899.753	8781
899.873	8705
899.993	8750
900.113	8766
900.232	8697
900.352	8644
900.472	8670
900.591	8583
900.711	8533
900.83	8526
900.95	8617
901.069	8693
901.189	8556
901.308	8347
901.427	8419
901.546	8419
901.665	8465
901.784	8499
901.904	8347
902.023	8317
902.141	8259
902.26	8191
902.379	8305
902.498	8214
902.617	8164
902.735	8240
902.854	8233
902.973	8298
903.091	8142
903.21	8240
903.328	8172
903.446	8077
903.565	8058
903.683	8149
903.801	8016
903.919	8073
904.038	8103
904.156	8031
904.274	8092
904.392	8031
904.51	8039
904.627	8012
904.745	8134
904.863	8100
904.981	7917
905.098	7875
905.216	7898
905.334	7852
905.451	7837
905.569	7883
905.686	7898
905.803	7871
905.921	7792
906.038	7860
906.155	7807
906.272	7738
906.389	7704
906.506	7590
906.623	7594
906.74	7578
906.857	7502
906.974	7597
907.091	7620
907.208	7727
907.324	7628
907.441	7559
907.557	7483
907.674	7491
907.79	7400
907.907	7411
908.023	7369
908.139	7400
908.256	7358
908.372	7388
908.488	7346
908.604	7274
908.72	7225
908.836	7240
908.952	7247
909.068	7270
909.184	7335
909.3	7251
909.415	7293
909.531	7266
909.647	7095
909.762	7110
909.878	7110
909.993	7110
910.108	7053
910.224	7149
910.339	7118
910.454	7053
910.57	7031
910.685	6939
910.8	7183
910.915	7107
911.03	7008
911.145	6947
911.259	6890
911.374	6894
911.489	6852
911.604	6806
911.718	6719
911.833	6764
911.947	6688
912.062	6578
912.176	6734
912.291	6734
912.405	6722
912.519	6764
912.633	6806
912.748	6711
912.862	6730
912.976	6639
913.09	6532
913.204	6616
913.318	6597
913.431	6677
913.545	6677
913.659	6711
913.772	6627
913.886	6540
914	6502
914.113	6566
914.226	6612
914.34	6635
914.453	6528
914.566	6642
914.68	6589
914.793	6490
914.906	6414
915.019	6372
915.132	6372
915.245	6395
915.358	6429
915.47	6407
915.583	6422
915.696	6471
915.809	6563
915.921	6551
916.034	6456
916.146	6357
916.259	6361
916.371	6464
916.483	6456
916.595	6376
916.708	6418
916.82	6384
916.932	6342
917.044	6414
917.156	6388
917.268	6361
917.38	6338
917.491	6319
917.603	6365
917.715	6380
917.826	6422
917.938	6361
918.049	6247
918.161	6319
918.272	6399
918.384	6429
918.495	6289
918.606	6254
918.717	6205
918.828	6292
918.939	6281
919.05	6155
919.161	6213
919.272	6087
919.383	6136
919.494	6266
919.604	6418
919.715	6277
919.826	6258
919.936	6277
920.047	6338
920.157	6292
920.267	6471
920.378	6289
920.488	6304
920.598	6467
920.708	6483
920.818	6452
920.928	6483
921.038	6639
921.148	6559
921.258	6391
921.368	6273
921.477	6175
921.587	6228
921.697	6091
921.806	6182
921.916	6102
922.025	5912
922.134	5935
922.244	5866
922.353	5916
922.462	5878
922.571	5821
922.68	5665
922.789	5646
922.898	5733
923.007	5573
923.116	5710
923.224	5653
923.333	5657
923.442	5600
923.55	5570
923.659	5558
923.767	5611
923.876	5573
923.984	5532
924.092	5493
924.201	5528
924.309	5619
924.417	5577
924.525	5501
924.633	5516
924.741	6270
924.849	5391
924.956	5463
925.064	5357
925.172	5315
925.279	5273
925.387	5311
925.494	5330
925.602	5406
925.709	5364
925.816	5220
925.924	5307
926.031	5311
926.138	5250
926.245	5273
926.352	5250
926.459	5318
926.566	5322
926.673	5242
926.779	5159
926.886	5109
926.993	5010
927.099	4999
927.206	4961
927.312	4923
927.419	4968
927.525	4942
927.631	4984
927.737	4938
927.843	4892
927.95	4786
928.056	4870
928.162	4820
928.267	4873
928.373	5242
928.479	4824
928.585	4744
928.69	4763
928.796	4774
928.901	4736
929.007	4596
929.112	4668
929.218	4615
929.323	4664
929.428	4569
929.533	4664
929.638	4531
929.743	4519
929.848	4588
929.953	4489
930.058	4421
930.163	4379
930.267	4375
930.372	4424
930.477	4276
930.581	4462
930.685	4379
930.79	4246
930.894	4249
930.998	4230
931.103	4322
931.207	4135
931.311	4071
931.415	4010
931.519	3880
931.623	3972
