Data from glass_V78500241_2510.txt Node
Date: Wed Sep 01 19:31:54 CST 2021
User: usil
Spectrometer: V785-0024
Trigger mode: 0
Integration Time (sec): 4.000000E-1
Scans to average: 1
Nonlinearity correction enabled: false
Boxcar width: 0
Storing dark spectrum: false
XAxis mode: Wavelengths
Number of Pixels in Spectrum: 1024
>>>>>Begin Spectral Data<<<<<
801.071	3736
801.214	3755
801.356	3644
801.499	3755
801.641	3667
801.783	3774
801.926	3880
802.068	3774
802.211	3838
802.353	3865
802.496	3812
802.638	3865
802.78	3857
802.923	3945
803.065	3876
803.208	3827
803.35	3838
803.492	3922
803.635	3915
803.777	3789
803.919	3873
804.061	4105
804.204	3907
804.346	3968
804.488	3937
804.63	3998
804.773	3941
804.915	4029
805.057	4093
805.199	3991
805.341	4090
805.483	4101
805.626	4120
805.768	4109
805.91	4246
806.052	4257
806.194	4166
806.336	4303
806.478	4238
806.62	4139
806.762	4188
806.904	4238
807.046	4352
807.188	4158
807.33	4158
807.472	4211
807.614	4162
807.756	4280
807.898	4242
808.04	4230
808.182	4276
808.324	4352
808.465	4299
808.607	4436
808.749	4421
808.891	4470
809.033	4489
809.174	4379
809.316	4268
809.458	4219
809.6	4124
809.741	4131
809.883	4139
810.025	4162
810.166	4204
810.308	4192
810.45	4196
810.591	4230
810.733	4306
810.875	4481
811.016	4820
811.158	5143
811.299	5258
811.441	5269
811.582	5010
811.724	4664
811.865	4474
812.007	4478
812.148	4421
812.29	4394
812.431	4402
812.573	4409
812.714	4367
812.855	4424
812.997	4417
813.138	4478
813.279	4379
813.421	4405
813.562	4398
813.703	4325
813.845	4352
813.986	4261
814.127	4154
814.268	4234
814.41	4268
814.551	4223
814.692	4280
814.833	4253
814.974	4234
815.115	4314
815.256	4192
815.397	4268
815.539	4253
815.68	4211
815.821	4173
815.962	4299
816.103	4265
816.244	4204
816.385	4223
816.526	4295
816.666	4192
816.807	4025
816.948	4177
817.089	4166
817.23	4120
817.371	4017
817.512	4055
817.653	4086
817.793	4032
817.934	4044
818.075	4074
818.216	4074
818.356	4101
818.497	3991
818.638	3907
818.778	3922
818.919	3876
819.06	3907
819.2	3930
819.341	3850
819.481	3823
819.622	3865
819.762	4010
819.903	3934
820.043	3846
820.184	3812
820.324	3846
820.465	3865
820.605	3838
820.746	3854
820.886	3804
821.026	3930
821.167	3911
821.307	3960
821.447	3983
821.588	3953
821.728	3930
821.868	3926
822.008	3880
822.149	3899
822.289	3873
822.429	3770
822.569	3778
822.709	3804
822.849	3682
822.99	3720
823.13	3740
823.27	3781
823.41	3709
823.55	3720
823.69	3698
823.83	3728
823.97	3648
824.11	3622
824.25	3591
824.389	3603
824.529	3644
824.669	3603
824.809	3720
824.949	3679
825.089	3747
825.228	3679
825.368	3584
825.508	3572
825.648	3538
825.787	3599
825.927	3629
826.067	3606
826.206	3652
826.346	3831
826.485	3816
826.625	3876
826.765	3892
826.904	3800
827.044	3595
827.183	3485
827.323	3458
827.462	3481
827.601	3397
827.741	3386
827.88	3401
828.02	3389
828.159	3389
828.298	3473
828.437	3485
828.577	3454
828.716	3568
828.855	3454
828.994	3370
829.134	3351
829.273	3401
829.412	3344
829.551	3283
829.69	3359
829.829	3386
829.968	3515
830.107	3428
830.246	3401
830.385	3393
830.524	3348
830.663	3268
830.802	3264
830.941	3165
831.08	3203
831.219	3245
831.357	3222
831.496	3420
831.635	3222
831.774	3188
831.913	3161
832.051	3138
832.19	3112
832.329	3230
832.467	3131
832.606	3074
832.744	3135
832.883	3154
833.022	3241
833.16	3222
833.299	3287
833.437	3321
833.576	3336
833.714	3370
833.852	3431
833.991	3450
834.129	3454
834.267	3382
834.406	3374
834.544	3431
834.682	3412
834.821	3397
834.959	3545
835.097	3386
835.235	3511
835.373	3492
835.511	3450
835.65	3386
835.788	3504
835.926	3405
836.064	3351
836.202	3393
836.34	3561
836.478	3553
836.615	3557
836.753	3587
836.891	3648
837.029	3587
837.167	3557
837.305	3580
837.443	3526
837.58	3507
837.718	3618
837.856	3504
837.993	3549
838.131	3568
838.269	3572
838.406	3580
838.544	3591
838.681	3428
838.819	3447
838.956	3348
839.094	3393
839.231	3435
839.369	3481
839.506	3720
839.643	3618
839.781	3492
839.918	3439
840.055	3572
840.193	3523
840.33	3534
840.467	3515
840.604	3572
840.742	3778
840.879	3542
841.016	3530
841.153	3561
841.29	3743
841.427	3713
841.564	3698
841.701	3728
841.838	3747
841.975	3644
842.112	3686
842.249	3599
842.385	3656
842.522	3823
842.659	3663
842.796	3660
842.933	3686
843.069	3682
843.206	3667
843.343	3808
843.479	3762
843.616	3816
843.752	3671
843.889	3675
844.025	3857
844.162	3701
844.298	3823
844.435	3785
844.571	3774
844.708	3915
844.844	3991
844.98	4025
845.117	4010
845.253	3922
845.389	3903
845.525	3956
845.661	3968
845.798	3907
845.934	3998
846.07	3918
846.206	3991
846.342	4120
846.478	4078
846.614	3987
846.75	3907
846.886	3903
847.022	4021
847.158	3987
847.294	3983
847.429	4021
847.565	3968
847.701	4242
847.837	3846
847.972	3842
848.108	3953
848.244	3968
848.379	3827
848.515	3793
848.65	3827
848.786	3850
848.921	3846
849.057	3922
849.192	3941
849.328	3899
849.463	3903
849.598	3903
849.734	3854
849.869	3781
850.004	3808
850.14	3827
850.275	3770
850.41	3736
850.545	3709
850.68	3789
850.815	3789
850.95	3759
851.085	3937
851.22	3876
851.355	3823
851.49	3751
851.625	3789
851.76	3823
851.895	3736
852.03	3713
852.165	3778
852.299	3800
852.434	3907
852.569	3835
852.703	3846
852.838	3930
852.973	3987
853.107	3964
853.242	3827
853.376	3827
853.511	3785
853.645	3831
853.78	3994
853.914	3896
854.048	3918
854.183	3846
854.317	3941
854.451	4044
854.585	3968
854.72	3934
854.854	4059
854.988	3922
855.122	3979
855.256	3930
855.39	3994
855.524	4055
855.658	4131
855.792	4097
855.926	4120
856.06	4154
856.194	4192
856.327	4124
856.461	4128
856.595	4185
856.729	4192
856.862	4261
856.996	4238
857.13	4344
857.263	4325
857.397	4337
857.53	4246
857.664	4325
857.797	4367
857.931	4390
858.064	4329
858.197	4462
858.331	4375
858.464	4398
858.597	4322
858.731	4413
858.864	4428
858.997	4447
859.13	4478
859.263	4504
859.396	4561
859.529	4466
859.662	4527
859.795	4474
859.928	4607
860.061	4656
860.194	4683
860.327	4649
860.46	4622
860.592	4744
860.725	4816
860.858	4752
860.99	4729
861.123	4702
861.256	4679
861.388	4752
861.521	5387
861.653	4656
861.786	4721
861.918	4736
862.05	4733
862.183	4828
862.315	4870
862.447	4896
862.58	4870
862.712	4752
862.844	4774
862.976	4873
863.108	4866
863.24	5212
863.372	4866
863.504	4873
863.636	4915
863.768	4976
863.9	4934
864.032	4923
864.164	4965
864.296	4991
864.428	5094
864.559	5071
864.691	5086
864.823	5121
864.954	5140
865.086	5113
865.217	5143
865.349	5113
865.48	5174
865.612	5212
865.743	5353
865.875	5235
866.006	5143
866.137	5178
866.269	5212
866.4	5284
866.531	5220
866.662	5273
866.793	5258
866.924	5258
867.055	5334
867.186	5345
867.317	5326
867.448	5284
867.579	5337
867.71	5372
867.841	5391
867.972	5429
868.103	5448
868.233	5455
868.364	5497
868.495	5486
868.625	5600
868.756	5790
868.886	5581
869.017	5726
869.147	5844
869.278	5874
869.408	5783
869.539	5809
869.669	5897
869.799	5847
869.929	6007
870.06	5961
870.19	6171
870.32	6232
870.45	6289
870.58	6319
870.71	6384
870.84	6471
870.97	6445
871.1	6498
871.23	6642
871.36	6696
871.489	6601
871.619	6741
871.749	6825
871.879	6871
872.008	6947
872.138	6916
872.267	6966
872.397	6993
872.526	7008
872.656	7099
872.785	7217
872.915	7320
873.044	7571
873.173	7544
873.303	7685
873.432	7696
873.561	7833
873.69	7871
873.819	7982
873.948	8161
874.077	8263
874.206	8271
874.335	8385
874.464	8708
874.593	8910
874.722	8914
874.851	9123
874.979	9256
875.108	9344
875.237	9397
875.365	9515
875.494	9663
875.623	9827
875.751	9850
875.88	9915
876.008	10188
876.136	10261
876.265	10462
876.393	10748
876.521	10675
876.65	10831
876.778	10934
876.906	10877
877.034	10923
877.162	11056
877.29	11124
877.418	11223
877.546	11315
877.674	11341
877.802	11463
877.93	11436
878.058	11596
878.185	11630
878.313	11619
878.441	11733
878.568	11630
878.696	11752
878.824	11859
878.951	11916
879.079	11965
879.206	12072
879.333	12003
879.461	11980
879.588	12098
879.715	12041
879.842	12155
879.97	12030
880.097	11870
880.224	11783
880.351	11851
880.478	11847
880.605	11916
880.732	11851
880.859	12015
880.986	11745
881.112	11783
881.239	11771
881.366	11653
881.493	11592
881.619	11486
881.746	11543
881.872	11478
881.999	11512
882.125	11459
882.252	11497
882.378	11417
882.505	11589
882.631	11292
882.757	11334
882.883	11273
883.01	11337
883.136	11159
883.262	11090
883.388	11094
883.514	11242
883.64	11216
883.766	11098
883.892	10953
884.018	10953
884.143	11124
884.269	11075
884.395	10847
884.52	10755
884.646	10767
884.772	10767
884.897	10607
885.023	10630
885.148	10702
885.274	10755
885.399	10637
885.524	10592
885.65	10596
885.775	10588
885.9	10542
886.025	10561
886.15	10546
886.275	10459
886.4	10344
886.525	10325
886.65	10310
886.775	10371
886.9	10527
887.025	10512
887.149	10409
887.274	10211
887.399	10227
887.523	10158
887.648	10082
887.773	10158
887.897	10272
888.021	10192
888.146	10044
888.27	10200
888.395	10284
888.519	10192
888.643	10147
888.767	10223
888.891	9998
889.015	9998
889.139	10059
889.263	9987
889.387	10040
889.511	10036
889.635	10048
889.759	9911
889.883	9926
890.006	9991
890.13	10105
890.254	9945
890.377	9968
890.501	9819
890.624	9842
890.748	9880
890.871	9762
890.995	9724
891.118	9686
891.241	9709
891.364	9781
891.488	9827
891.611	9736
891.734	9728
891.857	9728
891.98	9698
892.103	9751
892.226	9644
892.349	9698
892.471	9511
892.594	9534
892.717	9545
892.839	9656
892.962	9603
893.085	9682
893.207	9545
893.33	9481
893.452	9492
893.575	9606
893.697	9553
893.819	9580
893.941	9641
894.064	9561
894.186	9466
894.308	9401
894.43	9557
894.552	9564
894.674	9431
894.796	9317
894.918	9317
895.04	9389
895.161	9329
895.283	9310
895.405	9214
895.526	9264
895.648	9260
895.769	9165
895.891	9222
896.012	9245
896.134	9268
896.255	9214
896.376	9108
896.498	9119
896.619	9062
896.74	9058
896.861	9028
896.982	9275
897.103	9340
897.224	9112
897.345	9024
897.466	8914
897.587	9047
897.708	9047
897.828	9100
897.949	8902
898.07	8933
898.19	8982
898.311	8979
898.431	8944
898.552	8925
898.672	8876
898.792	8952
898.913	8933
899.033	8853
899.153	8727
899.273	8610
899.393	8739
899.513	8739
899.633	8621
899.753	8762
899.873	8667
899.993	8773
900.113	8670
900.232	8708
900.352	8682
900.472	8575
900.591	8552
900.711	8613
900.83	8514
900.95	8552
901.069	8636
901.189	8556
901.308	8434
901.427	8328
901.546	8423
901.665	8385
901.784	8530
901.904	8336
902.023	8358
902.141	8233
902.26	8180
902.379	8324
902.498	8214
902.617	8199
902.735	8267
902.854	8263
902.973	8259
903.091	8153
903.21	8142
903.328	8134
903.446	8123
903.565	8043
903.683	8069
903.801	8142
903.919	8130
904.038	8069
904.156	7974
904.274	8119
904.392	8035
904.51	8027
904.627	8008
904.745	8062
904.863	8043
904.981	7902
905.098	7860
905.216	7875
905.334	7841
905.451	7868
905.569	7898
905.686	7959
905.803	7887
905.921	7731
906.038	7887
906.155	7750
906.272	7643
906.389	7677
906.506	7594
906.623	7666
906.74	7597
906.857	7502
906.974	7544
907.091	7632
907.208	7639
907.324	7609
907.441	7510
907.557	7426
907.674	7445
907.79	7362
907.907	7396
908.023	7426
908.139	7434
908.256	7358
908.372	7339
908.488	7285
908.604	7305
908.72	7221
908.836	7301
908.952	7305
909.068	7255
909.184	7236
909.3	7217
909.415	7247
909.531	7301
909.647	7072
909.762	7103
909.878	7141
909.993	7069
910.108	7080
910.224	7069
910.339	7080
910.454	7110
910.57	6958
910.685	6962
910.8	7126
910.915	7107
911.03	7031
911.145	6882
911.259	6852
911.374	6829
911.489	6760
911.604	6791
911.718	6696
911.833	6760
911.947	6654
912.062	6544
912.176	6681
912.291	6681
912.405	6715
912.519	6772
912.633	6837
912.748	6696
912.862	6696
912.976	6574
913.09	6513
913.204	6593
913.318	6574
913.431	6654
913.545	6623
913.659	6715
913.772	6635
913.886	6601
914	6490
914.113	6601
914.226	6639
914.34	6631
914.453	6506
914.566	6532
914.68	6540
914.793	6570
914.906	6426
915.019	6380
915.132	6331
915.245	6433
915.358	6486
915.47	6418
915.583	6437
915.696	6418
915.809	6486
915.921	6528
916.034	6407
916.146	6391
916.259	6353
916.371	6464
916.483	6429
916.595	6376
916.708	6422
916.82	6388
916.932	6372
917.044	6388
917.156	6403
917.268	6273
917.38	6353
917.491	6357
917.603	6285
917.715	6365
917.826	6365
917.938	6273
918.049	6251
918.161	6285
918.272	6395
918.384	6452
918.495	6308
918.606	6209
918.717	6163
918.828	6224
918.939	6281
919.05	6243
919.161	6197
919.272	6091
919.383	6182
919.494	6262
919.604	6452
919.715	6270
919.826	6190
919.936	6254
920.047	6334
920.157	6243
920.267	6441
920.378	6289
920.488	6311
920.598	6475
920.708	6582
920.818	6384
920.928	6437
921.038	6616
921.148	6555
921.258	6369
921.368	6285
921.477	6235
921.587	6201
921.697	6083
921.806	6190
921.916	5988
922.025	5935
922.134	5908
922.244	5863
922.353	5923
922.462	5840
922.571	5847
922.68	5672
922.789	5665
922.898	5722
923.007	5615
923.116	5733
923.224	5615
923.333	5680
923.442	5585
923.55	5577
923.659	5577
923.767	5608
923.876	5509
923.984	5512
924.092	5471
924.201	5570
924.309	5528
924.417	5501
924.525	5505
924.633	5455
924.741	6243
924.849	5315
924.956	5497
925.064	5322
925.172	5261
925.279	5311
925.387	5322
925.494	5273
925.602	5452
925.709	5360
925.816	5292
925.924	5303
926.031	5345
926.138	5303
926.245	5315
926.352	5235
926.459	5273
926.566	5345
926.673	5185
926.779	5105
926.886	5079
926.993	5006
927.099	5010
927.206	4953
927.312	4953
927.419	4984
927.525	5025
927.631	4987
927.737	4858
927.843	4854
927.95	4721
928.056	4797
928.162	4805
928.267	4847
928.373	5258
928.479	4824
928.585	4672
928.69	4767
928.796	4767
928.901	4672
929.007	4603
929.112	4637
929.218	4634
929.323	4588
929.428	4561
929.533	4691
929.638	4546
929.743	4512
929.848	4538
929.953	4485
930.058	4390
930.163	4337
930.267	4318
930.372	4402
930.477	4253
930.581	4459
930.685	4352
930.79	4268
930.894	4284
930.998	4215
931.103	4360
931.207	4116
931.311	4090
931.415	4013
931.519	3896
931.623	3979
