Data from glass_V78500241_860.txt Node
Date: Wed Sep 01 19:20:27 CST 2021
User: usil
Spectrometer: V785-0024
Trigger mode: 0
Integration Time (sec): 4.000000E-1
Scans to average: 1
Nonlinearity correction enabled: false
Boxcar width: 0
Storing dark spectrum: false
XAxis mode: Wavelengths
Number of Pixels in Spectrum: 1024
>>>>>Begin Spectral Data<<<<<
801.071	3724
801.214	3740
801.356	3709
801.499	3709
801.641	3755
801.783	3781
801.926	3911
802.068	3850
802.211	3876
802.353	3918
802.496	3831
802.638	3907
802.78	3899
802.923	3964
803.065	3907
803.208	3846
803.35	3907
803.492	3903
803.635	3934
803.777	3800
803.919	3888
804.061	4196
804.204	3991
804.346	3937
804.488	3930
804.63	4032
804.773	3983
804.915	4036
805.057	4177
805.199	4032
805.341	4120
805.483	4204
805.626	4162
805.768	4124
805.91	4227
806.052	4246
806.194	4192
806.336	4363
806.478	4185
806.62	4185
806.762	4230
806.904	4280
807.046	4360
807.188	4215
807.33	4177
807.472	4265
807.614	4188
807.756	4265
807.898	4207
808.04	4204
808.182	4295
808.324	4344
808.465	4390
808.607	4493
808.749	4459
808.891	4523
809.033	4478
809.174	4413
809.316	4295
809.458	4303
809.6	4181
809.741	4147
809.883	4185
810.025	4227
810.166	4238
810.308	4261
810.45	4227
810.591	4234
810.733	4318
810.875	4546
811.016	4816
811.158	5090
811.299	5277
811.441	5360
811.582	5022
811.724	4634
811.865	4531
812.007	4440
812.148	4440
812.29	4417
812.431	4383
812.573	4421
812.714	4386
812.855	4451
812.997	4413
813.138	4470
813.279	4424
813.421	4447
813.562	4409
813.703	4341
813.845	4360
813.986	4257
814.127	4223
814.268	4287
814.41	4280
814.551	4318
814.692	4303
814.833	4265
814.974	4310
815.115	4344
815.256	4246
815.397	4238
815.539	4234
815.68	4219
815.821	4234
815.962	4348
816.103	4265
816.244	4268
816.385	4280
816.526	4318
816.666	4223
816.807	4086
816.948	4188
817.089	4211
817.23	4147
817.371	4093
817.512	4055
817.653	4074
817.793	4059
817.934	4051
818.075	4109
818.216	4063
818.356	4120
818.497	3960
818.638	3930
818.778	3934
818.919	3857
819.06	3869
819.2	3873
819.341	3854
819.481	3835
819.622	3953
819.762	4063
819.903	3937
820.043	3903
820.184	3835
820.324	3842
820.465	3861
820.605	3873
820.746	3884
820.886	3797
821.026	3956
821.167	3884
821.307	3998
821.447	3979
821.588	3956
821.728	3972
821.868	3968
822.008	3869
822.149	3941
822.289	3922
822.429	3800
822.569	3770
822.709	3762
822.849	3747
822.99	3759
823.13	3762
823.27	3797
823.41	3732
823.55	3740
823.69	3755
823.83	3740
823.97	3667
824.11	3614
824.25	3591
824.389	3610
824.529	3713
824.669	3663
824.809	3717
824.949	3762
825.089	3751
825.228	3679
825.368	3625
825.508	3599
825.648	3625
825.787	3572
825.927	3633
826.067	3618
826.206	3660
826.346	3797
826.485	3854
826.625	3880
826.765	3983
826.904	3819
827.044	3625
827.183	3561
827.323	3462
827.462	3515
827.601	3447
827.741	3405
827.88	3462
828.02	3359
828.159	3443
828.298	3454
828.437	3523
828.577	3473
828.716	3587
828.855	3519
828.994	3370
829.134	3370
829.273	3428
829.412	3367
829.551	3374
829.69	3344
829.829	3443
829.968	3530
830.107	3450
830.246	3458
830.385	3351
830.524	3397
830.663	3317
830.802	3256
830.941	3203
831.08	3188
831.219	3275
831.357	3294
831.496	3424
831.635	3233
831.774	3207
831.913	3203
832.051	3176
832.19	3161
832.329	3214
832.467	3112
832.606	3085
832.744	3199
832.883	3173
833.022	3222
833.16	3253
833.299	3306
833.437	3298
833.576	3393
833.714	3412
833.852	3454
833.991	3431
834.129	3485
834.267	3466
834.406	3416
834.544	3458
834.682	3386
834.821	3428
834.959	3603
835.097	3420
835.235	3515
835.373	3526
835.511	3515
835.65	3481
835.788	3473
835.926	3393
836.064	3382
836.202	3416
836.34	3576
836.478	3614
836.615	3557
836.753	3629
836.891	3656
837.029	3671
837.167	3568
837.305	3576
837.443	3591
837.58	3526
837.718	3603
837.856	3557
837.993	3545
838.131	3572
838.269	3610
838.406	3599
838.544	3595
838.681	3473
838.819	3481
838.956	3412
839.094	3420
839.231	3428
839.369	3523
839.506	3740
839.643	3652
839.781	3515
839.918	3485
840.055	3568
840.193	3530
840.33	3534
840.467	3603
840.604	3644
840.742	3800
840.879	3603
841.016	3591
841.153	3595
841.29	3747
841.427	3747
841.564	3732
841.701	3759
841.838	3720
841.975	3675
842.112	3705
842.249	3679
842.385	3663
842.522	3827
842.659	3671
842.796	3675
842.933	3728
843.069	3762
843.206	3701
843.343	3804
843.479	3778
843.616	3804
843.752	3679
843.889	3671
844.025	3876
844.162	3732
844.298	3854
844.435	3804
844.571	3816
844.708	3934
844.844	4010
844.98	3994
845.117	4032
845.253	3888
845.389	3896
845.525	3991
845.661	3960
845.798	3934
845.934	4063
846.07	3968
846.206	4071
846.342	4166
846.478	4093
846.614	4021
846.75	3934
846.886	3865
847.022	4051
847.158	3979
847.294	4021
847.429	4006
847.565	3998
847.701	4238
847.837	3915
847.972	3888
848.108	3953
848.244	3987
848.379	3888
848.515	3854
848.65	3865
848.786	3846
848.921	3869
849.057	3972
849.192	4010
849.328	3937
849.463	3949
849.598	3876
849.734	3865
849.869	3880
850.004	3781
850.14	3869
850.275	3838
850.41	3778
850.545	3762
850.68	3781
850.815	3812
850.95	3778
851.085	3979
851.22	3911
851.355	3808
851.49	3804
851.625	3789
851.76	3823
851.895	3747
852.03	3732
852.165	3793
852.299	3865
852.434	3888
852.569	3896
852.703	3922
852.838	3956
852.973	4002
853.107	3991
853.242	3865
853.376	3838
853.511	3778
853.645	3842
853.78	3972
853.914	3949
854.048	3937
854.183	3915
854.317	4021
854.451	4063
854.585	3941
854.72	3945
854.854	4071
854.988	3953
855.122	4021
855.256	3922
855.39	4025
855.524	4143
855.658	4131
855.792	4166
855.926	4150
856.06	4173
856.194	4215
856.327	4150
856.461	4131
856.595	4135
856.729	4158
856.862	4276
856.996	4242
857.13	4291
857.263	4333
857.397	4367
857.53	4257
857.664	4299
857.797	4405
857.931	4481
858.064	4386
858.197	4451
858.331	4405
858.464	4371
858.597	4341
858.731	4432
858.864	4489
858.997	4478
859.13	4535
859.263	4512
859.396	4531
859.529	4569
859.662	4558
859.795	4519
859.928	4611
860.061	4752
860.194	4740
860.327	4687
860.46	4649
860.592	4729
860.725	4710
860.858	4736
860.99	4683
861.123	4694
861.256	4721
861.388	4767
861.521	5406
861.653	4774
861.786	4702
861.918	4725
862.05	4831
862.183	4820
862.315	4908
862.447	4968
862.58	4900
862.712	4797
862.844	4763
862.976	4915
863.108	4885
863.24	5231
863.372	4828
863.504	4919
863.636	4904
863.768	4965
863.9	4908
864.032	4942
864.164	4968
864.296	4987
864.428	5109
864.559	5147
864.691	5105
864.823	5162
864.954	5102
865.086	5121
865.217	5140
865.349	5079
865.48	5162
865.612	5220
865.743	5318
865.875	5204
866.006	5162
866.137	5208
866.269	5223
866.4	5261
866.531	5288
866.662	5273
866.793	5254
866.924	5296
867.055	5349
867.186	5341
867.317	5299
867.448	5349
867.579	5387
867.71	5322
867.841	5406
867.972	5440
868.103	5478
868.233	5493
868.364	5452
868.495	5558
868.625	5665
868.756	5794
868.886	5684
869.017	5741
869.147	5874
869.278	5889
869.408	5817
869.539	5840
869.669	5866
869.799	5893
869.929	5992
870.06	6015
870.19	6190
870.32	6239
870.45	6258
870.58	6399
870.71	6464
870.84	6521
870.97	6418
871.1	6517
871.23	6639
871.36	6669
871.489	6677
871.619	6673
871.749	6829
871.879	6882
872.008	6993
872.138	7076
872.267	6954
872.397	6947
872.526	7023
872.656	7110
872.785	7164
872.915	7438
873.044	7518
873.173	7540
873.303	7636
873.432	7746
873.561	7879
873.69	7883
873.819	8005
873.948	8138
874.077	8206
874.206	8309
874.335	8358
874.464	8670
874.593	8849
874.722	8982
874.851	9142
874.979	9207
875.108	9431
875.237	9428
875.365	9481
875.494	9705
875.623	9816
875.751	9854
875.88	10032
876.008	10139
876.136	10291
876.265	10561
876.393	10683
876.521	10714
876.65	10805
876.778	10965
876.906	10919
877.034	11136
877.162	11159
877.29	11189
877.418	11299
877.546	11387
877.674	11444
877.802	11425
877.93	11425
878.058	11520
878.185	11512
878.313	11596
878.441	11684
878.568	11646
878.696	11775
878.824	11840
878.951	11916
879.079	12064
879.206	12064
879.333	12068
879.461	12072
879.588	12079
879.715	12030
879.842	12251
879.97	12045
880.097	11927
880.224	11901
880.351	11863
880.478	11992
880.605	11878
880.732	11878
880.859	12038
880.986	11855
881.112	11847
881.239	11623
881.366	11615
881.493	11619
881.619	11524
881.746	11661
881.872	11512
881.999	11532
882.125	11497
882.252	11535
882.378	11547
882.505	11501
882.631	11345
882.757	11299
882.883	11414
883.01	11239
883.136	11277
883.262	11094
883.388	11075
883.514	11143
883.64	11189
883.766	11201
883.892	10999
884.018	11003
884.143	11105
884.269	11045
884.395	10850
884.52	10805
884.646	10843
884.772	10721
884.897	10710
885.023	10759
885.148	10831
885.274	10748
885.399	10729
885.524	10694
885.65	10660
885.775	10664
885.9	10538
886.025	10554
886.15	10603
886.275	10421
886.4	10481
886.525	10375
886.65	10394
886.775	10291
886.9	10466
887.025	10592
887.149	10318
887.274	10352
887.399	10207
887.523	10223
887.648	10147
887.773	10173
887.897	10223
888.021	10227
888.146	10097
888.27	10188
888.395	10253
888.519	10265
888.643	10215
888.767	10143
888.891	10147
889.015	10032
889.139	10093
889.263	10002
889.387	10067
889.511	10116
889.635	10051
889.759	9949
889.883	10059
890.006	10010
890.13	10097
890.254	9968
890.377	9972
890.501	9816
890.624	9911
890.748	9869
890.871	9743
890.995	9785
891.118	9747
891.241	9770
891.364	9827
891.488	9812
891.611	9698
891.734	9736
891.857	9816
891.98	9755
892.103	9774
892.226	9762
892.349	9740
892.471	9485
892.594	9679
892.717	9698
892.839	9614
892.962	9599
893.085	9717
893.207	9584
893.33	9637
893.452	9557
893.575	9534
893.697	9538
893.819	9603
893.941	9599
894.064	9584
894.186	9389
894.308	9389
894.43	9500
894.552	9618
894.674	9572
894.796	9389
894.918	9359
895.04	9412
895.161	9386
895.283	9370
895.405	9306
895.526	9287
895.648	9317
895.769	9207
895.891	9275
896.012	9298
896.134	9184
896.255	9169
896.376	9146
896.498	9146
896.619	9074
896.74	9043
896.861	9150
896.982	9317
897.103	9336
897.224	9184
897.345	9119
897.466	9009
897.587	9036
897.708	9116
897.828	9089
897.949	8952
898.07	8845
898.19	8982
898.311	9062
898.431	8918
898.552	8914
898.672	8963
898.792	8956
898.913	8952
899.033	8834
899.153	8724
899.273	8659
899.393	8743
899.513	8796
899.633	8750
899.753	8800
899.873	8705
899.993	8815
900.113	8716
900.232	8743
900.352	8602
900.472	8610
900.591	8556
900.711	8613
900.83	8552
900.95	8769
901.069	8625
901.189	8518
901.308	8400
901.427	8385
901.546	8374
901.665	8454
901.784	8469
901.904	8370
902.023	8393
902.141	8263
902.26	8164
902.379	8218
902.498	8275
902.617	8267
902.735	8317
902.854	8313
902.973	8294
903.091	8145
903.21	8145
903.328	8172
903.446	8084
903.565	8035
903.683	8077
903.801	8103
903.919	8180
904.038	8195
904.156	8020
904.274	8050
904.392	8096
904.51	7963
904.627	7978
904.745	8119
904.863	8084
904.981	7909
905.098	7879
905.216	7928
905.334	7906
905.451	7868
905.569	7875
905.686	7879
905.803	7944
905.921	7818
906.038	7947
906.155	7769
906.272	7685
906.389	7693
906.506	7734
906.623	7628
906.74	7624
906.857	7540
906.974	7597
907.091	7670
907.208	7727
907.324	7571
907.441	7556
907.557	7533
907.674	7476
907.79	7453
907.907	7419
908.023	7480
908.139	7407
908.256	7426
908.372	7400
908.488	7335
908.604	7331
908.72	7217
908.836	7240
908.952	7335
909.068	7285
909.184	7358
909.3	7369
909.415	7365
909.531	7293
909.647	7168
909.762	7088
909.878	7084
909.993	7149
910.108	7072
910.224	7107
910.339	7076
910.454	7114
910.57	7057
910.685	6966
910.8	7088
910.915	7145
911.03	7057
911.145	6897
911.259	6916
911.374	6890
911.489	6867
911.604	6806
911.718	6760
911.833	6776
911.947	6681
912.062	6593
912.176	6719
912.291	6738
912.405	6753
912.519	6863
912.633	6787
912.748	6783
912.862	6692
912.976	6642
913.09	6601
913.204	6608
913.318	6620
913.431	6741
913.545	6783
913.659	6711
913.772	6681
913.886	6547
914	6521
914.113	6639
914.226	6673
914.34	6585
914.453	6521
914.566	6589
914.68	6513
914.793	6509
914.906	6464
915.019	6441
915.132	6369
915.245	6422
915.358	6486
915.47	6467
915.583	6418
915.696	6464
915.809	6517
915.921	6498
916.034	6475
916.146	6399
916.259	6403
916.371	6410
916.483	6437
916.595	6407
916.708	6391
916.82	6437
916.932	6418
917.044	6391
917.156	6346
917.268	6247
917.38	6418
917.491	6323
917.603	6311
917.715	6380
917.826	6475
917.938	6357
918.049	6270
918.161	6338
918.272	6388
918.384	6395
918.495	6342
918.606	6323
918.717	6251
918.828	6254
918.939	6254
919.05	6228
919.161	6239
919.272	6152
919.383	6163
919.494	6277
919.604	6456
919.715	6357
919.826	6224
919.936	6285
920.047	6311
920.157	6289
920.267	6494
920.378	6289
920.488	6338
920.598	6464
920.708	6623
920.818	6498
920.928	6467
921.038	6578
921.148	6574
921.258	6388
921.368	6353
921.477	6213
921.587	6182
921.697	6076
921.806	6197
921.916	6083
922.025	6003
922.134	5923
922.244	5882
922.353	5942
922.462	5832
922.571	5786
922.68	5718
922.789	5661
922.898	5718
923.007	5615
923.116	5684
923.224	5680
923.333	5707
923.442	5611
923.55	5570
923.659	5615
923.767	5619
923.876	5600
923.984	5615
924.092	5482
924.201	5611
924.309	5558
924.417	5589
924.525	5455
924.633	5516
924.741	6178
924.849	5364
924.956	5448
925.064	5368
925.172	5303
925.279	5318
925.387	5372
925.494	5349
925.602	5421
925.709	5364
925.816	5318
925.924	5315
926.031	5318
926.138	5334
926.245	5311
926.352	5231
926.459	5341
926.566	5318
926.673	5254
926.779	5174
926.886	5143
926.993	5071
927.099	5018
927.206	4980
927.312	4957
927.419	5006
927.525	5018
927.631	4953
927.737	4908
927.843	4858
927.95	4763
928.056	4866
928.162	4782
928.267	4881
928.373	5353
928.479	4839
928.585	4683
928.69	4824
928.796	4786
928.901	4698
929.007	4630
929.112	4645
929.218	4561
929.323	4603
929.428	4554
929.533	4672
929.638	4554
929.743	4542
929.848	4577
929.953	4523
930.058	4470
930.163	4314
930.267	4383
930.372	4462
930.477	4325
930.581	4447
930.685	4318
930.79	4284
930.894	4284
930.998	4261
931.103	4409
931.207	4162
931.311	4143
931.415	4078
931.519	3991
931.623	3975
