Data from glass_V78500241_1247.txt Node
Date: Wed Sep 01 19:23:08 CST 2021
User: usil
Spectrometer: V785-0024
Trigger mode: 0
Integration Time (sec): 4.000000E-1
Scans to average: 1
Nonlinearity correction enabled: false
Boxcar width: 0
Storing dark spectrum: false
XAxis mode: Wavelengths
Number of Pixels in Spectrum: 1024
>>>>>Begin Spectral Data<<<<<
801.071	3755
801.214	3755
801.356	3717
801.499	3743
801.641	3740
801.783	3770
801.926	3888
802.068	3850
802.211	3838
802.353	3873
802.496	3861
802.638	3865
802.78	3926
802.923	3998
803.065	3911
803.208	3884
803.35	3846
803.492	3876
803.635	3922
803.777	3797
803.919	3888
804.061	4181
804.204	4017
804.346	3918
804.488	3918
804.63	4048
804.773	3956
804.915	4013
805.057	4128
805.199	4063
805.341	4090
805.483	4135
805.626	4147
805.768	4139
805.91	4192
806.052	4181
806.194	4261
806.336	4371
806.478	4219
806.62	4192
806.762	4181
806.904	4295
807.046	4329
807.188	4249
807.33	4147
807.472	4246
807.614	4230
807.756	4261
807.898	4196
808.04	4173
808.182	4322
808.324	4348
808.465	4375
808.607	4497
808.749	4432
808.891	4474
809.033	4497
809.174	4371
809.316	4257
809.458	4261
809.6	4139
809.741	4143
809.883	4093
810.025	4192
810.166	4207
810.308	4215
810.45	4291
810.591	4242
810.733	4280
810.875	4497
811.016	4839
811.158	5124
811.299	5284
811.441	5345
811.582	5060
811.724	4706
811.865	4500
812.007	4443
812.148	4470
812.29	4413
812.431	4398
812.573	4417
812.714	4379
812.855	4405
812.997	4424
813.138	4512
813.279	4466
813.421	4356
813.562	4379
813.703	4310
813.845	4314
813.986	4310
814.127	4268
814.268	4280
814.41	4295
814.551	4276
814.692	4314
814.833	4253
814.974	4333
815.115	4360
815.256	4246
815.397	4299
815.539	4246
815.68	4169
815.821	4249
815.962	4306
816.103	4303
816.244	4253
816.385	4192
816.526	4322
816.666	4177
816.807	4131
816.948	4173
817.089	4204
817.23	4154
817.371	4109
817.512	4029
817.653	4071
817.793	3994
817.934	4036
818.075	4078
818.216	4086
818.356	4131
818.497	4013
818.638	3934
818.778	3918
818.919	3880
819.06	3854
819.2	3964
819.341	3854
819.481	3869
819.622	3896
819.762	4048
819.903	3983
820.043	3869
820.184	3812
820.324	3850
820.465	3869
820.605	3865
820.746	3861
820.886	3819
821.026	3960
821.167	3918
821.307	3987
821.447	3975
821.588	3998
821.728	3972
821.868	3949
822.008	3896
822.149	3926
822.289	3926
822.429	3759
822.569	3774
822.709	3804
822.849	3698
822.99	3740
823.13	3774
823.27	3797
823.41	3766
823.55	3709
823.69	3717
823.83	3770
823.97	3709
824.11	3603
824.25	3572
824.389	3644
824.529	3648
824.669	3705
824.809	3713
824.949	3797
825.089	3789
825.228	3728
825.368	3549
825.508	3576
825.648	3561
825.787	3641
825.927	3644
826.067	3622
826.206	3686
826.346	3762
826.485	3838
826.625	3861
826.765	3964
826.904	3827
827.044	3675
827.183	3576
827.323	3424
827.462	3542
827.601	3435
827.741	3420
827.88	3481
828.02	3378
828.159	3462
828.298	3492
828.437	3538
828.577	3477
828.716	3629
828.855	3492
828.994	3374
829.134	3355
829.273	3401
829.412	3348
829.551	3329
829.69	3416
829.829	3428
829.968	3561
830.107	3450
830.246	3473
830.385	3397
830.524	3367
830.663	3283
830.802	3237
830.941	3222
831.08	3157
831.219	3291
831.357	3256
831.496	3389
831.635	3272
831.774	3173
831.913	3192
832.051	3131
832.19	3146
832.329	3195
832.467	3135
832.606	3108
832.744	3169
832.883	3188
833.022	3184
833.16	3260
833.299	3310
833.437	3370
833.576	3386
833.714	3386
833.852	3458
833.991	3458
834.129	3485
834.267	3424
834.406	3420
834.544	3416
834.682	3397
834.821	3447
834.959	3595
835.097	3389
835.235	3545
835.373	3526
835.511	3500
835.65	3504
835.788	3488
835.926	3424
836.064	3321
836.202	3370
836.34	3580
836.478	3625
836.615	3542
836.753	3606
836.891	3622
837.029	3576
837.167	3614
837.305	3564
837.443	3538
837.58	3473
837.718	3606
837.856	3564
837.993	3568
838.131	3584
838.269	3584
838.406	3633
838.544	3576
838.681	3473
838.819	3473
838.956	3378
839.094	3386
839.231	3485
839.369	3488
839.506	3740
839.643	3667
839.781	3473
839.918	3492
840.055	3561
840.193	3530
840.33	3549
840.467	3561
840.604	3618
840.742	3823
840.879	3557
841.016	3580
841.153	3606
841.29	3766
841.427	3713
841.564	3694
841.701	3766
841.838	3709
841.975	3698
842.112	3694
842.249	3625
842.385	3618
842.522	3842
842.659	3720
842.796	3690
842.933	3675
843.069	3724
843.206	3705
843.343	3819
843.479	3751
843.616	3835
843.752	3679
843.889	3682
844.025	3861
844.162	3778
844.298	3850
844.435	3778
844.571	3850
844.708	3899
844.844	3994
844.98	4036
845.117	3991
845.253	3934
845.389	3915
845.525	3979
845.661	3972
845.798	3926
845.934	4006
846.07	3956
846.206	4032
846.342	4128
846.478	4059
846.614	3956
846.75	3979
846.886	3873
847.022	4010
847.158	3926
847.294	4021
847.429	4044
847.565	4025
847.701	4234
847.837	3865
847.972	3854
848.108	3994
848.244	4002
848.379	3831
848.515	3846
848.65	3812
848.786	3873
848.921	3876
849.057	3964
849.192	3934
849.328	3964
849.463	3934
849.598	3876
849.734	3880
849.869	3819
850.004	3800
850.14	3808
850.275	3800
850.41	3755
850.545	3747
850.68	3808
850.815	3838
850.95	3827
851.085	3934
851.22	3884
851.355	3850
851.49	3827
851.625	3804
851.76	3850
851.895	3743
852.03	3713
852.165	3793
852.299	3842
852.434	3975
852.569	3880
852.703	3915
852.838	3922
852.973	4006
853.107	3987
853.242	3873
853.376	3827
853.511	3797
853.645	3827
853.78	3945
853.914	3884
854.048	3892
854.183	3918
854.317	3956
854.451	4040
854.585	3953
854.72	3907
854.854	4013
854.988	3892
855.122	4048
855.256	3903
855.39	4040
855.524	4131
855.658	4093
855.792	4086
855.926	4147
856.06	4188
856.194	4242
856.327	4135
856.461	4101
856.595	4143
856.729	4147
856.862	4287
856.996	4230
857.13	4322
857.263	4371
857.397	4379
857.53	4299
857.664	4386
857.797	4390
857.931	4432
858.064	4413
858.197	4455
858.331	4443
858.464	4386
858.597	4356
858.731	4413
858.864	4466
858.997	4462
859.13	4542
859.263	4561
859.396	4569
859.529	4512
859.662	4558
859.795	4538
859.928	4637
860.061	4698
860.194	4736
860.327	4599
860.46	4649
860.592	4771
860.725	4725
860.858	4748
860.99	4691
861.123	4714
861.256	4725
861.388	4782
861.521	5391
861.653	4752
861.786	4653
861.918	4782
862.05	4763
862.183	4881
862.315	4900
862.447	4957
862.58	4934
862.712	4782
862.844	4771
862.976	4854
863.108	4866
863.24	5181
863.372	4858
863.504	4911
863.636	4911
863.768	4930
863.9	4965
864.032	4919
864.164	4923
864.296	4991
864.428	5075
864.559	5197
864.691	5113
864.823	5128
864.954	5128
865.086	5140
865.217	5132
865.349	5102
865.48	5155
865.612	5136
865.743	5345
865.875	5166
866.006	5204
866.137	5239
866.269	5239
866.4	5231
866.531	5227
866.662	5231
866.793	5223
866.924	5292
867.055	5421
867.186	5372
867.317	5383
867.448	5311
867.579	5391
867.71	5349
867.841	5398
867.972	5501
868.103	5497
868.233	5497
868.364	5532
868.495	5524
868.625	5684
868.756	5786
868.886	5684
869.017	5775
869.147	5790
869.278	5824
869.408	5889
869.539	5824
869.669	5901
869.799	5901
869.929	5969
870.06	6003
870.19	6243
870.32	6190
870.45	6300
870.58	6350
870.71	6456
870.84	6467
870.97	6429
871.1	6395
871.23	6684
871.36	6719
871.489	6665
871.619	6711
871.749	6821
871.879	6844
872.008	6993
872.138	6928
872.267	7038
872.397	6981
872.526	7023
872.656	7099
872.785	7274
872.915	7411
873.044	7514
873.173	7586
873.303	7658
873.432	7746
873.561	7864
873.69	7860
873.819	7997
873.948	8172
874.077	8328
874.206	8389
874.335	8518
874.464	8629
874.593	8891
874.722	8941
874.851	9146
874.979	9192
875.108	9325
875.237	9431
875.365	9454
875.494	9663
875.623	9861
875.751	9873
875.88	10086
876.008	10204
876.136	10306
876.265	10603
876.393	10653
876.521	10630
876.65	10778
876.778	10923
876.906	10968
877.034	11014
877.162	11117
877.29	11166
877.418	11322
877.546	11376
877.674	11486
877.802	11471
877.93	11509
878.058	11547
878.185	11562
878.313	11680
878.441	11851
878.568	11703
878.696	11779
878.824	11870
878.951	11980
879.079	11908
879.206	12106
879.333	11984
879.461	11889
879.588	12121
879.715	12057
879.842	12258
879.97	12117
880.097	11954
880.224	11840
880.351	11859
880.478	11901
880.605	11866
880.732	11874
880.859	12030
880.986	11843
881.112	11771
881.239	11745
881.366	11657
881.493	11577
881.619	11611
881.746	11589
881.872	11516
881.999	11471
882.125	11440
882.252	11551
882.378	11433
882.505	11551
882.631	11387
882.757	11250
882.883	11353
883.01	11356
883.136	11265
883.262	11121
883.388	11189
883.514	11155
883.64	11208
883.766	11064
883.892	10953
884.018	11079
884.143	10980
884.269	11132
884.395	10835
884.52	10843
884.646	10725
884.772	10694
884.897	10729
885.023	10744
885.148	10733
885.274	10729
885.399	10702
885.524	10634
885.65	10710
885.775	10649
885.9	10523
886.025	10615
886.15	10607
886.275	10440
886.4	10424
886.525	10409
886.65	10363
886.775	10375
886.9	10470
887.025	10531
887.149	10413
887.274	10257
887.399	10249
887.523	10196
887.648	10219
887.773	10105
887.897	10272
888.021	10215
888.146	10154
888.27	10223
888.395	10249
888.519	10207
888.643	10181
888.767	10219
888.891	10124
889.015	10051
889.139	10059
889.263	9987
889.387	10074
889.511	10181
889.635	10067
889.759	9934
889.883	9937
890.006	10044
890.13	10192
890.254	9972
890.377	9998
890.501	9781
890.624	9876
890.748	9911
890.871	9793
890.995	9724
891.118	9770
891.241	9751
891.364	9766
891.488	9926
891.611	9743
891.734	9751
891.857	9766
891.98	9804
892.103	9778
892.226	9732
892.349	9652
892.471	9481
892.594	9614
892.717	9709
892.839	9580
892.962	9644
893.085	9656
893.207	9568
893.33	9507
893.452	9538
893.575	9614
893.697	9553
893.819	9633
893.941	9705
894.064	9682
894.186	9370
894.308	9386
894.43	9580
894.552	9523
894.674	9473
894.796	9424
894.918	9382
895.04	9306
895.161	9363
895.283	9443
895.405	9283
895.526	9310
895.648	9237
895.769	9237
895.891	9268
896.012	9211
896.134	9260
896.255	9230
896.376	9176
896.498	9207
896.619	9230
896.74	9104
896.861	9100
896.982	9154
897.103	9348
897.224	9199
897.345	9062
897.466	8990
897.587	9039
897.708	9116
897.828	9036
897.949	9017
898.07	8876
898.19	8933
898.311	8982
898.431	8960
898.552	8838
898.672	8979
898.792	8960
898.913	8880
899.033	8834
899.153	8781
899.273	8655
899.393	8705
899.513	8834
899.633	8750
899.753	8804
899.873	8697
899.993	8804
900.113	8686
900.232	8754
900.352	8735
900.472	8651
900.591	8613
900.711	8560
900.83	8560
900.95	8807
901.069	8701
901.189	8571
901.308	8377
901.427	8431
901.546	8484
901.665	8454
901.784	8450
901.904	8431
902.023	8362
902.141	8275
902.26	8244
902.379	8309
902.498	8214
902.617	8240
902.735	8301
902.854	8229
902.973	8267
903.091	8176
903.21	8126
903.328	8161
903.446	8107
903.565	8077
903.683	8119
903.801	8069
903.919	8187
904.038	8172
904.156	8092
904.274	8088
904.392	8077
904.51	7967
904.627	8073
904.745	8130
904.863	8069
904.981	7898
905.098	7818
905.216	7837
905.334	7932
905.451	7921
905.569	7849
905.686	7936
905.803	7868
905.921	7826
906.038	7879
906.155	7788
906.272	7776
906.389	7753
906.506	7632
906.623	7628
906.74	7567
906.857	7548
906.974	7525
907.091	7719
907.208	7696
907.324	7590
907.441	7647
907.557	7495
907.674	7434
907.79	7377
907.907	7388
908.023	7415
908.139	7457
908.256	7392
908.372	7350
908.488	7331
908.604	7293
908.72	7202
908.836	7285
908.952	7217
909.068	7221
909.184	7301
909.3	7339
909.415	7221
909.531	7240
909.647	7126
909.762	7187
909.878	7133
909.993	7046
910.108	7080
910.224	7095
910.339	7103
910.454	7034
910.57	7000
910.685	6966
910.8	7206
910.915	7110
911.03	7046
911.145	6905
911.259	6840
911.374	6840
911.489	6863
911.604	6886
911.718	6730
911.833	6726
911.947	6582
912.062	6635
912.176	6703
912.291	6700
912.405	6681
912.519	6787
912.633	6818
912.748	6753
912.862	6658
912.976	6574
913.09	6585
913.204	6597
913.318	6631
913.431	6635
913.545	6658
913.659	6715
913.772	6585
913.886	6597
914	6589
914.113	6597
914.226	6654
914.34	6604
914.453	6521
914.566	6696
914.68	6509
914.793	6551
914.906	6429
915.019	6342
915.132	6388
915.245	6464
915.358	6433
915.47	6410
915.583	6426
915.696	6414
915.809	6563
915.921	6483
916.034	6407
916.146	6426
916.259	6346
916.371	6448
916.483	6445
916.595	6380
916.708	6433
916.82	6426
916.932	6426
917.044	6338
917.156	6395
917.268	6292
917.38	6372
917.491	6304
917.603	6350
917.715	6426
917.826	6467
917.938	6353
918.049	6300
918.161	6384
918.272	6410
918.384	6471
918.495	6376
918.606	6266
918.717	6209
918.828	6258
918.939	6243
919.05	6197
919.161	6190
919.272	6098
919.383	6117
919.494	6353
919.604	6429
919.715	6289
919.826	6194
919.936	6232
920.047	6319
920.157	6311
920.267	6506
920.378	6308
920.488	6277
920.598	6464
920.708	6547
920.818	6471
920.928	6513
921.038	6650
921.148	6631
921.258	6384
921.368	6361
921.477	6216
921.587	6178
921.697	6095
921.806	6186
921.916	6026
922.025	5969
922.134	5950
922.244	5901
922.353	5923
922.462	5813
922.571	5866
922.68	5729
922.789	5703
922.898	5688
923.007	5653
923.116	5695
923.224	5710
923.333	5676
923.442	5589
923.55	5589
923.659	5646
923.767	5649
923.876	5577
923.984	5581
924.092	5528
924.201	5509
924.309	5558
924.417	5543
924.525	5532
924.633	5501
924.741	6296
924.849	5334
924.956	5467
925.064	5368
925.172	5330
925.279	5353
925.387	5353
925.494	5330
925.602	5414
925.709	5425
925.816	5307
925.924	5284
926.031	5398
926.138	5315
926.245	5296
926.352	5242
926.459	5330
926.566	5387
926.673	5231
926.779	5136
926.886	5201
926.993	5003
927.099	5033
927.206	4961
927.312	5014
927.419	5029
927.525	4961
927.631	4953
927.737	4889
927.843	4911
927.95	4809
928.056	4797
928.162	4873
928.267	4885
928.373	5353
928.479	4911
928.585	4721
928.69	4763
928.796	4797
928.901	4702
929.007	4592
929.112	4660
929.218	4653
929.323	4599
929.428	4607
929.533	4706
929.638	4561
929.743	4569
929.848	4561
929.953	4493
930.058	4474
930.163	4379
930.267	4367
930.372	4424
930.477	4314
930.581	4470
930.685	4394
930.79	4238
930.894	4314
930.998	4272
931.103	4360
931.207	4169
931.311	4059
931.415	4059
931.519	3945
931.623	3972
