Data from glass_V78500241_2395.txt Node
Date: Wed Sep 01 19:31:06 CST 2021
User: usil
Spectrometer: V785-0024
Trigger mode: 0
Integration Time (sec): 4.000000E-1
Scans to average: 1
Nonlinearity correction enabled: false
Boxcar width: 0
Storing dark spectrum: false
XAxis mode: Wavelengths
Number of Pixels in Spectrum: 1024
>>>>>Begin Spectral Data<<<<<
801.071	3720
801.214	3717
801.356	3660
801.499	3701
801.641	3698
801.783	3770
801.926	3835
802.068	3804
802.211	3831
802.353	3873
802.496	3884
802.638	3884
802.78	3865
802.923	3907
803.065	3873
803.208	3835
803.35	3903
803.492	3888
803.635	3918
803.777	3781
803.919	3888
804.061	4139
804.204	3968
804.346	3953
804.488	3899
804.63	4025
804.773	4017
804.915	4029
805.057	4166
805.199	4040
805.341	4120
805.483	4116
805.626	4082
805.768	4128
805.91	4211
806.052	4215
806.194	4177
806.336	4295
806.478	4211
806.62	4109
806.762	4230
806.904	4219
807.046	4246
807.188	4215
807.33	4131
807.472	4230
807.614	4223
807.756	4249
807.898	4238
808.04	4200
808.182	4268
808.324	4272
808.465	4375
808.607	4455
808.749	4447
808.891	4485
809.033	4447
809.174	4428
809.316	4242
809.458	4234
809.6	4154
809.741	4143
809.883	4154
810.025	4219
810.166	4219
810.308	4215
810.45	4227
810.591	4207
810.733	4291
810.875	4519
811.016	4793
811.158	5113
811.299	5220
811.441	5265
811.582	5037
811.724	4729
811.865	4440
812.007	4451
812.148	4451
812.29	4459
812.431	4402
812.573	4413
812.714	4363
812.855	4341
812.997	4398
813.138	4447
813.279	4394
813.421	4329
813.562	4344
813.703	4363
813.845	4295
813.986	4234
814.127	4207
814.268	4276
814.41	4280
814.551	4249
814.692	4291
814.833	4306
814.974	4295
815.115	4314
815.256	4227
815.397	4227
815.539	4246
815.68	4219
815.821	4181
815.962	4375
816.103	4253
816.244	4253
816.385	4257
816.526	4314
816.666	4196
816.807	4086
816.948	4192
817.089	4169
817.23	4093
817.371	4013
817.512	4025
817.653	3991
817.793	4048
817.934	4078
818.075	4048
818.216	4078
818.356	4131
818.497	3987
818.638	3918
818.778	3934
818.919	3892
819.06	3838
819.2	3903
819.341	3827
819.481	3831
819.622	3896
819.762	3998
819.903	3915
820.043	3865
820.184	3816
820.324	3762
820.465	3850
820.605	3831
820.746	3854
820.886	3808
821.026	3945
821.167	3915
821.307	3941
821.447	3949
821.588	3907
821.728	3953
821.868	3937
822.008	3892
822.149	3865
822.289	3926
822.429	3778
822.569	3751
822.709	3808
822.849	3660
822.99	3686
823.13	3793
823.27	3759
823.41	3728
823.55	3713
823.69	3709
823.83	3728
823.97	3671
824.11	3576
824.25	3622
824.389	3637
824.529	3663
824.669	3656
824.809	3720
824.949	3751
825.089	3709
825.228	3690
825.368	3557
825.508	3572
825.648	3561
825.787	3595
825.927	3644
826.067	3606
826.206	3652
826.346	3789
826.485	3838
826.625	3850
826.765	3892
826.904	3800
827.044	3610
827.183	3526
827.323	3386
827.462	3492
827.601	3454
827.741	3420
827.88	3443
828.02	3378
828.159	3431
828.298	3466
828.437	3526
828.577	3435
828.716	3576
828.855	3492
828.994	3351
829.134	3355
829.273	3401
829.412	3344
829.551	3306
829.69	3393
829.829	3409
829.968	3511
830.107	3431
830.246	3458
830.385	3359
830.524	3340
830.663	3302
830.802	3245
830.941	3188
831.08	3211
831.219	3245
831.357	3214
831.496	3424
831.635	3230
831.774	3169
831.913	3157
832.051	3127
832.19	3138
832.329	3226
832.467	3127
832.606	3077
832.744	3119
832.883	3173
833.022	3180
833.16	3253
833.299	3275
833.437	3359
833.576	3359
833.714	3386
833.852	3412
833.991	3428
834.129	3450
834.267	3420
834.406	3412
834.544	3401
834.682	3405
834.821	3412
834.959	3561
835.097	3382
835.235	3561
835.373	3485
835.511	3488
835.65	3412
835.788	3443
835.926	3370
836.064	3386
836.202	3378
836.34	3576
836.478	3625
836.615	3545
836.753	3603
836.891	3622
837.029	3584
837.167	3561
837.305	3549
837.443	3504
837.58	3454
837.718	3610
837.856	3587
837.993	3580
838.131	3618
838.269	3584
838.406	3568
838.544	3591
838.681	3488
838.819	3443
838.956	3355
839.094	3382
839.231	3420
839.369	3488
839.506	3709
839.643	3595
839.781	3500
839.918	3458
840.055	3526
840.193	3534
840.33	3481
840.467	3519
840.604	3584
840.742	3789
840.879	3545
841.016	3538
841.153	3603
841.29	3724
841.427	3724
841.564	3690
841.701	3728
841.838	3701
841.975	3679
842.112	3728
842.249	3667
842.385	3667
842.522	3808
842.659	3675
842.796	3625
842.933	3675
843.069	3717
843.206	3705
843.343	3804
843.479	3762
843.616	3850
843.752	3671
843.889	3656
844.025	3846
844.162	3713
844.298	3884
844.435	3808
844.571	3720
844.708	3907
844.844	3956
844.98	3994
845.117	4002
845.253	3922
845.389	3903
845.525	3994
845.661	3983
845.798	3876
845.934	4002
846.07	3972
846.206	4040
846.342	4063
846.478	4032
846.614	3956
846.75	3960
846.886	3922
847.022	4006
847.158	3949
847.294	3975
847.429	4013
847.565	3994
847.701	4242
847.837	3873
847.972	3884
848.108	3987
848.244	3941
848.379	3857
848.515	3797
848.65	3831
848.786	3861
848.921	3869
849.057	3888
849.192	3930
849.328	3880
849.463	3911
849.598	3854
849.734	3873
849.869	3831
850.004	3759
850.14	3827
850.275	3770
850.41	3740
850.545	3747
850.68	3751
850.815	3800
850.95	3762
851.085	3937
851.22	3888
851.355	3819
851.49	3785
851.625	3751
851.76	3804
851.895	3717
852.03	3686
852.165	3778
852.299	3819
852.434	3873
852.569	3884
852.703	3899
852.838	3876
852.973	3994
853.107	4036
853.242	3861
853.376	3835
853.511	3759
853.645	3819
853.78	3964
853.914	3804
854.048	3873
854.183	3911
854.317	3968
854.451	4071
854.585	3937
854.72	3930
854.854	4017
854.988	3873
855.122	3994
855.256	3953
855.39	3972
855.524	4101
855.658	4097
855.792	4067
855.926	4135
856.06	4154
856.194	4181
856.327	4105
856.461	4135
856.595	4128
856.729	4131
856.862	4265
856.996	4261
857.13	4337
857.263	4310
857.397	4363
857.53	4314
857.664	4314
857.797	4371
857.931	4432
858.064	4371
858.197	4462
858.331	4363
858.464	4421
858.597	4341
858.731	4474
858.864	4428
858.997	4497
859.13	4500
859.263	4485
859.396	4584
859.529	4546
859.662	4542
859.795	4584
859.928	4618
860.061	4702
860.194	4752
860.327	4626
860.46	4641
860.592	4694
860.725	4763
860.858	4755
860.99	4679
861.123	4649
861.256	4729
861.388	4714
861.521	5463
861.653	4759
861.786	4702
861.918	4759
862.05	4805
862.183	4866
862.315	4862
862.447	4908
862.58	4824
862.712	4801
862.844	4729
862.976	4877
863.108	4843
863.24	5269
863.372	4839
863.504	4877
863.636	4866
863.768	5022
863.9	4927
864.032	4938
864.164	4995
864.296	4972
864.428	5086
864.559	5121
864.691	5064
864.823	5105
864.954	5117
865.086	5147
865.217	5105
865.349	5090
865.48	5174
865.612	5174
865.743	5322
865.875	5132
866.006	5166
866.137	5181
866.269	5231
866.4	5212
866.531	5174
866.662	5242
866.793	5353
866.924	5239
867.055	5360
867.186	5372
867.317	5322
867.448	5311
867.579	5315
867.71	5368
867.841	5379
867.972	5387
868.103	5452
868.233	5516
868.364	5493
868.495	5551
868.625	5653
868.756	5775
868.886	5608
869.017	5718
869.147	5844
869.278	5844
869.408	5767
869.539	5832
869.669	5912
869.799	5916
869.929	5969
870.06	6026
870.19	6133
870.32	6186
870.45	6247
870.58	6285
870.71	6452
870.84	6448
870.97	6433
871.1	6399
871.23	6593
871.36	6616
871.489	6585
871.619	6707
871.749	6783
871.879	6840
872.008	7004
872.138	6977
872.267	7015
872.397	7031
872.526	7012
872.656	7103
872.785	7122
872.915	7396
873.044	7472
873.173	7521
873.303	7578
873.432	7750
873.561	7871
873.69	7936
873.819	8058
873.948	8115
874.077	8301
874.206	8339
874.335	8469
874.464	8693
874.593	8853
874.722	8899
874.851	9036
874.979	9150
875.108	9378
875.237	9431
875.365	9599
875.494	9576
875.623	9804
875.751	9835
875.88	10032
876.008	10093
876.136	10303
876.265	10542
876.393	10675
876.521	10710
876.65	10869
876.778	10934
876.906	10908
877.034	10999
877.162	11079
877.29	11212
877.418	11296
877.546	11391
877.674	11406
877.802	11429
877.93	11535
878.058	11558
878.185	11551
878.313	11627
878.441	11756
878.568	11661
878.696	11752
878.824	11779
878.951	11988
879.079	12079
879.206	12148
879.333	12102
879.461	11980
879.588	12072
879.715	12026
879.842	12167
879.97	12022
880.097	11828
880.224	11851
880.351	11859
880.478	11859
880.605	11946
880.732	11885
880.859	12091
880.986	11786
881.112	11756
881.239	11684
881.366	11668
881.493	11630
881.619	11589
881.746	11474
881.872	11425
881.999	11615
882.125	11471
882.252	11543
882.378	11501
882.505	11478
882.631	11376
882.757	11273
882.883	11277
883.01	11242
883.136	11113
883.262	11124
883.388	11143
883.514	11170
883.64	11098
883.766	11083
883.892	11037
884.018	11018
884.143	11117
884.269	11098
884.395	10881
884.52	10763
884.646	10774
884.772	10736
884.897	10698
885.023	10698
885.148	10706
885.274	10729
885.399	10744
885.524	10626
885.65	10542
885.775	10550
885.9	10523
886.025	10607
886.15	10474
886.275	10424
886.4	10318
886.525	10356
886.65	10356
886.775	10337
886.9	10500
887.025	10497
887.149	10344
887.274	10230
887.399	10238
887.523	10227
887.648	10131
887.773	10150
887.897	10295
888.021	10207
888.146	10032
888.27	10268
888.395	10162
888.519	10139
888.643	10162
888.767	10196
888.891	10040
889.015	10021
889.139	10013
889.263	9991
889.387	10044
889.511	10010
889.635	9975
889.759	9930
889.883	9994
890.006	9998
890.13	10158
890.254	10006
890.377	9972
890.501	9785
890.624	9816
890.748	9907
890.871	9713
890.995	9781
891.118	9675
891.241	9648
891.364	9724
891.488	9854
891.611	9759
891.734	9766
891.857	9778
891.98	9618
892.103	9785
892.226	9705
892.349	9587
892.471	9545
892.594	9549
892.717	9603
892.839	9580
892.962	9545
893.085	9633
893.207	9564
893.33	9450
893.452	9561
893.575	9606
893.697	9549
893.819	9591
893.941	9572
894.064	9572
894.186	9420
894.308	9389
894.43	9492
894.552	9625
894.674	9545
894.796	9405
894.918	9321
895.04	9340
895.161	9382
895.283	9298
895.405	9268
895.526	9241
895.648	9245
895.769	9207
895.891	9173
896.012	9310
896.134	9268
896.255	9127
896.376	9039
896.498	9230
896.619	9135
896.74	9017
896.861	9074
896.982	9298
897.103	9272
897.224	9146
897.345	9074
897.466	8933
897.587	8990
897.708	9108
897.828	9047
897.949	8921
898.07	8815
898.19	8937
898.311	9001
898.431	8887
898.552	8880
898.672	8914
898.792	8994
898.913	8872
899.033	8716
899.153	8720
899.273	8644
899.393	8682
899.513	8670
899.633	8686
899.753	8750
899.873	8674
899.993	8705
900.113	8663
900.232	8708
900.352	8708
900.472	8579
900.591	8587
900.711	8590
900.83	8556
900.95	8579
901.069	8663
901.189	8602
901.308	8465
901.427	8431
901.546	8423
901.665	8450
901.784	8465
901.904	8355
902.023	8377
902.141	8244
902.26	8221
902.379	8248
902.498	8244
902.617	8221
902.735	8305
902.854	8271
902.973	8206
903.091	8107
903.21	8058
903.328	8195
903.446	8039
903.565	7951
903.683	8043
903.801	8012
903.919	8183
904.038	8123
904.156	8119
904.274	8035
904.392	7997
904.51	8031
904.627	7989
904.745	8096
904.863	8084
904.981	7875
905.098	7849
905.216	7864
905.334	7845
905.451	7947
905.569	7822
905.686	7868
905.803	7928
905.921	7757
906.038	7769
906.155	7830
906.272	7742
906.389	7696
906.506	7616
906.623	7605
906.74	7578
906.857	7559
906.974	7540
907.091	7670
907.208	7658
907.324	7674
907.441	7533
907.557	7426
907.674	7480
907.79	7362
907.907	7381
908.023	7438
908.139	7419
908.256	7392
908.372	7407
908.488	7312
908.604	7274
908.72	7282
908.836	7278
908.952	7236
909.068	7320
909.184	7320
909.3	7285
909.415	7312
909.531	7225
909.647	7110
909.762	7065
909.878	7091
909.993	7137
910.108	7099
910.224	7099
910.339	7088
910.454	7046
910.57	6977
910.685	6924
910.8	7145
910.915	7126
911.03	7050
911.145	6875
911.259	6875
911.374	6916
911.489	6821
911.604	6859
911.718	6692
911.833	6726
911.947	6673
912.062	6585
912.176	6646
912.291	6738
912.405	6700
912.519	6844
912.633	6829
912.748	6715
912.862	6703
912.976	6612
913.09	6513
913.204	6582
913.318	6597
913.431	6703
913.545	6642
913.659	6662
913.772	6627
913.886	6551
914	6563
914.113	6677
914.226	6589
914.34	6604
914.453	6464
914.566	6593
914.68	6456
914.793	6509
914.906	6464
915.019	6414
915.132	6296
915.245	6448
915.358	6448
915.47	6437
915.583	6483
915.696	6460
915.809	6513
915.921	6498
916.034	6380
916.146	6369
916.259	6422
916.371	6445
916.483	6399
916.595	6429
916.708	6437
916.82	6369
916.932	6395
917.044	6331
917.156	6395
917.268	6319
917.38	6311
917.491	6308
917.603	6323
917.715	6380
917.826	6448
917.938	6304
918.049	6209
918.161	6399
918.272	6372
918.384	6448
918.495	6277
918.606	6292
918.717	6209
918.828	6235
918.939	6285
919.05	6159
919.161	6163
919.272	6148
919.383	6178
919.494	6292
919.604	6384
919.715	6243
919.826	6175
919.936	6262
920.047	6319
920.157	6258
920.267	6452
920.378	6338
920.488	6277
920.598	6395
920.708	6604
920.818	6433
920.928	6506
921.038	6551
921.148	6566
921.258	6342
921.368	6300
921.477	6213
921.587	6186
921.697	6087
921.806	6197
921.916	6053
922.025	5980
922.134	5942
922.244	5859
922.353	5965
922.462	5813
922.571	5805
922.68	5691
922.789	5623
922.898	5703
923.007	5649
923.116	5714
923.224	5703
923.333	5672
923.442	5627
923.55	5581
923.659	5532
923.767	5642
923.876	5589
923.984	5611
924.092	5490
924.201	5532
924.309	5516
924.417	5551
924.525	5524
924.633	5528
924.741	6243
924.849	5341
924.956	5463
925.064	5330
925.172	5299
925.279	5337
925.387	5330
925.494	5303
925.602	5406
925.709	5353
925.816	5284
925.924	5284
926.031	5383
926.138	5277
926.245	5322
926.352	5208
926.459	5353
926.566	5303
926.673	5178
926.779	5102
926.886	5045
926.993	5029
927.099	4953
927.206	4980
927.312	4927
927.419	4980
927.525	5018
927.631	4984
927.737	4858
927.843	4866
927.95	4771
928.056	4786
928.162	4805
928.267	4843
928.373	5235
928.479	4911
928.585	4672
928.69	4812
928.796	4774
928.901	4694
929.007	4607
929.112	4656
929.218	4649
929.323	4588
929.428	4527
929.533	4630
929.638	4527
929.743	4531
929.848	4531
929.953	4508
930.058	4413
930.163	4303
930.267	4352
930.372	4455
930.477	4287
930.581	4462
930.685	4337
930.79	4261
930.894	4265
930.998	4246
931.103	4341
931.207	4097
931.311	4078
931.415	4036
931.519	3949
931.623	3956
