Data from glass_V78500241_256.txt Node
Date: Wed Sep 01 19:16:16 CST 2021
User: usil
Spectrometer: V785-0024
Trigger mode: 0
Integration Time (sec): 4.000000E-1
Scans to average: 1
Nonlinearity correction enabled: false
Boxcar width: 0
Storing dark spectrum: false
XAxis mode: Wavelengths
Number of Pixels in Spectrum: 1024
>>>>>Begin Spectral Data<<<<<
801.071	3713
801.214	3751
801.356	3736
801.499	3751
801.641	3736
801.783	3766
801.926	3926
802.068	3888
802.211	3880
802.353	3907
802.496	3899
802.638	3892
802.78	3926
802.923	3941
803.065	3884
803.208	3888
803.35	3926
803.492	3896
803.635	3926
803.777	3861
803.919	3915
804.061	4128
804.204	3960
804.346	3994
804.488	3953
804.63	4063
804.773	3975
804.915	4071
805.057	4128
805.199	4036
805.341	4116
805.483	4150
805.626	4154
805.768	4116
805.91	4249
806.052	4280
806.194	4200
806.336	4394
806.478	4207
806.62	4181
806.762	4227
806.904	4261
807.046	4379
807.188	4215
807.33	4215
807.472	4234
807.614	4173
807.756	4261
807.898	4192
808.04	4253
808.182	4356
808.324	4386
808.465	4383
808.607	4455
808.749	4462
808.891	4481
809.033	4527
809.174	4394
809.316	4257
809.458	4215
809.6	4169
809.741	4185
809.883	4181
810.025	4230
810.166	4242
810.308	4230
810.45	4223
810.591	4223
810.733	4303
810.875	4565
811.016	4805
811.158	5185
811.299	5258
811.441	5303
811.582	5067
811.724	4687
811.865	4535
812.007	4500
812.148	4432
812.29	4440
812.431	4421
812.573	4440
812.714	4421
812.855	4417
812.997	4398
813.138	4527
813.279	4436
813.421	4405
813.562	4394
813.703	4371
813.845	4363
813.986	4253
814.127	4265
814.268	4257
814.41	4291
814.551	4276
814.692	4299
814.833	4268
814.974	4314
815.115	4325
815.256	4284
815.397	4246
815.539	4291
815.68	4181
815.821	4238
815.962	4303
816.103	4295
816.244	4238
816.385	4204
816.526	4295
816.666	4246
816.807	4109
816.948	4158
817.089	4215
817.23	4120
817.371	4097
817.512	4044
817.653	4071
817.793	4067
817.934	4055
818.075	4116
818.216	4120
818.356	4101
818.497	4029
818.638	3937
818.778	3945
818.919	3941
819.06	3888
819.2	3892
819.341	3876
819.481	3857
819.622	3941
819.762	4048
819.903	3907
820.043	3884
820.184	3854
820.324	3819
820.465	3861
820.605	3896
820.746	3888
820.886	3823
821.026	3934
821.167	3941
821.307	4040
821.447	3991
821.588	3960
821.728	3937
821.868	3968
822.008	3873
822.149	3960
822.289	3941
822.429	3819
822.569	3812
822.709	3827
822.849	3732
822.99	3717
823.13	3774
823.27	3808
823.41	3732
823.55	3720
823.69	3732
823.83	3762
823.97	3720
824.11	3584
824.25	3591
824.389	3648
824.529	3679
824.669	3663
824.809	3766
824.949	3759
825.089	3751
825.228	3694
825.368	3622
825.508	3606
825.648	3584
825.787	3633
825.927	3663
826.067	3637
826.206	3663
826.346	3827
826.485	3854
826.625	3911
826.765	3964
826.904	3838
827.044	3648
827.183	3530
827.323	3439
827.462	3469
827.601	3481
827.741	3447
827.88	3492
828.02	3393
828.159	3458
828.298	3511
828.437	3549
828.577	3526
828.716	3637
828.855	3504
828.994	3393
829.134	3351
829.273	3424
829.412	3363
829.551	3382
829.69	3397
829.829	3428
829.968	3511
830.107	3469
830.246	3500
830.385	3409
830.524	3397
830.663	3310
830.802	3279
830.941	3214
831.08	3237
831.219	3275
831.357	3275
831.496	3393
831.635	3241
831.774	3222
831.913	3188
832.051	3138
832.19	3154
832.329	3233
832.467	3135
832.606	3123
832.744	3173
832.883	3184
833.022	3195
833.16	3253
833.299	3298
833.437	3348
833.576	3397
833.714	3393
833.852	3435
833.991	3481
834.129	3443
834.267	3473
834.406	3409
834.544	3401
834.682	3439
834.821	3443
834.959	3587
835.097	3424
835.235	3511
835.373	3504
835.511	3511
835.65	3469
835.788	3511
835.926	3409
836.064	3389
836.202	3454
836.34	3584
836.478	3625
836.615	3557
836.753	3572
836.891	3679
837.029	3618
837.167	3610
837.305	3553
837.443	3587
837.58	3504
837.718	3580
837.856	3549
837.993	3584
838.131	3637
838.269	3603
838.406	3599
838.544	3606
838.681	3488
838.819	3466
838.956	3397
839.094	3450
839.231	3458
839.369	3485
839.506	3766
839.643	3629
839.781	3511
839.918	3492
840.055	3568
840.193	3538
840.33	3538
840.467	3561
840.604	3610
840.742	3812
840.879	3561
841.016	3561
841.153	3580
841.29	3804
841.427	3732
841.564	3736
841.701	3740
841.838	3720
841.975	3690
842.112	3717
842.249	3641
842.385	3641
842.522	3861
842.659	3694
842.796	3713
842.933	3717
843.069	3713
843.206	3728
843.343	3831
843.479	3766
843.616	3819
843.752	3747
843.889	3675
844.025	3869
844.162	3728
844.298	3857
844.435	3812
844.571	3846
844.708	3918
844.844	4010
844.98	4071
845.117	4025
845.253	3953
845.389	3937
845.525	3975
845.661	4013
845.798	3907
845.934	3949
846.07	4010
846.206	4059
846.342	4124
846.478	4067
846.614	3941
846.75	3953
846.886	3945
847.022	4093
847.158	3991
847.294	4006
847.429	4025
847.565	4010
847.701	4257
847.837	3918
847.972	3831
848.108	4013
848.244	4017
848.379	3873
848.515	3831
848.65	3835
848.786	3873
848.921	3876
849.057	3979
849.192	3949
849.328	3934
849.463	3972
849.598	3888
849.734	3876
849.869	3831
850.004	3778
850.14	3850
850.275	3823
850.41	3762
850.545	3789
850.68	3785
850.815	3831
850.95	3774
851.085	3979
851.22	3869
851.355	3861
851.49	3785
851.625	3816
851.76	3823
851.895	3724
852.03	3755
852.165	3846
852.299	3838
852.434	3903
852.569	3873
852.703	3880
852.838	3930
852.973	4040
853.107	3983
853.242	3869
853.376	3823
853.511	3808
853.645	3888
853.78	3972
853.914	3896
854.048	3880
854.183	3949
854.317	3991
854.451	4082
854.585	3968
854.72	3983
854.854	4063
854.988	3991
855.122	4013
855.256	3979
855.39	3983
855.524	4105
855.658	4078
855.792	4124
855.926	4166
856.06	4150
856.194	4223
856.327	4063
856.461	4154
856.595	4131
856.729	4200
856.862	4329
856.996	4276
857.13	4306
857.263	4352
857.397	4356
857.53	4318
857.664	4371
857.797	4394
857.931	4466
858.064	4371
858.197	4405
858.331	4413
858.464	4310
858.597	4413
858.731	4493
858.864	4485
858.997	4455
859.13	4546
859.263	4554
859.396	4622
859.529	4538
859.662	4558
859.795	4516
859.928	4645
860.061	4683
860.194	4767
860.327	4664
860.46	4618
860.592	4778
860.725	4744
860.858	4805
860.99	4668
861.123	4733
861.256	4759
861.388	4748
861.521	5242
861.653	4748
861.786	4744
861.918	4702
862.05	4862
862.183	4843
862.315	4900
862.447	4980
862.58	4877
862.712	4824
862.844	4801
862.976	4919
863.108	4896
863.24	5250
863.372	4858
863.504	4961
863.636	4915
863.768	4961
863.9	4949
864.032	4949
864.164	4968
864.296	5048
864.428	5121
864.559	5136
864.691	5136
864.823	5128
864.954	5170
865.086	5132
865.217	5147
865.349	5147
865.48	5155
865.612	5170
865.743	5292
865.875	5246
866.006	5223
866.137	5223
866.269	5261
866.4	5258
866.531	5288
866.662	5239
866.793	5265
866.924	5284
867.055	5334
867.186	5353
867.317	5322
867.448	5364
867.579	5353
867.71	5357
867.841	5410
867.972	5452
868.103	5463
868.233	5524
868.364	5539
868.495	5520
868.625	5653
868.756	5805
868.886	5703
869.017	5752
869.147	5851
869.278	5821
869.408	5821
869.539	5901
869.669	5958
869.799	5992
869.929	5984
870.06	6007
870.19	6201
870.32	6258
870.45	6273
870.58	6346
870.71	6426
870.84	6517
870.97	6429
871.1	6437
871.23	6673
871.36	6722
871.489	6688
871.619	6696
871.749	6825
871.879	6886
872.008	6989
872.138	6977
872.267	7027
872.397	6970
872.526	7042
872.656	7137
872.785	7198
872.915	7350
873.044	7548
873.173	7575
873.303	7662
873.432	7727
873.561	7868
873.69	7879
873.819	8012
873.948	8168
874.077	8263
874.206	8339
874.335	8438
874.464	8678
874.593	8918
874.722	8876
874.851	9165
874.979	9275
875.108	9393
875.237	9363
875.365	9439
875.494	9660
875.623	9865
875.751	9778
875.88	9930
876.008	10112
876.136	10261
876.265	10535
876.393	10656
876.521	10725
876.65	10881
876.778	10915
876.906	10896
877.034	11140
877.162	11060
877.29	11193
877.418	11330
877.546	11337
877.674	11452
877.802	11452
877.93	11589
878.058	11627
878.185	11478
878.313	11649
878.441	11661
878.568	11646
878.696	11802
878.824	11916
878.951	11828
879.079	11973
879.206	12129
879.333	12095
879.461	12038
879.588	12114
879.715	12087
879.842	12239
879.97	12076
880.097	11817
880.224	11866
880.351	11920
880.478	11901
880.605	11836
880.732	11851
880.859	12068
880.986	11843
881.112	11798
881.239	11592
881.366	11688
881.493	11642
881.619	11600
881.746	11478
881.872	11554
881.999	11528
882.125	11425
882.252	11589
882.378	11474
882.505	11558
882.631	11360
882.757	11303
882.883	11303
883.01	11303
883.136	11174
883.262	11204
883.388	11143
883.514	11242
883.64	11212
883.766	11117
883.892	11086
884.018	11022
884.143	11033
884.269	11079
884.395	10934
884.52	10812
884.646	10767
884.772	10721
884.897	10687
885.023	10729
885.148	10694
885.274	10805
885.399	10805
885.524	10626
885.65	10626
885.775	10596
885.9	10546
886.025	10649
886.15	10531
886.275	10455
886.4	10428
886.525	10516
886.65	10348
886.775	10356
886.9	10497
887.025	10523
887.149	10329
887.274	10227
887.399	10253
887.523	10185
887.648	10177
887.773	10158
887.897	10322
888.021	10219
888.146	10139
888.27	10181
888.395	10272
888.519	10280
888.643	10158
888.767	10215
888.891	10006
889.015	10010
889.139	10067
889.263	10025
889.387	10025
889.511	10067
889.635	10067
889.759	9979
889.883	9983
890.006	10082
890.13	10154
890.254	9945
890.377	10010
890.501	9869
890.624	9941
890.748	9873
890.871	9770
890.995	9812
891.118	9766
891.241	9819
891.364	9755
891.488	9892
891.611	9819
891.734	9740
891.857	9770
891.98	9759
892.103	9797
892.226	9679
892.349	9709
892.471	9599
892.594	9633
892.717	9686
892.839	9526
892.962	9686
893.085	9652
893.207	9549
893.33	9542
893.452	9557
893.575	9637
893.697	9488
893.819	9576
893.941	9622
894.064	9580
894.186	9496
894.308	9488
894.43	9500
894.552	9542
894.674	9435
894.796	9416
894.918	9393
895.04	9321
895.161	9374
895.283	9302
895.405	9207
895.526	9317
895.648	9199
895.769	9275
895.891	9260
896.012	9287
896.134	9237
896.255	9211
896.376	9131
896.498	9154
896.619	9230
896.74	9028
896.861	9108
896.982	9237
897.103	9325
897.224	9203
897.345	9100
897.466	8948
897.587	9009
897.708	9074
897.828	9017
897.949	8941
898.07	8895
898.19	8921
898.311	9047
898.431	8918
898.552	8967
898.672	8941
898.792	8990
898.913	8929
899.033	8815
899.153	8746
899.273	8735
899.393	8670
899.513	8739
899.633	8769
899.753	8796
899.873	8766
899.993	8735
900.113	8758
900.232	8686
900.352	8651
900.472	8670
900.591	8518
900.711	8621
900.83	8594
900.95	8686
901.069	8743
901.189	8533
901.308	8427
901.427	8431
901.546	8423
901.665	8446
901.784	8434
901.904	8415
902.023	8362
902.141	8298
902.26	8221
902.379	8324
902.498	8275
902.617	8210
902.735	8317
902.854	8301
902.973	8240
903.091	8115
903.21	8100
903.328	8138
903.446	8149
903.565	8092
903.683	8069
903.801	8115
903.919	8123
904.038	8107
904.156	8031
904.274	8100
904.392	7997
904.51	8020
904.627	8103
904.745	8107
904.863	8096
904.981	7940
905.098	7822
905.216	7887
905.334	7902
905.451	7879
905.569	7849
905.686	7959
905.803	7955
905.921	7822
906.038	7849
906.155	7795
906.272	7731
906.389	7761
906.506	7677
906.623	7643
906.74	7624
906.857	7575
906.974	7613
907.091	7674
907.208	7693
907.324	7662
907.441	7571
907.557	7499
907.674	7476
907.79	7400
907.907	7430
908.023	7472
908.139	7457
908.256	7419
908.372	7396
908.488	7369
908.604	7255
908.72	7266
908.836	7331
908.952	7251
909.068	7244
909.184	7320
909.3	7289
909.415	7320
909.531	7266
909.647	7114
909.762	7076
909.878	7088
909.993	7080
910.108	7095
910.224	7072
910.339	7129
910.454	7088
910.57	7050
910.685	6947
910.8	7175
910.915	7065
911.03	7027
911.145	6928
911.259	6878
911.374	6886
911.489	6818
911.604	6821
911.718	6757
911.833	6753
911.947	6715
912.062	6612
912.176	6673
912.291	6760
912.405	6719
912.519	6852
912.633	6825
912.748	6779
912.862	6760
912.976	6601
913.09	6555
913.204	6547
913.318	6578
913.431	6673
913.545	6707
913.659	6719
913.772	6639
913.886	6612
914	6612
914.113	6604
914.226	6688
914.34	6662
914.453	6498
914.566	6623
914.68	6540
914.793	6597
914.906	6410
915.019	6475
915.132	6380
915.245	6490
915.358	6483
915.47	6429
915.583	6528
915.696	6513
915.809	6475
915.921	6555
916.034	6441
916.146	6475
916.259	6418
916.371	6479
916.483	6525
916.595	6391
916.708	6441
916.82	6403
916.932	6380
917.044	6395
917.156	6433
917.268	6342
917.38	6327
917.491	6323
917.603	6448
917.715	6342
917.826	6429
917.938	6319
918.049	6239
918.161	6273
918.272	6380
918.384	6490
918.495	6311
918.606	6334
918.717	6155
918.828	6262
918.939	6308
919.05	6209
919.161	6311
919.272	6155
919.383	6205
919.494	6289
919.604	6422
919.715	6289
919.826	6300
919.936	6308
920.047	6353
920.157	6331
920.267	6467
920.378	6311
920.488	6308
920.598	6498
920.708	6597
920.818	6525
920.928	6437
921.038	6650
921.148	6631
921.258	6437
921.368	6410
921.477	6273
921.587	6201
921.697	6026
921.806	6235
921.916	6133
922.025	5965
922.134	5935
922.244	5885
922.353	5954
922.462	5844
922.571	5847
922.68	5733
922.789	5684
922.898	5699
923.007	5585
923.116	5726
923.224	5729
923.333	5630
923.442	5627
923.55	5558
923.659	5596
923.767	5623
923.876	5566
923.984	5615
924.092	5467
924.201	5543
924.309	5570
924.417	5570
924.525	5551
924.633	5497
924.741	6323
924.849	5433
924.956	5505
925.064	5395
925.172	5318
925.279	5341
925.387	5368
925.494	5337
925.602	5459
925.709	5368
925.816	5265
925.924	5395
926.031	5379
926.138	5284
926.245	5349
926.352	5296
926.459	5322
926.566	5349
926.673	5216
926.779	5136
926.886	5113
926.993	5048
927.099	5083
927.206	4968
927.312	4987
927.419	5045
927.525	5003
927.631	4991
927.737	4942
927.843	4858
927.95	4752
928.056	4843
928.162	4820
928.267	4862
928.373	5269
928.479	4881
928.585	4679
928.69	4763
928.796	4801
928.901	4698
929.007	4637
929.112	4675
929.218	4691
929.323	4588
929.428	4558
929.533	4694
929.638	4527
929.743	4546
929.848	4596
929.953	4519
930.058	4455
930.163	4352
930.267	4333
930.372	4432
930.477	4352
930.581	4504
930.685	4363
930.79	4265
930.894	4291
930.998	4291
931.103	4405
931.207	4135
931.311	4078
931.415	4040
931.519	3884
931.623	3994
