Data from glass_V78500241_251.txt Node
Date: Wed Sep 01 19:16:14 CST 2021
User: usil
Spectrometer: V785-0024
Trigger mode: 0
Integration Time (sec): 4.000000E-1
Scans to average: 1
Nonlinearity correction enabled: false
Boxcar width: 0
Storing dark spectrum: false
XAxis mode: Wavelengths
Number of Pixels in Spectrum: 1024
>>>>>Begin Spectral Data<<<<<
801.071	3766
801.214	3774
801.356	3713
801.499	3770
801.641	3743
801.783	3781
801.926	3896
802.068	3838
802.211	3892
802.353	3926
802.496	3869
802.638	3876
802.78	3937
802.923	3968
803.065	3896
803.208	3854
803.35	3850
803.492	3941
803.635	3930
803.777	3831
803.919	3884
804.061	4181
804.204	3994
804.346	3972
804.488	3937
804.63	4017
804.773	3979
804.915	4074
805.057	4128
805.199	4044
805.341	4097
805.483	4158
805.626	4181
805.768	4169
805.91	4238
806.052	4242
806.194	4181
806.336	4333
806.478	4246
806.62	4181
806.762	4173
806.904	4295
807.046	4352
807.188	4207
807.33	4200
807.472	4272
807.614	4242
807.756	4276
807.898	4238
808.04	4219
808.182	4341
808.324	4325
808.465	4386
808.607	4478
808.749	4436
808.891	4470
809.033	4478
809.174	4440
809.316	4322
809.458	4272
809.6	4158
809.741	4185
809.883	4166
810.025	4253
810.166	4207
810.308	4257
810.45	4265
810.591	4265
810.733	4268
810.875	4519
811.016	4824
811.158	5189
811.299	5322
811.441	5296
811.582	5086
811.724	4736
811.865	4481
812.007	4470
812.148	4417
812.29	4402
812.431	4402
812.573	4375
812.714	4417
812.855	4421
812.997	4432
813.138	4489
813.279	4428
813.421	4375
813.562	4394
813.703	4329
813.845	4360
813.986	4253
814.127	4196
814.268	4314
814.41	4322
814.551	4246
814.692	4306
814.833	4265
814.974	4287
815.115	4341
815.256	4249
815.397	4249
815.539	4234
815.68	4230
815.821	4181
815.962	4299
816.103	4303
816.244	4249
816.385	4249
816.526	4310
816.666	4230
816.807	4139
816.948	4196
817.089	4173
817.23	4116
817.371	4013
817.512	4063
817.653	4109
817.793	4051
817.934	4029
818.075	4074
818.216	4090
818.356	4078
818.497	4036
818.638	3922
818.778	3896
818.919	3937
819.06	3850
819.2	3968
819.341	3854
819.481	3850
819.622	3964
819.762	4048
819.903	3960
820.043	3911
820.184	3827
820.324	3865
820.465	3930
820.605	3926
820.746	3899
820.886	3800
821.026	3945
821.167	3911
821.307	3953
821.447	3987
821.588	3922
821.728	3975
821.868	3941
822.008	3865
822.149	3926
822.289	3934
822.429	3857
822.569	3770
822.709	3827
822.849	3717
822.99	3740
823.13	3770
823.27	3785
823.41	3747
823.55	3736
823.69	3690
823.83	3740
823.97	3701
824.11	3564
824.25	3610
824.389	3629
824.529	3709
824.669	3690
824.809	3751
824.949	3831
825.089	3740
825.228	3728
825.368	3584
825.508	3564
825.648	3637
825.787	3614
825.927	3633
826.067	3637
826.206	3728
826.346	3804
826.485	3812
826.625	3873
826.765	3987
826.904	3823
827.044	3652
827.183	3526
827.323	3458
827.462	3511
827.601	3447
827.741	3443
827.88	3481
828.02	3397
828.159	3454
828.298	3458
828.437	3519
828.577	3511
828.716	3633
828.855	3519
828.994	3401
829.134	3348
829.273	3397
829.412	3355
829.551	3340
829.69	3374
829.829	3462
829.968	3580
830.107	3477
830.246	3462
830.385	3431
830.524	3382
830.663	3363
830.802	3268
830.941	3207
831.08	3230
831.219	3264
831.357	3275
831.496	3420
831.635	3268
831.774	3203
831.913	3203
832.051	3127
832.19	3127
832.329	3230
832.467	3157
832.606	3157
832.744	3173
832.883	3203
833.022	3180
833.16	3256
833.299	3363
833.437	3325
833.576	3389
833.714	3443
833.852	3481
833.991	3469
834.129	3469
834.267	3439
834.406	3424
834.544	3401
834.682	3450
834.821	3447
834.959	3603
835.097	3428
835.235	3488
835.373	3488
835.511	3504
835.65	3496
835.788	3507
835.926	3367
836.064	3370
836.202	3443
836.34	3584
836.478	3629
836.615	3538
836.753	3591
836.891	3633
837.029	3633
837.167	3587
837.305	3557
837.443	3564
837.58	3545
837.718	3603
837.856	3564
837.993	3587
838.131	3599
838.269	3603
838.406	3591
838.544	3599
838.681	3443
838.819	3454
838.956	3344
839.094	3424
839.231	3481
839.369	3538
839.506	3774
839.643	3671
839.781	3572
839.918	3454
840.055	3549
840.193	3549
840.33	3530
840.467	3568
840.604	3603
840.742	3816
840.879	3564
841.016	3568
841.153	3603
841.29	3781
841.427	3751
841.564	3778
841.701	3751
841.838	3736
841.975	3663
842.112	3736
842.249	3667
842.385	3667
842.522	3793
842.659	3709
842.796	3720
842.933	3713
843.069	3701
843.206	3717
843.343	3804
843.479	3808
843.616	3827
843.752	3717
843.889	3713
844.025	3884
844.162	3701
844.298	3876
844.435	3717
844.571	3823
844.708	3911
844.844	3998
844.98	4021
845.117	4051
845.253	3972
845.389	3915
845.525	3964
845.661	4013
845.798	3918
845.934	4013
846.07	3987
846.206	4059
846.342	4169
846.478	4101
846.614	3968
846.75	3949
846.886	3899
847.022	4055
847.158	3994
847.294	4048
847.429	4013
847.565	4002
847.701	4280
847.837	3911
847.972	3903
848.108	3994
848.244	3998
848.379	3907
848.515	3854
848.65	3808
848.786	3888
848.921	3884
849.057	3960
849.192	3983
849.328	3937
849.463	3953
849.598	3884
849.734	3869
849.869	3838
850.004	3854
850.14	3819
850.275	3793
850.41	3770
850.545	3717
850.68	3766
850.815	3816
850.95	3816
851.085	3964
851.22	3899
851.355	3804
851.49	3797
851.625	3804
851.76	3797
851.895	3732
852.03	3785
852.165	3831
852.299	3869
852.434	3937
852.569	3896
852.703	3915
852.838	3968
852.973	4013
853.107	3983
853.242	3911
853.376	3880
853.511	3781
853.645	3857
853.78	3968
853.914	3911
854.048	3896
854.183	3915
854.317	4010
854.451	4082
854.585	3994
854.72	3964
854.854	4074
854.988	3949
855.122	3960
855.256	3918
855.39	4029
855.524	4124
855.658	4109
855.792	4097
855.926	4055
856.06	4242
856.194	4211
856.327	4150
856.461	4128
856.595	4173
856.729	4188
856.862	4261
856.996	4257
857.13	4299
857.263	4295
857.397	4348
857.53	4306
857.664	4333
857.797	4424
857.931	4451
858.064	4455
858.197	4497
858.331	4428
858.464	4371
858.597	4375
858.731	4379
858.864	4481
858.997	4500
859.13	4538
859.263	4508
859.396	4603
859.529	4504
859.662	4599
859.795	4512
859.928	4641
860.061	4691
860.194	4714
860.327	4683
860.46	4672
860.592	4759
860.725	4778
860.858	4752
860.99	4683
861.123	4664
861.256	4691
861.388	4767
861.521	5235
861.653	4740
861.786	4687
861.918	4786
862.05	4793
862.183	4850
862.315	4946
862.447	4961
862.58	4915
862.712	4824
862.844	4790
862.976	4885
863.108	4877
863.24	5261
863.372	4900
863.504	4946
863.636	4923
863.768	4976
863.9	4984
864.032	4923
864.164	4984
864.296	5003
864.428	5124
864.559	5147
864.691	5143
864.823	5128
864.954	5109
865.086	5166
865.217	5132
865.349	5151
865.48	5147
865.612	5166
865.743	5246
865.875	5231
866.006	5258
866.137	5220
866.269	5303
866.4	5277
866.531	5231
866.662	5235
866.793	5311
866.924	5345
867.055	5376
867.186	5379
867.317	5337
867.448	5296
867.579	5337
867.71	5421
867.841	5387
867.972	5429
868.103	5440
868.233	5493
868.364	5551
868.495	5520
868.625	5680
868.756	5790
868.886	5672
869.017	5722
869.147	5844
869.278	5885
869.408	5771
869.539	5836
869.669	5870
869.799	5939
869.929	5954
870.06	6030
870.19	6159
870.32	6213
870.45	6311
870.58	6331
870.71	6403
870.84	6509
870.97	6464
871.1	6509
871.23	6593
871.36	6700
871.489	6673
871.619	6722
871.749	6779
871.879	6924
872.008	6973
872.138	6935
872.267	7103
872.397	7008
872.526	7084
872.656	7145
872.785	7198
872.915	7472
873.044	7502
873.173	7537
873.303	7666
873.432	7757
873.561	7890
873.69	7883
873.819	8008
873.948	8180
874.077	8202
874.206	8389
874.335	8446
874.464	8716
874.593	8826
874.722	8910
874.851	9169
874.979	9226
875.108	9420
875.237	9439
875.365	9488
875.494	9660
875.623	9819
875.751	9816
875.88	10010
876.008	10166
876.136	10242
876.265	10542
876.393	10748
876.521	10733
876.65	10748
876.778	10911
876.906	10908
877.034	10953
877.162	11117
877.29	11197
877.418	11341
877.546	11280
877.674	11467
877.802	11364
877.93	11592
878.058	11562
878.185	11486
878.313	11627
878.441	11790
878.568	11665
878.696	11817
878.824	11813
878.951	12007
879.079	12053
879.206	12106
879.333	12091
879.461	11973
879.588	12083
879.715	12057
879.842	12232
879.97	11996
880.097	11859
880.224	11847
880.351	11863
880.478	11843
880.605	11809
880.732	11843
880.859	12038
880.986	11821
881.112	11790
881.239	11798
881.366	11680
881.493	11665
881.619	11566
881.746	11543
881.872	11634
881.999	11676
882.125	11474
882.252	11634
882.378	11577
882.505	11634
882.631	11334
882.757	11353
882.883	11288
883.01	11227
883.136	11299
883.262	11147
883.388	11086
883.514	11124
883.64	11197
883.766	11124
883.892	10995
884.018	10930
884.143	11102
884.269	11102
884.395	10873
884.52	10847
884.646	10782
884.772	10759
884.897	10740
885.023	10679
885.148	10706
885.274	10801
885.399	10641
885.524	10679
885.65	10607
885.775	10565
885.9	10637
886.025	10626
886.15	10554
886.275	10451
886.4	10402
886.525	10375
886.65	10329
886.775	10417
886.9	10481
887.025	10577
887.149	10310
887.274	10207
887.399	10265
887.523	10192
887.648	10150
887.773	10131
887.897	10242
888.021	10166
888.146	10074
888.27	10303
888.395	10234
888.519	10188
888.643	10112
888.767	10249
888.891	10139
889.015	10010
889.139	10082
889.263	10010
889.387	10086
889.511	10166
889.635	10097
889.759	10036
889.883	9964
890.006	9972
890.13	10116
890.254	9968
890.377	9922
890.501	9861
890.624	9873
890.748	9941
890.871	9804
890.995	9876
891.118	9766
891.241	9819
891.364	9740
891.488	9808
891.611	9770
891.734	9793
891.857	9743
891.98	9743
892.103	9743
892.226	9743
892.349	9728
892.471	9557
892.594	9682
892.717	9656
892.839	9713
892.962	9694
893.085	9660
893.207	9519
893.33	9526
893.452	9504
893.575	9599
893.697	9530
893.819	9698
893.941	9622
894.064	9663
894.186	9477
894.308	9405
894.43	9561
894.552	9584
894.674	9584
894.796	9386
894.918	9386
895.04	9298
895.161	9359
895.283	9336
895.405	9188
895.526	9211
895.648	9306
895.769	9272
895.891	9230
896.012	9226
896.134	9241
896.255	9222
896.376	9138
896.498	9119
896.619	9161
896.74	9032
896.861	9146
896.982	9230
897.103	9332
897.224	9138
897.345	9131
897.466	9017
897.587	9001
897.708	9104
897.828	8979
897.949	8990
898.07	8876
898.19	8887
898.311	9017
898.431	8914
898.552	8868
898.672	9020
898.792	8948
898.913	8941
899.033	8819
899.153	8693
899.273	8682
899.393	8701
899.513	8788
899.633	8708
899.753	8712
899.873	8724
899.993	8708
900.113	8754
900.232	8701
900.352	8632
900.472	8594
900.591	8564
900.711	8651
900.83	8575
900.95	8693
901.069	8716
901.189	8560
901.308	8431
901.427	8465
901.546	8385
901.665	8446
901.784	8545
901.904	8419
902.023	8328
902.141	8111
902.26	8183
902.379	8237
902.498	8248
902.617	8199
902.735	8317
902.854	8248
902.973	8263
903.091	8168
903.21	8157
903.328	8130
903.446	8145
903.565	8138
903.683	8138
903.801	8069
903.919	8134
904.038	8164
904.156	8054
904.274	8084
904.392	8043
904.51	8065
904.627	8054
904.745	8145
904.863	8115
904.981	7936
905.098	7894
905.216	7856
905.334	7852
905.451	7936
905.569	7868
905.686	7951
905.803	7864
905.921	7811
906.038	7906
906.155	7784
906.272	7719
906.389	7780
906.506	7655
906.623	7662
906.74	7662
906.857	7506
906.974	7639
907.091	7700
907.208	7807
907.324	7636
907.441	7632
907.557	7468
907.674	7487
907.79	7441
907.907	7365
908.023	7445
908.139	7438
908.256	7400
908.372	7377
908.488	7422
908.604	7293
908.72	7251
908.836	7354
908.952	7274
909.068	7293
909.184	7274
909.3	7297
909.415	7274
909.531	7369
909.647	7168
909.762	7114
909.878	7088
909.993	7160
910.108	7072
910.224	7103
910.339	7114
910.454	7053
910.57	6989
910.685	6909
910.8	7194
910.915	7053
911.03	7046
911.145	6973
911.259	6818
911.374	6939
911.489	6798
911.604	6814
911.718	6787
911.833	6703
911.947	6688
912.062	6654
912.176	6681
912.291	6684
912.405	6722
912.519	6894
912.633	6863
912.748	6749
912.862	6654
912.976	6631
913.09	6563
913.204	6612
913.318	6589
913.431	6642
913.545	6616
913.659	6798
913.772	6677
913.886	6627
914	6582
914.113	6639
914.226	6582
914.34	6642
914.453	6532
914.566	6608
914.68	6528
914.793	6536
914.906	6407
915.019	6403
915.132	6308
915.245	6437
915.358	6494
915.47	6445
915.583	6471
915.696	6528
915.809	6532
915.921	6597
916.034	6407
916.146	6452
916.259	6418
916.371	6498
916.483	6471
916.595	6494
916.708	6433
916.82	6391
916.932	6365
917.044	6357
917.156	6407
917.268	6372
917.38	6380
917.491	6376
917.603	6388
917.715	6403
917.826	6388
917.938	6365
918.049	6251
918.161	6353
918.272	6395
918.384	6414
918.495	6361
918.606	6277
918.717	6216
918.828	6277
918.939	6308
919.05	6213
919.161	6277
919.272	6144
919.383	6182
919.494	6251
919.604	6448
919.715	6323
919.826	6304
919.936	6239
920.047	6323
920.157	6315
920.267	6494
920.378	6327
920.488	6228
920.598	6490
920.708	6559
920.818	6509
920.928	6483
921.038	6597
921.148	6574
921.258	6403
921.368	6209
921.477	6201
921.587	6220
921.697	6087
921.806	6224
921.916	6121
922.025	5954
922.134	5942
922.244	5923
922.353	5954
922.462	5878
922.571	5790
922.68	5695
922.789	5657
922.898	5718
923.007	5638
923.116	5737
923.224	5688
923.333	5676
923.442	5600
923.55	5554
923.659	5615
923.767	5630
923.876	5611
923.984	5589
924.092	5532
924.201	5592
924.309	5532
924.417	5551
924.525	5516
924.633	5478
924.741	6285
924.849	5364
924.956	5528
925.064	5364
925.172	5315
925.279	5334
925.387	5345
925.494	5330
925.602	5490
925.709	5414
925.816	5280
925.924	5303
926.031	5387
926.138	5326
926.245	5330
926.352	5178
926.459	5357
926.566	5330
926.673	5242
926.779	5113
926.886	5162
926.993	5048
927.099	4999
927.206	4927
927.312	4930
927.419	5048
927.525	5029
927.631	5006
927.737	4889
927.843	4858
927.95	4771
928.056	4843
928.162	4816
928.267	4877
928.373	5280
928.479	4866
928.585	4664
928.69	4778
928.796	4805
928.901	4725
929.007	4611
929.112	4660
929.218	4649
929.323	4664
929.428	4573
929.533	4679
929.638	4519
929.743	4580
929.848	4546
929.953	4523
930.058	4405
930.163	4325
930.267	4344
930.372	4466
930.477	4310
930.581	4443
930.685	4375
930.79	4265
930.894	4306
930.998	4299
931.103	4386
931.207	4169
931.311	4086
931.415	4040
931.519	3949
931.623	3983
