Data from glass_V78500241_1000.txt Node
Date: Wed Sep 01 19:21:25 CST 2021
User: usil
Spectrometer: V785-0024
Trigger mode: 0
Integration Time (sec): 4.000000E-1
Scans to average: 1
Nonlinearity correction enabled: false
Boxcar width: 0
Storing dark spectrum: false
XAxis mode: Wavelengths
Number of Pixels in Spectrum: 1024
>>>>>Begin Spectral Data<<<<<
801.071	3759
801.214	3747
801.356	3690
801.499	3724
801.641	3747
801.783	3804
801.926	3854
802.068	3800
802.211	3838
802.353	3854
802.496	3888
802.638	3915
802.78	3922
802.923	3949
803.065	3880
803.208	3842
803.35	3918
803.492	3949
803.635	3934
803.777	3793
803.919	3911
804.061	4139
804.204	3972
804.346	3953
804.488	3926
804.63	4059
804.773	3930
804.915	4044
805.057	4154
805.199	4082
805.341	4097
805.483	4177
805.626	4162
805.768	4143
805.91	4230
806.052	4257
806.194	4215
806.336	4333
806.478	4227
806.62	4200
806.762	4207
806.904	4246
807.046	4352
807.188	4162
807.33	4169
807.472	4276
807.614	4158
807.756	4249
807.898	4238
808.04	4211
808.182	4268
808.324	4341
808.465	4424
808.607	4523
808.749	4485
808.891	4478
809.033	4497
809.174	4417
809.316	4265
809.458	4284
809.6	4154
809.741	4120
809.883	4185
810.025	4227
810.166	4188
810.308	4265
810.45	4253
810.591	4246
810.733	4287
810.875	4573
811.016	4835
811.158	5147
811.299	5265
811.441	5349
811.582	5064
811.724	4687
811.865	4500
812.007	4497
812.148	4459
812.29	4386
812.431	4443
812.573	4436
812.714	4367
812.855	4424
812.997	4432
813.138	4508
813.279	4443
813.421	4352
813.562	4413
813.703	4303
813.845	4352
813.986	4249
814.127	4215
814.268	4291
814.41	4287
814.551	4310
814.692	4360
814.833	4287
814.974	4287
815.115	4363
815.256	4257
815.397	4242
815.539	4261
815.68	4211
815.821	4230
815.962	4284
816.103	4303
816.244	4219
816.385	4188
816.526	4284
816.666	4207
816.807	4086
816.948	4150
817.089	4166
817.23	4154
817.371	4071
817.512	4048
817.653	4086
817.793	4048
817.934	4063
818.075	4116
818.216	4101
818.356	4131
818.497	3987
818.638	3876
818.778	3918
818.919	3934
819.06	3850
819.2	3930
819.341	3892
819.481	3819
819.622	3937
819.762	4032
819.903	3964
820.043	3880
820.184	3827
820.324	3835
820.465	3838
820.605	3915
820.746	3861
820.886	3808
821.026	3934
821.167	3926
821.307	4010
821.447	3972
821.588	3934
821.728	3979
821.868	3956
822.008	3846
822.149	3911
822.289	3911
822.429	3804
822.569	3762
822.709	3778
822.849	3652
822.99	3694
823.13	3785
823.27	3819
823.41	3728
823.55	3720
823.69	3701
823.83	3747
823.97	3671
824.11	3591
824.25	3625
824.389	3641
824.529	3698
824.669	3637
824.809	3755
824.949	3736
825.089	3759
825.228	3694
825.368	3599
825.508	3561
825.648	3584
825.787	3644
825.927	3629
826.067	3656
826.206	3679
826.346	3816
826.485	3835
826.625	3850
826.765	3937
826.904	3861
827.044	3622
827.183	3553
827.323	3443
827.462	3523
827.601	3447
827.741	3443
827.88	3477
828.02	3401
828.159	3462
828.298	3507
828.437	3561
828.577	3458
828.716	3603
828.855	3519
828.994	3374
829.134	3374
829.273	3401
829.412	3348
829.551	3382
829.69	3374
829.829	3428
829.968	3534
830.107	3519
830.246	3458
830.385	3386
830.524	3359
830.663	3340
830.802	3237
830.941	3222
831.08	3207
831.219	3294
831.357	3287
831.496	3409
831.635	3249
831.774	3195
831.913	3127
832.051	3116
832.19	3119
832.329	3211
832.467	3135
832.606	3131
832.744	3199
832.883	3199
833.022	3207
833.16	3237
833.299	3302
833.437	3332
833.576	3393
833.714	3416
833.852	3435
833.991	3450
834.129	3466
834.267	3443
834.406	3439
834.544	3458
834.682	3412
834.821	3412
834.959	3549
835.097	3447
835.235	3584
835.373	3530
835.511	3500
835.65	3458
835.788	3507
835.926	3389
836.064	3370
836.202	3386
836.34	3610
836.478	3652
836.615	3549
836.753	3591
836.891	3644
837.029	3633
837.167	3614
837.305	3595
837.443	3534
837.58	3534
837.718	3660
837.856	3519
837.993	3572
838.131	3591
838.269	3549
838.406	3576
838.544	3580
838.681	3450
838.819	3450
838.956	3386
839.094	3401
839.231	3424
839.369	3553
839.506	3759
839.643	3629
839.781	3549
839.918	3439
840.055	3530
840.193	3530
840.33	3515
840.467	3557
840.604	3576
840.742	3797
840.879	3549
841.016	3629
841.153	3587
841.29	3759
841.427	3720
841.564	3743
841.701	3705
841.838	3701
841.975	3686
842.112	3747
842.249	3641
842.385	3610
842.522	3854
842.659	3698
842.796	3686
842.933	3732
843.069	3713
843.206	3720
843.343	3869
843.479	3804
843.616	3857
843.752	3656
843.889	3671
844.025	3884
844.162	3705
844.298	3861
844.435	3778
844.571	3842
844.708	3915
844.844	3941
844.98	3998
845.117	4063
845.253	3975
845.389	3949
845.525	3960
845.661	3968
845.798	3926
845.934	3998
846.07	3972
846.206	4086
846.342	4071
846.478	4109
846.614	4002
846.75	3926
846.886	3884
847.022	4048
847.158	3972
847.294	4055
847.429	4029
847.565	3998
847.701	4238
847.837	3892
847.972	3865
848.108	4017
848.244	3972
848.379	3838
848.515	3854
848.65	3808
848.786	3819
848.921	3846
849.057	3907
849.192	4002
849.328	3922
849.463	3953
849.598	3918
849.734	3865
849.869	3873
850.004	3797
850.14	3850
850.275	3800
850.41	3766
850.545	3789
850.68	3766
850.815	3793
850.95	3774
851.085	3918
851.22	3937
851.355	3816
851.49	3781
851.625	3857
851.76	3781
851.895	3743
852.03	3728
852.165	3785
852.299	3819
852.434	3896
852.569	3850
852.703	3903
852.838	3930
852.973	3987
853.107	3987
853.242	3892
853.376	3854
853.511	3838
853.645	3812
853.78	3945
853.914	3892
854.048	3903
854.183	3899
854.317	3964
854.451	4112
854.585	3983
854.72	3953
854.854	4067
854.988	3945
855.122	3991
855.256	3896
855.39	4048
855.524	4116
855.658	4109
855.792	4074
855.926	4135
856.06	4215
856.194	4234
856.327	4120
856.461	4112
856.595	4181
856.729	4223
856.862	4253
856.996	4261
857.13	4299
857.263	4291
857.397	4352
857.53	4310
857.664	4322
857.797	4375
857.931	4516
858.064	4398
858.197	4481
858.331	4398
858.464	4375
858.597	4337
858.731	4485
858.864	4485
858.997	4489
859.13	4531
859.263	4508
859.396	4634
859.529	4577
859.662	4519
859.795	4519
859.928	4615
860.061	4694
860.194	4725
860.327	4710
860.46	4649
860.592	4706
860.725	4831
860.858	4839
860.99	4717
861.123	4675
861.256	4683
861.388	4748
861.521	5478
861.653	4683
861.786	4752
861.918	4748
862.05	4797
862.183	4839
862.315	4900
862.447	4946
862.58	4900
862.712	4850
862.844	4820
862.976	4870
863.108	4835
863.24	5273
863.372	4824
863.504	4919
863.636	4946
863.768	5006
863.9	4957
864.032	4873
864.164	4953
864.296	5022
864.428	5098
864.559	5140
864.691	5136
864.823	5147
864.954	5132
865.086	5147
865.217	5102
865.349	5105
865.48	5174
865.612	5258
865.743	5376
865.875	5143
866.006	5246
866.137	5204
866.269	5254
866.4	5277
866.531	5239
866.662	5185
866.793	5345
866.924	5258
867.055	5345
867.186	5387
867.317	5337
867.448	5372
867.579	5448
867.71	5402
867.841	5440
867.972	5512
868.103	5478
868.233	5505
868.364	5532
868.495	5581
868.625	5691
868.756	5794
868.886	5688
869.017	5748
869.147	5840
869.278	5893
869.408	5844
869.539	5809
869.669	5954
869.799	5889
869.929	6011
870.06	6022
870.19	6213
870.32	6216
870.45	6308
870.58	6357
870.71	6437
870.84	6506
870.97	6445
871.1	6475
871.23	6669
871.36	6722
871.489	6707
871.619	6821
871.749	6806
871.879	6837
872.008	6928
872.138	6993
872.267	6996
872.397	6989
872.526	7042
872.656	7164
872.785	7183
872.915	7377
873.044	7537
873.173	7544
873.303	7636
873.432	7757
873.561	7921
873.69	8039
873.819	7986
873.948	8172
874.077	8233
874.206	8328
874.335	8526
874.464	8621
874.593	8838
874.722	8967
874.851	9138
874.979	9230
875.108	9408
875.237	9500
875.365	9469
875.494	9656
875.623	9892
875.751	9812
875.88	10010
876.008	10147
876.136	10287
876.265	10637
876.393	10733
876.521	10725
876.65	10778
876.778	10877
876.906	10900
877.034	10930
877.162	11083
877.29	11102
877.418	11311
877.546	11414
877.674	11436
877.802	11486
877.93	11566
878.058	11486
878.185	11649
878.313	11676
878.441	11824
878.568	11657
878.696	11828
878.824	11870
878.951	11912
879.079	12079
879.206	12068
879.333	12041
879.461	12057
879.588	12098
879.715	12011
879.842	12186
879.97	12125
880.097	11885
880.224	11893
880.351	11939
880.478	11950
880.605	11843
880.732	11745
880.859	12007
880.986	11783
881.112	11923
881.239	11726
881.366	11680
881.493	11653
881.619	11554
881.746	11566
881.872	11539
881.999	11482
882.125	11547
882.252	11608
882.378	11467
882.505	11619
882.631	11417
882.757	11284
882.883	11345
883.01	11330
883.136	11242
883.262	11075
883.388	11071
883.514	11311
883.64	11147
883.766	11143
883.892	10965
884.018	10953
884.143	11071
884.269	11105
884.395	10904
884.52	10835
884.646	10828
884.772	10706
884.897	10687
885.023	10702
885.148	10774
885.274	10771
885.399	10702
885.524	10596
885.65	10535
885.775	10637
885.9	10489
886.025	10683
886.15	10607
886.275	10577
886.4	10390
886.525	10459
886.65	10367
886.775	10398
886.9	10436
887.025	10584
887.149	10367
887.274	10223
887.399	10249
887.523	10109
887.648	10143
887.773	10177
887.897	10253
888.021	10253
888.146	10150
888.27	10234
888.395	10215
888.519	10242
888.643	10158
888.767	10207
888.891	10067
889.015	10010
889.139	9987
889.263	9964
889.387	9987
889.511	10181
889.635	10074
889.759	9956
889.883	9953
890.006	10048
890.13	10154
890.254	9953
890.377	9937
890.501	9876
890.624	9827
890.748	9884
890.871	9823
890.995	9720
891.118	9656
891.241	9717
891.364	9774
891.488	9831
891.611	9743
891.734	9728
891.857	9720
891.98	9728
892.103	9781
892.226	9671
892.349	9682
892.471	9542
892.594	9641
892.717	9622
892.839	9660
892.962	9648
893.085	9675
893.207	9576
893.33	9473
893.452	9606
893.575	9564
893.697	9481
893.819	9622
893.941	9641
894.064	9587
894.186	9435
894.308	9488
894.43	9481
894.552	9576
894.674	9500
894.796	9408
894.918	9443
895.04	9359
895.161	9412
895.283	9279
895.405	9260
895.526	9268
895.648	9283
895.769	9279
895.891	9264
896.012	9249
896.134	9188
896.255	9192
896.376	9199
896.498	9058
896.619	9066
896.74	9085
896.861	9028
896.982	9272
897.103	9268
897.224	9157
897.345	9138
897.466	9017
897.587	9009
897.708	9074
897.828	9066
897.949	8979
898.07	8819
898.19	8941
898.311	9009
898.431	8952
898.552	8895
898.672	8933
898.792	8937
898.913	8967
899.033	8796
899.153	8735
899.273	8613
899.393	8739
899.513	8762
899.633	8762
899.753	8686
899.873	8701
899.993	8781
900.113	8766
900.232	8716
900.352	8659
900.472	8636
900.591	8564
900.711	8564
900.83	8507
900.95	8682
901.069	8727
901.189	8579
901.308	8419
901.427	8343
901.546	8511
901.665	8499
901.784	8412
901.904	8362
902.023	8393
902.141	8225
902.26	8195
902.379	8210
902.498	8244
902.617	8229
902.735	8294
902.854	8275
902.973	8210
903.091	8065
903.21	8077
903.328	8168
903.446	8077
903.565	8069
903.683	8134
903.801	8103
903.919	8103
904.038	8111
904.156	8096
904.274	8035
904.392	8005
904.51	7978
904.627	8054
904.745	8065
904.863	8168
904.981	7883
905.098	7890
905.216	7906
905.334	7826
905.451	7909
905.569	7887
905.686	7967
905.803	7894
905.921	7719
906.038	7921
906.155	7837
906.272	7674
906.389	7719
906.506	7624
906.623	7628
906.74	7597
906.857	7533
906.974	7616
907.091	7636
907.208	7746
907.324	7704
907.441	7590
907.557	7495
907.674	7384
907.79	7422
907.907	7362
908.023	7510
908.139	7483
908.256	7384
908.372	7346
908.488	7426
908.604	7312
908.72	7251
908.836	7274
908.952	7263
909.068	7225
909.184	7308
909.3	7255
909.415	7297
909.531	7297
909.647	7046
909.762	7171
909.878	7046
909.993	7126
910.108	7171
910.224	7015
910.339	7175
910.454	7034
910.57	6996
910.685	6951
910.8	7187
910.915	7175
911.03	7027
911.145	6897
911.259	6890
911.374	6901
911.489	6848
911.604	6833
911.718	6692
911.833	6734
911.947	6623
912.062	6612
912.176	6730
912.291	6745
912.405	6745
912.519	6798
912.633	6798
912.748	6719
912.862	6730
912.976	6604
913.09	6612
913.204	6616
913.318	6532
913.431	6711
913.545	6692
913.659	6749
913.772	6722
913.886	6551
914	6597
914.113	6570
914.226	6631
914.34	6654
914.453	6517
914.566	6608
914.68	6517
914.793	6536
914.906	6475
915.019	6376
915.132	6399
915.245	6448
915.358	6467
915.47	6445
915.583	6486
915.696	6547
915.809	6517
915.921	6582
916.034	6467
916.146	6410
916.259	6376
916.371	6486
916.483	6448
916.595	6441
916.708	6471
916.82	6403
916.932	6380
917.044	6391
917.156	6418
917.268	6311
917.38	6361
917.491	6304
917.603	6384
917.715	6403
917.826	6410
917.938	6311
918.049	6296
918.161	6357
918.272	6418
918.384	6502
918.495	6403
918.606	6266
918.717	6258
918.828	6277
918.939	6285
919.05	6194
919.161	6285
919.272	6148
919.383	6163
919.494	6270
919.604	6448
919.715	6376
919.826	6216
919.936	6296
920.047	6327
920.157	6247
920.267	6486
920.378	6418
920.488	6296
920.598	6429
920.708	6544
920.818	6483
920.928	6460
921.038	6654
921.148	6559
921.258	6315
921.368	6315
921.477	6220
921.587	6209
921.697	6117
921.806	6201
921.916	6053
922.025	5939
922.134	5916
922.244	5908
922.353	5942
922.462	5878
922.571	5828
922.68	5756
922.789	5718
922.898	5710
923.007	5615
923.116	5741
923.224	5680
923.333	5714
923.442	5646
923.55	5608
923.659	5600
923.767	5589
923.876	5585
923.984	5642
924.092	5512
924.201	5581
924.309	5558
924.417	5596
924.525	5509
924.633	5490
924.741	6201
924.849	5379
924.956	5493
925.064	5357
925.172	5307
925.279	5299
925.387	5341
925.494	5296
925.602	5433
925.709	5398
925.816	5334
925.924	5315
926.031	5349
926.138	5292
926.245	5288
926.352	5246
926.459	5353
926.566	5284
926.673	5258
926.779	5105
926.886	5147
926.993	5022
927.099	5029
927.206	4984
927.312	4972
927.419	5006
927.525	5006
927.631	4999
927.737	4957
927.843	4862
927.95	4847
928.056	4835
928.162	4816
928.267	4862
928.373	5322
928.479	4881
928.585	4725
928.69	4801
928.796	4809
928.901	4714
929.007	4596
929.112	4630
929.218	4607
929.323	4603
929.428	4577
929.533	4683
929.638	4561
929.743	4542
929.848	4531
929.953	4523
930.058	4508
930.163	4314
930.267	4322
930.372	4383
930.477	4348
930.581	4485
930.685	4379
930.79	4284
930.894	4325
930.998	4272
931.103	4413
931.207	4112
931.311	4101
931.415	4082
931.519	3915
931.623	3964
