Data from glass_V78500241_2771.txt Node
Date: Wed Sep 01 19:33:42 CST 2021
User: usil
Spectrometer: V785-0024
Trigger mode: 0
Integration Time (sec): 4.000000E-1
Scans to average: 1
Nonlinearity correction enabled: false
Boxcar width: 0
Storing dark spectrum: false
XAxis mode: Wavelengths
Number of Pixels in Spectrum: 1024
>>>>>Begin Spectral Data<<<<<
801.071	3686
801.214	3736
801.356	3690
801.499	3724
801.641	3728
801.783	3762
801.926	3846
802.068	3816
802.211	3831
802.353	3854
802.496	3819
802.638	3842
802.78	3899
802.923	3922
803.065	3892
803.208	3861
803.35	3850
803.492	3876
803.635	3876
803.777	3816
803.919	3888
804.061	4112
804.204	4002
804.346	3979
804.488	3960
804.63	4040
804.773	3949
804.915	3983
805.057	4128
805.199	3991
805.341	4078
805.483	4124
805.626	4124
805.768	4116
805.91	4177
806.052	4215
806.194	4204
806.336	4325
806.478	4200
806.62	4173
806.762	4158
806.904	4238
807.046	4356
807.188	4196
807.33	4154
807.472	4188
807.614	4192
807.756	4276
807.898	4188
808.04	4185
808.182	4265
808.324	4280
808.465	4341
808.607	4451
808.749	4443
808.891	4462
809.033	4516
809.174	4398
809.316	4284
809.458	4215
809.6	4158
809.741	4112
809.883	4120
810.025	4139
810.166	4227
810.308	4207
810.45	4246
810.591	4211
810.733	4284
810.875	4497
811.016	4793
811.158	5102
811.299	5189
811.441	5280
811.582	5060
811.724	4672
811.865	4474
812.007	4402
812.148	4428
812.29	4440
812.431	4390
812.573	4398
812.714	4367
812.855	4379
812.997	4394
813.138	4474
813.279	4409
813.421	4356
813.562	4421
813.703	4303
813.845	4291
813.986	4249
814.127	4238
814.268	4261
814.41	4299
814.551	4242
814.692	4291
814.833	4249
814.974	4284
815.115	4291
815.256	4215
815.397	4188
815.539	4280
815.68	4143
815.821	4200
815.962	4306
816.103	4242
816.244	4253
816.385	4177
816.526	4261
816.666	4261
816.807	4086
816.948	4158
817.089	4173
817.23	4158
817.371	4036
817.512	4086
817.653	4078
817.793	4010
817.934	4032
818.075	4093
818.216	4017
818.356	4036
818.497	4029
818.638	3915
818.778	3937
818.919	3880
819.06	3831
819.2	3896
819.341	3857
819.481	3835
819.622	3861
819.762	3987
819.903	3899
820.043	3812
820.184	3808
820.324	3812
820.465	3827
820.605	3827
820.746	3854
820.886	3759
821.026	3926
821.167	3918
821.307	3979
821.447	3915
821.588	3930
821.728	3934
821.868	3945
822.008	3827
822.149	3899
822.289	3865
822.429	3770
822.569	3816
822.709	3781
822.849	3656
822.99	3682
823.13	3728
823.27	3743
823.41	3740
823.55	3679
823.69	3740
823.83	3709
823.97	3694
824.11	3595
824.25	3584
824.389	3622
824.529	3660
824.669	3656
824.809	3698
824.949	3751
825.089	3747
825.228	3698
825.368	3591
825.508	3530
825.648	3557
825.787	3622
825.927	3641
826.067	3606
826.206	3713
826.346	3778
826.485	3816
826.625	3816
826.765	3926
826.904	3812
827.044	3599
827.183	3542
827.323	3416
827.462	3466
827.601	3397
827.741	3424
827.88	3454
828.02	3389
828.159	3431
828.298	3496
828.437	3500
828.577	3458
828.716	3580
828.855	3431
828.994	3370
829.134	3321
829.273	3336
829.412	3329
829.551	3313
829.69	3340
829.829	3420
829.968	3458
830.107	3420
830.246	3443
830.385	3344
830.524	3359
830.663	3241
830.802	3237
830.941	3173
831.08	3203
831.219	3226
831.357	3218
831.496	3393
831.635	3218
831.774	3195
831.913	3214
832.051	3104
832.19	3108
832.329	3237
832.467	3112
832.606	3089
832.744	3154
832.883	3184
833.022	3207
833.16	3237
833.299	3279
833.437	3325
833.576	3370
833.714	3428
833.852	3431
833.991	3439
834.129	3443
834.267	3412
834.406	3367
834.544	3405
834.682	3397
834.821	3397
834.959	3549
835.097	3420
835.235	3507
835.373	3462
835.511	3500
835.65	3389
835.788	3450
835.926	3409
836.064	3367
836.202	3397
836.34	3584
836.478	3580
836.615	3564
836.753	3584
836.891	3633
837.029	3614
837.167	3530
837.305	3553
837.443	3515
837.58	3473
837.718	3595
837.856	3534
837.993	3519
838.131	3610
838.269	3553
838.406	3561
838.544	3576
838.681	3439
838.819	3424
838.956	3370
839.094	3424
839.231	3405
839.369	3469
839.506	3713
839.643	3591
839.781	3431
839.918	3416
840.055	3515
840.193	3507
840.33	3526
840.467	3538
840.604	3625
840.742	3762
840.879	3515
841.016	3561
841.153	3614
841.29	3751
841.427	3671
841.564	3690
841.701	3686
841.838	3698
841.975	3701
842.112	3644
842.249	3641
842.385	3595
842.522	3804
842.659	3675
842.796	3652
842.933	3694
843.069	3686
843.206	3656
843.343	3778
843.479	3819
843.616	3789
843.752	3648
843.889	3671
844.025	3823
844.162	3705
844.298	3854
844.435	3766
844.571	3781
844.708	3854
844.844	3960
844.98	3991
845.117	4002
845.253	3922
845.389	3880
845.525	3975
845.661	3975
845.798	3880
845.934	3983
846.07	3941
846.206	4040
846.342	4090
846.478	4090
846.614	3964
846.75	3911
846.886	3884
847.022	3975
847.158	3911
847.294	3979
847.429	4013
847.565	4017
847.701	4196
847.837	3865
847.972	3838
848.108	3964
848.244	3979
848.379	3861
848.515	3823
848.65	3800
848.786	3808
848.921	3869
849.057	3930
849.192	3937
849.328	3892
849.463	3903
849.598	3861
849.734	3838
849.869	3797
850.004	3736
850.14	3747
850.275	3789
850.41	3743
850.545	3686
850.68	3770
850.815	3766
850.95	3808
851.085	3930
851.22	3854
851.355	3823
851.49	3800
851.625	3804
851.76	3755
851.895	3713
852.03	3732
852.165	3808
852.299	3793
852.434	3915
852.569	3846
852.703	3888
852.838	3918
852.973	3975
853.107	3983
853.242	3896
853.376	3819
853.511	3766
853.645	3819
853.78	3953
853.914	3861
854.048	3869
854.183	3876
854.317	3918
854.451	4010
854.585	3899
854.72	3960
854.854	4010
854.988	3888
855.122	3960
855.256	3915
855.39	3987
855.524	4082
855.658	4090
855.792	4082
855.926	4139
856.06	4143
856.194	4185
856.327	4124
856.461	4116
856.595	4147
856.729	4211
856.862	4287
856.996	4253
857.13	4261
857.263	4306
857.397	4284
857.53	4242
857.664	4341
857.797	4428
857.931	4409
858.064	4394
858.197	4424
858.331	4394
858.464	4379
858.597	4272
858.731	4390
858.864	4466
858.997	4398
859.13	4485
859.263	4531
859.396	4558
859.529	4535
859.662	4527
859.795	4493
859.928	4573
860.061	4641
860.194	4710
860.327	4649
860.46	4573
860.592	4733
860.725	4710
860.858	4721
860.99	4664
861.123	4630
861.256	4656
861.388	4771
861.521	5261
861.653	4702
861.786	4694
861.918	4736
862.05	4786
862.183	4839
862.315	4850
862.447	4938
862.58	4858
862.712	4767
862.844	4786
862.976	4881
863.108	4877
863.24	5208
863.372	4812
863.504	4961
863.636	4915
863.768	4949
863.9	4919
864.032	4930
864.164	4999
864.296	5003
864.428	5105
864.559	5109
864.691	5064
864.823	5090
864.954	5094
865.086	5117
865.217	5102
865.349	5086
865.48	5197
865.612	5216
865.743	5273
865.875	5166
866.006	5197
866.137	5193
866.269	5216
866.4	5269
866.531	5242
866.662	5189
866.793	5265
866.924	5269
867.055	5322
867.186	5280
867.317	5288
867.448	5322
867.579	5292
867.71	5368
867.841	5349
867.972	5452
868.103	5414
868.233	5482
868.364	5528
868.495	5482
868.625	5642
868.756	5714
868.886	5722
869.017	5703
869.147	5832
869.278	5802
869.408	5844
869.539	5798
869.669	5923
869.799	5897
869.929	5942
870.06	5958
870.19	6201
870.32	6175
870.45	6262
870.58	6323
870.71	6441
870.84	6403
870.97	6365
871.1	6490
871.23	6639
871.36	6677
871.489	6593
871.619	6757
871.749	6840
871.879	6798
872.008	6966
872.138	6951
872.267	6947
872.397	7019
872.526	7027
872.656	7072
872.785	7187
872.915	7365
873.044	7529
873.173	7521
873.303	7609
873.432	7670
873.561	7814
873.69	7906
873.819	8016
873.948	8142
874.077	8244
874.206	8339
874.335	8446
874.464	8610
874.593	8864
874.722	8876
874.851	9077
874.979	9199
875.108	9340
875.237	9428
875.365	9443
875.494	9584
875.623	9823
875.751	9804
875.88	10002
876.008	10143
876.136	10272
876.265	10474
876.393	10611
876.521	10740
876.65	10812
876.778	10862
876.906	10877
877.034	10923
877.162	11052
877.29	11166
877.418	11254
877.546	11341
877.674	11482
877.802	11478
877.93	11512
878.058	11528
878.185	11532
878.313	11600
878.441	11729
878.568	11684
878.696	11771
878.824	11832
878.951	11916
879.079	11920
879.206	12083
879.333	12049
879.461	11999
879.588	12041
879.715	12087
879.842	12178
879.97	12041
880.097	11878
880.224	11840
880.351	11935
880.478	11828
880.605	11817
880.732	11859
880.859	11882
880.986	11767
881.112	11805
881.239	11653
881.366	11665
881.493	11634
881.619	11566
881.746	11573
881.872	11543
881.999	11497
882.125	11436
882.252	11501
882.378	11490
882.505	11577
882.631	11414
882.757	11364
882.883	11318
883.01	11258
883.136	11086
883.262	11094
883.388	11098
883.514	11181
883.64	11189
883.766	11098
883.892	10953
884.018	11037
884.143	11056
884.269	11113
884.395	10900
884.52	10721
884.646	10717
884.772	10672
884.897	10618
885.023	10668
885.148	10721
885.274	10664
885.399	10706
885.524	10599
885.65	10470
885.775	10561
885.9	10489
886.025	10599
886.15	10535
886.275	10386
886.4	10363
886.525	10432
886.65	10341
886.775	10402
886.9	10386
887.025	10599
887.149	10413
887.274	10253
887.399	10192
887.523	10116
887.648	10131
887.773	10086
887.897	10246
888.021	10219
888.146	10169
888.27	10253
888.395	10147
888.519	10128
888.643	10185
888.767	10242
888.891	10055
889.015	9983
889.139	10128
889.263	10006
889.387	10010
889.511	10090
889.635	10082
889.759	9941
889.883	9991
890.006	9994
890.13	9960
890.254	9979
890.377	9941
890.501	9907
890.624	9846
890.748	9884
890.871	9747
890.995	9717
891.118	9694
891.241	9781
891.364	9694
891.488	9789
891.611	9770
891.734	9736
891.857	9690
891.98	9690
892.103	9774
892.226	9720
892.349	9732
892.471	9511
892.594	9660
892.717	9572
892.839	9637
892.962	9629
893.085	9629
893.207	9580
893.33	9511
893.452	9519
893.575	9625
893.697	9481
893.819	9584
893.941	9557
894.064	9561
894.186	9416
894.308	9348
894.43	9485
894.552	9584
894.674	9538
894.796	9370
894.918	9447
895.04	9317
895.161	9332
895.283	9393
895.405	9199
895.526	9249
895.648	9218
895.769	9253
895.891	9275
896.012	9264
896.134	9253
896.255	9173
896.376	9135
896.498	9169
896.619	9131
896.74	9036
896.861	9123
896.982	9291
897.103	9348
897.224	9161
897.345	9070
897.466	8979
897.587	8986
897.708	9085
897.828	9024
897.949	8967
898.07	8876
898.19	8906
898.311	9009
898.431	8872
898.552	8902
898.672	9005
898.792	8883
898.913	8910
899.033	8838
899.153	8750
899.273	8610
899.393	8766
899.513	8705
899.633	8670
899.753	8712
899.873	8644
899.993	8754
900.113	8678
900.232	8670
900.352	8644
900.472	8602
900.591	8518
900.711	8579
900.83	8507
900.95	8606
901.069	8655
901.189	8568
901.308	8423
901.427	8400
901.546	8412
901.665	8446
901.784	8511
901.904	8339
902.023	8290
902.141	8240
902.26	8161
902.379	8271
902.498	8183
902.617	8138
902.735	8210
902.854	8248
902.973	8271
903.091	8088
903.21	8088
903.328	8134
903.446	8092
903.565	8058
903.683	8035
903.801	8069
903.919	8069
904.038	8100
904.156	8035
904.274	8077
904.392	8035
904.51	7997
904.627	7989
904.745	8039
904.863	8069
904.981	7925
905.098	7871
905.216	7826
905.334	7868
905.451	7898
905.569	7826
905.686	7894
905.803	7822
905.921	7814
906.038	7894
906.155	7712
906.272	7715
906.389	7765
906.506	7655
906.623	7605
906.74	7571
906.857	7510
906.974	7506
907.091	7620
907.208	7746
907.324	7662
907.441	7586
907.557	7438
907.674	7441
907.79	7392
907.907	7346
908.023	7407
908.139	7426
908.256	7381
908.372	7343
908.488	7301
908.604	7308
908.72	7270
908.836	7236
908.952	7187
909.068	7251
909.184	7331
909.3	7198
909.415	7255
909.531	7274
909.647	7133
909.762	7129
909.878	7053
909.993	7061
910.108	7110
910.224	7019
910.339	7084
910.454	7031
910.57	7034
910.685	6970
910.8	7156
910.915	7072
911.03	7008
911.145	6916
911.259	6894
911.374	6909
911.489	6810
911.604	6852
911.718	6700
911.833	6684
911.947	6658
912.062	6604
912.176	6681
912.291	6696
912.405	6700
912.519	6753
912.633	6848
912.748	6738
912.862	6654
912.976	6593
913.09	6509
913.204	6563
913.318	6536
913.431	6654
913.545	6654
913.659	6650
913.772	6681
913.886	6563
914	6532
914.113	6566
914.226	6631
914.34	6635
914.453	6471
914.566	6578
914.68	6513
914.793	6521
914.906	6399
915.019	6433
915.132	6315
915.245	6407
915.358	6426
915.47	6407
915.583	6479
915.696	6433
915.809	6502
915.921	6525
916.034	6399
916.146	6395
916.259	6399
916.371	6483
916.483	6471
916.595	6403
916.708	6418
916.82	6407
916.932	6369
917.044	6357
917.156	6376
917.268	6243
917.38	6327
917.491	6262
917.603	6334
917.715	6361
917.826	6418
917.938	6285
918.049	6254
918.161	6304
918.272	6376
918.384	6410
918.495	6311
918.606	6213
918.717	6213
918.828	6235
918.939	6247
919.05	6106
919.161	6258
919.272	6102
919.383	6148
919.494	6270
919.604	6403
919.715	6289
919.826	6133
919.936	6235
920.047	6357
920.157	6235
920.267	6467
920.378	6308
920.488	6239
920.598	6452
920.708	6525
920.818	6509
920.928	6429
921.038	6563
921.148	6551
921.258	6376
921.368	6273
921.477	6197
921.587	6163
921.697	6057
921.806	6159
921.916	6041
922.025	5973
922.134	5863
922.244	5870
922.353	5882
922.462	5863
922.571	5783
922.68	5668
922.789	5688
922.898	5691
923.007	5627
923.116	5623
923.224	5699
923.333	5649
923.442	5619
923.55	5539
923.659	5570
923.767	5600
923.876	5581
923.984	5615
924.092	5471
924.201	5558
924.309	5570
924.417	5539
924.525	5490
924.633	5505
924.741	6232
924.849	5376
924.956	5455
925.064	5341
925.172	5277
925.279	5299
925.387	5273
925.494	5265
925.602	5406
925.709	5429
925.816	5227
925.924	5337
926.031	5269
926.138	5299
926.245	5353
926.352	5181
926.459	5292
926.566	5288
926.673	5162
926.779	5143
926.886	5124
926.993	5025
927.099	5025
927.206	4991
927.312	4927
927.419	4968
927.525	4984
927.631	4987
927.737	4881
927.843	4839
927.95	4763
928.056	4820
928.162	4870
928.267	4839
928.373	5311
928.479	4816
928.585	4679
928.69	4702
928.796	4801
928.901	4664
929.007	4573
929.112	4660
929.218	4656
929.323	4607
929.428	4500
929.533	4668
929.638	4451
929.743	4535
929.848	4523
929.953	4523
930.058	4443
930.163	4287
930.267	4299
930.372	4417
930.477	4325
930.581	4481
930.685	4375
930.79	4192
930.894	4280
930.998	4238
931.103	4363
931.207	4109
931.311	4040
931.415	4006
931.519	3915
931.623	3994
