Data from glass_V78500241_2224.txt Node
Date: Wed Sep 01 19:29:55 CST 2021
User: usil
Spectrometer: V785-0024
Trigger mode: 0
Integration Time (sec): 4.000000E-1
Scans to average: 1
Nonlinearity correction enabled: false
Boxcar width: 0
Storing dark spectrum: false
XAxis mode: Wavelengths
Number of Pixels in Spectrum: 1024
>>>>>Begin Spectral Data<<<<<
801.071	3736
801.214	3732
801.356	3679
801.499	3747
801.641	3690
801.783	3812
801.926	3854
802.068	3838
802.211	3896
802.353	3930
802.496	3816
802.638	3873
802.78	3911
802.923	3911
803.065	3876
803.208	3850
803.35	3896
803.492	3892
803.635	3918
803.777	3789
803.919	3857
804.061	4139
804.204	3972
804.346	3934
804.488	3949
804.63	4032
804.773	3975
804.915	4013
805.057	4158
805.199	4021
805.341	4067
805.483	4090
805.626	4105
805.768	4162
805.91	4177
806.052	4204
806.194	4207
806.336	4284
806.478	4223
806.62	4139
806.762	4192
806.904	4242
807.046	4322
807.188	4223
807.33	4158
807.472	4238
807.614	4181
807.756	4234
807.898	4234
808.04	4192
808.182	4261
808.324	4337
808.465	4348
808.607	4466
808.749	4436
808.891	4500
809.033	4455
809.174	4363
809.316	4303
809.458	4230
809.6	4143
809.741	4143
809.883	4169
810.025	4188
810.166	4200
810.308	4192
810.45	4223
810.591	4261
810.733	4265
810.875	4485
811.016	4809
811.158	5121
811.299	5231
811.441	5299
811.582	5064
811.724	4694
811.865	4462
812.007	4459
812.148	4421
812.29	4386
812.431	4394
812.573	4421
812.714	4383
812.855	4383
812.997	4394
813.138	4489
813.279	4383
813.421	4398
813.562	4371
813.703	4272
813.845	4341
813.986	4291
814.127	4173
814.268	4246
814.41	4253
814.551	4246
814.692	4295
814.833	4253
814.974	4325
815.115	4337
815.256	4207
815.397	4234
815.539	4223
815.68	4223
815.821	4219
815.962	4322
816.103	4333
816.244	4207
816.385	4242
816.526	4276
816.666	4158
816.807	4048
816.948	4162
817.089	4169
817.23	4112
817.371	4074
817.512	4059
817.653	4063
817.793	4036
817.934	4021
818.075	4112
818.216	4021
818.356	4059
818.497	3987
818.638	3903
818.778	3888
818.919	3880
819.06	3854
819.2	3884
819.341	3846
819.481	3827
819.622	3869
819.762	4006
819.903	3972
820.043	3808
820.184	3838
820.324	3819
820.465	3888
820.605	3880
820.746	3873
820.886	3819
821.026	3918
821.167	3903
821.307	3975
821.447	3975
821.588	3953
821.728	3979
821.868	3945
822.008	3899
822.149	3926
822.289	3880
822.429	3778
822.569	3751
822.709	3770
822.849	3736
822.99	3701
823.13	3740
823.27	3774
823.41	3667
823.55	3720
823.69	3675
823.83	3751
823.97	3686
824.11	3618
824.25	3549
824.389	3610
824.529	3667
824.669	3603
824.809	3682
824.949	3759
825.089	3728
825.228	3705
825.368	3572
825.508	3545
825.648	3576
825.787	3572
825.927	3606
826.067	3610
826.206	3633
826.346	3789
826.485	3778
826.625	3823
826.765	3903
826.904	3861
827.044	3618
827.183	3523
827.323	3473
827.462	3473
827.601	3439
827.741	3389
827.88	3435
828.02	3374
828.159	3458
828.298	3488
828.437	3545
828.577	3420
828.716	3595
828.855	3435
828.994	3386
829.134	3370
829.273	3367
829.412	3363
829.551	3317
829.69	3359
829.829	3401
829.968	3500
830.107	3401
830.246	3473
830.385	3363
830.524	3374
830.663	3313
830.802	3283
830.941	3176
831.08	3188
831.219	3230
831.357	3275
831.496	3424
831.635	3253
831.774	3195
831.913	3195
832.051	3119
832.19	3146
832.329	3218
832.467	3112
832.606	3081
832.744	3195
832.883	3146
833.022	3184
833.16	3283
833.299	3272
833.437	3340
833.576	3325
833.714	3405
833.852	3435
833.991	3481
834.129	3473
834.267	3416
834.406	3401
834.544	3458
834.682	3439
834.821	3397
834.959	3576
835.097	3428
835.235	3542
835.373	3473
835.511	3473
835.65	3447
835.788	3488
835.926	3367
836.064	3416
836.202	3412
836.34	3568
836.478	3587
836.615	3500
836.753	3587
836.891	3564
837.029	3584
837.167	3542
837.305	3572
837.443	3564
837.58	3507
837.718	3610
837.856	3538
837.993	3553
838.131	3618
838.269	3580
838.406	3584
838.544	3580
838.681	3447
838.819	3450
838.956	3363
839.094	3355
839.231	3439
839.369	3454
839.506	3789
839.643	3622
839.781	3485
839.918	3439
840.055	3515
840.193	3496
840.33	3511
840.467	3500
840.604	3606
840.742	3812
840.879	3587
841.016	3584
841.153	3542
841.29	3751
841.427	3743
841.564	3747
841.701	3789
841.838	3717
841.975	3656
842.112	3736
842.249	3584
842.385	3610
842.522	3816
842.659	3682
842.796	3667
842.933	3701
843.069	3682
843.206	3660
843.343	3804
843.479	3770
843.616	3831
843.752	3637
843.889	3663
844.025	3846
844.162	3736
844.298	3842
844.435	3778
844.571	3770
844.708	3903
844.844	3960
844.98	3964
845.117	3998
845.253	3937
845.389	3896
845.525	3945
845.661	3956
845.798	3930
845.934	4021
846.07	3941
846.206	4048
846.342	4093
846.478	4067
846.614	3964
846.75	3937
846.886	3930
847.022	4036
847.158	3994
847.294	3987
847.429	4017
847.565	4002
847.701	4230
847.837	3899
847.972	3850
848.108	3975
848.244	3956
848.379	3896
848.515	3793
848.65	3797
848.786	3793
848.921	3846
849.057	3907
849.192	3922
849.328	3918
849.463	3892
849.598	3880
849.734	3861
849.869	3854
850.004	3827
850.14	3762
850.275	3766
850.41	3698
850.545	3789
850.68	3797
850.815	3789
850.95	3785
851.085	3926
851.22	3865
851.355	3793
851.49	3804
851.625	3755
851.76	3793
851.895	3720
852.03	3747
852.165	3842
852.299	3861
852.434	3911
852.569	3888
852.703	3884
852.838	3934
852.973	3945
853.107	3972
853.242	3838
853.376	3808
853.511	3770
853.645	3846
853.78	3930
853.914	3896
854.048	3899
854.183	3880
854.317	3972
854.451	4048
854.585	3975
854.72	3880
854.854	4040
854.988	3941
855.122	4029
855.256	3941
855.39	3972
855.524	4082
855.658	4135
855.792	4097
855.926	4154
856.06	4150
856.194	4219
856.327	4131
856.461	4078
856.595	4124
856.729	4215
856.862	4306
856.996	4200
857.13	4314
857.263	4333
857.397	4371
857.53	4291
857.664	4386
857.797	4371
857.931	4367
858.064	4337
858.197	4451
858.331	4360
858.464	4386
858.597	4348
858.731	4462
858.864	4424
858.997	4436
859.13	4497
859.263	4531
859.396	4519
859.529	4516
859.662	4493
859.795	4500
859.928	4565
860.061	4653
860.194	4694
860.327	4656
860.46	4645
860.592	4725
860.725	4752
860.858	4687
860.99	4702
861.123	4664
861.256	4675
861.388	4755
861.521	5406
861.653	4683
861.786	4653
861.918	4740
862.05	4736
862.183	4801
862.315	4900
862.447	4919
862.58	4843
862.712	4805
862.844	4782
862.976	4889
863.108	4843
863.24	5155
863.372	4809
863.504	4839
863.636	4911
863.768	4927
863.9	4984
864.032	4957
864.164	4923
864.296	4991
864.428	5124
864.559	5052
864.691	5117
864.823	5075
864.954	5113
865.086	5117
865.217	5162
865.349	5090
865.48	5185
865.612	5197
865.743	5254
865.875	5178
866.006	5174
866.137	5166
866.269	5239
866.4	5254
866.531	5204
866.662	5250
866.793	5273
866.924	5288
867.055	5292
867.186	5322
867.317	5357
867.448	5292
867.579	5364
867.71	5376
867.841	5364
867.972	5433
868.103	5421
868.233	5467
868.364	5505
868.495	5596
868.625	5646
868.756	5733
868.886	5665
869.017	5699
869.147	5847
869.278	5771
869.408	5836
869.539	5817
869.669	5927
869.799	5908
869.929	5969
870.06	5969
870.19	6178
870.32	6175
870.45	6281
870.58	6308
870.71	6429
870.84	6437
870.97	6498
871.1	6464
871.23	6601
871.36	6658
871.489	6639
871.619	6745
871.749	6848
871.879	6871
872.008	6894
872.138	6951
872.267	7031
872.397	6928
872.526	7019
872.656	7069
872.785	7175
872.915	7419
873.044	7480
873.173	7571
873.303	7609
873.432	7757
873.561	7871
873.69	7936
873.819	8012
873.948	8134
874.077	8290
874.206	8328
874.335	8434
874.464	8686
874.593	8807
874.722	8876
874.851	9093
874.979	9195
875.108	9443
875.237	9435
875.365	9450
875.494	9660
875.623	9819
875.751	9831
875.88	10044
876.008	10207
876.136	10257
876.265	10523
876.393	10675
876.521	10660
876.65	10771
876.778	10885
876.906	10919
877.034	10942
877.162	11086
877.29	11220
877.418	11216
877.546	11280
877.674	11474
877.802	11455
877.93	11505
878.058	11608
878.185	11570
878.313	11688
878.441	11745
878.568	11691
878.696	11775
878.824	11851
878.951	11942
879.079	11999
879.206	12041
879.333	12057
879.461	11927
879.588	12106
879.715	12083
879.842	12330
879.97	12060
880.097	11885
880.224	11889
880.351	11779
880.478	11923
880.605	11965
880.732	11752
880.859	11999
880.986	11786
881.112	11843
881.239	11703
881.366	11672
881.493	11638
881.619	11596
881.746	11596
881.872	11543
881.999	11486
882.125	11406
882.252	11604
882.378	11562
882.505	11501
882.631	11322
882.757	11284
882.883	11341
883.01	11307
883.136	11254
883.262	11067
883.388	11041
883.514	11178
883.64	11170
883.766	11174
883.892	10984
884.018	11079
884.143	11128
884.269	11056
884.395	10812
884.52	10778
884.646	10763
884.772	10656
884.897	10668
885.023	10664
885.148	10664
885.274	10752
885.399	10755
885.524	10618
885.65	10645
885.775	10542
885.9	10577
886.025	10630
886.15	10580
886.275	10421
886.4	10360
886.525	10447
886.65	10310
886.775	10299
886.9	10459
887.025	10504
887.149	10375
887.274	10162
887.399	10242
887.523	10093
887.648	10112
887.773	10154
887.897	10211
888.021	10261
888.146	10116
888.27	10246
888.395	10200
888.519	10219
888.643	10154
888.767	10200
888.891	10051
889.015	9968
889.139	9960
889.263	9895
889.387	10074
889.511	10063
889.635	10051
889.759	9934
889.883	9979
890.006	9983
890.13	10116
890.254	9918
890.377	9918
890.501	9854
890.624	9880
890.748	9850
890.871	9789
890.995	9835
891.118	9743
891.241	9812
891.364	9709
891.488	9747
891.611	9717
891.734	9720
891.857	9766
891.98	9740
892.103	9751
892.226	9682
892.349	9694
892.471	9466
892.594	9603
892.717	9606
892.839	9580
892.962	9614
893.085	9679
893.207	9545
893.33	9500
893.452	9580
893.575	9652
893.697	9473
893.819	9595
893.941	9637
894.064	9599
894.186	9466
894.308	9397
894.43	9526
894.552	9572
894.674	9538
894.796	9393
894.918	9378
895.04	9386
895.161	9435
895.283	9340
895.405	9222
895.526	9249
895.648	9264
895.769	9230
895.891	9260
896.012	9241
896.134	9237
896.255	9154
896.376	9085
896.498	9169
896.619	9112
896.74	8998
896.861	9108
896.982	9275
897.103	9264
897.224	9131
897.345	9051
897.466	8986
897.587	9062
897.708	9089
897.828	9066
897.949	8998
898.07	8845
898.19	8914
898.311	9028
898.431	8864
898.552	8948
898.672	9001
898.792	8933
898.913	8963
899.033	8819
899.153	8792
899.273	8655
899.393	8670
899.513	8785
899.633	8743
899.753	8811
899.873	8735
899.993	8750
900.113	8655
900.232	8701
900.352	8648
900.472	8579
900.591	8587
900.711	8617
900.83	8552
900.95	8602
901.069	8716
901.189	8533
901.308	8396
901.427	8347
901.546	8469
901.665	8469
901.784	8461
901.904	8358
902.023	8339
902.141	8149
902.26	8210
902.379	8252
902.498	8244
902.617	8202
902.735	8286
902.854	8286
902.973	8263
903.091	8084
903.21	8107
903.328	8077
903.446	8130
903.565	8123
903.683	8073
903.801	8046
903.919	8134
904.038	8088
904.156	7967
904.274	8027
904.392	8031
904.51	8092
904.627	8050
904.745	8058
904.863	8069
904.981	7913
905.098	7856
905.216	7860
905.334	7875
905.451	7898
905.569	7837
905.686	7913
905.803	7894
905.921	7814
906.038	7864
906.155	7814
906.272	7704
906.389	7700
906.506	7628
906.623	7594
906.74	7616
906.857	7514
906.974	7552
907.091	7662
907.208	7753
907.324	7689
907.441	7548
907.557	7480
907.674	7491
907.79	7339
907.907	7407
908.023	7502
908.139	7472
908.256	7354
908.372	7335
908.488	7350
908.604	7327
908.72	7270
908.836	7285
908.952	7183
909.068	7274
909.184	7285
909.3	7236
909.415	7285
909.531	7266
909.647	7129
909.762	7129
909.878	7103
909.993	7149
910.108	7141
910.224	7099
910.339	7091
910.454	7034
910.57	7008
910.685	6863
910.8	7164
910.915	7133
911.03	7023
911.145	6886
911.259	6966
911.374	6833
911.489	6814
911.604	6753
911.718	6764
911.833	6738
911.947	6631
912.062	6582
912.176	6684
912.291	6715
912.405	6665
912.519	6783
912.633	6821
912.748	6719
912.862	6707
912.976	6620
913.09	6517
913.204	6578
913.318	6604
913.431	6635
913.545	6722
913.659	6684
913.772	6620
913.886	6498
914	6566
914.113	6525
914.226	6662
914.34	6623
914.453	6490
914.566	6669
914.68	6509
914.793	6517
914.906	6384
915.019	6441
915.132	6319
915.245	6388
915.358	6380
915.47	6494
915.583	6460
915.696	6471
915.809	6521
915.921	6532
916.034	6399
916.146	6391
916.259	6380
916.371	6445
916.483	6456
916.595	6422
916.708	6407
916.82	6338
916.932	6296
917.044	6334
917.156	6403
917.268	6357
917.38	6338
917.491	6369
917.603	6319
917.715	6407
917.826	6384
917.938	6308
918.049	6224
918.161	6334
918.272	6410
918.384	6395
918.495	6334
918.606	6220
918.717	6247
918.828	6209
918.939	6277
919.05	6194
919.161	6228
919.272	6129
919.383	6140
919.494	6209
919.604	6353
919.715	6304
919.826	6209
919.936	6228
920.047	6315
920.157	6232
920.267	6407
920.378	6372
920.488	6270
920.598	6376
920.708	6570
920.818	6456
920.928	6486
921.038	6597
921.148	6555
921.258	6304
921.368	6224
921.477	6216
921.587	6167
921.697	6087
921.806	6171
921.916	6011
922.025	5980
922.134	5946
922.244	5847
922.353	5939
922.462	5828
922.571	5737
922.68	5691
922.789	5630
922.898	5676
923.007	5562
923.116	5718
923.224	5718
923.333	5638
923.442	5615
923.55	5585
923.659	5630
923.767	5604
923.876	5524
923.984	5585
924.092	5520
924.201	5520
924.309	5547
924.417	5528
924.525	5459
924.633	5501
924.741	6262
924.849	5360
924.956	5463
925.064	5364
925.172	5284
925.279	5265
925.387	5360
925.494	5311
925.602	5349
925.709	5360
925.816	5254
925.924	5311
926.031	5349
926.138	5337
926.245	5277
926.352	5235
926.459	5261
926.566	5258
926.673	5223
926.779	5128
926.886	5132
926.993	5056
927.099	4987
927.206	5010
927.312	4946
927.419	4980
927.525	4949
927.631	4957
927.737	4858
927.843	4835
927.95	4744
928.056	4816
928.162	4831
928.267	4835
928.373	5368
928.479	4843
928.585	4672
928.69	4736
928.796	4767
928.901	4683
929.007	4622
929.112	4634
929.218	4626
929.323	4577
929.428	4588
929.533	4660
929.638	4512
929.743	4538
929.848	4561
929.953	4500
930.058	4417
930.163	4310
930.267	4291
930.372	4443
930.477	4287
930.581	4462
930.685	4344
930.79	4257
930.894	4295
930.998	4207
931.103	4390
931.207	4147
931.311	4082
931.415	3964
931.519	3873
931.623	3934
