Data from glass_V78500241_644.txt Node
Date: Wed Sep 01 19:18:57 CST 2021
User: usil
Spectrometer: V785-0024
Trigger mode: 0
Integration Time (sec): 4.000000E-1
Scans to average: 1
Nonlinearity correction enabled: false
Boxcar width: 0
Storing dark spectrum: false
XAxis mode: Wavelengths
Number of Pixels in Spectrum: 1024
>>>>>Begin Spectral Data<<<<<
801.071	3762
801.214	3800
801.356	3785
801.499	3781
801.641	3766
801.783	3785
801.926	3850
802.068	3816
802.211	3812
802.353	3873
802.496	3892
802.638	3922
802.78	3899
802.923	3941
803.065	3850
803.208	3838
803.35	3835
803.492	3930
803.635	3945
803.777	3812
803.919	3896
804.061	4128
804.204	3975
804.346	3930
804.488	3899
804.63	4063
804.773	3983
804.915	3987
805.057	4154
805.199	4067
805.341	4128
805.483	4116
805.626	4131
805.768	4090
805.91	4246
806.052	4242
806.194	4169
806.336	4375
806.478	4246
806.62	4173
806.762	4207
806.904	4257
807.046	4348
807.188	4257
807.33	4188
807.472	4215
807.614	4177
807.756	4303
807.898	4207
808.04	4265
808.182	4280
808.324	4333
808.465	4371
808.607	4500
808.749	4474
808.891	4489
809.033	4519
809.174	4402
809.316	4344
809.458	4249
809.6	4158
809.741	4177
809.883	4181
810.025	4238
810.166	4223
810.308	4215
810.45	4253
810.591	4276
810.733	4325
810.875	4516
811.016	4816
811.158	5178
811.299	5239
811.441	5357
811.582	5067
811.724	4714
811.865	4447
812.007	4474
812.148	4459
812.29	4432
812.431	4432
812.573	4405
812.714	4398
812.855	4428
812.997	4398
813.138	4508
813.279	4402
813.421	4421
813.562	4394
813.703	4360
813.845	4337
813.986	4268
814.127	4242
814.268	4211
814.41	4363
814.551	4242
814.692	4360
814.833	4276
814.974	4306
815.115	4322
815.256	4310
815.397	4223
815.539	4295
815.68	4230
815.821	4234
815.962	4325
816.103	4291
816.244	4242
816.385	4261
816.526	4291
816.666	4200
816.807	4128
816.948	4166
817.089	4185
817.23	4112
817.371	4059
817.512	4093
817.653	4059
817.793	4048
817.934	4071
818.075	4105
818.216	4135
818.356	4143
818.497	3998
818.638	3953
818.778	3934
818.919	3861
819.06	3896
819.2	3926
819.341	3865
819.481	3873
819.622	3903
819.762	4010
819.903	3987
820.043	3876
820.184	3823
820.324	3808
820.465	3899
820.605	3892
820.746	3892
820.886	3835
821.026	3937
821.167	3941
821.307	3979
821.447	3953
821.588	3937
821.728	3964
821.868	3945
822.008	3907
822.149	3930
822.289	3926
822.429	3793
822.569	3751
822.709	3808
822.849	3713
822.99	3751
823.13	3793
823.27	3785
823.41	3717
823.55	3751
823.69	3717
823.83	3759
823.97	3660
824.11	3595
824.25	3603
824.389	3682
824.529	3682
824.669	3625
824.809	3740
824.949	3755
825.089	3755
825.228	3671
825.368	3599
825.508	3515
825.648	3572
825.787	3622
825.927	3629
826.067	3675
826.206	3644
826.346	3778
826.485	3884
826.625	3846
826.765	3964
826.904	3850
827.044	3667
827.183	3538
827.323	3458
827.462	3473
827.601	3450
827.741	3450
827.88	3450
828.02	3386
828.159	3477
828.298	3466
828.437	3523
828.577	3523
828.716	3648
828.855	3564
828.994	3409
829.134	3409
829.273	3389
829.412	3389
829.551	3359
829.69	3332
829.829	3439
829.968	3500
830.107	3477
830.246	3450
830.385	3363
830.524	3412
830.663	3329
830.802	3264
830.941	3214
831.08	3222
831.219	3302
831.357	3306
831.496	3412
831.635	3199
831.774	3165
831.913	3188
832.051	3146
832.19	3157
832.329	3207
832.467	3127
832.606	3089
832.744	3180
832.883	3165
833.022	3207
833.16	3256
833.299	3291
833.437	3359
833.576	3363
833.714	3435
833.852	3458
833.991	3473
834.129	3488
834.267	3454
834.406	3405
834.544	3409
834.682	3439
834.821	3401
834.959	3572
835.097	3443
835.235	3526
835.373	3511
835.511	3523
835.65	3481
835.788	3481
835.926	3405
836.064	3397
836.202	3412
836.34	3606
836.478	3591
836.615	3561
836.753	3618
836.891	3671
837.029	3675
837.167	3610
837.305	3610
837.443	3553
837.58	3561
837.718	3641
837.856	3606
837.993	3564
838.131	3591
838.269	3614
838.406	3599
838.544	3572
838.681	3488
838.819	3481
838.956	3378
839.094	3409
839.231	3466
839.369	3526
839.506	3762
839.643	3637
839.781	3485
839.918	3435
840.055	3504
840.193	3549
840.33	3511
840.467	3584
840.604	3633
840.742	3876
840.879	3572
841.016	3538
841.153	3618
841.29	3755
841.427	3732
841.564	3736
841.701	3759
841.838	3705
841.975	3690
842.112	3724
842.249	3652
842.385	3648
842.522	3846
842.659	3732
842.796	3682
842.933	3709
843.069	3728
843.206	3743
843.343	3831
843.479	3785
843.616	3774
843.752	3690
843.889	3682
844.025	3842
844.162	3701
844.298	3857
844.435	3778
844.571	3819
844.708	3934
844.844	4002
844.98	4036
845.117	4021
845.253	3979
845.389	3915
845.525	3975
845.661	3964
845.798	3915
845.934	3991
846.07	3983
846.206	4063
846.342	4147
846.478	4109
846.614	4006
846.75	3888
846.886	3922
847.022	4036
847.158	3968
847.294	3991
847.429	4067
847.565	4063
847.701	4261
847.837	3884
847.972	3850
848.108	4010
848.244	3994
848.379	3896
848.515	3838
848.65	3823
848.786	3816
848.921	3876
849.057	3934
849.192	3972
849.328	3918
849.463	3945
849.598	3907
849.734	3884
849.869	3876
850.004	3831
850.14	3831
850.275	3789
850.41	3720
850.545	3751
850.68	3797
850.815	3831
850.95	3831
851.085	3937
851.22	3846
851.355	3873
851.49	3819
851.625	3797
851.76	3808
851.895	3781
852.03	3751
852.165	3857
852.299	3869
852.434	3918
852.569	3869
852.703	3869
852.838	3956
852.973	4013
853.107	3987
853.242	3926
853.376	3838
853.511	3759
853.645	3850
853.78	3991
853.914	3892
854.048	3907
854.183	3876
854.317	3953
854.451	4074
854.585	3983
854.72	3956
854.854	4093
854.988	3937
855.122	4013
855.256	3918
855.39	3987
855.524	4105
855.658	4086
855.792	4116
855.926	4196
856.06	4169
856.194	4227
856.327	4173
856.461	4166
856.595	4177
856.729	4196
856.862	4257
856.996	4284
857.13	4272
857.263	4360
857.397	4352
857.53	4303
857.664	4333
857.797	4443
857.931	4455
858.064	4390
858.197	4436
858.331	4405
858.464	4383
858.597	4344
858.731	4478
858.864	4440
858.997	4481
859.13	4523
859.263	4519
859.396	4542
859.529	4573
859.662	4512
859.795	4577
859.928	4618
860.061	4698
860.194	4771
860.327	4698
860.46	4660
860.592	4793
860.725	4809
860.858	4790
860.99	4714
861.123	4702
861.256	4717
861.388	4790
861.521	5250
861.653	4694
861.786	4736
861.918	4812
862.05	4778
862.183	4862
862.315	4885
862.447	4938
862.58	4930
862.712	4816
862.844	4801
862.976	4892
863.108	4919
863.24	5231
863.372	4870
863.504	4965
863.636	4908
863.768	5022
863.9	4961
864.032	4923
864.164	4995
864.296	5067
864.428	5086
864.559	5132
864.691	5147
864.823	5147
864.954	5105
865.086	5155
865.217	5162
865.349	5086
865.48	5220
865.612	5201
865.743	5353
865.875	5212
866.006	5193
866.137	5189
866.269	5235
866.4	5250
866.531	5250
866.662	5239
866.793	5292
866.924	5322
867.055	5357
867.186	5372
867.317	5318
867.448	5337
867.579	5334
867.71	5440
867.841	5364
867.972	5490
868.103	5463
868.233	5444
868.364	5566
868.495	5543
868.625	5676
868.756	5790
868.886	5718
869.017	5726
869.147	5847
869.278	5840
869.408	5847
869.539	5798
869.669	5965
869.799	5958
869.929	6019
870.06	6026
870.19	6205
870.32	6258
870.45	6273
870.58	6365
870.71	6479
870.84	6498
870.97	6437
871.1	6433
871.23	6734
871.36	6715
871.489	6700
871.619	6734
871.749	6821
871.879	6795
872.008	6901
872.138	6966
872.267	6962
872.397	6993
872.526	7042
872.656	7095
872.785	7251
872.915	7396
873.044	7514
873.173	7495
873.303	7700
873.432	7814
873.561	7871
873.69	7974
873.819	8027
873.948	8145
874.077	8233
874.206	8309
874.335	8431
874.464	8655
874.593	8834
874.722	8921
874.851	9104
874.979	9218
875.108	9332
875.237	9439
875.365	9439
875.494	9732
875.623	9922
875.751	9895
875.88	9991
876.008	10120
876.136	10272
876.265	10519
876.393	10782
876.521	10733
876.65	10923
876.778	10896
876.906	10866
877.034	11033
877.162	11143
877.29	11227
877.418	11303
877.546	11395
877.674	11463
877.802	11455
877.93	11532
878.058	11551
878.185	11539
878.313	11649
878.441	11790
878.568	11710
878.696	11817
878.824	11828
878.951	11965
879.079	12049
879.206	12117
879.333	12091
879.461	12114
879.588	12091
879.715	12133
879.842	12338
879.97	12152
880.097	11893
880.224	11824
880.351	11954
880.478	11851
880.605	11874
880.732	11882
880.859	11992
880.986	11870
881.112	11726
881.239	11710
881.366	11657
881.493	11623
881.619	11577
881.746	11600
881.872	11512
881.999	11482
882.125	11455
882.252	11524
882.378	11547
882.505	11535
882.631	11429
882.757	11299
882.883	11311
883.01	11296
883.136	11273
883.262	11094
883.388	11102
883.514	11143
883.64	11174
883.766	11098
883.892	11052
884.018	10942
884.143	11113
884.269	11132
884.395	10828
884.52	10858
884.646	10752
884.772	10774
884.897	10694
885.023	10759
885.148	10740
885.274	10752
885.399	10618
885.524	10675
885.65	10626
885.775	10603
885.9	10565
886.025	10702
886.15	10561
886.275	10508
886.4	10462
886.525	10443
886.65	10344
886.775	10352
886.9	10466
887.025	10538
887.149	10421
887.274	10234
887.399	10268
887.523	10188
887.648	10150
887.773	10131
887.897	10341
888.021	10139
888.146	10215
888.27	10261
888.395	10211
888.519	10169
888.643	10219
888.767	10219
888.891	10116
889.015	10097
889.139	10074
889.263	10025
889.387	9991
889.511	10109
889.635	10154
889.759	10021
889.883	9987
890.006	10029
890.13	10116
890.254	9998
890.377	10010
890.501	9854
890.624	9983
890.748	9934
890.871	9838
890.995	9766
891.118	9701
891.241	9785
891.364	9781
891.488	9857
891.611	9740
891.734	9778
891.857	9778
891.98	9774
892.103	9747
892.226	9720
892.349	9660
892.471	9538
892.594	9542
892.717	9610
892.839	9599
892.962	9614
893.085	9629
893.207	9553
893.33	9496
893.452	9572
893.575	9663
893.697	9530
893.819	9637
893.941	9701
894.064	9591
894.186	9469
894.308	9382
894.43	9526
894.552	9576
894.674	9519
894.796	9325
894.918	9405
895.04	9367
895.161	9412
895.283	9367
895.405	9279
895.526	9313
895.648	9279
895.769	9317
895.891	9275
896.012	9344
896.134	9275
896.255	9100
896.376	9176
896.498	9211
896.619	9138
896.74	9093
896.861	9051
896.982	9268
897.103	9310
897.224	9165
897.345	9009
897.466	8963
897.587	9047
897.708	9180
897.828	9036
897.949	8956
898.07	8963
898.19	8937
898.311	9032
898.431	8883
898.552	8941
898.672	9036
898.792	8872
898.913	8933
899.033	8838
899.153	8792
899.273	8670
899.393	8708
899.513	8743
899.633	8788
899.753	8746
899.873	8712
899.993	8811
900.113	8686
900.232	8743
900.352	8720
900.472	8606
900.591	8549
900.711	8640
900.83	8526
900.95	8674
901.069	8746
901.189	8613
901.308	8469
901.427	8374
901.546	8454
901.665	8495
901.784	8568
901.904	8419
902.023	8377
902.141	8233
902.26	8259
902.379	8294
902.498	8180
902.617	8271
902.735	8366
902.854	8309
902.973	8313
903.091	8096
903.21	8172
903.328	8210
903.446	8126
903.565	8096
903.683	8111
903.801	8054
903.919	8149
904.038	8176
904.156	8043
904.274	8088
904.392	8016
904.51	8062
904.627	8062
904.745	8043
904.863	8153
904.981	7928
905.098	7849
905.216	7890
905.334	7894
905.451	7913
905.569	7970
905.686	7936
905.803	7925
905.921	7761
906.038	7803
906.155	7902
906.272	7693
906.389	7731
906.506	7655
906.623	7651
906.74	7666
906.857	7540
906.974	7613
907.091	7681
907.208	7715
907.324	7655
907.441	7597
907.557	7453
907.674	7495
907.79	7415
907.907	7430
908.023	7464
908.139	7480
908.256	7350
908.372	7369
908.488	7396
908.604	7324
908.72	7251
908.836	7316
908.952	7278
909.068	7255
909.184	7316
909.3	7278
909.415	7259
909.531	7278
909.647	7164
909.762	7133
909.878	7057
909.993	7110
910.108	7107
910.224	7091
910.339	7088
910.454	7091
910.57	7050
910.685	6905
910.8	7236
910.915	7103
911.03	7069
911.145	6935
911.259	6897
911.374	6901
911.489	6837
911.604	6882
911.718	6745
911.833	6779
911.947	6669
912.062	6662
912.176	6715
912.291	6719
912.405	6726
912.519	6787
912.633	6878
912.748	6696
912.862	6707
912.976	6555
913.09	6559
913.204	6555
913.318	6673
913.431	6738
913.545	6738
913.659	6745
913.772	6658
913.886	6616
914	6582
914.113	6620
914.226	6639
914.34	6627
914.453	6544
914.566	6616
914.68	6559
914.793	6555
914.906	6475
915.019	6384
915.132	6369
915.245	6471
915.358	6486
915.47	6422
915.583	6452
915.696	6547
915.809	6517
915.921	6631
916.034	6414
916.146	6418
916.259	6369
916.371	6464
916.483	6494
916.595	6460
916.708	6395
916.82	6403
916.932	6311
917.044	6429
917.156	6410
917.268	6353
917.38	6391
917.491	6353
917.603	6338
917.715	6384
917.826	6361
917.938	6327
918.049	6251
918.161	6311
918.272	6399
918.384	6403
918.495	6334
918.606	6247
918.717	6292
918.828	6266
918.939	6296
919.05	6232
919.161	6254
919.272	6110
919.383	6220
919.494	6289
919.604	6407
919.715	6338
919.826	6232
919.936	6239
920.047	6350
920.157	6281
920.267	6464
920.378	6311
920.488	6281
920.598	6486
920.708	6547
920.818	6422
920.928	6532
921.038	6612
921.148	6544
921.258	6433
921.368	6296
921.477	6266
921.587	6167
921.697	6117
921.806	6190
921.916	6140
922.025	6011
922.134	5939
922.244	5893
922.353	5973
922.462	5901
922.571	5821
922.68	5703
922.789	5668
922.898	5767
923.007	5653
923.116	5741
923.224	5668
923.333	5642
923.442	5634
923.55	5604
923.659	5630
923.767	5649
923.876	5543
923.984	5665
924.092	5505
924.201	5592
924.309	5581
924.417	5547
924.525	5501
924.633	5520
924.741	6106
924.849	5406
924.956	5482
925.064	5383
925.172	5277
925.279	5299
925.387	5337
925.494	5368
925.602	5379
925.709	5353
925.816	5307
925.924	5322
926.031	5379
926.138	5288
926.245	5337
926.352	5246
926.459	5303
926.566	5311
926.673	5258
926.779	5117
926.886	5136
926.993	5060
927.099	4987
927.206	4995
927.312	4942
927.419	5090
927.525	4991
927.631	4984
927.737	4927
927.843	4854
927.95	4771
928.056	4835
928.162	4828
928.267	4839
928.373	5315
928.479	4866
928.585	4694
928.69	4767
928.796	4812
928.901	4752
929.007	4607
929.112	4740
929.218	4694
929.323	4653
929.428	4592
929.533	4653
929.638	4523
929.743	4519
929.848	4573
929.953	4474
930.058	4462
930.163	4341
930.267	4383
930.372	4443
930.477	4375
930.581	4455
930.685	4371
930.79	4303
930.894	4234
930.998	4272
931.103	4417
931.207	4150
931.311	4040
931.415	4074
931.519	3884
931.623	3960
