Data from glass_V78500241_1022.txt Node
Date: Wed Sep 01 19:21:35 CST 2021
User: usil
Spectrometer: V785-0024
Trigger mode: 0
Integration Time (sec): 4.000000E-1
Scans to average: 1
Nonlinearity correction enabled: false
Boxcar width: 0
Storing dark spectrum: false
XAxis mode: Wavelengths
Number of Pixels in Spectrum: 1024
>>>>>Begin Spectral Data<<<<<
801.071	3762
801.214	3804
801.356	3751
801.499	3774
801.641	3781
801.783	3762
801.926	3869
802.068	3838
802.211	3846
802.353	3922
802.496	3816
802.638	3880
802.78	3926
802.923	3915
803.065	3918
803.208	3892
803.35	3896
803.492	3915
803.635	3922
803.777	3842
803.919	3888
804.061	4147
804.204	4006
804.346	3964
804.488	3918
804.63	4051
804.773	4013
804.915	4032
805.057	4147
805.199	4059
805.341	4078
805.483	4162
805.626	4128
805.768	4158
805.91	4177
806.052	4219
806.194	4227
806.336	4375
806.478	4181
806.62	4219
806.762	4154
806.904	4299
807.046	4325
807.188	4230
807.33	4162
807.472	4242
807.614	4204
807.756	4276
807.898	4219
808.04	4181
808.182	4310
808.324	4318
808.465	4379
808.607	4493
808.749	4447
808.891	4459
809.033	4535
809.174	4402
809.316	4261
809.458	4238
809.6	4185
809.741	4116
809.883	4124
810.025	4207
810.166	4215
810.308	4242
810.45	4253
810.591	4249
810.733	4306
810.875	4542
811.016	4816
811.158	5105
811.299	5299
811.441	5254
811.582	5083
811.724	4672
811.865	4481
812.007	4481
812.148	4413
812.29	4417
812.431	4424
812.573	4409
812.714	4383
812.855	4436
812.997	4462
813.138	4462
813.279	4405
813.421	4344
813.562	4417
813.703	4287
813.845	4337
813.986	4261
814.127	4215
814.268	4280
814.41	4246
814.551	4295
814.692	4314
814.833	4272
814.974	4318
815.115	4318
815.256	4268
815.397	4261
815.539	4276
815.68	4234
815.821	4207
815.962	4344
816.103	4306
816.244	4268
816.385	4249
816.526	4265
816.666	4227
816.807	4169
816.948	4150
817.089	4185
817.23	4105
817.371	4093
817.512	4048
817.653	4040
817.793	4078
817.934	4086
818.075	4090
818.216	4067
818.356	4120
818.497	4017
818.638	3941
818.778	3903
818.919	3873
819.06	3899
819.2	3941
819.341	3884
819.481	3861
819.622	3907
819.762	4029
819.903	3934
820.043	3873
820.184	3850
820.324	3835
820.465	3899
820.605	3907
820.746	3899
820.886	3804
821.026	3903
821.167	3937
821.307	3968
821.447	3956
821.588	3975
821.728	3964
821.868	3907
822.008	3899
822.149	3911
822.289	3941
822.429	3785
822.569	3812
822.709	3831
822.849	3713
822.99	3740
823.13	3778
823.27	3751
823.41	3770
823.55	3747
823.69	3709
823.83	3781
823.97	3686
824.11	3595
824.25	3606
824.389	3671
824.529	3648
824.669	3625
824.809	3675
824.949	3728
825.089	3698
825.228	3717
825.368	3622
825.508	3572
825.648	3591
825.787	3572
825.927	3648
826.067	3622
826.206	3701
826.346	3812
826.485	3861
826.625	3884
826.765	3960
826.904	3800
827.044	3629
827.183	3523
827.323	3485
827.462	3500
827.601	3439
827.741	3431
827.88	3443
828.02	3416
828.159	3469
828.298	3477
828.437	3561
828.577	3469
828.716	3591
828.855	3507
828.994	3363
829.134	3416
829.273	3416
829.412	3363
829.551	3374
829.69	3420
829.829	3485
829.968	3511
830.107	3462
830.246	3435
830.385	3389
830.524	3386
830.663	3264
830.802	3268
830.941	3184
831.08	3192
831.219	3264
831.357	3291
831.496	3420
831.635	3283
831.774	3211
831.913	3173
832.051	3157
832.19	3123
832.329	3218
832.467	3169
832.606	3081
832.744	3184
832.883	3195
833.022	3226
833.16	3279
833.299	3291
833.437	3332
833.576	3363
833.714	3401
833.852	3458
833.991	3473
834.129	3443
834.267	3435
834.406	3386
834.544	3454
834.682	3458
834.821	3416
834.959	3606
835.097	3412
835.235	3568
835.373	3485
835.511	3500
835.65	3428
835.788	3492
835.926	3370
836.064	3393
836.202	3424
836.34	3557
836.478	3667
836.615	3568
836.753	3595
836.891	3644
837.029	3648
837.167	3572
837.305	3542
837.443	3530
837.58	3534
837.718	3587
837.856	3568
837.993	3549
838.131	3614
838.269	3618
838.406	3633
838.544	3580
838.681	3488
838.819	3439
838.956	3363
839.094	3355
839.231	3458
839.369	3515
839.506	3743
839.643	3644
839.781	3485
839.918	3492
840.055	3511
840.193	3572
840.33	3488
840.467	3545
840.604	3610
840.742	3819
840.879	3542
841.016	3610
841.153	3561
841.29	3743
841.427	3778
841.564	3747
841.701	3747
841.838	3690
841.975	3690
842.112	3751
842.249	3656
842.385	3633
842.522	3823
842.659	3690
842.796	3682
842.933	3755
843.069	3690
843.206	3694
843.343	3804
843.479	3781
843.616	3819
843.752	3682
843.889	3682
844.025	3854
844.162	3724
844.298	3880
844.435	3785
844.571	3804
844.708	3930
844.844	3987
844.98	4006
845.117	4017
845.253	3907
845.389	3953
845.525	3930
845.661	3991
845.798	3968
845.934	4021
846.07	3945
846.206	4055
846.342	4124
846.478	4082
846.614	3998
846.75	3964
846.886	3926
847.022	4082
847.158	3960
847.294	3968
847.429	4044
847.565	3991
847.701	4261
847.837	3926
847.972	3903
848.108	3975
848.244	3998
848.379	3880
848.515	3823
848.65	3823
848.786	3838
848.921	3888
849.057	3956
849.192	3960
849.328	3941
849.463	3903
849.598	3861
849.734	3884
849.869	3819
850.004	3816
850.14	3846
850.275	3823
850.41	3709
850.545	3808
850.68	3774
850.815	3812
850.95	3785
851.085	3892
851.22	3892
851.355	3838
851.49	3827
851.625	3804
851.76	3793
851.895	3778
852.03	3736
852.165	3850
852.299	3835
852.434	3922
852.569	3880
852.703	3873
852.838	3941
852.973	4010
853.107	3983
853.242	3857
853.376	3842
853.511	3785
853.645	3842
853.78	3949
853.914	3892
854.048	3930
854.183	3876
854.317	4017
854.451	4074
854.585	3941
854.72	3915
854.854	4051
854.988	3926
855.122	4048
855.256	3937
855.39	4082
855.524	4078
855.658	4139
855.792	4093
855.926	4177
856.06	4154
856.194	4204
856.327	4124
856.461	4097
856.595	4158
856.729	4185
856.862	4314
856.996	4238
857.13	4310
857.263	4314
857.397	4383
857.53	4314
857.664	4344
857.797	4440
857.931	4443
858.064	4390
858.197	4481
858.331	4398
858.464	4394
858.597	4352
858.731	4443
858.864	4451
858.997	4478
859.13	4523
859.263	4554
859.396	4577
859.529	4493
859.662	4535
859.795	4565
859.928	4622
860.061	4717
860.194	4759
860.327	4637
860.46	4656
860.592	4812
860.725	4763
860.858	4782
860.99	4736
861.123	4721
861.256	4694
861.388	4774
861.521	5532
861.653	4733
861.786	4714
861.918	4744
862.05	4797
862.183	4805
862.315	4904
862.447	4946
862.58	4896
862.712	4797
862.844	4801
862.976	4900
863.108	4862
863.24	5235
863.372	4816
863.504	4900
863.636	4942
863.768	5010
863.9	4919
864.032	4896
864.164	4984
864.296	5045
864.428	5128
864.559	5109
864.691	5117
864.823	5143
864.954	5143
865.086	5151
865.217	5151
865.349	5048
865.48	5223
865.612	5170
865.743	5261
865.875	5181
866.006	5197
866.137	5296
866.269	5292
866.4	5254
866.531	5258
866.662	5269
866.793	5326
866.924	5349
867.055	5284
867.186	5334
867.317	5391
867.448	5322
867.579	5345
867.71	5383
867.841	5436
867.972	5497
868.103	5528
868.233	5512
868.364	5581
868.495	5539
868.625	5718
868.756	5802
868.886	5657
869.017	5680
869.147	5840
869.278	5878
869.408	5840
869.539	5901
869.669	5897
869.799	5931
869.929	6057
870.06	6030
870.19	6235
870.32	6209
870.45	6285
870.58	6388
870.71	6429
870.84	6506
870.97	6391
871.1	6429
871.23	6612
871.36	6658
871.489	6662
871.619	6768
871.749	6875
871.879	6920
872.008	7015
872.138	6989
872.267	7012
872.397	6924
872.526	7050
872.656	7118
872.785	7274
872.915	7426
873.044	7590
873.173	7544
873.303	7636
873.432	7712
873.561	7902
873.69	7997
873.819	8035
873.948	8195
874.077	8263
874.206	8362
874.335	8415
874.464	8625
874.593	8819
874.722	9036
874.851	9119
874.979	9207
875.108	9397
875.237	9389
875.365	9504
875.494	9618
875.623	9819
875.751	9884
875.88	9975
876.008	10211
876.136	10272
876.265	10485
876.393	10748
876.521	10759
876.65	10843
876.778	10854
876.906	10976
877.034	11029
877.162	11140
877.29	11189
877.418	11250
877.546	11356
877.674	11455
877.802	11512
877.93	11463
878.058	11554
878.185	11554
878.313	11608
878.441	11805
878.568	11805
878.696	11817
878.824	11775
878.951	11992
879.079	12019
879.206	12155
879.333	12083
879.461	12022
879.588	12129
879.715	12095
879.842	12197
879.97	12038
880.097	11893
880.224	11935
880.351	11904
880.478	11882
880.605	11866
880.732	11882
880.859	12030
880.986	11798
881.112	11931
881.239	11771
881.366	11657
881.493	11657
881.619	11646
881.746	11558
881.872	11577
881.999	11509
882.125	11520
882.252	11535
882.378	11512
882.505	11501
882.631	11425
882.757	11284
882.883	11261
883.01	11307
883.136	11246
883.262	11132
883.388	11022
883.514	11227
883.64	11143
883.766	11189
883.892	10980
884.018	10942
884.143	11060
884.269	11140
884.395	10835
884.52	10721
884.646	10793
884.772	10679
884.897	10645
885.023	10691
885.148	10679
885.274	10771
885.399	10744
885.524	10672
885.65	10607
885.775	10622
885.9	10588
886.025	10550
886.15	10607
886.275	10432
886.4	10379
886.525	10390
886.65	10421
886.775	10379
886.9	10440
887.025	10558
887.149	10409
887.274	10185
887.399	10162
887.523	10162
887.648	10162
887.773	10040
887.897	10204
888.021	10215
888.146	10181
888.27	10360
888.395	10249
888.519	10169
888.643	10238
888.767	10162
888.891	10074
889.015	9979
889.139	10135
889.263	9983
889.387	10036
889.511	10124
889.635	10063
889.759	9983
889.883	10055
890.006	9972
890.13	10116
890.254	9903
890.377	10006
890.501	9785
890.624	9915
890.748	9850
890.871	9854
890.995	9854
891.118	9743
891.241	9797
891.364	9736
891.488	9831
891.611	9804
891.734	9724
891.857	9778
891.98	9671
892.103	9766
892.226	9694
892.349	9644
892.471	9576
892.594	9561
892.717	9698
892.839	9648
892.962	9610
893.085	9618
893.207	9629
893.33	9545
893.452	9519
893.575	9492
893.697	9530
893.819	9595
893.941	9599
894.064	9618
894.186	9386
894.308	9488
894.43	9507
894.552	9561
894.674	9545
894.796	9351
894.918	9424
895.04	9321
895.161	9351
895.283	9344
895.405	9207
895.526	9298
895.648	9241
895.769	9370
895.891	9283
896.012	9237
896.134	9214
896.255	9203
896.376	9157
896.498	9142
896.619	9119
896.74	9093
896.861	9089
896.982	9237
897.103	9310
897.224	9127
897.345	9093
897.466	9055
897.587	9001
897.708	9226
897.828	9085
897.949	8933
898.07	8925
898.19	8929
898.311	9009
898.431	8899
898.552	8971
898.672	8948
898.792	8933
898.913	8883
899.033	8807
899.153	8739
899.273	8594
899.393	8739
899.513	8815
899.633	8762
899.753	8766
899.873	8708
899.993	8769
900.113	8777
900.232	8667
900.352	8667
900.472	8644
900.591	8644
900.711	8625
900.83	8549
900.95	8617
901.069	8708
901.189	8571
901.308	8431
901.427	8377
901.546	8461
901.665	8442
901.784	8419
901.904	8431
902.023	8317
902.141	8275
902.26	8286
902.379	8294
902.498	8301
902.617	8256
902.735	8252
902.854	8298
902.973	8248
903.091	8168
903.21	8164
903.328	8214
903.446	8130
903.565	8096
903.683	8084
903.801	8142
903.919	8172
904.038	8119
904.156	7997
904.274	8119
904.392	8058
904.51	8172
904.627	8020
904.745	8027
904.863	8084
904.981	7940
905.098	7864
905.216	7947
905.334	7932
905.451	7887
905.569	7967
905.686	7997
905.803	7921
905.921	7750
906.038	7833
906.155	7818
906.272	7723
906.389	7746
906.506	7658
906.623	7613
906.74	7643
906.857	7571
906.974	7571
907.091	7689
907.208	7738
907.324	7662
907.441	7590
907.557	7525
907.674	7464
907.79	7293
907.907	7411
908.023	7518
908.139	7422
908.256	7407
908.372	7327
908.488	7430
908.604	7339
908.72	7217
908.836	7236
908.952	7339
909.068	7270
909.184	7324
909.3	7274
909.415	7285
909.531	7396
909.647	7091
909.762	7145
909.878	7088
909.993	7145
910.108	7080
910.224	7103
910.339	7118
910.454	7095
910.57	7000
910.685	6962
910.8	7274
910.915	7065
911.03	7053
911.145	6859
911.259	6863
911.374	6951
911.489	6837
911.604	6890
911.718	6722
911.833	6719
911.947	6662
912.062	6608
912.176	6700
912.291	6692
912.405	6734
912.519	6825
912.633	6890
912.748	6749
912.862	6700
912.976	6631
913.09	6513
913.204	6612
913.318	6578
913.431	6673
913.545	6673
913.659	6707
913.772	6692
913.886	6597
914	6627
914.113	6650
914.226	6665
914.34	6604
914.453	6528
914.566	6616
914.68	6509
914.793	6521
914.906	6486
915.019	6433
915.132	6456
915.245	6437
915.358	6422
915.47	6437
915.583	6498
915.696	6498
915.809	6506
915.921	6585
916.034	6475
916.146	6407
916.259	6418
916.371	6513
916.483	6532
916.595	6365
916.708	6414
916.82	6441
916.932	6410
917.044	6407
917.156	6388
917.268	6346
917.38	6388
917.491	6342
917.603	6361
917.715	6346
917.826	6395
917.938	6338
918.049	6266
918.161	6323
918.272	6429
918.384	6445
918.495	6376
918.606	6239
918.717	6228
918.828	6270
918.939	6315
919.05	6224
919.161	6228
919.272	6220
919.383	6171
919.494	6281
919.604	6391
919.715	6331
919.826	6281
919.936	6232
920.047	6308
920.157	6277
920.267	6467
920.378	6342
920.488	6323
920.598	6490
920.708	6559
920.818	6452
920.928	6467
921.038	6623
921.148	6544
921.258	6388
921.368	6281
921.477	6228
921.587	6140
921.697	6106
921.806	6194
921.916	6072
922.025	5984
922.134	5939
922.244	5931
922.353	5950
922.462	5866
922.571	5817
922.68	5718
922.789	5672
922.898	5676
923.007	5630
923.116	5733
923.224	5680
923.333	5642
923.442	5577
923.55	5562
923.659	5547
923.767	5688
923.876	5535
923.984	5680
924.092	5448
924.201	5570
924.309	5570
924.417	5554
924.525	5509
924.633	5566
924.741	6296
924.849	5387
924.956	5493
925.064	5402
925.172	5299
925.279	5345
925.387	5383
925.494	5334
925.602	5440
925.709	5372
925.816	5239
925.924	5334
926.031	5402
926.138	5273
926.245	5376
926.352	5273
926.459	5326
926.566	5345
926.673	5193
926.779	5136
926.886	5124
926.993	5003
927.099	5041
927.206	4987
927.312	4968
927.419	5003
927.525	5037
927.631	5010
927.737	4892
927.843	4835
927.95	4831
928.056	4847
928.162	4824
928.267	4831
928.373	5322
928.479	4927
928.585	4691
928.69	4744
928.796	4763
928.901	4679
929.007	4584
929.112	4710
929.218	4645
929.323	4596
929.428	4542
929.533	4664
929.638	4535
929.743	4554
929.848	4630
929.953	4512
930.058	4451
930.163	4322
930.267	4360
930.372	4459
930.477	4303
930.581	4500
930.685	4383
930.79	4268
930.894	4329
930.998	4284
931.103	4341
931.207	4090
931.311	4063
931.415	4071
931.519	3892
931.623	3918
