Data from glass_V78500241_2458.txt Node
Date: Wed Sep 01 19:31:32 CST 2021
User: usil
Spectrometer: V785-0024
Trigger mode: 0
Integration Time (sec): 4.000000E-1
Scans to average: 1
Nonlinearity correction enabled: false
Boxcar width: 0
Storing dark spectrum: false
XAxis mode: Wavelengths
Number of Pixels in Spectrum: 1024
>>>>>Begin Spectral Data<<<<<
801.071	3701
801.214	3755
801.356	3686
801.499	3751
801.641	3694
801.783	3793
801.926	3880
802.068	3793
802.211	3865
802.353	3869
802.496	3800
802.638	3873
802.78	3899
802.923	3930
803.065	3892
803.208	3861
803.35	3857
803.492	3888
803.635	3907
803.777	3770
803.919	3907
804.061	4177
804.204	3922
804.346	3960
804.488	3941
804.63	4029
804.773	3960
804.915	4021
805.057	4116
805.199	4051
805.341	4109
805.483	4124
805.626	4097
805.768	4059
805.91	4253
806.052	4204
806.194	4188
806.336	4291
806.478	4230
806.62	4162
806.762	4143
806.904	4284
807.046	4325
807.188	4177
807.33	4192
807.472	4234
807.614	4219
807.756	4242
807.898	4173
808.04	4219
808.182	4265
808.324	4299
808.465	4405
808.607	4459
808.749	4428
808.891	4470
809.033	4489
809.174	4428
809.316	4261
809.458	4261
809.6	4188
809.741	4143
809.883	4196
810.025	4173
810.166	4215
810.308	4234
810.45	4246
810.591	4261
810.733	4265
810.875	4516
811.016	4816
811.158	5124
811.299	5258
811.441	5299
811.582	4999
811.724	4694
811.865	4440
812.007	4474
812.148	4413
812.29	4451
812.431	4421
812.573	4424
812.714	4363
812.855	4379
812.997	4360
813.138	4443
813.279	4371
813.421	4360
813.562	4390
813.703	4337
813.845	4322
813.986	4253
814.127	4204
814.268	4306
814.41	4295
814.551	4265
814.692	4299
814.833	4261
814.974	4314
815.115	4306
815.256	4249
815.397	4185
815.539	4314
815.68	4147
815.821	4215
815.962	4284
816.103	4257
816.244	4223
816.385	4200
816.526	4253
816.666	4211
816.807	4067
816.948	4177
817.089	4200
817.23	4097
817.371	4067
817.512	4051
817.653	4006
817.793	4025
817.934	4029
818.075	4116
818.216	4120
818.356	4086
818.497	3998
818.638	3896
818.778	3888
818.919	3911
819.06	3876
819.2	3922
819.341	3827
819.481	3819
819.622	3922
819.762	4051
819.903	3926
820.043	3880
820.184	3850
820.324	3812
820.465	3854
820.605	3892
820.746	3850
820.886	3759
821.026	3892
821.167	3918
821.307	3934
821.447	3964
821.588	3930
821.728	3926
821.868	3907
822.008	3846
822.149	3945
822.289	3888
822.429	3789
822.569	3743
822.709	3789
822.849	3724
822.99	3701
823.13	3778
823.27	3793
823.41	3709
823.55	3747
823.69	3701
823.83	3728
823.97	3648
824.11	3622
824.25	3553
824.389	3603
824.529	3641
824.669	3622
824.809	3682
824.949	3728
825.089	3736
825.228	3690
825.368	3568
825.508	3576
825.648	3564
825.787	3603
825.927	3610
826.067	3660
826.206	3652
826.346	3789
826.485	3816
826.625	3819
826.765	3903
826.904	3827
827.044	3599
827.183	3526
827.323	3424
827.462	3466
827.601	3466
827.741	3401
827.88	3469
828.02	3348
828.159	3405
828.298	3504
828.437	3500
828.577	3454
828.716	3591
828.855	3519
828.994	3348
829.134	3359
829.273	3370
829.412	3332
829.551	3321
829.69	3325
829.829	3450
829.968	3515
830.107	3492
830.246	3431
830.385	3374
830.524	3378
830.663	3306
830.802	3264
830.941	3203
831.08	3184
831.219	3272
831.357	3272
831.496	3363
831.635	3207
831.774	3154
831.913	3154
832.051	3108
832.19	3138
832.329	3195
832.467	3119
832.606	3116
832.744	3165
832.883	3184
833.022	3192
833.16	3245
833.299	3302
833.437	3340
833.576	3302
833.714	3424
833.852	3447
833.991	3447
834.129	3473
834.267	3443
834.406	3378
834.544	3397
834.682	3435
834.821	3409
834.959	3542
835.097	3397
835.235	3496
835.373	3466
835.511	3507
835.65	3462
835.788	3519
835.926	3428
836.064	3386
836.202	3378
836.34	3568
836.478	3614
836.615	3526
836.753	3584
836.891	3652
837.029	3591
837.167	3618
837.305	3576
837.443	3507
837.58	3519
837.718	3580
837.856	3511
837.993	3519
838.131	3568
838.269	3584
838.406	3591
838.544	3564
838.681	3473
838.819	3469
838.956	3340
839.094	3382
839.231	3405
839.369	3549
839.506	3694
839.643	3633
839.781	3507
839.918	3428
840.055	3534
840.193	3523
840.33	3496
840.467	3542
840.604	3561
840.742	3808
840.879	3511
841.016	3500
841.153	3584
841.29	3793
841.427	3717
841.564	3698
841.701	3720
841.838	3682
841.975	3648
842.112	3724
842.249	3652
842.385	3648
842.522	3804
842.659	3701
842.796	3679
842.933	3713
843.069	3694
843.206	3694
843.343	3812
843.479	3778
843.616	3850
843.752	3682
843.889	3682
844.025	3838
844.162	3755
844.298	3861
844.435	3793
844.571	3728
844.708	3865
844.844	4021
844.98	4013
845.117	4002
845.253	3968
845.389	3907
845.525	3945
845.661	3975
845.798	3937
845.934	3987
846.07	3915
846.206	4082
846.342	4093
846.478	4082
846.614	3991
846.75	3915
846.886	3876
847.022	4010
847.158	3975
847.294	3998
847.429	4059
847.565	3998
847.701	4204
847.837	3861
847.972	3869
848.108	3934
848.244	3953
848.379	3869
848.515	3781
848.65	3819
848.786	3827
848.921	3827
849.057	3896
849.192	3972
849.328	3915
849.463	3903
849.598	3857
849.734	3846
849.869	3819
850.004	3766
850.14	3850
850.275	3720
850.41	3736
850.545	3698
850.68	3793
850.815	3762
850.95	3785
851.085	3896
851.22	3861
851.355	3842
851.49	3762
851.625	3785
851.76	3778
851.895	3755
852.03	3736
852.165	3789
852.299	3800
852.434	3896
852.569	3835
852.703	3869
852.838	3892
852.973	3956
853.107	4006
853.242	3846
853.376	3808
853.511	3781
853.645	3857
853.78	3937
853.914	3861
854.048	3865
854.183	3876
854.317	3945
854.451	4082
854.585	3945
854.72	3941
854.854	4044
854.988	3899
855.122	3983
855.256	3865
855.39	3979
855.524	4105
855.658	4067
855.792	4093
855.926	4147
856.06	4158
856.194	4219
856.327	4120
856.461	4128
856.595	4192
856.729	4120
856.862	4272
856.996	4227
857.13	4318
857.263	4341
857.397	4390
857.53	4268
857.664	4322
857.797	4417
857.931	4409
858.064	4417
858.197	4405
858.331	4398
858.464	4424
858.597	4329
858.731	4413
858.864	4424
858.997	4447
859.13	4516
859.263	4489
859.396	4558
859.529	4542
859.662	4508
859.795	4512
859.928	4607
860.061	4679
860.194	4721
860.327	4664
860.46	4668
860.592	4698
860.725	4763
860.858	4771
860.99	4664
861.123	4634
861.256	4653
861.388	4721
861.521	5539
861.653	4672
861.786	4736
861.918	4714
862.05	4759
862.183	4843
862.315	4896
862.447	4934
862.58	4866
862.712	4763
862.844	4763
862.976	4835
863.108	4820
863.24	5216
863.372	4805
863.504	4877
863.636	4919
863.768	4972
863.9	4976
864.032	4923
864.164	4919
864.296	4953
864.428	5041
864.559	5109
864.691	5140
864.823	5132
864.954	5136
865.086	5147
865.217	5140
865.349	5098
865.48	5212
865.612	5162
865.743	5280
865.875	5201
866.006	5147
866.137	5181
866.269	5220
866.4	5193
866.531	5227
866.662	5250
866.793	5239
866.924	5326
867.055	5353
867.186	5326
867.317	5330
867.448	5299
867.579	5349
867.71	5341
867.841	5410
867.972	5490
868.103	5467
868.233	5493
868.364	5501
868.495	5493
868.625	5676
868.756	5726
868.886	5672
869.017	5680
869.147	5817
869.278	5828
869.408	5809
869.539	5832
869.669	5904
869.799	5897
869.929	5988
870.06	6019
870.19	6209
870.32	6182
870.45	6235
870.58	6273
870.71	6388
870.84	6479
870.97	6422
871.1	6456
871.23	6662
871.36	6688
871.489	6612
871.619	6722
871.749	6741
871.879	6837
872.008	6996
872.138	6958
872.267	6989
872.397	6981
872.526	7023
872.656	7133
872.785	7202
872.915	7396
873.044	7457
873.173	7556
873.303	7613
873.432	7750
873.561	7833
873.69	7864
873.819	8058
873.948	8138
874.077	8195
874.206	8370
874.335	8480
874.464	8682
874.593	8895
874.722	8948
874.851	9100
874.979	9203
875.108	9363
875.237	9348
875.365	9511
875.494	9542
875.623	9819
875.751	9846
875.88	9953
876.008	10150
876.136	10192
876.265	10504
876.393	10630
876.521	10706
876.65	10755
876.778	10820
876.906	10869
877.034	11025
877.162	11083
877.29	11143
877.418	11261
877.546	11337
877.674	11512
877.802	11524
877.93	11535
878.058	11554
878.185	11566
878.313	11646
878.441	11714
878.568	11695
878.696	11805
878.824	11802
878.951	11950
879.079	11996
879.206	12110
879.333	12060
879.461	12003
879.588	12049
879.715	12026
879.842	12171
879.97	12114
880.097	11893
880.224	11859
880.351	11836
880.478	11927
880.605	11885
880.732	11805
880.859	11977
880.986	11832
881.112	11836
881.239	11699
881.366	11684
881.493	11676
881.619	11577
881.746	11619
881.872	11562
881.999	11596
882.125	11478
882.252	11558
882.378	11455
882.505	11570
882.631	11337
882.757	11311
882.883	11254
883.01	11318
883.136	11159
883.262	11124
883.388	11094
883.514	11216
883.64	11094
883.766	11121
883.892	11037
884.018	10968
884.143	11045
884.269	11064
884.395	10816
884.52	10714
884.646	10790
884.772	10729
884.897	10607
885.023	10599
885.148	10649
885.274	10702
885.399	10687
885.524	10603
885.65	10538
885.775	10580
885.9	10519
886.025	10607
886.15	10523
886.275	10497
886.4	10352
886.525	10424
886.65	10398
886.775	10375
886.9	10493
887.025	10455
887.149	10341
887.274	10230
887.399	10188
887.523	10204
887.648	10063
887.773	10116
887.897	10207
888.021	10177
888.146	10097
888.27	10154
888.395	10177
888.519	10131
888.643	10181
888.767	10173
888.891	10109
889.015	10029
889.139	10029
889.263	9975
889.387	10101
889.511	10067
889.635	10013
889.759	9960
889.883	9956
890.006	9979
890.13	10067
890.254	9884
890.377	9880
890.501	9850
890.624	9854
890.748	9899
890.871	9816
890.995	9781
891.118	9724
891.241	9736
891.364	9762
891.488	9755
891.611	9781
891.734	9755
891.857	9770
891.98	9656
892.103	9747
892.226	9671
892.349	9660
892.471	9568
892.594	9572
892.717	9553
892.839	9561
892.962	9603
893.085	9610
893.207	9587
893.33	9462
893.452	9526
893.575	9584
893.697	9500
893.819	9675
893.941	9576
894.064	9530
894.186	9386
894.308	9424
894.43	9458
894.552	9595
894.674	9488
894.796	9348
894.918	9351
895.04	9344
895.161	9351
895.283	9287
895.405	9222
895.526	9245
895.648	9188
895.769	9256
895.891	9283
896.012	9218
896.134	9176
896.255	9161
896.376	9123
896.498	9199
896.619	9089
896.74	9165
896.861	9081
896.982	9203
897.103	9260
897.224	9157
897.345	8994
897.466	9013
897.587	8929
897.708	9028
897.828	8998
897.949	8986
898.07	8826
898.19	8918
898.311	9058
898.431	8948
898.552	8941
898.672	8933
898.792	8861
898.913	8849
899.033	8735
899.153	8667
899.273	8610
899.393	8750
899.513	8621
899.633	8697
899.753	8739
899.873	8724
899.993	8682
900.113	8682
900.232	8678
900.352	8651
900.472	8549
900.591	8545
900.711	8651
900.83	8514
900.95	8701
901.069	8651
901.189	8556
901.308	8446
901.427	8396
901.546	8366
901.665	8450
901.784	8457
901.904	8381
902.023	8290
902.141	8248
902.26	8164
902.379	8263
902.498	8199
902.617	8153
902.735	8301
902.854	8259
902.973	8290
903.091	8221
903.21	8084
903.328	8161
903.446	8107
903.565	8001
903.683	8111
903.801	8031
903.919	8153
904.038	8142
904.156	8001
904.274	8065
904.392	7986
904.51	8062
904.627	8119
904.745	8084
904.863	8046
904.981	7921
905.098	7871
905.216	7871
905.334	7898
905.451	7849
905.569	7814
905.686	7925
905.803	7921
905.921	7784
906.038	7830
906.155	7814
906.272	7677
906.389	7685
906.506	7628
906.623	7651
906.74	7575
906.857	7525
906.974	7552
907.091	7666
907.208	7769
907.324	7639
907.441	7655
907.557	7483
907.674	7426
907.79	7411
907.907	7411
908.023	7430
908.139	7411
908.256	7419
908.372	7358
908.488	7312
908.604	7206
908.72	7247
908.836	7221
908.952	7293
909.068	7255
909.184	7327
909.3	7228
909.415	7285
909.531	7209
909.647	7126
909.762	7091
909.878	7183
909.993	7019
910.108	6993
910.224	7034
910.339	7129
910.454	7050
910.57	7031
910.685	6909
910.8	7080
910.915	7103
911.03	7084
911.145	6909
911.259	6821
911.374	6852
911.489	6833
911.604	6802
911.718	6669
911.833	6692
911.947	6654
912.062	6601
912.176	6665
912.291	6703
912.405	6673
912.519	6821
912.633	6779
912.748	6681
912.862	6692
912.976	6593
913.09	6532
913.204	6544
913.318	6612
913.431	6688
913.545	6604
913.659	6726
913.772	6665
913.886	6559
914	6559
914.113	6570
914.226	6612
914.34	6563
914.453	6490
914.566	6642
914.68	6566
914.793	6536
914.906	6471
915.019	6407
915.132	6399
915.245	6422
915.358	6418
915.47	6433
915.583	6445
915.696	6407
915.809	6517
915.921	6479
916.034	6467
916.146	6376
916.259	6395
916.371	6490
916.483	6441
916.595	6407
916.708	6372
916.82	6357
916.932	6426
917.044	6391
917.156	6369
917.268	6266
917.38	6342
917.491	6342
917.603	6319
917.715	6437
917.826	6395
917.938	6277
918.049	6254
918.161	6304
918.272	6407
918.384	6403
918.495	6399
918.606	6247
918.717	6251
918.828	6300
918.939	6289
919.05	6182
919.161	6220
919.272	6136
919.383	6129
919.494	6235
919.604	6437
919.715	6243
919.826	6194
919.936	6243
920.047	6331
920.157	6258
920.267	6395
920.378	6235
920.488	6304
920.598	6502
920.708	6506
920.818	6437
920.928	6464
921.038	6620
921.148	6540
921.258	6376
921.368	6228
921.477	6152
921.587	6171
921.697	6125
921.806	6133
921.916	6106
922.025	5916
922.134	5901
922.244	5897
922.353	5980
922.462	5844
922.571	5790
922.68	5691
922.789	5668
922.898	5703
923.007	5627
923.116	5680
923.224	5623
923.333	5630
923.442	5554
923.55	5615
923.659	5589
923.767	5600
923.876	5547
923.984	5596
924.092	5535
924.201	5535
924.309	5562
924.417	5528
924.525	5490
924.633	5512
924.741	6152
924.849	5349
924.956	5459
925.064	5349
925.172	5315
925.279	5277
925.387	5303
925.494	5315
925.602	5337
925.709	5410
925.816	5269
925.924	5254
926.031	5349
926.138	5299
926.245	5337
926.352	5185
926.459	5353
926.566	5337
926.673	5212
926.779	5121
926.886	5075
926.993	5083
927.099	4995
927.206	4915
927.312	4938
927.419	4934
927.525	4942
927.631	4987
927.737	4885
927.843	4831
927.95	4778
928.056	4839
928.162	4793
928.267	4847
928.373	5265
928.479	4889
928.585	4668
928.69	4721
928.796	4782
928.901	4675
929.007	4596
929.112	4660
929.218	4641
929.323	4596
929.428	4569
929.533	4668
929.638	4527
929.743	4481
929.848	4561
929.953	4504
930.058	4421
930.163	4314
930.267	4348
930.372	4459
930.477	4295
930.581	4432
930.685	4337
930.79	4230
930.894	4303
930.998	4268
931.103	4386
931.207	4109
931.311	4093
931.415	4044
931.519	3975
931.623	3945
