Data from glass_V78500241_299.txt Node
Date: Wed Sep 01 19:16:34 CST 2021
User: usil
Spectrometer: V785-0024
Trigger mode: 0
Integration Time (sec): 4.000000E-1
Scans to average: 1
Nonlinearity correction enabled: false
Boxcar width: 0
Storing dark spectrum: false
XAxis mode: Wavelengths
Number of Pixels in Spectrum: 1024
>>>>>Begin Spectral Data<<<<<
801.071	3785
801.214	3724
801.356	3751
801.499	3793
801.641	3724
801.783	3751
801.926	3838
802.068	3831
802.211	3873
802.353	3861
802.496	3861
802.638	3899
802.78	3911
802.923	3934
803.065	3926
803.208	3915
803.35	3884
803.492	3918
803.635	3926
803.777	3827
803.919	3892
804.061	4177
804.204	3975
804.346	3937
804.488	3945
804.63	4036
804.773	3964
804.915	4071
805.057	4112
805.199	4093
805.341	4078
805.483	4162
805.626	4177
805.768	4143
805.91	4253
806.052	4253
806.194	4188
806.336	4325
806.478	4223
806.62	4181
806.762	4223
806.904	4219
807.046	4333
807.188	4246
807.33	4185
807.472	4318
807.614	4246
807.756	4295
807.898	4242
808.04	4200
808.182	4314
808.324	4325
808.465	4390
808.607	4451
808.749	4478
808.891	4481
809.033	4508
809.174	4455
809.316	4246
809.458	4207
809.6	4200
809.741	4158
809.883	4135
810.025	4200
810.166	4227
810.308	4223
810.45	4265
810.591	4261
810.733	4280
810.875	4538
811.016	4873
811.158	5117
811.299	5307
811.441	5311
811.582	5045
811.724	4702
811.865	4462
812.007	4493
812.148	4459
812.29	4417
812.431	4440
812.573	4432
812.714	4398
812.855	4440
812.997	4409
813.138	4481
813.279	4474
813.421	4409
813.562	4360
813.703	4333
813.845	4329
813.986	4261
814.127	4272
814.268	4257
814.41	4299
814.551	4322
814.692	4314
814.833	4284
814.974	4295
815.115	4367
815.256	4280
815.397	4242
815.539	4276
815.68	4219
815.821	4227
815.962	4344
816.103	4291
816.244	4261
816.385	4249
816.526	4295
816.666	4238
816.807	4124
816.948	4204
817.089	4173
817.23	4124
817.371	4010
817.512	4090
817.653	4082
817.793	4032
817.934	4040
818.075	4128
818.216	4078
818.356	4124
818.497	3998
818.638	3937
818.778	3926
818.919	3884
819.06	3884
819.2	3911
819.341	3869
819.481	3838
819.622	3926
819.762	4040
819.903	3934
820.043	3903
820.184	3861
820.324	3831
820.465	3880
820.605	3896
820.746	3884
820.886	3789
821.026	3915
821.167	3934
821.307	4002
821.447	3994
821.588	3915
821.728	3994
821.868	3949
822.008	3930
822.149	3918
822.289	3964
822.429	3793
822.569	3755
822.709	3816
822.849	3705
822.99	3682
823.13	3797
823.27	3800
823.41	3732
823.55	3747
823.69	3724
823.83	3766
823.97	3728
824.11	3614
824.25	3576
824.389	3663
824.529	3682
824.669	3663
824.809	3709
824.949	3743
825.089	3724
825.228	3713
825.368	3580
825.508	3603
825.648	3557
825.787	3663
825.927	3686
826.067	3644
826.206	3675
826.346	3846
826.485	3831
826.625	3873
826.765	3941
826.904	3842
827.044	3587
827.183	3507
827.323	3477
827.462	3492
827.601	3428
827.741	3420
827.88	3473
828.02	3382
828.159	3466
828.298	3500
828.437	3542
828.577	3545
828.716	3610
828.855	3534
828.994	3401
829.134	3363
829.273	3405
829.412	3332
829.551	3370
829.69	3370
829.829	3420
829.968	3530
830.107	3447
830.246	3450
830.385	3412
830.524	3359
830.663	3325
830.802	3268
830.941	3203
831.08	3241
831.219	3306
831.357	3291
831.496	3401
831.635	3279
831.774	3207
831.913	3245
832.051	3135
832.19	3131
832.329	3237
832.467	3135
832.606	3119
832.744	3192
832.883	3188
833.022	3214
833.16	3272
833.299	3275
833.437	3348
833.576	3367
833.714	3393
833.852	3431
833.991	3450
834.129	3488
834.267	3458
834.406	3435
834.544	3428
834.682	3435
834.821	3405
834.959	3591
835.097	3458
835.235	3545
835.373	3477
835.511	3504
835.65	3485
835.788	3492
835.926	3359
836.064	3401
836.202	3367
836.34	3549
836.478	3614
836.615	3576
836.753	3622
836.891	3671
837.029	3652
837.167	3595
837.305	3576
837.443	3549
837.58	3511
837.718	3610
837.856	3553
837.993	3580
838.131	3622
838.269	3591
838.406	3629
838.544	3618
838.681	3496
838.819	3462
838.956	3397
839.094	3424
839.231	3424
839.369	3534
839.506	3736
839.643	3652
839.781	3507
839.918	3469
840.055	3553
840.193	3561
840.33	3549
840.467	3591
840.604	3610
840.742	3793
840.879	3591
841.016	3572
841.153	3599
841.29	3743
841.427	3751
841.564	3732
841.701	3770
841.838	3690
841.975	3652
842.112	3675
842.249	3622
842.385	3648
842.522	3854
842.659	3740
842.796	3663
842.933	3724
843.069	3709
843.206	3717
843.343	3827
843.479	3774
843.616	3854
843.752	3679
843.889	3701
844.025	3850
844.162	3724
844.298	3873
844.435	3785
844.571	3800
844.708	3937
844.844	3991
844.98	4044
845.117	4055
845.253	3960
845.389	3892
845.525	4002
845.661	3979
845.798	3941
845.934	4025
846.07	3983
846.206	4082
846.342	4128
846.478	4071
846.614	3983
846.75	3922
846.886	3945
847.022	4055
847.158	3987
847.294	3972
847.429	3979
847.565	3987
847.701	4268
847.837	3892
847.972	3873
848.108	3972
848.244	4002
848.379	3865
848.515	3800
848.65	3857
848.786	3876
848.921	3880
849.057	3915
849.192	3930
849.328	3911
849.463	3934
849.598	3899
849.734	3915
849.869	3808
850.004	3778
850.14	3789
850.275	3800
850.41	3736
850.545	3766
850.68	3808
850.815	3785
850.95	3819
851.085	3972
851.22	3930
851.355	3819
851.49	3781
851.625	3804
851.76	3755
851.895	3751
852.03	3743
852.165	3793
852.299	3880
852.434	3922
852.569	3884
852.703	3907
852.838	3949
852.973	4025
853.107	3991
853.242	3873
853.376	3865
853.511	3797
853.645	3861
853.78	3991
853.914	3899
854.048	3930
854.183	3865
854.317	3953
854.451	4093
854.585	3956
854.72	4002
854.854	4013
854.988	3956
855.122	4040
855.256	3975
855.39	4036
855.524	4139
855.658	4086
855.792	4116
855.926	4181
856.06	4204
856.194	4215
856.327	4185
856.461	4158
856.595	4120
856.729	4177
856.862	4291
856.996	4272
857.13	4303
857.263	4352
857.397	4383
857.53	4268
857.664	4383
857.797	4402
857.931	4462
858.064	4375
858.197	4485
858.331	4440
858.464	4424
858.597	4428
858.731	4474
858.864	4474
858.997	4436
859.13	4481
859.263	4554
859.396	4573
859.529	4519
859.662	4542
859.795	4592
859.928	4683
860.061	4763
860.194	4786
860.327	4668
860.46	4660
860.592	4683
860.725	4744
860.858	4805
860.99	4672
861.123	4729
861.256	4706
861.388	4771
861.521	5231
861.653	4706
861.786	4778
861.918	4748
862.05	4809
862.183	4889
862.315	4885
862.447	4980
862.58	4870
862.712	4877
862.844	4782
862.976	4896
863.108	4892
863.24	5269
863.372	4816
863.504	4889
863.636	4900
863.768	4915
863.9	4976
864.032	4938
864.164	4987
864.296	5075
864.428	5086
864.559	5151
864.691	5102
864.823	5105
864.954	5094
865.086	5124
865.217	5181
865.349	5102
865.48	5128
865.612	5216
865.743	5318
865.875	5246
866.006	5223
866.137	5277
866.269	5261
866.4	5235
866.531	5246
866.662	5292
866.793	5315
866.924	5273
867.055	5303
867.186	5322
867.317	5383
867.448	5284
867.579	5353
867.71	5353
867.841	5391
867.972	5448
868.103	5490
868.233	5566
868.364	5493
868.495	5554
868.625	5649
868.756	5790
868.886	5710
869.017	5748
869.147	5882
869.278	5859
869.408	5840
869.539	5851
869.669	5923
869.799	5889
869.929	6007
870.06	6011
870.19	6228
870.32	6175
870.45	6247
870.58	6350
870.71	6467
870.84	6467
870.97	6391
871.1	6441
871.23	6570
871.36	6700
871.489	6730
871.619	6730
871.749	6806
871.879	6829
872.008	6935
872.138	6989
872.267	7042
872.397	6996
872.526	7076
872.656	7080
872.785	7221
872.915	7384
873.044	7571
873.173	7544
873.303	7601
873.432	7750
873.561	7909
873.69	7883
873.819	7959
873.948	8168
874.077	8206
874.206	8351
874.335	8492
874.464	8636
874.593	8872
874.722	8937
874.851	9180
874.979	9173
875.108	9397
875.237	9454
875.365	9526
875.494	9705
875.623	9827
875.751	9778
875.88	9930
876.008	10135
876.136	10318
876.265	10584
876.393	10672
876.521	10721
876.65	10790
876.778	10911
876.906	10968
877.034	10972
877.162	11174
877.29	11147
877.418	11322
877.546	11368
877.674	11463
877.802	11463
877.93	11577
878.058	11630
878.185	11532
878.313	11623
878.441	11813
878.568	11729
878.696	11889
878.824	11859
878.951	12007
879.079	12026
879.206	12133
879.333	12148
879.461	12003
879.588	12079
879.715	12129
879.842	12186
879.97	12022
880.097	11935
880.224	11847
880.351	11908
880.478	11984
880.605	11866
880.732	11775
880.859	11996
880.986	11783
881.112	11916
881.239	11695
881.366	11657
881.493	11619
881.619	11528
881.746	11532
881.872	11592
881.999	11554
882.125	11482
882.252	11547
882.378	11486
882.505	11611
882.631	11391
882.757	11261
882.883	11376
883.01	11307
883.136	11185
883.262	11155
883.388	11083
883.514	11246
883.64	11204
883.766	11098
883.892	10961
884.018	11041
884.143	11086
884.269	11109
884.395	10820
884.52	10786
884.646	10790
884.772	10660
884.897	10649
885.023	10710
885.148	10733
885.274	10733
885.399	10740
885.524	10580
885.65	10580
885.775	10611
885.9	10455
886.025	10679
886.15	10523
886.275	10405
886.4	10344
886.525	10474
886.65	10398
886.775	10356
886.9	10481
887.025	10538
887.149	10398
887.274	10299
887.399	10234
887.523	10112
887.648	10086
887.773	10093
887.897	10177
888.021	10223
888.146	10147
888.27	10257
888.395	10257
888.519	10265
888.643	10158
888.767	10162
888.891	10109
889.015	10044
889.139	10055
889.263	10006
889.387	10097
889.511	10166
889.635	10139
889.759	9956
889.883	10021
890.006	9964
890.13	10112
890.254	9953
890.377	9937
890.501	9835
890.624	9884
890.748	9880
890.871	9835
890.995	9686
891.118	9732
891.241	9770
891.364	9781
891.488	9842
891.611	9709
891.734	9743
891.857	9781
891.98	9736
892.103	9770
892.226	9759
892.349	9652
892.471	9500
892.594	9629
892.717	9679
892.839	9584
892.962	9614
893.085	9595
893.207	9614
893.33	9477
893.452	9603
893.575	9637
893.697	9420
893.819	9591
893.941	9637
894.064	9618
894.186	9431
894.308	9367
894.43	9492
894.552	9618
894.674	9507
894.796	9348
894.918	9420
895.04	9370
895.161	9389
895.283	9355
895.405	9256
895.526	9272
895.648	9241
895.769	9321
895.891	9241
896.012	9374
896.134	9207
896.255	9146
896.376	9100
896.498	9119
896.619	9195
896.74	9066
896.861	9089
896.982	9294
897.103	9329
897.224	9264
897.345	9074
897.466	9039
897.587	9047
897.708	9100
897.828	8960
897.949	8929
898.07	8868
898.19	8902
898.311	9051
898.431	8921
898.552	8948
898.672	8979
898.792	8963
898.913	8895
899.033	8830
899.153	8750
899.273	8625
899.393	8697
899.513	8766
899.633	8686
899.753	8826
899.873	8712
899.993	8731
900.113	8708
900.232	8697
900.352	8606
900.472	8625
900.591	8575
900.711	8594
900.83	8594
900.95	8648
901.069	8602
901.189	8648
901.308	8423
901.427	8370
901.546	8438
901.665	8431
901.784	8522
901.904	8431
902.023	8336
902.141	8271
902.26	8195
902.379	8351
902.498	8221
902.617	8218
902.735	8290
902.854	8263
902.973	8343
903.091	8149
903.21	8138
903.328	8062
903.446	8119
903.565	8088
903.683	8130
903.801	8092
903.919	8088
904.038	8096
904.156	8016
904.274	8088
904.392	7978
904.51	8100
904.627	8058
904.745	8111
904.863	8065
904.981	7906
905.098	7921
905.216	7921
905.334	7951
905.451	7913
905.569	7947
905.686	7894
905.803	7871
905.921	7856
906.038	7883
906.155	7841
906.272	7776
906.389	7784
906.506	7689
906.623	7639
906.74	7586
906.857	7544
906.974	7620
907.091	7712
907.208	7742
907.324	7628
907.441	7609
907.557	7480
907.674	7468
907.79	7403
907.907	7400
908.023	7381
908.139	7457
908.256	7438
908.372	7392
908.488	7400
908.604	7316
908.72	7255
908.836	7259
908.952	7255
909.068	7198
909.184	7308
909.3	7278
909.415	7251
909.531	7274
909.647	7164
909.762	7141
909.878	7149
909.993	7076
910.108	7069
910.224	7137
910.339	7122
910.454	7076
910.57	7050
910.685	6996
910.8	7129
910.915	7126
911.03	7088
911.145	6943
911.259	6863
911.374	6875
911.489	6814
911.604	6814
911.718	6760
911.833	6745
911.947	6700
912.062	6631
912.176	6730
912.291	6722
912.405	6700
912.519	6818
912.633	6810
912.748	6696
912.862	6707
912.976	6620
913.09	6486
913.204	6631
913.318	6620
913.431	6707
913.545	6681
913.659	6719
913.772	6642
913.886	6566
914	6525
914.113	6620
914.226	6631
914.34	6620
914.453	6452
914.566	6585
914.68	6498
914.793	6555
914.906	6407
915.019	6429
915.132	6372
915.245	6437
915.358	6407
915.47	6464
915.583	6498
915.696	6490
915.809	6544
915.921	6563
916.034	6391
916.146	6433
916.259	6388
916.371	6513
916.483	6448
916.595	6410
916.708	6414
916.82	6384
916.932	6422
917.044	6464
917.156	6467
917.268	6350
917.38	6369
917.491	6331
917.603	6372
917.715	6422
917.826	6414
917.938	6285
918.049	6285
918.161	6388
918.272	6479
918.384	6456
918.495	6338
918.606	6311
918.717	6239
918.828	6327
918.939	6270
919.05	6197
919.161	6300
919.272	6087
919.383	6163
919.494	6285
919.604	6407
919.715	6304
919.826	6186
919.936	6270
920.047	6353
920.157	6277
920.267	6464
920.378	6311
920.488	6270
920.598	6471
920.708	6570
920.818	6456
920.928	6502
921.038	6551
921.148	6551
921.258	6395
921.368	6384
921.477	6239
921.587	6155
921.697	6129
921.806	6190
921.916	6095
922.025	6007
922.134	5904
922.244	5878
922.353	5954
922.462	5878
922.571	5805
922.68	5707
922.789	5638
922.898	5741
923.007	5691
923.116	5752
923.224	5688
923.333	5684
923.442	5554
923.55	5558
923.659	5592
923.767	5642
923.876	5520
923.984	5649
924.092	5562
924.201	5592
924.309	5558
924.417	5596
924.525	5512
924.633	5539
924.741	6380
924.849	5360
924.956	5532
925.064	5368
925.172	5322
925.279	5349
925.387	5334
925.494	5330
925.602	5436
925.709	5353
925.816	5254
925.924	5311
926.031	5353
926.138	5296
926.245	5326
926.352	5273
926.459	5337
926.566	5296
926.673	5223
926.779	5098
926.886	5113
926.993	5048
927.099	4976
927.206	5014
927.312	4984
927.419	5006
927.525	5014
927.631	5003
927.737	4934
927.843	4839
927.95	4752
928.056	4831
928.162	4858
928.267	4881
928.373	5288
928.479	4854
928.585	4687
928.69	4744
928.796	4790
928.901	4725
929.007	4634
929.112	4694
929.218	4687
929.323	4596
929.428	4645
929.533	4664
929.638	4535
929.743	4535
929.848	4573
929.953	4512
930.058	4443
930.163	4356
930.267	4344
930.372	4440
930.477	4322
930.581	4493
930.685	4402
930.79	4265
930.894	4322
930.998	4325
931.103	4405
931.207	4109
931.311	4067
931.415	4082
931.519	3956
931.623	3926
