Data from glass_V78500241_1580.txt Node
Date: Wed Sep 01 19:25:27 CST 2021
User: usil
Spectrometer: V785-0024
Trigger mode: 0
Integration Time (sec): 4.000000E-1
Scans to average: 1
Nonlinearity correction enabled: false
Boxcar width: 0
Storing dark spectrum: false
XAxis mode: Wavelengths
Number of Pixels in Spectrum: 1024
>>>>>Begin Spectral Data<<<<<
801.071	3713
801.214	3770
801.356	3694
801.499	3747
801.641	3740
801.783	3778
801.926	3827
802.068	3838
802.211	3831
802.353	3915
802.496	3857
802.638	3899
802.78	3930
802.923	3915
803.065	3892
803.208	3854
803.35	3873
803.492	3899
803.635	3915
803.777	3838
803.919	3892
804.061	4173
804.204	3949
804.346	3991
804.488	3949
804.63	4055
804.773	3937
804.915	4010
805.057	4139
805.199	4044
805.341	4067
805.483	4093
805.626	4131
805.768	4135
805.91	4215
806.052	4219
806.194	4234
806.336	4341
806.478	4211
806.62	4135
806.762	4227
806.904	4238
807.046	4329
807.188	4215
807.33	4169
807.472	4246
807.614	4207
807.756	4276
807.898	4185
808.04	4223
808.182	4314
808.324	4295
808.465	4428
808.607	4497
808.749	4432
808.891	4478
809.033	4447
809.174	4375
809.316	4215
809.458	4230
809.6	4154
809.741	4135
809.883	4166
810.025	4215
810.166	4253
810.308	4204
810.45	4238
810.591	4249
810.733	4284
810.875	4512
811.016	4797
811.158	5124
811.299	5277
811.441	5258
811.582	5094
811.724	4729
811.865	4459
812.007	4481
812.148	4455
812.29	4428
812.431	4386
812.573	4371
812.714	4375
812.855	4451
812.997	4367
813.138	4489
813.279	4421
813.421	4424
813.562	4379
813.703	4310
813.845	4291
813.986	4257
814.127	4261
814.268	4265
814.41	4265
814.551	4238
814.692	4371
814.833	4265
814.974	4299
815.115	4367
815.256	4211
815.397	4211
815.539	4238
815.68	4192
815.821	4215
815.962	4310
816.103	4306
816.244	4253
816.385	4249
816.526	4261
816.666	4185
816.807	4090
816.948	4192
817.089	4173
817.23	4128
817.371	4040
817.512	4071
817.653	4090
817.793	4055
817.934	4002
818.075	4109
818.216	4071
818.356	4059
818.497	4021
818.638	3918
818.778	3934
818.919	3888
819.06	3869
819.2	3922
819.341	3873
819.481	3869
819.622	3911
819.762	4013
819.903	3930
820.043	3846
820.184	3857
820.324	3831
820.465	3888
820.605	3922
820.746	3873
820.886	3838
821.026	3972
821.167	3903
821.307	3934
821.447	3979
821.588	3934
821.728	3934
821.868	3956
822.008	3827
822.149	3903
822.289	3896
822.429	3785
822.569	3793
822.709	3804
822.849	3740
822.99	3724
823.13	3774
823.27	3781
823.41	3720
823.55	3713
823.69	3789
823.83	3743
823.97	3656
824.11	3603
824.25	3599
824.389	3644
824.529	3637
824.669	3614
824.809	3694
824.949	3743
825.089	3717
825.228	3705
825.368	3545
825.508	3519
825.648	3606
825.787	3625
825.927	3625
826.067	3618
826.206	3633
826.346	3785
826.485	3819
826.625	3827
826.765	3930
826.904	3831
827.044	3633
827.183	3580
827.323	3462
827.462	3488
827.601	3450
827.741	3435
827.88	3466
828.02	3340
828.159	3454
828.298	3454
828.437	3542
828.577	3428
828.716	3610
828.855	3496
828.994	3416
829.134	3344
829.273	3389
829.412	3317
829.551	3321
829.69	3382
829.829	3409
829.968	3538
830.107	3424
830.246	3424
830.385	3351
830.524	3325
830.663	3287
830.802	3230
830.941	3230
831.08	3199
831.219	3264
831.357	3275
831.496	3405
831.635	3233
831.774	3199
831.913	3169
832.051	3116
832.19	3165
832.329	3199
832.467	3142
832.606	3081
832.744	3161
832.883	3199
833.022	3188
833.16	3260
833.299	3321
833.437	3355
833.576	3370
833.714	3382
833.852	3443
833.991	3439
834.129	3481
834.267	3435
834.406	3401
834.544	3416
834.682	3424
834.821	3424
834.959	3587
835.097	3393
835.235	3526
835.373	3485
835.511	3504
835.65	3469
835.788	3454
835.926	3359
836.064	3397
836.202	3393
836.34	3553
836.478	3572
836.615	3557
836.753	3587
836.891	3667
837.029	3614
837.167	3587
837.305	3564
837.443	3545
837.58	3534
837.718	3580
837.856	3542
837.993	3519
838.131	3584
838.269	3595
838.406	3595
838.544	3633
838.681	3477
838.819	3431
838.956	3412
839.094	3420
839.231	3424
839.369	3504
839.506	3728
839.643	3629
839.781	3466
839.918	3504
840.055	3519
840.193	3530
840.33	3530
840.467	3549
840.604	3606
840.742	3789
840.879	3492
841.016	3591
841.153	3633
841.29	3743
841.427	3720
841.564	3751
841.701	3747
841.838	3675
841.975	3660
842.112	3762
842.249	3675
842.385	3614
842.522	3816
842.659	3690
842.796	3667
842.933	3720
843.069	3644
843.206	3743
843.343	3827
843.479	3781
843.616	3827
843.752	3663
843.889	3682
844.025	3819
844.162	3732
844.298	3857
844.435	3785
844.571	3762
844.708	3876
844.844	4040
844.98	4067
845.117	4017
845.253	3953
845.389	3869
845.525	3956
845.661	3979
845.798	3903
845.934	3994
846.07	3956
846.206	4032
846.342	4090
846.478	4032
846.614	3945
846.75	3937
846.886	3903
847.022	4017
847.158	3987
847.294	3998
847.429	3975
847.565	4021
847.701	4200
847.837	3903
847.972	3857
848.108	3979
848.244	3964
848.379	3804
848.515	3865
848.65	3838
848.786	3873
848.921	3880
849.057	3896
849.192	3945
849.328	3911
849.463	3899
849.598	3903
849.734	3899
849.869	3816
850.004	3770
850.14	3819
850.275	3789
850.41	3701
850.545	3759
850.68	3819
850.815	3774
850.95	3823
851.085	3945
851.22	3873
851.355	3781
851.49	3812
851.625	3800
851.76	3793
851.895	3770
852.03	3717
852.165	3789
852.299	3800
852.434	3911
852.569	3835
852.703	3850
852.838	3953
852.973	4017
853.107	3987
853.242	3880
853.376	3850
853.511	3713
853.645	3831
853.78	3937
853.914	3888
854.048	3873
854.183	3892
854.317	3953
854.451	4074
854.585	3972
854.72	3968
854.854	4040
854.988	3903
855.122	4032
855.256	3937
855.39	4006
855.524	4135
855.658	4036
855.792	4063
855.926	4135
856.06	4177
856.194	4200
856.327	4074
856.461	4158
856.595	4112
856.729	4192
856.862	4299
856.996	4272
857.13	4272
857.263	4318
857.397	4402
857.53	4295
857.664	4314
857.797	4394
857.931	4447
858.064	4360
858.197	4424
858.331	4451
858.464	4394
858.597	4325
858.731	4402
858.864	4417
858.997	4440
859.13	4462
859.263	4546
859.396	4592
859.529	4504
859.662	4565
859.795	4561
859.928	4615
860.061	4672
860.194	4729
860.327	4683
860.46	4645
860.592	4717
860.725	4755
860.858	4725
860.99	4679
861.123	4721
861.256	4664
861.388	4755
861.521	5501
861.653	4687
861.786	4729
861.918	4729
862.05	4782
862.183	4854
862.315	4927
862.447	4942
862.58	4831
862.712	4744
862.844	4782
862.976	4854
863.108	4831
863.24	5235
863.372	4809
863.504	4870
863.636	4923
863.768	4927
863.9	4946
864.032	4900
864.164	4980
864.296	5037
864.428	5132
864.559	5162
864.691	5109
864.823	5162
864.954	5132
865.086	5098
865.217	5147
865.349	5128
865.48	5181
865.612	5170
865.743	5292
865.875	5189
866.006	5185
866.137	5277
866.269	5208
866.4	5220
866.531	5246
866.662	5250
866.793	5273
866.924	5288
867.055	5353
867.186	5357
867.317	5353
867.448	5299
867.579	5353
867.71	5387
867.841	5429
867.972	5429
868.103	5448
868.233	5505
868.364	5455
868.495	5505
868.625	5630
868.756	5813
868.886	5680
869.017	5714
869.147	5844
869.278	5836
869.408	5813
869.539	5832
869.669	5885
869.799	5870
869.929	5958
870.06	5992
870.19	6182
870.32	6194
870.45	6277
870.58	6365
870.71	6391
870.84	6456
870.97	6441
871.1	6483
871.23	6620
871.36	6707
871.489	6669
871.619	6715
871.749	6791
871.879	6886
872.008	6970
872.138	6977
872.267	6996
872.397	7004
872.526	7057
872.656	7080
872.785	7213
872.915	7343
873.044	7472
873.173	7590
873.303	7567
873.432	7715
873.561	7906
873.69	7917
873.819	8092
873.948	8115
874.077	8256
874.206	8225
874.335	8423
874.464	8625
874.593	8880
874.722	8967
874.851	9131
874.979	9241
875.108	9336
875.237	9393
875.365	9477
875.494	9591
875.623	9876
875.751	9838
875.88	9953
876.008	10112
876.136	10287
876.265	10558
876.393	10694
876.521	10679
876.65	10915
876.778	10873
876.906	10953
877.034	10957
877.162	11056
877.29	11193
877.418	11303
877.546	11349
877.674	11410
877.802	11474
877.93	11520
878.058	11539
878.185	11570
878.313	11699
878.441	11756
878.568	11589
878.696	11786
878.824	11882
878.951	11961
879.079	12060
879.206	12114
879.333	12015
879.461	12011
879.588	12091
879.715	12095
879.842	12163
879.97	12098
880.097	11885
880.224	11866
880.351	11901
880.478	11904
880.605	11779
880.732	11809
880.859	12015
880.986	11760
881.112	11931
881.239	11775
881.366	11668
881.493	11592
881.619	11577
881.746	11543
881.872	11543
881.999	11516
882.125	11459
882.252	11577
882.378	11463
882.505	11539
882.631	11341
882.757	11307
882.883	11265
883.01	11250
883.136	11181
883.262	11189
883.388	11083
883.514	11227
883.64	11121
883.766	11170
883.892	10984
884.018	11037
884.143	11086
884.269	10999
884.395	10908
884.52	10748
884.646	10812
884.772	10736
884.897	10645
885.023	10664
885.148	10752
885.274	10805
885.399	10683
885.524	10645
885.65	10592
885.775	10558
885.9	10634
886.025	10626
886.15	10561
886.275	10409
886.4	10363
886.525	10363
886.65	10367
886.775	10299
886.9	10462
887.025	10554
887.149	10363
887.274	10173
887.399	10128
887.523	10158
887.648	10234
887.773	10169
887.897	10230
888.021	10265
888.146	10128
888.27	10211
888.395	10310
888.519	10143
888.643	10150
888.767	10196
888.891	9994
889.015	10048
889.139	10071
889.263	9998
889.387	10105
889.511	10101
889.635	10055
889.759	9934
889.883	9991
890.006	10051
890.13	10128
890.254	9968
890.377	9983
890.501	9911
890.624	9865
890.748	9899
890.871	9816
890.995	9785
891.118	9652
891.241	9789
891.364	9701
891.488	9831
891.611	9755
891.734	9732
891.857	9740
891.98	9686
892.103	9816
892.226	9709
892.349	9667
892.471	9507
892.594	9545
892.717	9561
892.839	9629
892.962	9720
893.085	9660
893.207	9564
893.33	9488
893.452	9534
893.575	9618
893.697	9420
893.819	9587
893.941	9614
894.064	9591
894.186	9466
894.308	9382
894.43	9466
894.552	9519
894.674	9477
894.796	9348
894.918	9462
895.04	9367
895.161	9336
895.283	9397
895.405	9253
895.526	9272
895.648	9188
895.769	9291
895.891	9279
896.012	9272
896.134	9260
896.255	9150
896.376	9089
896.498	9161
896.619	9161
896.74	9093
896.861	9146
896.982	9241
897.103	9291
897.224	9135
897.345	9066
897.466	9043
897.587	9051
897.708	9074
897.828	9020
897.949	8982
898.07	8910
898.19	8910
898.311	8975
898.431	8918
898.552	8902
898.672	8979
898.792	8971
898.913	9017
899.033	8845
899.153	8807
899.273	8640
899.393	8655
899.513	8674
899.633	8693
899.753	8792
899.873	8686
899.993	8777
900.113	8667
900.232	8746
900.352	8769
900.472	8621
900.591	8545
900.711	8590
900.83	8564
900.95	8617
901.069	8663
901.189	8533
901.308	8377
901.427	8362
901.546	8438
901.665	8450
901.784	8499
901.904	8377
902.023	8282
902.141	8240
902.26	8145
902.379	8210
902.498	8206
902.617	8180
902.735	8267
902.854	8233
902.973	8240
903.091	8111
903.21	8126
903.328	8138
903.446	8142
903.565	8115
903.683	8031
903.801	8058
903.919	8103
904.038	8115
904.156	8062
904.274	8062
904.392	7989
904.51	8012
904.627	8077
904.745	8043
904.863	8065
904.981	7917
905.098	7898
905.216	7932
905.334	7883
905.451	7887
905.569	7909
905.686	7921
905.803	7917
905.921	7761
906.038	7864
906.155	7826
906.272	7670
906.389	7700
906.506	7624
906.623	7704
906.74	7624
906.857	7521
906.974	7567
907.091	7662
907.208	7719
907.324	7662
907.441	7578
907.557	7476
907.674	7388
907.79	7441
907.907	7422
908.023	7453
908.139	7445
908.256	7369
908.372	7335
908.488	7346
908.604	7312
908.72	7179
908.836	7278
908.952	7255
909.068	7259
909.184	7362
909.3	7316
909.415	7312
909.531	7305
909.647	7095
909.762	7091
909.878	7050
909.993	7126
910.108	7110
910.224	7012
910.339	7103
910.454	7065
910.57	6947
910.685	6894
910.8	7171
910.915	7122
911.03	7046
911.145	6897
911.259	6840
911.374	6894
911.489	6837
911.604	6791
911.718	6760
911.833	6703
911.947	6673
912.062	6681
912.176	6673
912.291	6753
912.405	6719
912.519	6795
912.633	6840
912.748	6726
912.862	6658
912.976	6642
913.09	6551
913.204	6631
913.318	6616
913.431	6639
913.545	6669
913.659	6772
913.772	6597
913.886	6563
914	6604
914.113	6642
914.226	6620
914.34	6540
914.453	6536
914.566	6604
914.68	6525
914.793	6521
914.906	6418
915.019	6353
915.132	6433
915.245	6437
915.358	6460
915.47	6506
915.583	6452
915.696	6513
915.809	6566
915.921	6521
916.034	6433
916.146	6407
916.259	6369
916.371	6429
916.483	6380
916.595	6384
916.708	6395
916.82	6380
916.932	6426
917.044	6437
917.156	6429
917.268	6338
917.38	6338
917.491	6380
917.603	6357
917.715	6418
917.826	6422
917.938	6357
918.049	6232
918.161	6357
918.272	6388
918.384	6437
918.495	6369
918.606	6235
918.717	6197
918.828	6243
918.939	6258
919.05	6209
919.161	6289
919.272	6163
919.383	6159
919.494	6289
919.604	6494
919.715	6311
919.826	6224
919.936	6262
920.047	6365
920.157	6262
920.267	6471
920.378	6308
920.488	6285
920.598	6460
920.708	6604
920.818	6460
920.928	6517
921.038	6623
921.148	6601
921.258	6300
921.368	6323
921.477	6178
921.587	6171
921.697	6087
921.806	6201
921.916	6098
922.025	5927
922.134	5923
922.244	5885
922.353	5996
922.462	5863
922.571	5821
922.68	5729
922.789	5699
922.898	5741
923.007	5558
923.116	5676
923.224	5634
923.333	5699
923.442	5611
923.55	5585
923.659	5596
923.767	5672
923.876	5520
923.984	5642
924.092	5520
924.201	5543
924.309	5551
924.417	5554
924.525	5497
924.633	5467
924.741	6087
924.849	5360
924.956	5459
925.064	5376
925.172	5261
925.279	5273
925.387	5341
925.494	5284
925.602	5414
925.709	5406
925.816	5280
925.924	5292
926.031	5353
926.138	5330
926.245	5372
926.352	5265
926.459	5315
926.566	5372
926.673	5220
926.779	5143
926.886	5094
926.993	5025
927.099	4984
927.206	4976
927.312	4946
927.419	4980
927.525	4965
927.631	4991
927.737	4843
927.843	4854
927.95	4752
928.056	4797
928.162	4828
928.267	4862
928.373	5364
928.479	4812
928.585	4668
928.69	4778
928.796	4721
928.901	4660
929.007	4603
929.112	4683
929.218	4660
929.323	4592
929.428	4611
929.533	4721
929.638	4527
929.743	4531
929.848	4554
929.953	4504
930.058	4455
930.163	4375
930.267	4375
930.372	4451
930.477	4322
930.581	4489
930.685	4443
930.79	4295
930.894	4299
930.998	4223
931.103	4413
931.207	4147
931.311	4040
931.415	4055
931.519	3953
931.623	3930
