Data from glass_V78500241_1761.txt Node
Date: Wed Sep 01 19:26:42 CST 2021
User: usil
Spectrometer: V785-0024
Trigger mode: 0
Integration Time (sec): 4.000000E-1
Scans to average: 1
Nonlinearity correction enabled: false
Boxcar width: 0
Storing dark spectrum: false
XAxis mode: Wavelengths
Number of Pixels in Spectrum: 1024
>>>>>Begin Spectral Data<<<<<
801.071	3740
801.214	3736
801.356	3743
801.499	3762
801.641	3762
801.783	3781
801.926	3850
802.068	3854
802.211	3865
802.353	3861
802.496	3823
802.638	3846
802.78	3918
802.923	3930
803.065	3911
803.208	3812
803.35	3846
803.492	3941
803.635	3960
803.777	3808
803.919	3876
804.061	4154
804.204	3937
804.346	3960
804.488	3926
804.63	4040
804.773	4029
804.915	3994
805.057	4147
805.199	4032
805.341	4059
805.483	4109
805.626	4059
805.768	4116
805.91	4177
806.052	4227
806.194	4219
806.336	4356
806.478	4246
806.62	4162
806.762	4173
806.904	4238
807.046	4272
807.188	4188
807.33	4162
807.472	4249
807.614	4166
807.756	4299
807.898	4181
808.04	4169
808.182	4295
808.324	4306
808.465	4333
808.607	4428
808.749	4413
808.891	4405
809.033	4485
809.174	4367
809.316	4299
809.458	4238
809.6	4158
809.741	4204
809.883	4150
810.025	4196
810.166	4158
810.308	4169
810.45	4238
810.591	4242
810.733	4325
810.875	4538
811.016	4809
811.158	5166
811.299	5288
811.441	5288
811.582	5045
811.724	4694
811.865	4489
812.007	4436
812.148	4413
812.29	4428
812.431	4405
812.573	4341
812.714	4371
812.855	4394
812.997	4424
813.138	4474
813.279	4417
813.421	4421
813.562	4402
813.703	4299
813.845	4310
813.986	4223
814.127	4185
814.268	4268
814.41	4272
814.551	4253
814.692	4310
814.833	4246
814.974	4261
815.115	4363
815.256	4242
815.397	4196
815.539	4268
815.68	4188
815.821	4261
815.962	4325
816.103	4272
816.244	4223
816.385	4215
816.526	4238
816.666	4207
816.807	4158
816.948	4211
817.089	4173
817.23	4093
817.371	4025
817.512	4040
817.653	4074
817.793	4051
817.934	4063
818.075	4105
818.216	4078
818.356	4093
818.497	4032
818.638	3892
818.778	3911
818.919	3907
819.06	3869
819.2	3987
819.341	3873
819.481	3854
819.622	3922
819.762	4029
819.903	3930
820.043	3846
820.184	3850
820.324	3850
820.465	3896
820.605	3831
820.746	3816
820.886	3785
821.026	3937
821.167	3926
821.307	3968
821.447	3987
821.588	3960
821.728	3934
821.868	3945
822.008	3835
822.149	3896
822.289	3922
822.429	3808
822.569	3759
822.709	3785
822.849	3698
822.99	3724
823.13	3728
823.27	3770
823.41	3713
823.55	3747
823.69	3717
823.83	3740
823.97	3736
824.11	3568
824.25	3587
824.389	3610
824.529	3675
824.669	3663
824.809	3736
824.949	3751
825.089	3759
825.228	3656
825.368	3584
825.508	3576
825.648	3568
825.787	3629
825.927	3663
826.067	3629
826.206	3660
826.346	3774
826.485	3816
826.625	3880
826.765	3892
826.904	3835
827.044	3603
827.183	3542
827.323	3393
827.462	3473
827.601	3450
827.741	3389
827.88	3447
828.02	3370
828.159	3462
828.298	3431
828.437	3526
828.577	3443
828.716	3557
828.855	3477
828.994	3389
829.134	3367
829.273	3416
829.412	3374
829.551	3363
829.69	3386
829.829	3435
829.968	3500
830.107	3477
830.246	3439
830.385	3344
830.524	3329
830.663	3306
830.802	3230
830.941	3192
831.08	3169
831.219	3291
831.357	3237
831.496	3401
831.635	3256
831.774	3188
831.913	3222
832.051	3127
832.19	3142
832.329	3237
832.467	3138
832.606	3108
832.744	3161
832.883	3203
833.022	3214
833.16	3245
833.299	3340
833.437	3306
833.576	3359
833.714	3439
833.852	3431
833.991	3447
834.129	3454
834.267	3469
834.406	3370
834.544	3469
834.682	3443
834.821	3409
834.959	3576
835.097	3416
835.235	3507
835.373	3450
835.511	3507
835.65	3466
835.788	3462
835.926	3412
836.064	3389
836.202	3355
836.34	3542
836.478	3641
836.615	3538
836.753	3553
836.891	3660
837.029	3587
837.167	3580
837.305	3511
837.443	3576
837.58	3523
837.718	3603
837.856	3500
837.993	3519
838.131	3625
838.269	3622
838.406	3561
838.544	3584
838.681	3412
838.819	3439
838.956	3367
839.094	3363
839.231	3477
839.369	3511
839.506	3755
839.643	3641
839.781	3477
839.918	3485
840.055	3507
840.193	3526
840.33	3542
840.467	3515
840.604	3610
840.742	3800
840.879	3500
841.016	3595
841.153	3606
841.29	3732
841.427	3728
841.564	3701
841.701	3724
841.838	3717
841.975	3663
842.112	3705
842.249	3641
842.385	3606
842.522	3819
842.659	3755
842.796	3698
842.933	3679
843.069	3694
843.206	3709
843.343	3831
843.479	3781
843.616	3819
843.752	3660
843.889	3679
844.025	3842
844.162	3740
844.298	3846
844.435	3804
844.571	3804
844.708	3896
844.844	3983
844.98	4017
845.117	4036
845.253	3949
845.389	3903
845.525	3960
845.661	3945
845.798	3960
845.934	3998
846.07	4017
846.206	4051
846.342	4048
846.478	4021
846.614	3983
846.75	3922
846.886	3915
847.022	4044
847.158	3956
847.294	4032
847.429	3994
847.565	3994
847.701	4238
847.837	3880
847.972	3854
848.108	4010
848.244	3949
848.379	3835
848.515	3816
848.65	3827
848.786	3850
848.921	3907
849.057	3888
849.192	3945
849.328	3876
849.463	3888
849.598	3876
849.734	3835
849.869	3857
850.004	3823
850.14	3819
850.275	3751
850.41	3709
850.545	3762
850.68	3789
850.815	3770
850.95	3762
851.085	3930
851.22	3892
851.355	3835
851.49	3831
851.625	3793
851.76	3797
851.895	3736
852.03	3740
852.165	3800
852.299	3831
852.434	3922
852.569	3857
852.703	3846
852.838	3907
852.973	3991
853.107	3953
853.242	3907
853.376	3865
853.511	3789
853.645	3838
853.78	3972
853.914	3896
854.048	3907
854.183	3918
854.317	3876
854.451	4082
854.585	3964
854.72	3941
854.854	4071
854.988	3991
855.122	4002
855.256	3941
855.39	4013
855.524	4055
855.658	4059
855.792	4109
855.926	4131
856.06	4169
856.194	4207
856.327	4162
856.461	4032
856.595	4124
856.729	4158
856.862	4261
856.996	4242
857.13	4322
857.263	4276
857.397	4306
857.53	4265
857.664	4352
857.797	4428
857.931	4443
858.064	4390
858.197	4440
858.331	4405
858.464	4386
858.597	4360
858.731	4466
858.864	4489
858.997	4500
859.13	4470
859.263	4531
859.396	4588
859.529	4550
859.662	4504
859.795	4512
859.928	4577
860.061	4679
860.194	4763
860.327	4694
860.46	4656
860.592	4679
860.725	4736
860.858	4812
860.99	4664
861.123	4672
861.256	4714
861.388	4782
861.521	5398
861.653	4725
861.786	4710
861.918	4793
862.05	4820
862.183	4866
862.315	4858
862.447	4938
862.58	4862
862.712	4816
862.844	4755
862.976	4873
863.108	4873
863.24	5239
863.372	4850
863.504	4911
863.636	4908
863.768	4984
863.9	4919
864.032	4953
864.164	4980
864.296	5022
864.428	5083
864.559	5060
864.691	5090
864.823	5155
864.954	5121
865.086	5181
865.217	5162
865.349	5102
865.48	5128
865.612	5246
865.743	5258
865.875	5189
866.006	5178
866.137	5201
866.269	5227
866.4	5208
866.531	5250
866.662	5193
866.793	5292
866.924	5288
867.055	5345
867.186	5315
867.317	5330
867.448	5303
867.579	5364
867.71	5364
867.841	5391
867.972	5429
868.103	5478
868.233	5448
868.364	5524
868.495	5573
868.625	5611
868.756	5771
868.886	5627
869.017	5688
869.147	5828
869.278	5805
869.408	5844
869.539	5783
869.669	5923
869.799	5920
869.929	5988
870.06	6068
870.19	6152
870.32	6152
870.45	6315
870.58	6338
870.71	6452
870.84	6475
870.97	6410
871.1	6395
871.23	6646
871.36	6741
871.489	6658
871.619	6688
871.749	6753
871.879	6852
872.008	6981
872.138	6985
872.267	6958
872.397	6962
872.526	7012
872.656	7042
872.785	7183
872.915	7369
873.044	7472
873.173	7544
873.303	7662
873.432	7769
873.561	7887
873.69	7955
873.819	7970
873.948	8183
874.077	8259
874.206	8370
874.335	8484
874.464	8667
874.593	8823
874.722	8963
874.851	9138
874.979	9260
875.108	9348
875.237	9367
875.365	9477
875.494	9637
875.623	9762
875.751	9766
875.88	10006
876.008	10147
876.136	10196
876.265	10550
876.393	10729
876.521	10717
876.65	10889
876.778	10923
876.906	10949
877.034	10946
877.162	11105
877.29	11151
877.418	11299
877.546	11414
877.674	11425
877.802	11448
877.93	11512
878.058	11512
878.185	11482
878.313	11653
878.441	11764
878.568	11646
878.696	11836
878.824	11794
878.951	11954
879.079	11980
879.206	12106
879.333	12030
879.461	11988
879.588	12136
879.715	12049
879.842	12258
879.97	12041
880.097	11893
880.224	11836
880.351	11897
880.478	11885
880.605	11878
880.732	11794
880.859	11980
880.986	11771
881.112	11920
881.239	11714
881.366	11695
881.493	11623
881.619	11585
881.746	11570
881.872	11524
881.999	11497
882.125	11395
882.252	11509
882.378	11528
882.505	11505
882.631	11433
882.757	11311
882.883	11269
883.01	11299
883.136	11098
883.262	11117
883.388	11056
883.514	11166
883.64	11151
883.766	11071
883.892	10934
884.018	11052
884.143	11083
884.269	10999
884.395	10847
884.52	10820
884.646	10759
884.772	10683
884.897	10630
885.023	10649
885.148	10725
885.274	10782
885.399	10679
885.524	10618
885.65	10603
885.775	10637
885.9	10573
886.025	10588
886.15	10531
886.275	10512
886.4	10421
886.525	10428
886.65	10402
886.775	10253
886.9	10489
887.025	10542
887.149	10291
887.274	10238
887.399	10177
887.523	10177
887.648	10059
887.773	10051
887.897	10230
888.021	10162
888.146	10150
888.27	10219
888.395	10147
888.519	10177
888.643	10204
888.767	10211
888.891	10048
889.015	10029
889.139	10006
889.263	9983
889.387	10044
889.511	10158
889.635	10131
889.759	9975
889.883	9922
890.006	9972
890.13	10150
890.254	9964
890.377	9987
890.501	9899
890.624	9876
890.748	9778
890.871	9804
890.995	9743
891.118	9728
891.241	9759
891.364	9736
891.488	9861
891.611	9686
891.734	9694
891.857	9732
891.98	9671
892.103	9770
892.226	9675
892.349	9652
892.471	9507
892.594	9618
892.717	9622
892.839	9584
892.962	9694
893.085	9663
893.207	9526
893.33	9534
893.452	9500
893.575	9606
893.697	9515
893.819	9675
893.941	9633
894.064	9667
894.186	9477
894.308	9424
894.43	9519
894.552	9584
894.674	9515
894.796	9268
894.918	9325
895.04	9359
895.161	9374
895.283	9332
895.405	9275
895.526	9226
895.648	9233
895.769	9272
895.891	9211
896.012	9340
896.134	9207
896.255	9146
896.376	9119
896.498	9142
896.619	9214
896.74	9062
896.861	9058
896.982	9211
897.103	9302
897.224	9199
897.345	8982
897.466	9089
897.587	9055
897.708	9055
897.828	9013
897.949	8899
898.07	8880
898.19	8845
898.311	9009
898.431	8868
898.552	8906
898.672	8982
898.792	8925
898.913	8929
899.033	8807
899.153	8663
899.273	8708
899.393	8682
899.513	8727
899.633	8708
899.753	8735
899.873	8766
899.993	8724
900.113	8735
900.232	8682
900.352	8686
900.472	8613
900.591	8549
900.711	8644
900.83	8530
900.95	8716
901.069	8655
901.189	8575
901.308	8450
901.427	8358
901.546	8461
901.665	8446
901.784	8469
901.904	8446
902.023	8347
902.141	8161
902.26	8233
902.379	8221
902.498	8218
902.617	8172
902.735	8248
902.854	8358
902.973	8298
903.091	8123
903.21	8142
903.328	8145
903.446	8210
903.565	8096
903.683	8119
903.801	8062
903.919	8172
904.038	8149
904.156	8065
904.274	8107
904.392	7986
904.51	8062
904.627	8103
904.745	8111
904.863	8119
904.981	7906
905.098	7868
905.216	7913
905.334	7868
905.451	7860
905.569	7830
905.686	8001
905.803	7860
905.921	7784
906.038	7921
906.155	7860
906.272	7727
906.389	7734
906.506	7681
906.623	7636
906.74	7586
906.857	7597
906.974	7590
907.091	7624
907.208	7712
907.324	7582
907.441	7559
907.557	7468
907.674	7369
907.79	7400
907.907	7434
908.023	7449
908.139	7392
908.256	7407
908.372	7350
908.488	7339
908.604	7312
908.72	7259
908.836	7255
908.952	7244
909.068	7274
909.184	7305
909.3	7251
909.415	7263
909.531	7285
909.647	7099
909.762	7107
909.878	7061
909.993	7171
910.108	7076
910.224	7122
910.339	7118
910.454	7057
910.57	7088
910.685	6939
910.8	7126
910.915	7129
911.03	7046
911.145	6901
911.259	6871
911.374	6886
911.489	6821
911.604	6787
911.718	6749
911.833	6772
911.947	6631
912.062	6574
912.176	6692
912.291	6707
912.405	6711
912.519	6844
912.633	6833
912.748	6696
912.862	6658
912.976	6616
913.09	6467
913.204	6639
913.318	6635
913.431	6696
913.545	6673
913.659	6707
913.772	6620
913.886	6623
914	6601
914.113	6646
914.226	6616
914.34	6559
914.453	6502
914.566	6631
914.68	6544
914.793	6544
914.906	6399
915.019	6445
915.132	6357
915.245	6403
915.358	6486
915.47	6494
915.583	6494
915.696	6448
915.809	6544
915.921	6528
916.034	6422
916.146	6365
916.259	6399
916.371	6460
916.483	6441
916.595	6388
916.708	6448
916.82	6380
916.932	6365
917.044	6388
917.156	6403
917.268	6285
917.38	6346
917.491	6319
917.603	6319
917.715	6399
917.826	6426
917.938	6319
918.049	6270
918.161	6315
918.272	6422
918.384	6441
918.495	6357
918.606	6224
918.717	6232
918.828	6281
918.939	6273
919.05	6148
919.161	6270
919.272	6133
919.383	6098
919.494	6304
919.604	6365
919.715	6308
919.826	6224
919.936	6232
920.047	6346
920.157	6277
920.267	6414
920.378	6308
920.488	6277
920.598	6441
920.708	6555
920.818	6486
920.928	6464
921.038	6601
921.148	6620
921.258	6372
921.368	6323
921.477	6190
921.587	6178
921.697	6102
921.806	6144
921.916	6076
922.025	5882
922.134	5889
922.244	5855
922.353	5935
922.462	5855
922.571	5786
922.68	5722
922.789	5695
922.898	5714
923.007	5646
923.116	5790
923.224	5661
923.333	5668
923.442	5627
923.55	5554
923.659	5619
923.767	5619
923.876	5524
923.984	5596
924.092	5547
924.201	5581
924.309	5516
924.417	5581
924.525	5467
924.633	5444
924.741	6296
924.849	5376
924.956	5501
925.064	5353
925.172	5292
925.279	5326
925.387	5372
925.494	5296
925.602	5406
925.709	5387
925.816	5315
925.924	5288
926.031	5334
926.138	5269
926.245	5334
926.352	5201
926.459	5311
926.566	5326
926.673	5235
926.779	5159
926.886	5071
926.993	5037
927.099	5037
927.206	4972
927.312	4927
927.419	5052
927.525	5003
927.631	4987
927.737	4854
927.843	4858
927.95	4755
928.056	4862
928.162	4862
928.267	4877
928.373	5379
928.479	4828
928.585	4664
928.69	4767
928.796	4748
928.901	4706
929.007	4573
929.112	4664
929.218	4615
929.323	4603
929.428	4569
929.533	4679
929.638	4538
929.743	4519
929.848	4558
929.953	4561
930.058	4455
930.163	4341
930.267	4337
930.372	4436
930.477	4291
930.581	4493
930.685	4310
930.79	4295
930.894	4287
930.998	4265
931.103	4417
931.207	4162
931.311	4105
931.415	4055
931.519	3972
931.623	3953
