Data from glass_V78500241_616.txt Node
Date: Wed Sep 01 19:18:46 CST 2021
User: usil
Spectrometer: V785-0024
Trigger mode: 0
Integration Time (sec): 4.000000E-1
Scans to average: 1
Nonlinearity correction enabled: false
Boxcar width: 0
Storing dark spectrum: false
XAxis mode: Wavelengths
Number of Pixels in Spectrum: 1024
>>>>>Begin Spectral Data<<<<<
801.071	3755
801.214	3766
801.356	3720
801.499	3770
801.641	3778
801.783	3751
801.926	3953
802.068	3842
802.211	3861
802.353	3892
802.496	3846
802.638	3869
802.78	3956
802.923	3964
803.065	3907
803.208	3873
803.35	3865
803.492	3880
803.635	3945
803.777	3861
803.919	3880
804.061	4223
804.204	4002
804.346	3926
804.488	3937
804.63	4025
804.773	3956
804.915	4051
805.057	4135
805.199	4063
805.341	4109
805.483	4166
805.626	4185
805.768	4105
805.91	4246
806.052	4261
806.194	4230
806.336	4367
806.478	4192
806.62	4192
806.762	4173
806.904	4253
807.046	4329
807.188	4177
807.33	4181
807.472	4238
807.614	4207
807.756	4223
807.898	4234
808.04	4238
808.182	4249
808.324	4310
808.465	4352
808.607	4481
808.749	4493
808.891	4447
809.033	4462
809.174	4424
809.316	4303
809.458	4295
809.6	4154
809.741	4185
809.883	4158
810.025	4215
810.166	4230
810.308	4238
810.45	4204
810.591	4299
810.733	4284
810.875	4531
811.016	4812
811.158	5136
811.299	5284
811.441	5330
811.582	5033
811.724	4706
811.865	4497
812.007	4481
812.148	4447
812.29	4409
812.431	4421
812.573	4405
812.714	4383
812.855	4451
812.997	4405
813.138	4474
813.279	4443
813.421	4398
813.562	4363
813.703	4367
813.845	4299
813.986	4284
814.127	4211
814.268	4261
814.41	4276
814.551	4303
814.692	4325
814.833	4299
814.974	4310
815.115	4329
815.256	4265
815.397	4257
815.539	4234
815.68	4230
815.821	4284
815.962	4303
816.103	4276
816.244	4249
816.385	4227
816.526	4234
816.666	4234
816.807	4074
816.948	4230
817.089	4181
817.23	4150
817.371	4071
817.512	4074
817.653	4101
817.793	4067
817.934	4067
818.075	4097
818.216	4059
818.356	4131
818.497	3979
818.638	3903
818.778	3937
818.919	3960
819.06	3873
819.2	3941
819.341	3846
819.481	3850
819.622	3915
819.762	4017
819.903	3918
820.043	3876
820.184	3793
820.324	3873
820.465	3911
820.605	3884
820.746	3865
820.886	3823
821.026	3930
821.167	3907
821.307	3987
821.447	4010
821.588	3975
821.728	3945
821.868	3945
822.008	3896
822.149	3964
822.289	3911
822.429	3819
822.569	3838
822.709	3835
822.849	3667
822.99	3762
823.13	3800
823.27	3770
823.41	3751
823.55	3747
823.69	3713
823.83	3762
823.97	3686
824.11	3633
824.25	3584
824.389	3694
824.529	3663
824.669	3671
824.809	3717
824.949	3785
825.089	3759
825.228	3778
825.368	3584
825.508	3561
825.648	3557
825.787	3603
825.927	3663
826.067	3652
826.206	3641
826.346	3797
826.485	3846
826.625	3869
826.765	3934
826.904	3850
827.044	3614
827.183	3515
827.323	3450
827.462	3492
827.601	3466
827.741	3469
827.88	3439
828.02	3367
828.159	3473
828.298	3488
828.437	3614
828.577	3473
828.716	3599
828.855	3523
828.994	3386
829.134	3374
829.273	3386
829.412	3367
829.551	3336
829.69	3359
829.829	3443
829.968	3519
830.107	3485
830.246	3447
830.385	3393
830.524	3336
830.663	3287
830.802	3249
830.941	3218
831.08	3199
831.219	3291
831.357	3253
831.496	3439
831.635	3199
831.774	3230
831.913	3226
832.051	3127
832.19	3161
832.329	3211
832.467	3146
832.606	3104
832.744	3165
832.883	3218
833.022	3199
833.16	3294
833.299	3317
833.437	3363
833.576	3382
833.714	3424
833.852	3447
833.991	3439
834.129	3466
834.267	3416
834.406	3435
834.544	3439
834.682	3447
834.821	3412
834.959	3553
835.097	3424
835.235	3572
835.373	3515
835.511	3526
835.65	3435
835.788	3526
835.926	3367
836.064	3363
836.202	3397
836.34	3595
836.478	3637
836.615	3572
836.753	3633
836.891	3652
837.029	3618
837.167	3603
837.305	3568
837.443	3538
837.58	3523
837.718	3549
837.856	3564
837.993	3545
838.131	3599
838.269	3595
838.406	3610
838.544	3580
838.681	3462
838.819	3507
838.956	3409
839.094	3409
839.231	3462
839.369	3545
839.506	3736
839.643	3637
839.781	3504
839.918	3447
840.055	3515
840.193	3511
840.33	3584
840.467	3587
840.604	3580
840.742	3819
840.879	3584
841.016	3587
841.153	3625
841.29	3751
841.427	3759
841.564	3705
841.701	3766
841.838	3686
841.975	3660
842.112	3740
842.249	3629
842.385	3648
842.522	3804
842.659	3713
842.796	3682
842.933	3709
843.069	3724
843.206	3736
843.343	3869
843.479	3797
843.616	3804
843.752	3701
843.889	3717
844.025	3865
844.162	3720
844.298	3861
844.435	3835
844.571	3755
844.708	3911
844.844	4048
844.98	4010
845.117	4029
845.253	3941
845.389	3918
845.525	3975
845.661	3956
845.798	3960
845.934	4021
846.07	3987
846.206	4105
846.342	4188
846.478	4086
846.614	3983
846.75	3941
846.886	3907
847.022	4078
847.158	4032
847.294	4032
847.429	4097
847.565	4021
847.701	4227
847.837	3892
847.972	3892
848.108	3987
848.244	3945
848.379	3892
848.515	3846
848.65	3865
848.786	3888
848.921	3857
849.057	3911
849.192	3960
849.328	3880
849.463	3953
849.598	3903
849.734	3888
849.869	3876
850.004	3823
850.14	3804
850.275	3808
850.41	3740
850.545	3709
850.68	3854
850.815	3823
850.95	3846
851.085	3915
851.22	3899
851.355	3835
851.49	3797
851.625	3789
851.76	3812
851.895	3747
852.03	3766
852.165	3838
852.299	3896
852.434	3915
852.569	3880
852.703	3911
852.838	3975
852.973	3994
853.107	4021
853.242	3922
853.376	3876
853.511	3793
853.645	3869
853.78	4013
853.914	3907
854.048	3896
854.183	3865
854.317	3960
854.451	4059
854.585	3975
854.72	4002
854.854	4063
854.988	4029
855.122	4036
855.256	3960
855.39	4006
855.524	4143
855.658	4101
855.792	4112
855.926	4158
856.06	4124
856.194	4192
856.327	4154
856.461	4112
856.595	4116
856.729	4143
856.862	4299
856.996	4204
857.13	4295
857.263	4352
857.397	4363
857.53	4284
857.664	4390
857.797	4398
857.931	4459
858.064	4421
858.197	4500
858.331	4421
858.464	4379
858.597	4348
858.731	4424
858.864	4474
858.997	4451
859.13	4512
859.263	4493
859.396	4599
859.529	4497
859.662	4516
859.795	4535
859.928	4622
860.061	4702
860.194	4786
860.327	4694
860.46	4618
860.592	4725
860.725	4755
860.858	4809
860.99	4736
861.123	4717
861.256	4710
861.388	4805
861.521	5391
861.653	4759
861.786	4710
861.918	4725
862.05	4805
862.183	4873
862.315	4870
862.447	4908
862.58	4930
862.712	4801
862.844	4801
862.976	4889
863.108	4870
863.24	5162
863.372	4824
863.504	4908
863.636	4885
863.768	4953
863.9	4949
864.032	4946
864.164	4961
864.296	5037
864.428	5079
864.559	5132
864.691	5094
864.823	5105
864.954	5105
865.086	5159
865.217	5102
865.349	5132
865.48	5128
865.612	5181
865.743	5326
865.875	5189
866.006	5220
866.137	5261
866.269	5212
866.4	5235
866.531	5242
866.662	5220
866.793	5242
866.924	5284
867.055	5364
867.186	5311
867.317	5345
867.448	5273
867.579	5372
867.71	5357
867.841	5425
867.972	5486
868.103	5482
868.233	5459
868.364	5524
868.495	5592
868.625	5703
868.756	5813
868.886	5661
869.017	5733
869.147	5851
869.278	5916
869.408	5824
869.539	5855
869.669	5904
869.799	5935
869.929	5942
870.06	6003
870.19	6167
870.32	6186
870.45	6247
870.58	6380
870.71	6464
870.84	6517
870.97	6502
871.1	6502
871.23	6700
871.36	6669
871.489	6616
871.619	6779
871.749	6772
871.879	6848
872.008	6996
872.138	6951
872.267	7004
872.397	6989
872.526	7076
872.656	7088
872.785	7202
872.915	7407
873.044	7518
873.173	7552
873.303	7643
873.432	7734
873.561	7860
873.69	7883
873.819	7974
873.948	8145
874.077	8229
874.206	8313
874.335	8396
874.464	8674
874.593	8880
874.722	8925
874.851	9142
874.979	9249
875.108	9386
875.237	9447
875.365	9416
875.494	9622
875.623	9804
875.751	9854
875.88	10048
876.008	10162
876.136	10318
876.265	10531
876.393	10793
876.521	10714
876.65	10809
876.778	10839
876.906	10908
877.034	11025
877.162	11022
877.29	11162
877.418	11284
877.546	11391
877.674	11482
877.802	11490
877.93	11547
878.058	11512
878.185	11528
878.313	11684
878.441	11775
878.568	11786
878.696	11859
878.824	11897
878.951	12007
879.079	12049
879.206	12140
879.333	12144
879.461	12041
879.588	12060
879.715	12068
879.842	12243
879.97	12155
880.097	11916
880.224	11916
880.351	11958
880.478	11893
880.605	11794
880.732	11836
880.859	11973
880.986	11764
881.112	11813
881.239	11764
881.366	11653
881.493	11646
881.619	11577
881.746	11490
881.872	11589
881.999	11524
882.125	11505
882.252	11486
882.378	11539
882.505	11558
882.631	11379
882.757	11261
882.883	11421
883.01	11212
883.136	11132
883.262	11117
883.388	11147
883.514	11250
883.64	11212
883.766	11121
883.892	11067
884.018	11003
884.143	11098
884.269	11064
884.395	10831
884.52	10763
884.646	10748
884.772	10656
884.897	10672
885.023	10668
885.148	10698
885.274	10763
885.399	10630
885.524	10672
885.65	10611
885.775	10645
885.9	10569
886.025	10611
886.15	10500
886.275	10478
886.4	10402
886.525	10402
886.65	10398
886.775	10337
886.9	10493
887.025	10516
887.149	10424
887.274	10356
887.399	10181
887.523	10147
887.648	10215
887.773	10112
887.897	10295
888.021	10291
888.146	10082
888.27	10215
888.395	10219
888.519	10158
888.643	10177
888.767	10249
888.891	10074
889.015	9960
889.139	10055
889.263	9975
889.387	10074
889.511	10169
889.635	10063
889.759	9956
889.883	10017
890.006	10036
890.13	10154
890.254	9972
890.377	9968
890.501	9861
890.624	9907
890.748	9899
890.871	9800
890.995	9675
891.118	9759
891.241	9831
891.364	9709
891.488	9816
891.611	9785
891.734	9724
891.857	9759
891.98	9728
892.103	9724
892.226	9766
892.349	9675
892.471	9614
892.594	9599
892.717	9641
892.839	9637
892.962	9679
893.085	9686
893.207	9652
893.33	9568
893.452	9526
893.575	9564
893.697	9511
893.819	9629
893.941	9618
894.064	9591
894.186	9485
894.308	9382
894.43	9557
894.552	9564
894.674	9511
894.796	9355
894.918	9424
895.04	9393
895.161	9435
895.283	9348
895.405	9268
895.526	9264
895.648	9264
895.769	9329
895.891	9195
896.012	9260
896.134	9272
896.255	9154
896.376	9138
896.498	9184
896.619	9173
896.74	9043
896.861	9093
896.982	9306
897.103	9268
897.224	9138
897.345	9089
897.466	9020
897.587	9009
897.708	9093
897.828	9043
897.949	8986
898.07	8864
898.19	8895
898.311	9043
898.431	8933
898.552	8895
898.672	8952
898.792	8998
898.913	8929
899.033	8800
899.153	8819
899.273	8689
899.393	8720
899.513	8781
899.633	8727
899.753	8804
899.873	8686
899.993	8758
900.113	8716
900.232	8773
900.352	8724
900.472	8632
900.591	8518
900.711	8663
900.83	8503
900.95	8750
901.069	8674
901.189	8590
901.308	8469
901.427	8446
901.546	8442
901.665	8465
901.784	8492
901.904	8454
902.023	8385
902.141	8279
902.26	8168
902.379	8309
902.498	8229
902.617	8271
902.735	8343
902.854	8320
902.973	8286
903.091	8043
903.21	8149
903.328	8168
903.446	8161
903.565	8096
903.683	8084
903.801	8050
903.919	8153
904.038	8077
904.156	8031
904.274	8126
904.392	8050
904.51	8008
904.627	8027
904.745	8031
904.863	8088
904.981	7925
905.098	7807
905.216	7875
905.334	7932
905.451	7890
905.569	7879
905.686	7906
905.803	7879
905.921	7792
906.038	7841
906.155	7849
906.272	7757
906.389	7712
906.506	7723
906.623	7639
906.74	7632
906.857	7567
906.974	7594
907.091	7636
907.208	7681
907.324	7628
907.441	7624
907.557	7403
907.674	7434
907.79	7411
907.907	7384
908.023	7445
908.139	7460
908.256	7369
908.372	7320
908.488	7388
908.604	7308
908.72	7247
908.836	7225
908.952	7274
909.068	7209
909.184	7289
909.3	7255
909.415	7324
909.531	7301
909.647	7069
909.762	7187
909.878	7110
909.993	7076
910.108	7084
910.224	7137
910.339	7076
910.454	7091
910.57	7023
910.685	6954
910.8	7190
910.915	7118
911.03	7065
911.145	6848
911.259	6909
911.374	6932
911.489	6856
911.604	6840
911.718	6753
911.833	6776
911.947	6726
912.062	6650
912.176	6738
912.291	6730
912.405	6726
912.519	6814
912.633	6859
912.748	6757
912.862	6684
912.976	6616
913.09	6528
913.204	6650
913.318	6650
913.431	6711
913.545	6696
913.659	6776
913.772	6700
913.886	6601
914	6574
914.113	6688
914.226	6654
914.34	6658
914.453	6486
914.566	6646
914.68	6536
914.793	6494
914.906	6448
915.019	6448
915.132	6391
915.245	6471
915.358	6475
915.47	6422
915.583	6479
915.696	6490
915.809	6521
915.921	6585
916.034	6418
916.146	6467
916.259	6414
916.371	6433
916.483	6456
916.595	6361
916.708	6429
916.82	6422
916.932	6395
917.044	6388
917.156	6422
917.268	6247
917.38	6353
917.491	6369
917.603	6357
917.715	6422
917.826	6490
917.938	6327
918.049	6247
918.161	6369
918.272	6403
918.384	6452
918.495	6391
918.606	6220
918.717	6209
918.828	6254
918.939	6270
919.05	6224
919.161	6323
919.272	6136
919.383	6144
919.494	6308
919.604	6445
919.715	6258
919.826	6216
919.936	6228
920.047	6369
920.157	6270
920.267	6467
920.378	6334
920.488	6315
920.598	6441
920.708	6631
920.818	6544
920.928	6483
921.038	6662
921.148	6593
921.258	6350
921.368	6315
921.477	6289
921.587	6205
921.697	6102
921.806	6129
921.916	6068
922.025	5954
922.134	5942
922.244	5889
922.353	5935
922.462	5824
922.571	5821
922.68	5695
922.789	5737
922.898	5710
923.007	5649
923.116	5764
923.224	5710
923.333	5672
923.442	5630
923.55	5634
923.659	5566
923.767	5581
923.876	5509
923.984	5653
924.092	5577
924.201	5604
924.309	5558
924.417	5596
924.525	5497
924.633	5509
924.741	6266
924.849	5376
924.956	5516
925.064	5318
925.172	5334
925.279	5326
925.387	5337
925.494	5368
925.602	5414
925.709	5395
925.816	5326
925.924	5299
926.031	5391
926.138	5349
926.245	5326
926.352	5246
926.459	5315
926.566	5307
926.673	5185
926.779	5159
926.886	5140
926.993	5033
927.099	5037
927.206	5014
927.312	4938
927.419	5052
927.525	4987
927.631	4984
927.737	4919
927.843	4858
927.95	4782
928.056	4862
928.162	4854
928.267	4839
928.373	5277
928.479	4896
928.585	4706
928.69	4736
928.796	4767
928.901	4702
929.007	4615
929.112	4717
929.218	4641
929.323	4668
929.428	4554
929.533	4694
929.638	4497
929.743	4542
929.848	4577
929.953	4542
930.058	4459
930.163	4325
930.267	4303
930.372	4466
930.477	4306
930.581	4508
930.685	4424
930.79	4242
930.894	4287
930.998	4234
931.103	4417
931.207	4162
931.311	4097
931.415	4044
931.519	3937
931.623	3945
