Data from glass_V78500241_2376.txt Node
Date: Wed Sep 01 19:30:58 CST 2021
User: usil
Spectrometer: V785-0024
Trigger mode: 0
Integration Time (sec): 4.000000E-1
Scans to average: 1
Nonlinearity correction enabled: false
Boxcar width: 0
Storing dark spectrum: false
XAxis mode: Wavelengths
Number of Pixels in Spectrum: 1024
>>>>>Begin Spectral Data<<<<<
801.071	3736
801.214	3724
801.356	3660
801.499	3747
801.641	3751
801.783	3713
801.926	3812
802.068	3812
802.211	3823
802.353	3899
802.496	3812
802.638	3896
802.78	3911
802.923	3937
803.065	3926
803.208	3812
803.35	3888
803.492	3869
803.635	3941
803.777	3797
803.919	3926
804.061	4150
804.204	3941
804.346	3926
804.488	3907
804.63	3972
804.773	3930
804.915	4036
805.057	4116
805.199	4002
805.341	4086
805.483	4128
805.626	4093
805.768	4124
805.91	4223
806.052	4200
806.194	4211
806.336	4379
806.478	4219
806.62	4177
806.762	4188
806.904	4268
807.046	4325
807.188	4196
807.33	4154
807.472	4200
807.614	4150
807.756	4242
807.898	4215
808.04	4257
808.182	4261
808.324	4341
808.465	4344
808.607	4443
808.749	4421
808.891	4462
809.033	4523
809.174	4352
809.316	4284
809.458	4249
809.6	4109
809.741	4147
809.883	4109
810.025	4207
810.166	4181
810.308	4234
810.45	4253
810.591	4272
810.733	4299
810.875	4497
811.016	4809
811.158	5098
811.299	5269
811.441	5277
811.582	5037
811.724	4622
811.865	4478
812.007	4500
812.148	4451
812.29	4402
812.431	4398
812.573	4386
812.714	4367
812.855	4394
812.997	4417
813.138	4474
813.279	4402
813.421	4421
813.562	4371
813.703	4360
813.845	4360
813.986	4230
814.127	4227
814.268	4291
814.41	4261
814.551	4249
814.692	4348
814.833	4253
814.974	4276
815.115	4265
815.256	4242
815.397	4227
815.539	4234
815.68	4200
815.821	4143
815.962	4291
816.103	4291
816.244	4204
816.385	4223
816.526	4333
816.666	4177
816.807	4059
816.948	4192
817.089	4162
817.23	4166
817.371	4025
817.512	4044
817.653	4029
817.793	4040
817.934	4105
818.075	4116
818.216	4090
818.356	4105
818.497	3994
818.638	3896
818.778	3907
818.919	3899
819.06	3899
819.2	3846
819.341	3854
819.481	3835
819.622	3918
819.762	3991
819.903	3945
820.043	3819
820.184	3812
820.324	3850
820.465	3865
820.605	3857
820.746	3827
820.886	3800
821.026	3934
821.167	3876
821.307	3979
821.447	3949
821.588	3930
821.728	3934
821.868	3888
822.008	3880
822.149	3850
822.289	3896
822.429	3766
822.569	3800
822.709	3785
822.849	3724
822.99	3728
823.13	3732
823.27	3728
823.41	3728
823.55	3728
823.69	3698
823.83	3717
823.97	3713
824.11	3622
824.25	3584
824.389	3614
824.529	3663
824.669	3599
824.809	3728
824.949	3732
825.089	3717
825.228	3656
825.368	3625
825.508	3557
825.648	3568
825.787	3591
825.927	3618
826.067	3644
826.206	3625
826.346	3800
826.485	3831
826.625	3816
826.765	3926
826.904	3808
827.044	3606
827.183	3538
827.323	3439
827.462	3439
827.601	3397
827.741	3409
827.88	3443
828.02	3393
828.159	3405
828.298	3492
828.437	3481
828.577	3458
828.716	3618
828.855	3492
828.994	3370
829.134	3367
829.273	3397
829.412	3313
829.551	3340
829.69	3359
829.829	3420
829.968	3511
830.107	3439
830.246	3412
830.385	3401
830.524	3340
830.663	3283
830.802	3272
830.941	3214
831.08	3226
831.219	3302
831.357	3275
831.496	3382
831.635	3207
831.774	3241
831.913	3188
832.051	3119
832.19	3127
832.329	3192
832.467	3146
832.606	3104
832.744	3161
832.883	3161
833.022	3165
833.16	3214
833.299	3298
833.437	3321
833.576	3367
833.714	3393
833.852	3462
833.991	3469
834.129	3443
834.267	3420
834.406	3378
834.544	3412
834.682	3393
834.821	3405
834.959	3549
835.097	3458
835.235	3526
835.373	3485
835.511	3439
835.65	3447
835.788	3477
835.926	3420
836.064	3374
836.202	3386
836.34	3561
836.478	3603
836.615	3545
836.753	3614
836.891	3644
837.029	3603
837.167	3625
837.305	3561
837.443	3519
837.58	3492
837.718	3576
837.856	3561
837.993	3526
838.131	3564
838.269	3599
838.406	3538
838.544	3500
838.681	3450
838.819	3439
838.956	3355
839.094	3393
839.231	3443
839.369	3549
839.506	3747
839.643	3648
839.781	3496
839.918	3462
840.055	3538
840.193	3500
840.33	3496
840.467	3561
840.604	3591
840.742	3797
840.879	3534
841.016	3572
841.153	3580
841.29	3755
841.427	3705
841.564	3724
841.701	3717
841.838	3724
841.975	3701
842.112	3740
842.249	3663
842.385	3568
842.522	3800
842.659	3671
842.796	3667
842.933	3698
843.069	3709
843.206	3686
843.343	3857
843.479	3747
843.616	3785
843.752	3667
843.889	3682
844.025	3854
844.162	3736
844.298	3831
844.435	3812
844.571	3778
844.708	3861
844.844	3987
844.98	4013
845.117	4025
845.253	3930
845.389	3896
845.525	3937
845.661	3930
845.798	3922
845.934	3968
846.07	3956
846.206	4101
846.342	4139
846.478	4025
846.614	3953
846.75	3930
846.886	3934
847.022	4025
847.158	3956
847.294	3998
847.429	3964
847.565	3998
847.701	4249
847.837	3873
847.972	3884
848.108	3983
848.244	3945
848.379	3831
848.515	3835
848.65	3797
848.786	3816
848.921	3861
849.057	3945
849.192	3934
849.328	3903
849.463	3896
849.598	3880
849.734	3869
849.869	3823
850.004	3785
850.14	3842
850.275	3778
850.41	3743
850.545	3724
850.68	3778
850.815	3800
850.95	3774
851.085	3922
851.22	3884
851.355	3804
851.49	3774
851.625	3762
851.76	3793
851.895	3755
852.03	3747
852.165	3800
852.299	3793
852.434	3934
852.569	3861
852.703	3873
852.838	3953
852.973	3975
853.107	3945
853.242	3873
853.376	3819
853.511	3732
853.645	3827
853.78	3945
853.914	3831
854.048	3892
854.183	3888
854.317	3960
854.451	4063
854.585	3937
854.72	3934
854.854	4002
854.988	3975
855.122	3975
855.256	3922
855.39	4036
855.524	4101
855.658	4048
855.792	4090
855.926	4120
856.06	4147
856.194	4200
856.327	4147
856.461	4105
856.595	4158
856.729	4230
856.862	4253
856.996	4242
857.13	4253
857.263	4322
857.397	4337
857.53	4310
857.664	4341
857.797	4356
857.931	4413
858.064	4375
858.197	4443
858.331	4390
858.464	4367
858.597	4272
858.731	4436
858.864	4405
858.997	4440
859.13	4504
859.263	4554
859.396	4561
859.529	4519
859.662	4519
859.795	4493
859.928	4618
860.061	4687
860.194	4748
860.327	4653
860.46	4622
860.592	4714
860.725	4790
860.858	4763
860.99	4664
861.123	4653
861.256	4698
861.388	4748
861.521	5516
861.653	4740
861.786	4664
861.918	4763
862.05	4782
862.183	4809
862.315	4820
862.447	4946
862.58	4870
862.712	4816
862.844	4755
862.976	4877
863.108	4858
863.24	5208
863.372	4816
863.504	4911
863.636	4930
863.768	4976
863.9	4927
864.032	4927
864.164	5003
864.296	4991
864.428	5098
864.559	5117
864.691	5102
864.823	5102
864.954	5064
865.086	5105
865.217	5143
865.349	5128
865.48	5159
865.612	5147
865.743	5292
865.875	5166
866.006	5193
866.137	5258
866.269	5231
866.4	5280
866.531	5246
866.662	5212
866.793	5185
866.924	5277
867.055	5353
867.186	5345
867.317	5284
867.448	5284
867.579	5337
867.71	5322
867.841	5372
867.972	5444
868.103	5402
868.233	5482
868.364	5474
868.495	5532
868.625	5657
868.756	5802
868.886	5703
869.017	5748
869.147	5855
869.278	5866
869.408	5844
869.539	5783
869.669	5878
869.799	5912
869.929	6003
870.06	6022
870.19	6186
870.32	6117
870.45	6323
870.58	6311
870.71	6407
870.84	6445
870.97	6410
871.1	6418
871.23	6654
871.36	6703
871.489	6692
871.619	6787
871.749	6787
871.879	6875
872.008	6954
872.138	6947
872.267	6962
872.397	6962
872.526	6989
872.656	7099
872.785	7171
872.915	7339
873.044	7510
873.173	7506
873.303	7636
873.432	7738
873.561	7860
873.69	7909
873.819	7986
873.948	8157
874.077	8225
874.206	8259
874.335	8454
874.464	8644
874.593	8842
874.722	8967
874.851	9176
874.979	9199
875.108	9325
875.237	9408
875.365	9466
875.494	9679
875.623	9762
875.751	9861
875.88	9964
876.008	10105
876.136	10276
876.265	10459
876.393	10668
876.521	10683
876.65	10771
876.778	10858
876.906	10889
877.034	10984
877.162	11117
877.29	11197
877.418	11368
877.546	11292
877.674	11395
877.802	11535
877.93	11406
878.058	11478
878.185	11596
878.313	11619
878.441	11722
878.568	11615
878.696	11794
878.824	11821
878.951	11882
879.079	11935
879.206	12057
879.333	12003
879.461	11931
879.588	12129
879.715	12049
879.842	12098
879.97	12068
880.097	11855
880.224	11916
880.351	11923
880.478	11870
880.605	11908
880.732	11813
880.859	12026
880.986	11874
881.112	11832
881.239	11783
881.366	11695
881.493	11581
881.619	11547
881.746	11615
881.872	11520
881.999	11524
882.125	11509
882.252	11509
882.378	11501
882.505	11535
882.631	11406
882.757	11273
882.883	11303
883.01	11193
883.136	11132
883.262	11102
883.388	11113
883.514	11174
883.64	11128
883.766	11079
883.892	11037
884.018	10987
884.143	11067
884.269	11109
884.395	10911
884.52	10828
884.646	10809
884.772	10721
884.897	10656
885.023	10664
885.148	10771
885.274	10774
885.399	10702
885.524	10611
885.65	10596
885.775	10664
885.9	10546
886.025	10577
886.15	10550
886.275	10508
886.4	10356
886.525	10394
886.65	10322
886.775	10371
886.9	10485
887.025	10481
887.149	10337
887.274	10215
887.399	10207
887.523	10154
887.648	10116
887.773	10177
887.897	10207
888.021	10215
888.146	10147
888.27	10204
888.395	10272
888.519	10169
888.643	10200
888.767	10188
888.891	10051
889.015	9968
889.139	10101
889.263	10021
889.387	10051
889.511	10097
889.635	10048
889.759	9949
889.883	9964
890.006	9926
890.13	10097
890.254	9941
890.377	9983
890.501	9831
890.624	9892
890.748	9903
890.871	9778
890.995	9797
891.118	9785
891.241	9732
891.364	9717
891.488	9876
891.611	9736
891.734	9679
891.857	9747
891.98	9812
892.103	9781
892.226	9728
892.349	9686
892.471	9564
892.594	9614
892.717	9682
892.839	9561
892.962	9671
893.085	9599
893.207	9572
893.33	9530
893.452	9473
893.575	9644
893.697	9511
893.819	9641
893.941	9641
894.064	9580
894.186	9477
894.308	9435
894.43	9477
894.552	9553
894.674	9507
894.796	9359
894.918	9348
895.04	9340
895.161	9272
895.283	9405
895.405	9321
895.526	9222
895.648	9249
895.769	9245
895.891	9287
896.012	9245
896.134	9256
896.255	9100
896.376	9154
896.498	9199
896.619	9150
896.74	9070
896.861	9108
896.982	9253
897.103	9348
897.224	9184
897.345	9058
897.466	8975
897.587	8982
897.708	9077
897.828	9020
897.949	8982
898.07	8872
898.19	8857
898.311	9062
898.431	8845
898.552	8998
898.672	8914
898.792	8937
898.913	8937
899.033	8830
899.153	8769
899.273	8640
899.393	8720
899.513	8712
899.633	8701
899.753	8754
899.873	8632
899.993	8727
900.113	8632
900.232	8682
900.352	8697
900.472	8731
900.591	8579
900.711	8625
900.83	8530
900.95	8579
901.069	8667
901.189	8533
901.308	8450
901.427	8408
901.546	8434
901.665	8347
901.784	8518
901.904	8362
902.023	8267
902.141	8298
902.26	8214
902.379	8240
902.498	8248
902.617	8180
902.735	8339
902.854	8252
902.973	8282
903.091	8149
903.21	8039
903.328	8168
903.446	8084
903.565	8119
903.683	8043
903.801	8046
903.919	8092
904.038	8149
904.156	8008
904.274	8081
904.392	7989
904.51	8039
904.627	7986
904.745	8084
904.863	8065
904.981	7917
905.098	7879
905.216	7837
905.334	7947
905.451	7947
905.569	7792
905.686	7940
905.803	7852
905.921	7795
906.038	7849
906.155	7803
906.272	7666
906.389	7636
906.506	7597
906.623	7636
906.74	7628
906.857	7540
906.974	7556
907.091	7632
907.208	7723
907.324	7677
907.441	7613
907.557	7457
907.674	7441
907.79	7422
907.907	7384
908.023	7407
908.139	7365
908.256	7392
908.372	7415
908.488	7411
908.604	7282
908.72	7194
908.836	7301
908.952	7232
909.068	7221
909.184	7225
909.3	7171
909.415	7278
909.531	7247
909.647	7076
909.762	7129
909.878	7069
909.993	7133
910.108	7053
910.224	7107
910.339	7061
910.454	7053
910.57	7019
910.685	6947
910.8	7198
910.915	7065
911.03	6977
911.145	6928
911.259	6848
911.374	6913
911.489	6916
911.604	6764
911.718	6681
911.833	6703
911.947	6669
912.062	6620
912.176	6696
912.291	6711
912.405	6642
912.519	6875
912.633	6825
912.748	6779
912.862	6688
912.976	6646
913.09	6483
913.204	6650
913.318	6620
913.431	6623
913.545	6753
913.659	6719
913.772	6665
913.886	6612
914	6521
914.113	6574
914.226	6631
914.34	6566
914.453	6525
914.566	6631
914.68	6513
914.793	6559
914.906	6334
915.019	6384
915.132	6410
915.245	6365
915.358	6494
915.47	6448
915.583	6471
915.696	6471
915.809	6521
915.921	6555
916.034	6437
916.146	6391
916.259	6395
916.371	6452
916.483	6460
916.595	6384
916.708	6369
916.82	6445
916.932	6414
917.044	6441
917.156	6475
917.268	6334
917.38	6357
917.491	6258
917.603	6308
917.715	6414
917.826	6380
917.938	6380
918.049	6308
918.161	6296
918.272	6361
918.384	6399
918.495	6292
918.606	6251
918.717	6152
918.828	6251
918.939	6266
919.05	6235
919.161	6190
919.272	6091
919.383	6148
919.494	6292
919.604	6456
919.715	6327
919.826	6205
919.936	6247
920.047	6380
920.157	6273
920.267	6426
920.378	6289
920.488	6220
920.598	6433
920.708	6528
920.818	6452
920.928	6437
921.038	6551
921.148	6582
921.258	6369
921.368	6277
921.477	6205
921.587	6095
921.697	6060
921.806	6216
921.916	6095
922.025	5916
922.134	5901
922.244	5893
922.353	5935
922.462	5828
922.571	5805
922.68	5710
922.789	5691
922.898	5691
923.007	5657
923.116	5630
923.224	5680
923.333	5608
923.442	5539
923.55	5558
923.659	5592
923.767	5627
923.876	5585
923.984	5619
924.092	5535
924.201	5535
924.309	5558
924.417	5570
924.525	5478
924.633	5532
924.741	6247
924.849	5398
924.956	5455
925.064	5345
925.172	5307
925.279	5315
925.387	5364
925.494	5273
925.602	5459
925.709	5417
925.816	5250
925.924	5337
926.031	5307
926.138	5273
926.245	5330
926.352	5178
926.459	5318
926.566	5288
926.673	5197
926.779	5147
926.886	5132
926.993	4991
927.099	5071
927.206	4995
927.312	4930
927.419	5056
927.525	4965
927.631	4965
927.737	4930
927.843	4850
927.95	4736
928.056	4828
928.162	4862
928.267	4866
928.373	5277
928.479	4847
928.585	4683
928.69	4717
928.796	4786
928.901	4675
929.007	4573
929.112	4607
929.218	4615
929.323	4538
929.428	4542
929.533	4664
929.638	4550
929.743	4569
929.848	4573
929.953	4478
930.058	4428
930.163	4333
930.267	4383
930.372	4447
930.477	4322
930.581	4466
930.685	4348
930.79	4249
930.894	4295
930.998	4306
931.103	4386
931.207	4082
931.311	4059
931.415	4040
931.519	3930
931.623	3922
