Data from glass_V78500241_1385.txt Node
Date: Wed Sep 01 19:24:06 CST 2021
User: usil
Spectrometer: V785-0024
Trigger mode: 0
Integration Time (sec): 4.000000E-1
Scans to average: 1
Nonlinearity correction enabled: false
Boxcar width: 0
Storing dark spectrum: false
XAxis mode: Wavelengths
Number of Pixels in Spectrum: 1024
>>>>>Begin Spectral Data<<<<<
801.071	3751
801.214	3778
801.356	3728
801.499	3724
801.641	3781
801.783	3785
801.926	3873
802.068	3816
802.211	3884
802.353	3884
802.496	3827
802.638	3922
802.78	3899
802.923	3922
803.065	3926
803.208	3865
803.35	3865
803.492	3880
803.635	3915
803.777	3842
803.919	3918
804.061	4124
804.204	3972
804.346	3972
804.488	3937
804.63	4006
804.773	3975
804.915	4029
805.057	4173
805.199	4063
805.341	4074
805.483	4173
805.626	4192
805.768	4109
805.91	4215
806.052	4242
806.194	4162
806.336	4344
806.478	4185
806.62	4173
806.762	4215
806.904	4280
807.046	4390
807.188	4219
807.33	4204
807.472	4242
807.614	4219
807.756	4261
807.898	4204
808.04	4257
808.182	4261
808.324	4303
808.465	4318
808.607	4485
808.749	4451
808.891	4481
809.033	4512
809.174	4417
809.316	4314
809.458	4257
809.6	4181
809.741	4147
809.883	4181
810.025	4196
810.166	4242
810.308	4246
810.45	4246
810.591	4219
810.733	4310
810.875	4538
811.016	4816
811.158	5098
811.299	5258
811.441	5239
811.582	5102
811.724	4694
811.865	4462
812.007	4485
812.148	4436
812.29	4398
812.431	4436
812.573	4398
812.714	4405
812.855	4428
812.997	4466
813.138	4474
813.279	4424
813.421	4428
813.562	4341
813.703	4386
813.845	4333
813.986	4295
814.127	4238
814.268	4272
814.41	4268
814.551	4257
814.692	4356
814.833	4287
814.974	4284
815.115	4383
815.256	4272
815.397	4211
815.539	4227
815.68	4177
815.821	4246
815.962	4299
816.103	4284
816.244	4219
816.385	4268
816.526	4325
816.666	4215
816.807	4105
816.948	4185
817.089	4135
817.23	4147
817.371	4090
817.512	4051
817.653	4082
817.793	4025
817.934	4040
818.075	4097
818.216	4082
818.356	4086
818.497	4013
818.638	3968
818.778	3888
818.919	3907
819.06	3850
819.2	3915
819.341	3850
819.481	3876
819.622	3907
819.762	4025
819.903	3953
820.043	3873
820.184	3861
820.324	3835
820.465	3903
820.605	3876
820.746	3838
820.886	3774
821.026	3968
821.167	3873
821.307	4010
821.447	3991
821.588	4013
821.728	3949
821.868	3922
822.008	3884
822.149	3873
822.289	3956
822.429	3789
822.569	3778
822.709	3778
822.849	3736
822.99	3686
823.13	3694
823.27	3751
823.41	3736
823.55	3751
823.69	3698
823.83	3709
823.97	3709
824.11	3622
824.25	3614
824.389	3622
824.529	3652
824.669	3618
824.809	3694
824.949	3732
825.089	3766
825.228	3679
825.368	3568
825.508	3576
825.648	3564
825.787	3663
825.927	3625
826.067	3614
826.206	3656
826.346	3770
826.485	3835
826.625	3865
826.765	3903
826.904	3831
827.044	3625
827.183	3492
827.323	3435
827.462	3507
827.601	3424
827.741	3435
827.88	3450
828.02	3348
828.159	3466
828.298	3469
828.437	3553
828.577	3519
828.716	3591
828.855	3538
828.994	3393
829.134	3389
829.273	3450
829.412	3355
829.551	3317
829.69	3374
829.829	3412
829.968	3481
830.107	3443
830.246	3496
830.385	3409
830.524	3386
830.663	3340
830.802	3237
830.941	3245
831.08	3222
831.219	3218
831.357	3279
831.496	3405
831.635	3245
831.774	3184
831.913	3260
832.051	3142
832.19	3176
832.329	3195
832.467	3116
832.606	3127
832.744	3176
832.883	3203
833.022	3180
833.16	3264
833.299	3298
833.437	3325
833.576	3363
833.714	3439
833.852	3454
833.991	3439
834.129	3481
834.267	3466
834.406	3378
834.544	3409
834.682	3439
834.821	3409
834.959	3568
835.097	3401
835.235	3561
835.373	3526
835.511	3496
835.65	3443
835.788	3443
835.926	3428
836.064	3389
836.202	3405
836.34	3545
836.478	3656
836.615	3534
836.753	3603
836.891	3614
837.029	3644
837.167	3629
837.305	3580
837.443	3526
837.58	3469
837.718	3625
837.856	3545
837.993	3538
838.131	3599
838.269	3618
838.406	3557
838.544	3545
838.681	3504
838.819	3450
838.956	3370
839.094	3359
839.231	3481
839.369	3538
839.506	3740
839.643	3660
839.781	3492
839.918	3488
840.055	3561
840.193	3580
840.33	3534
840.467	3523
840.604	3584
840.742	3800
840.879	3568
841.016	3568
841.153	3542
841.29	3755
841.427	3759
841.564	3755
841.701	3705
841.838	3705
841.975	3682
842.112	3736
842.249	3652
842.385	3625
842.522	3819
842.659	3652
842.796	3671
842.933	3720
843.069	3705
843.206	3686
843.343	3846
843.479	3770
843.616	3808
843.752	3694
843.889	3625
844.025	3865
844.162	3698
844.298	3793
844.435	3781
844.571	3781
844.708	3880
844.844	4021
844.98	4036
845.117	4032
845.253	3953
845.389	3922
845.525	3968
845.661	3960
845.798	3934
845.934	3998
846.07	3953
846.206	4071
846.342	4120
846.478	4067
846.614	3945
846.75	3934
846.886	3869
847.022	4078
847.158	3941
847.294	3983
847.429	3998
847.565	3987
847.701	4265
847.837	3884
847.972	3880
848.108	3994
848.244	3934
848.379	3873
848.515	3823
848.65	3785
848.786	3797
848.921	3854
849.057	3945
849.192	3930
849.328	3857
849.463	3934
849.598	3865
849.734	3896
849.869	3816
850.004	3800
850.14	3831
850.275	3770
850.41	3762
850.545	3766
850.68	3789
850.815	3827
850.95	3831
851.085	3953
851.22	3888
851.355	3869
851.49	3823
851.625	3812
851.76	3770
851.895	3747
852.03	3740
852.165	3785
852.299	3827
852.434	3915
852.569	3850
852.703	3876
852.838	3918
852.973	4059
853.107	4017
853.242	3880
853.376	3819
853.511	3747
853.645	3838
853.78	3956
853.914	3907
854.048	3911
854.183	3857
854.317	3907
854.451	4040
854.585	3956
854.72	3991
854.854	4006
854.988	3911
855.122	3987
855.256	3926
855.39	4067
855.524	4112
855.658	4071
855.792	4124
855.926	4116
856.06	4188
856.194	4227
856.327	4147
856.461	4162
856.595	4192
856.729	4158
856.862	4291
856.996	4200
857.13	4295
857.263	4333
857.397	4371
857.53	4352
857.664	4360
857.797	4421
857.931	4440
858.064	4417
858.197	4417
858.331	4421
858.464	4341
858.597	4322
858.731	4409
858.864	4447
858.997	4485
859.13	4497
859.263	4561
859.396	4561
859.529	4535
859.662	4538
859.795	4523
859.928	4656
860.061	4691
860.194	4755
860.327	4641
860.46	4622
860.592	4733
860.725	4744
860.858	4744
860.99	4668
861.123	4691
861.256	4717
861.388	4786
861.521	5315
861.653	4733
861.786	4733
861.918	4748
862.05	4809
862.183	4854
862.315	4919
862.447	4923
862.58	4900
862.712	4816
862.844	4805
862.976	4843
863.108	4835
863.24	5151
863.372	4835
863.504	4934
863.636	4915
863.768	4953
863.9	4972
864.032	4934
864.164	4991
864.296	5010
864.428	5124
864.559	5075
864.691	5113
864.823	5132
864.954	5132
865.086	5178
865.217	5083
865.349	5071
865.48	5162
865.612	5197
865.743	5318
865.875	5269
866.006	5204
866.137	5231
866.269	5242
866.4	5269
866.531	5258
866.662	5258
866.793	5258
866.924	5299
867.055	5315
867.186	5292
867.317	5318
867.448	5334
867.579	5425
867.71	5376
867.841	5315
867.972	5452
868.103	5436
868.233	5417
868.364	5505
868.495	5543
868.625	5672
868.756	5771
868.886	5695
869.017	5703
869.147	5889
869.278	5863
869.408	5790
869.539	5805
869.669	5965
869.799	5878
869.929	5973
870.06	6019
870.19	6224
870.32	6197
870.45	6289
870.58	6342
870.71	6410
870.84	6464
870.97	6437
871.1	6448
871.23	6597
871.36	6658
871.489	6612
871.619	6681
871.749	6833
871.879	6821
872.008	6970
872.138	6935
872.267	7012
872.397	7019
872.526	7042
872.656	7088
872.785	7221
872.915	7388
873.044	7483
873.173	7567
873.303	7704
873.432	7769
873.561	7868
873.69	7959
873.819	8024
873.948	8111
874.077	8298
874.206	8355
874.335	8461
874.464	8686
874.593	8906
874.722	8967
874.851	9119
874.979	9203
875.108	9310
875.237	9412
875.365	9401
875.494	9622
875.623	9895
875.751	9903
875.88	9968
876.008	10188
876.136	10238
876.265	10489
876.393	10626
876.521	10790
876.65	10828
876.778	10869
876.906	10866
877.034	11003
877.162	11033
877.29	11242
877.418	11311
877.546	11395
877.674	11433
877.802	11467
877.93	11551
878.058	11581
878.185	11592
878.313	11661
878.441	11737
878.568	11608
878.696	11802
878.824	11821
878.951	11878
879.079	11999
879.206	12121
879.333	11984
879.461	11977
879.588	11984
879.715	12186
879.842	12197
879.97	12064
880.097	11859
880.224	11935
880.351	11863
880.478	11912
880.605	11821
880.732	11901
880.859	11950
880.986	11794
881.112	11836
881.239	11786
881.366	11592
881.493	11623
881.619	11512
881.746	11543
881.872	11493
881.999	11604
882.125	11509
882.252	11596
882.378	11501
882.505	11516
882.631	11463
882.757	11360
882.883	11311
883.01	11235
883.136	11201
883.262	11090
883.388	11056
883.514	11174
883.64	11246
883.766	11094
883.892	11022
884.018	10972
884.143	11113
884.269	11109
884.395	10847
884.52	10793
884.646	10748
884.772	10759
884.897	10687
885.023	10687
885.148	10767
885.274	10714
885.399	10706
885.524	10561
885.65	10565
885.775	10618
885.9	10527
886.025	10656
886.15	10592
886.275	10542
886.4	10348
886.525	10451
886.65	10386
886.775	10287
886.9	10546
887.025	10493
887.149	10375
887.274	10238
887.399	10181
887.523	10276
887.648	10116
887.773	10097
887.897	10291
888.021	10188
888.146	10166
888.27	10215
888.395	10192
888.519	10246
888.643	10230
888.767	10223
888.891	10010
889.015	9994
889.139	9991
889.263	9979
889.387	10139
889.511	10051
889.635	10029
889.759	9888
889.883	9994
890.006	9979
890.13	10048
890.254	9949
890.377	9911
890.501	9854
890.624	9876
890.748	9876
890.871	9759
890.995	9789
891.118	9663
891.241	9831
891.364	9694
891.488	9846
891.611	9690
891.734	9800
891.857	9785
891.98	9743
892.103	9804
892.226	9766
892.349	9679
892.471	9545
892.594	9633
892.717	9637
892.839	9538
892.962	9671
893.085	9652
893.207	9557
893.33	9561
893.452	9466
893.575	9561
893.697	9557
893.819	9622
893.941	9599
894.064	9629
894.186	9439
894.308	9405
894.43	9538
894.552	9561
894.674	9507
894.796	9431
894.918	9363
895.04	9389
895.161	9268
895.283	9340
895.405	9287
895.526	9283
895.648	9207
895.769	9195
895.891	9329
896.012	9268
896.134	9260
896.255	9203
896.376	9123
896.498	9127
896.619	9108
896.74	9089
896.861	9116
896.982	9317
897.103	9310
897.224	9150
897.345	9066
897.466	8975
897.587	8960
897.708	9108
897.828	9005
897.949	8948
898.07	8857
898.19	8914
898.311	8998
898.431	8944
898.552	8944
898.672	9009
898.792	8883
898.913	8948
899.033	8788
899.153	8754
899.273	8708
899.393	8724
899.513	8762
899.633	8701
899.753	8724
899.873	8727
899.993	8670
900.113	8781
900.232	8739
900.352	8636
900.472	8610
900.591	8564
900.711	8613
900.83	8610
900.95	8739
901.069	8701
901.189	8488
901.308	8461
901.427	8381
901.546	8400
901.665	8431
901.784	8511
901.904	8351
902.023	8381
902.141	8290
902.26	8195
902.379	8313
902.498	8157
902.617	8187
902.735	8324
902.854	8305
902.973	8214
903.091	8153
903.21	8115
903.328	8149
903.446	8145
903.565	8115
903.683	8084
903.801	8065
903.919	8134
904.038	8058
904.156	8062
904.274	8126
904.392	8039
904.51	7982
904.627	8142
904.745	8043
904.863	8096
904.981	7890
905.098	7864
905.216	7936
905.334	7841
905.451	7909
905.569	7906
905.686	7963
905.803	7925
905.921	7788
906.038	7845
906.155	7746
906.272	7780
906.389	7731
906.506	7647
906.623	7609
906.74	7670
906.857	7559
906.974	7586
907.091	7643
907.208	7723
907.324	7639
907.441	7613
907.557	7419
907.674	7426
907.79	7396
907.907	7362
908.023	7480
908.139	7476
908.256	7415
908.372	7407
908.488	7392
908.604	7285
908.72	7270
908.836	7293
908.952	7228
909.068	7259
909.184	7289
909.3	7247
909.415	7308
909.531	7259
909.647	7168
909.762	7084
909.878	7118
909.993	7099
910.108	7164
910.224	7110
910.339	7137
910.454	7012
910.57	7034
910.685	6966
910.8	7213
910.915	7145
911.03	7050
911.145	6852
911.259	6867
911.374	6783
911.489	6852
911.604	6810
911.718	6806
911.833	6745
911.947	6681
912.062	6639
912.176	6715
912.291	6669
912.405	6700
912.519	6798
912.633	6848
912.748	6833
912.862	6684
912.976	6635
913.09	6597
913.204	6574
913.318	6612
913.431	6665
913.545	6627
913.659	6738
913.772	6681
913.886	6612
914	6593
914.113	6612
914.226	6620
914.34	6589
914.453	6467
914.566	6597
914.68	6483
914.793	6532
914.906	6426
915.019	6422
915.132	6403
915.245	6448
915.358	6445
915.47	6441
915.583	6464
915.696	6445
915.809	6574
915.921	6528
916.034	6467
916.146	6399
916.259	6414
916.371	6448
916.483	6483
916.595	6395
916.708	6426
916.82	6426
916.932	6365
917.044	6395
917.156	6422
917.268	6292
917.38	6369
917.491	6357
917.603	6350
917.715	6426
917.826	6384
917.938	6331
918.049	6186
918.161	6357
918.272	6445
918.384	6490
918.495	6327
918.606	6311
918.717	6273
918.828	6292
918.939	6308
919.05	6224
919.161	6243
919.272	6182
919.383	6197
919.494	6270
919.604	6456
919.715	6239
919.826	6247
919.936	6251
920.047	6350
920.157	6273
920.267	6483
920.378	6315
920.488	6285
920.598	6452
920.708	6540
920.818	6536
920.928	6418
921.038	6570
921.148	6589
921.258	6395
921.368	6311
921.477	6148
921.587	6190
921.697	6076
921.806	6129
921.916	6060
922.025	6015
922.134	5920
922.244	5828
922.353	5973
922.462	5824
922.571	5851
922.68	5729
922.789	5661
922.898	5676
923.007	5630
923.116	5718
923.224	5668
923.333	5646
923.442	5642
923.55	5573
923.659	5573
923.767	5627
923.876	5497
923.984	5589
924.092	5490
924.201	5562
924.309	5547
924.417	5570
924.525	5490
924.633	5554
924.741	6277
924.849	5391
924.956	5455
925.064	5425
925.172	5318
925.279	5299
925.387	5357
925.494	5337
925.602	5417
925.709	5395
925.816	5273
925.924	5330
926.031	5379
926.138	5311
926.245	5326
926.352	5227
926.459	5330
926.566	5341
926.673	5223
926.779	5136
926.886	5067
926.993	5048
927.099	4995
927.206	5018
927.312	4946
927.419	5083
927.525	4972
927.631	4980
927.737	4927
927.843	4919
927.95	4786
928.056	4850
928.162	4812
928.267	4850
928.373	5223
928.479	4843
928.585	4710
928.69	4786
928.796	4767
928.901	4660
929.007	4577
929.112	4656
929.218	4664
929.323	4596
929.428	4546
929.533	4683
929.638	4519
929.743	4558
929.848	4554
929.953	4519
930.058	4478
930.163	4367
930.267	4360
930.372	4500
930.477	4272
930.581	4500
930.685	4367
930.79	4295
930.894	4314
930.998	4261
931.103	4360
931.207	4124
931.311	4112
931.415	4017
931.519	3979
931.623	3968
