Data from glass_V78500241_875.txt Node
Date: Wed Sep 01 19:20:33 CST 2021
User: usil
Spectrometer: V785-0024
Trigger mode: 0
Integration Time (sec): 4.000000E-1
Scans to average: 1
Nonlinearity correction enabled: false
Boxcar width: 0
Storing dark spectrum: false
XAxis mode: Wavelengths
Number of Pixels in Spectrum: 1024
>>>>>Begin Spectral Data<<<<<
801.071	3720
801.214	3808
801.356	3709
801.499	3720
801.641	3713
801.783	3793
801.926	3865
802.068	3838
802.211	3846
802.353	3892
802.496	3865
802.638	3899
802.78	3915
802.923	3953
803.065	3884
803.208	3915
803.35	3873
803.492	3926
803.635	3937
803.777	3831
803.919	3888
804.061	4162
804.204	3934
804.346	3945
804.488	3892
804.63	4029
804.773	3987
804.915	3987
805.057	4207
805.199	4051
805.341	4051
805.483	4109
805.626	4158
805.768	4078
805.91	4223
806.052	4242
806.194	4158
806.336	4375
806.478	4306
806.62	4147
806.762	4177
806.904	4280
807.046	4341
807.188	4207
807.33	4185
807.472	4280
807.614	4227
807.756	4276
807.898	4200
808.04	4238
808.182	4287
808.324	4356
808.465	4360
808.607	4504
808.749	4493
808.891	4470
809.033	4493
809.174	4421
809.316	4287
809.458	4249
809.6	4169
809.741	4158
809.883	4162
810.025	4211
810.166	4238
810.308	4253
810.45	4230
810.591	4238
810.733	4284
810.875	4542
811.016	4828
811.158	5170
811.299	5311
811.441	5273
811.582	5067
811.724	4740
811.865	4493
812.007	4504
812.148	4405
812.29	4413
812.431	4447
812.573	4386
812.714	4318
812.855	4390
812.997	4428
813.138	4500
813.279	4436
813.421	4386
813.562	4386
813.703	4341
813.845	4314
813.986	4295
814.127	4181
814.268	4253
814.41	4219
814.551	4284
814.692	4337
814.833	4310
814.974	4280
815.115	4360
815.256	4310
815.397	4242
815.539	4265
815.68	4215
815.821	4219
815.962	4356
816.103	4230
816.244	4211
816.385	4246
816.526	4280
816.666	4188
816.807	4120
816.948	4196
817.089	4204
817.23	4120
817.371	4040
817.512	4078
817.653	4086
817.793	4059
817.934	4040
818.075	4093
818.216	4116
818.356	4078
818.497	3975
818.638	3934
818.778	3930
818.919	3945
819.06	3899
819.2	3922
819.341	3880
819.481	3827
819.622	3934
819.762	4051
819.903	3968
820.043	3846
820.184	3861
820.324	3816
820.465	3907
820.605	3888
820.746	3892
820.886	3819
821.026	3960
821.167	3949
821.307	3972
821.447	3960
821.588	3937
821.728	3960
821.868	3922
822.008	3899
822.149	3892
822.289	3899
822.429	3816
822.569	3793
822.709	3804
822.849	3690
822.99	3740
823.13	3755
823.27	3793
823.41	3755
823.55	3736
823.69	3717
823.83	3724
823.97	3698
824.11	3629
824.25	3549
824.389	3660
824.529	3644
824.669	3652
824.809	3698
824.949	3743
825.089	3713
825.228	3717
825.368	3564
825.508	3538
825.648	3603
825.787	3656
825.927	3660
826.067	3618
826.206	3667
826.346	3808
826.485	3854
826.625	3861
826.765	3930
826.904	3838
827.044	3618
827.183	3515
827.323	3424
827.462	3488
827.601	3454
827.741	3431
827.88	3447
828.02	3393
828.159	3454
828.298	3496
828.437	3511
828.577	3496
828.716	3633
828.855	3500
828.994	3412
829.134	3389
829.273	3370
829.412	3340
829.551	3351
829.69	3393
829.829	3367
829.968	3500
830.107	3424
830.246	3450
830.385	3416
830.524	3374
830.663	3329
830.802	3268
830.941	3233
831.08	3203
831.219	3294
831.357	3310
831.496	3416
831.635	3237
831.774	3226
831.913	3195
832.051	3131
832.19	3165
832.329	3256
832.467	3157
832.606	3123
832.744	3195
832.883	3184
833.022	3176
833.16	3260
833.299	3321
833.437	3336
833.576	3367
833.714	3389
833.852	3416
833.991	3473
834.129	3477
834.267	3447
834.406	3374
834.544	3424
834.682	3469
834.821	3397
834.959	3599
835.097	3443
835.235	3542
835.373	3515
835.511	3488
835.65	3485
835.788	3488
835.926	3412
836.064	3420
836.202	3416
836.34	3584
836.478	3629
836.615	3572
836.753	3610
836.891	3652
837.029	3618
837.167	3591
837.305	3564
837.443	3538
837.58	3526
837.718	3568
837.856	3530
837.993	3545
838.131	3618
838.269	3633
838.406	3610
838.544	3576
838.681	3488
838.819	3466
838.956	3397
839.094	3431
839.231	3511
839.369	3530
839.506	3751
839.643	3637
839.781	3557
839.918	3454
840.055	3504
840.193	3561
840.33	3504
840.467	3584
840.604	3637
840.742	3823
840.879	3553
841.016	3557
841.153	3660
841.29	3732
841.427	3762
841.564	3732
841.701	3759
841.838	3701
841.975	3679
842.112	3720
842.249	3633
842.385	3629
842.522	3854
842.659	3732
842.796	3705
842.933	3743
843.069	3690
843.206	3728
843.343	3819
843.479	3812
843.616	3884
843.752	3637
843.889	3671
844.025	3854
844.162	3705
844.298	3873
844.435	3819
844.571	3785
844.708	3918
844.844	3979
844.98	4040
845.117	4025
845.253	3960
845.389	3934
845.525	3983
845.661	3937
845.798	3941
845.934	4013
846.07	3987
846.206	4048
846.342	4131
846.478	4059
846.614	4010
846.75	3930
846.886	3873
847.022	4040
847.158	4002
847.294	4055
847.429	3972
847.565	4025
847.701	4249
847.837	3892
847.972	3907
848.108	3991
848.244	3956
848.379	3869
848.515	3835
848.65	3804
848.786	3876
848.921	3857
849.057	3972
849.192	3918
849.328	3930
849.463	3896
849.598	3884
849.734	3896
849.869	3854
850.004	3808
850.14	3846
850.275	3740
850.41	3819
850.545	3774
850.68	3785
850.815	3816
850.95	3873
851.085	3960
851.22	3899
851.355	3842
851.49	3823
851.625	3793
851.76	3800
851.895	3736
852.03	3747
852.165	3808
852.299	3884
852.434	3922
852.569	3888
852.703	3880
852.838	3949
852.973	4006
853.107	3991
853.242	3896
853.376	3823
853.511	3774
853.645	3831
853.78	3991
853.914	3899
854.048	3899
854.183	3915
854.317	3926
854.451	4078
854.585	3972
854.72	3983
854.854	4105
854.988	3964
855.122	4036
855.256	3937
855.39	4002
855.524	4147
855.658	4120
855.792	4090
855.926	4112
856.06	4188
856.194	4177
856.327	4143
856.461	4154
856.595	4173
856.729	4192
856.862	4303
856.996	4242
857.13	4287
857.263	4322
857.397	4348
857.53	4284
857.664	4306
857.797	4432
857.931	4447
858.064	4390
858.197	4443
858.331	4390
858.464	4371
858.597	4356
858.731	4424
858.864	4455
858.997	4432
859.13	4527
859.263	4512
859.396	4561
859.529	4561
859.662	4618
859.795	4493
859.928	4603
860.061	4725
860.194	4759
860.327	4664
860.46	4641
860.592	4725
860.725	4763
860.858	4733
860.99	4698
861.123	4683
861.256	4672
861.388	4755
861.521	5570
861.653	4710
861.786	4733
861.918	4793
862.05	4763
862.183	4843
862.315	4877
862.447	4946
862.58	4870
862.712	4782
862.844	4778
862.976	4911
863.108	4873
863.24	5250
863.372	4858
863.504	4915
863.636	4904
863.768	4980
863.9	4991
864.032	4942
864.164	4957
864.296	5006
864.428	5147
864.559	5075
864.691	5155
864.823	5113
864.954	5086
865.086	5151
865.217	5109
865.349	5079
865.48	5181
865.612	5193
865.743	5284
865.875	5246
866.006	5231
866.137	5254
866.269	5303
866.4	5250
866.531	5254
866.662	5258
866.793	5322
866.924	5220
867.055	5322
867.186	5357
867.317	5353
867.448	5318
867.579	5379
867.71	5398
867.841	5387
867.972	5459
868.103	5474
868.233	5417
868.364	5471
868.495	5562
868.625	5691
868.756	5764
868.886	5627
869.017	5699
869.147	5874
869.278	5832
869.408	5824
869.539	5870
869.669	5897
869.799	5927
869.929	5973
870.06	5977
870.19	6144
870.32	6209
870.45	6232
870.58	6372
870.71	6452
870.84	6494
870.97	6448
871.1	6460
871.23	6715
871.36	6688
871.489	6669
871.619	6772
871.749	6821
871.879	6848
872.008	6970
872.138	7042
872.267	6943
872.397	7019
872.526	7023
872.656	7076
872.785	7198
872.915	7396
873.044	7556
873.173	7620
873.303	7666
873.432	7803
873.561	7849
873.69	7890
873.819	8012
873.948	8157
874.077	8210
874.206	8351
874.335	8511
874.464	8651
874.593	8845
874.722	9001
874.851	9104
874.979	9298
875.108	9325
875.237	9454
875.365	9511
875.494	9614
875.623	9819
875.751	9846
875.88	10029
876.008	10211
876.136	10253
876.265	10394
876.393	10649
876.521	10660
876.65	10889
876.778	10869
876.906	10908
877.034	11056
877.162	11128
877.29	11216
877.418	11223
877.546	11425
877.674	11421
877.802	11436
877.93	11558
878.058	11558
878.185	11608
878.313	11646
878.441	11710
878.568	11691
878.696	11809
878.824	11828
878.951	11973
879.079	12049
879.206	12144
879.333	12030
879.461	12053
879.588	12072
879.715	12095
879.842	12270
879.97	12076
880.097	11866
880.224	11821
880.351	11863
880.478	11920
880.605	11821
880.732	11790
880.859	12022
880.986	11817
881.112	11843
881.239	11710
881.366	11726
881.493	11623
881.619	11490
881.746	11543
881.872	11509
881.999	11501
882.125	11512
882.252	11528
882.378	11486
882.505	11516
882.631	11315
882.757	11223
882.883	11284
883.01	11288
883.136	11235
883.262	11117
883.388	11094
883.514	11140
883.64	11162
883.766	11140
883.892	10953
884.018	11025
884.143	11045
884.269	11067
884.395	10877
884.52	10782
884.646	10790
884.772	10774
884.897	10660
885.023	10710
885.148	10744
885.274	10824
885.399	10873
885.524	10691
885.65	10603
885.775	10679
885.9	10573
886.025	10664
886.15	10573
886.275	10443
886.4	10314
886.525	10413
886.65	10344
886.775	10265
886.9	10436
887.025	10519
887.149	10356
887.274	10185
887.399	10215
887.523	10238
887.648	10188
887.773	10158
887.897	10284
888.021	10261
888.146	10211
888.27	10207
888.395	10192
888.519	10169
888.643	10211
888.767	10238
888.891	10116
889.015	10101
889.139	10036
889.263	9994
889.387	10017
889.511	10090
889.635	10124
889.759	9994
889.883	9949
890.006	10017
890.13	10124
890.254	9918
890.377	9956
890.501	9888
890.624	9819
890.748	9922
890.871	9838
890.995	9774
891.118	9759
891.241	9759
891.364	9667
891.488	9804
891.611	9736
891.734	9831
891.857	9785
891.98	9778
892.103	9781
892.226	9652
892.349	9709
892.471	9496
892.594	9519
892.717	9564
892.839	9644
892.962	9553
893.085	9671
893.207	9599
893.33	9507
893.452	9576
893.575	9603
893.697	9462
893.819	9545
893.941	9591
894.064	9591
894.186	9504
894.308	9450
894.43	9568
894.552	9572
894.674	9572
894.796	9405
894.918	9298
895.04	9317
895.161	9420
895.283	9306
895.405	9291
895.526	9275
895.648	9268
895.769	9211
895.891	9264
896.012	9253
896.134	9249
896.255	9253
896.376	9028
896.498	9233
896.619	9260
896.74	9093
896.861	9138
896.982	9302
897.103	9249
897.224	9195
897.345	9089
897.466	9051
897.587	9017
897.708	9142
897.828	8990
897.949	8990
898.07	8853
898.19	8944
898.311	8982
898.431	8883
898.552	9017
898.672	8929
898.792	8952
898.913	8921
899.033	8834
899.153	8762
899.273	8689
899.393	8682
899.513	8830
899.633	8705
899.753	8686
899.873	8708
899.993	8731
900.113	8750
900.232	8724
900.352	8659
900.472	8617
900.591	8549
900.711	8678
900.83	8549
900.95	8712
901.069	8739
901.189	8579
901.308	8492
901.427	8412
901.546	8454
901.665	8473
901.784	8507
901.904	8408
902.023	8381
902.141	8233
902.26	8233
902.379	8263
902.498	8183
902.617	8233
902.735	8389
902.854	8256
902.973	8324
903.091	8161
903.21	8153
903.328	8244
903.446	8123
903.565	8123
903.683	8130
903.801	8065
903.919	8164
904.038	8164
904.156	8054
904.274	8115
904.392	7997
904.51	8107
904.627	8065
904.745	8134
904.863	8065
904.981	7997
905.098	7909
905.216	7852
905.334	7871
905.451	7936
905.569	7860
905.686	7947
905.803	7944
905.921	7731
906.038	7879
906.155	7826
906.272	7727
906.389	7757
906.506	7647
906.623	7651
906.74	7662
906.857	7567
906.974	7582
907.091	7712
907.208	7723
907.324	7681
907.441	7601
907.557	7441
907.674	7430
907.79	7358
907.907	7384
908.023	7472
908.139	7487
908.256	7419
908.372	7369
908.488	7392
908.604	7263
908.72	7255
908.836	7282
908.952	7225
909.068	7282
909.184	7305
909.3	7270
909.415	7274
909.531	7274
909.647	7137
909.762	7164
909.878	7061
909.993	7114
910.108	7126
910.224	7126
910.339	7080
910.454	7050
910.57	7057
910.685	6996
910.8	7202
910.915	7156
911.03	7091
911.145	6875
911.259	6844
911.374	6894
911.489	6829
911.604	6840
911.718	6703
911.833	6703
911.947	6696
912.062	6654
912.176	6730
912.291	6696
912.405	6753
912.519	6806
912.633	6825
912.748	6688
912.862	6707
912.976	6593
913.09	6589
913.204	6658
913.318	6692
913.431	6703
913.545	6684
913.659	6779
913.772	6669
913.886	6589
914	6483
914.113	6654
914.226	6658
914.34	6627
914.453	6471
914.566	6654
914.68	6479
914.793	6570
914.906	6414
915.019	6460
915.132	6414
915.245	6418
915.358	6410
915.47	6452
915.583	6456
915.696	6513
915.809	6547
915.921	6509
916.034	6464
916.146	6475
916.259	6441
916.371	6475
916.483	6448
916.595	6334
916.708	6384
916.82	6388
916.932	6384
917.044	6407
917.156	6483
917.268	6327
917.38	6353
917.491	6342
917.603	6319
917.715	6350
917.826	6448
917.938	6285
918.049	6232
918.161	6323
918.272	6342
918.384	6464
918.495	6372
918.606	6224
918.717	6235
918.828	6285
918.939	6292
919.05	6197
919.161	6296
919.272	6125
919.383	6144
919.494	6285
919.604	6399
919.715	6327
919.826	6209
919.936	6232
920.047	6323
920.157	6296
920.267	6513
920.378	6327
920.488	6277
920.598	6433
920.708	6521
920.818	6441
920.928	6452
921.038	6582
921.148	6555
921.258	6308
921.368	6285
921.477	6254
921.587	6201
921.697	6083
921.806	6167
921.916	6110
922.025	5973
922.134	5973
922.244	5855
922.353	5950
922.462	5889
922.571	5840
922.68	5722
922.789	5680
922.898	5767
923.007	5680
923.116	5680
923.224	5703
923.333	5699
923.442	5592
923.55	5604
923.659	5623
923.767	5665
923.876	5547
923.984	5577
924.092	5512
924.201	5596
924.309	5524
924.417	5547
924.525	5558
924.633	5551
924.741	6167
924.849	5357
924.956	5482
925.064	5337
925.172	5292
925.279	5265
925.387	5372
925.494	5337
925.602	5406
925.709	5387
925.816	5273
925.924	5345
926.031	5318
926.138	5292
926.245	5334
926.352	5166
926.459	5299
926.566	5337
926.673	5231
926.779	5185
926.886	5166
926.993	5064
927.099	5033
927.206	5010
927.312	4908
927.419	4987
927.525	4999
927.631	4949
927.737	4908
927.843	4862
927.95	4759
928.056	4854
928.162	4858
928.267	4854
928.373	5360
928.479	4854
928.585	4698
928.69	4793
928.796	4748
928.901	4698
929.007	4645
929.112	4706
929.218	4660
929.323	4626
929.428	4573
929.533	4645
929.638	4607
929.743	4588
929.848	4565
929.953	4508
930.058	4455
930.163	4341
930.267	4356
930.372	4440
930.477	4295
930.581	4459
930.685	4325
930.79	4246
930.894	4299
930.998	4257
931.103	4421
931.207	4139
931.311	4086
931.415	4059
931.519	3930
931.623	3937
