Data from glass_V78500241_2549.txt Node
Date: Wed Sep 01 19:32:10 CST 2021
User: usil
Spectrometer: V785-0024
Trigger mode: 0
Integration Time (sec): 4.000000E-1
Scans to average: 1
Nonlinearity correction enabled: false
Boxcar width: 0
Storing dark spectrum: false
XAxis mode: Wavelengths
Number of Pixels in Spectrum: 1024
>>>>>Begin Spectral Data<<<<<
801.071	3755
801.214	3705
801.356	3698
801.499	3755
801.641	3728
801.783	3785
801.926	3835
802.068	3835
802.211	3850
802.353	3873
802.496	3835
802.638	3854
802.78	3896
802.923	3915
803.065	3892
803.208	3835
803.35	3865
803.492	3861
803.635	3899
803.777	3785
803.919	3930
804.061	4101
804.204	3926
804.346	3937
804.488	3922
804.63	4044
804.773	3964
804.915	4063
805.057	4112
805.199	4055
805.341	4082
805.483	4109
805.626	4131
805.768	4139
805.91	4158
806.052	4169
806.194	4249
806.336	4314
806.478	4215
806.62	4169
806.762	4204
806.904	4257
807.046	4310
807.188	4211
807.33	4147
807.472	4257
807.614	4192
807.756	4215
807.898	4196
808.04	4219
808.182	4299
808.324	4333
808.465	4367
808.607	4436
808.749	4421
808.891	4504
809.033	4466
809.174	4360
809.316	4223
809.458	4253
809.6	4181
809.741	4154
809.883	4135
810.025	4227
810.166	4207
810.308	4215
810.45	4265
810.591	4230
810.733	4276
810.875	4546
811.016	4809
811.158	5102
811.299	5250
811.441	5299
811.582	5056
811.724	4687
811.865	4462
812.007	4436
812.148	4443
812.29	4432
812.431	4417
812.573	4409
812.714	4386
812.855	4417
812.997	4337
813.138	4474
813.279	4424
813.421	4424
813.562	4337
813.703	4341
813.845	4348
813.986	4265
814.127	4204
814.268	4253
814.41	4261
814.551	4299
814.692	4314
814.833	4291
814.974	4295
815.115	4360
815.256	4200
815.397	4196
815.539	4249
815.68	4143
815.821	4188
815.962	4268
816.103	4257
816.244	4223
816.385	4261
816.526	4272
816.666	4162
816.807	4109
816.948	4128
817.089	4131
817.23	4105
817.371	4032
817.512	4059
817.653	4074
817.793	3994
817.934	4006
818.075	4112
818.216	4059
818.356	4059
818.497	4006
818.638	3888
818.778	3922
818.919	3884
819.06	3831
819.2	3907
819.341	3857
819.481	3838
819.622	3884
819.762	3998
819.903	3972
820.043	3884
820.184	3846
820.324	3759
820.465	3854
820.605	3846
820.746	3873
820.886	3838
821.026	3888
821.167	3911
821.307	3972
821.447	3960
821.588	3945
821.728	3975
821.868	3941
822.008	3854
822.149	3896
822.289	3926
822.429	3766
822.569	3747
822.709	3808
822.849	3698
822.99	3747
823.13	3800
823.27	3762
823.41	3675
823.55	3713
823.69	3720
823.83	3732
823.97	3713
824.11	3603
824.25	3629
824.389	3595
824.529	3648
824.669	3606
824.809	3682
824.949	3728
825.089	3736
825.228	3717
825.368	3561
825.508	3568
825.648	3545
825.787	3610
825.927	3584
826.067	3629
826.206	3667
826.346	3766
826.485	3812
826.625	3857
826.765	3953
826.904	3831
827.044	3618
827.183	3519
827.323	3412
827.462	3515
827.601	3401
827.741	3389
827.88	3439
828.02	3359
828.159	3435
828.298	3496
828.437	3515
828.577	3492
828.716	3599
828.855	3504
828.994	3340
829.134	3378
829.273	3355
829.412	3348
829.551	3367
829.69	3359
829.829	3367
829.968	3530
830.107	3405
830.246	3420
830.385	3405
830.524	3374
830.663	3298
830.802	3306
830.941	3214
831.08	3184
831.219	3256
831.357	3253
831.496	3397
831.635	3222
831.774	3188
831.913	3180
832.051	3135
832.19	3077
832.329	3173
832.467	3108
832.606	3100
832.744	3150
832.883	3207
833.022	3207
833.16	3230
833.299	3279
833.437	3332
833.576	3386
833.714	3416
833.852	3450
833.991	3462
834.129	3477
834.267	3454
834.406	3363
834.544	3382
834.682	3382
834.821	3435
834.959	3530
835.097	3428
835.235	3545
835.373	3458
835.511	3507
835.65	3450
835.788	3481
835.926	3420
836.064	3378
836.202	3378
836.34	3504
836.478	3622
836.615	3523
836.753	3580
836.891	3656
837.029	3584
837.167	3561
837.305	3557
837.443	3553
837.58	3485
837.718	3557
837.856	3561
837.993	3519
838.131	3580
838.269	3595
838.406	3553
838.544	3534
838.681	3466
838.819	3462
838.956	3355
839.094	3378
839.231	3401
839.369	3507
839.506	3694
839.643	3595
839.781	3473
839.918	3469
840.055	3515
840.193	3515
840.33	3545
840.467	3549
840.604	3656
840.742	3781
840.879	3534
841.016	3549
841.153	3606
841.29	3720
841.427	3720
841.564	3698
841.701	3705
841.838	3690
841.975	3648
842.112	3686
842.249	3599
842.385	3614
842.522	3823
842.659	3648
842.796	3652
842.933	3705
843.069	3671
843.206	3675
843.343	3812
843.479	3781
843.616	3823
843.752	3667
843.889	3656
844.025	3838
844.162	3755
844.298	3819
844.435	3785
844.571	3747
844.708	3937
844.844	4010
844.98	4002
845.117	4002
845.253	3937
845.389	3911
845.525	3922
845.661	3975
845.798	3911
845.934	3994
846.07	3918
846.206	4063
846.342	4097
846.478	4120
846.614	3979
846.75	3922
846.886	3892
847.022	3968
847.158	3945
847.294	4002
847.429	4044
847.565	3972
847.701	4207
847.837	3880
847.972	3816
848.108	3949
848.244	3934
848.379	3831
848.515	3778
848.65	3816
848.786	3846
848.921	3876
849.057	3926
849.192	3922
849.328	3854
849.463	3911
849.598	3873
849.734	3869
849.869	3789
850.004	3755
850.14	3823
850.275	3793
850.41	3755
850.545	3720
850.68	3762
850.815	3789
850.95	3831
851.085	3896
851.22	3831
851.355	3827
851.49	3755
851.625	3800
851.76	3797
851.895	3804
852.03	3694
852.165	3819
852.299	3823
852.434	3880
852.569	3827
852.703	3861
852.838	3884
852.973	3953
853.107	3960
853.242	3876
853.376	3823
853.511	3740
853.645	3781
853.78	3956
853.914	3888
854.048	3846
854.183	3884
854.317	3922
854.451	4082
854.585	3964
854.72	3907
854.854	3991
854.988	3941
855.122	3979
855.256	3896
855.39	4002
855.524	4101
855.658	4071
855.792	4074
855.926	4158
856.06	4162
856.194	4207
856.327	4131
856.461	4116
856.595	4150
856.729	4181
856.862	4265
856.996	4192
857.13	4284
857.263	4344
857.397	4303
857.53	4287
857.664	4344
857.797	4386
857.931	4413
858.064	4352
858.197	4440
858.331	4432
858.464	4409
858.597	4333
858.731	4386
858.864	4466
858.997	4417
859.13	4569
859.263	4538
859.396	4588
859.529	4512
859.662	4596
859.795	4462
859.928	4584
860.061	4683
860.194	4733
860.327	4656
860.46	4675
860.592	4736
860.725	4729
860.858	4774
860.99	4717
861.123	4706
861.256	4721
861.388	4767
861.521	5353
861.653	4679
861.786	4725
861.918	4759
862.05	4744
862.183	4873
862.315	4858
862.447	4923
862.58	4889
862.712	4805
862.844	4752
862.976	4927
863.108	4824
863.24	5181
863.372	4812
863.504	4858
863.636	4900
863.768	4889
863.9	4938
864.032	4866
864.164	4911
864.296	5006
864.428	5075
864.559	5124
864.691	5155
864.823	5136
864.954	5151
865.086	5124
865.217	5128
865.349	5086
865.48	5113
865.612	5147
865.743	5292
865.875	5185
866.006	5143
866.137	5197
866.269	5235
866.4	5280
866.531	5201
866.662	5216
866.793	5235
866.924	5334
867.055	5299
867.186	5299
867.317	5277
867.448	5330
867.579	5341
867.71	5425
867.841	5376
867.972	5459
868.103	5440
868.233	5490
868.364	5501
868.495	5573
868.625	5623
868.756	5771
868.886	5714
869.017	5695
869.147	5844
869.278	5885
869.408	5767
869.539	5802
869.669	5927
869.799	5912
869.929	5920
870.06	5961
870.19	6213
870.32	6228
870.45	6235
870.58	6289
870.71	6414
870.84	6521
870.97	6467
871.1	6388
871.23	6555
871.36	6665
871.489	6692
871.619	6715
871.749	6814
871.879	6871
872.008	6981
872.138	6932
872.267	7023
872.397	6977
872.526	7057
872.656	7107
872.785	7149
872.915	7327
873.044	7468
873.173	7582
873.303	7689
873.432	7753
873.561	7970
873.69	7925
873.819	7997
873.948	8191
874.077	8210
874.206	8381
874.335	8488
874.464	8663
874.593	8861
874.722	8918
874.851	9142
874.979	9237
875.108	9329
875.237	9340
875.365	9447
875.494	9709
875.623	9774
875.751	9819
875.88	9975
876.008	10143
876.136	10337
876.265	10546
876.393	10634
876.521	10790
876.65	10797
876.778	10847
876.906	10984
877.034	10923
877.162	11045
877.29	11117
877.418	11299
877.546	11315
877.674	11421
877.802	11493
877.93	11486
878.058	11509
878.185	11520
878.313	11646
878.441	11703
878.568	11680
878.696	11840
878.824	11817
878.951	11961
879.079	11980
879.206	12079
879.333	12083
879.461	11977
879.588	12068
879.715	12045
879.842	12247
879.97	12095
880.097	11798
880.224	11904
880.351	11855
880.478	11885
880.605	11897
880.732	11760
880.859	11977
880.986	11771
881.112	11908
881.239	11760
881.366	11600
881.493	11642
881.619	11524
881.746	11596
881.872	11501
881.999	11467
882.125	11459
882.252	11497
882.378	11463
882.505	11543
882.631	11341
882.757	11292
882.883	11311
883.01	11242
883.136	11189
883.262	11212
883.388	10991
883.514	11136
883.64	11216
883.766	11178
883.892	11018
884.018	10965
884.143	11033
884.269	11109
884.395	10885
884.52	10786
884.646	10812
884.772	10634
884.897	10721
885.023	10645
885.148	10748
885.274	10797
885.399	10736
885.524	10622
885.65	10577
885.775	10599
885.9	10573
886.025	10603
886.15	10538
886.275	10440
886.4	10470
886.525	10314
886.65	10360
886.775	10303
886.9	10432
887.025	10500
887.149	10413
887.274	10177
887.399	10173
887.523	10181
887.648	10181
887.773	10112
887.897	10196
888.021	10257
888.146	10158
888.27	10242
888.395	10268
888.519	10173
888.643	10185
888.767	10230
888.891	10036
889.015	10048
889.139	10029
889.263	10036
889.387	10112
889.511	10173
889.635	10082
889.759	9880
889.883	9968
890.006	9987
890.13	10059
890.254	9994
890.377	10006
890.501	9846
890.624	9842
890.748	9930
890.871	9819
890.995	9774
891.118	9759
891.241	9793
891.364	9762
891.488	9751
891.611	9694
891.734	9800
891.857	9804
891.98	9644
892.103	9675
892.226	9724
892.349	9705
892.471	9485
892.594	9519
892.717	9534
892.839	9576
892.962	9587
893.085	9667
893.207	9591
893.33	9500
893.452	9557
893.575	9584
893.697	9587
893.819	9641
893.941	9652
894.064	9584
894.186	9443
894.308	9302
894.43	9534
894.552	9584
894.674	9439
894.796	9336
894.918	9389
895.04	9374
895.161	9355
895.283	9363
895.405	9237
895.526	9249
895.648	9298
895.769	9188
895.891	9192
896.012	9332
896.134	9245
896.255	9131
896.376	9161
896.498	9138
896.619	9169
896.74	9081
896.861	9077
896.982	9283
897.103	9287
897.224	9135
897.345	9074
897.466	9001
897.587	9047
897.708	9097
897.828	9043
897.949	8948
898.07	8796
898.19	8975
898.311	8963
898.431	8872
898.552	8872
898.672	8918
898.792	8918
898.913	8868
899.033	8788
899.153	8655
899.273	8716
899.393	8686
899.513	8815
899.633	8800
899.753	8766
899.873	8708
899.993	8670
900.113	8663
900.232	8705
900.352	8670
900.472	8648
900.591	8560
900.711	8594
900.83	8590
900.95	8632
901.069	8693
901.189	8606
901.308	8454
901.427	8374
901.546	8400
901.665	8484
901.784	8503
901.904	8366
902.023	8385
902.141	8275
902.26	8176
902.379	8290
902.498	8206
902.617	8180
902.735	8290
902.854	8248
902.973	8244
903.091	8111
903.21	8123
903.328	8100
903.446	8088
903.565	8077
903.683	8084
903.801	8088
903.919	8161
904.038	8115
904.156	8069
904.274	8100
904.392	8005
904.51	8054
904.627	8073
904.745	8107
904.863	8054
904.981	7951
905.098	7890
905.216	7902
905.334	7902
905.451	7814
905.569	7868
905.686	7921
905.803	7894
905.921	7723
906.038	7856
906.155	7784
906.272	7670
906.389	7674
906.506	7632
906.623	7700
906.74	7609
906.857	7499
906.974	7533
907.091	7643
907.208	7655
907.324	7586
907.441	7556
907.557	7384
907.674	7377
907.79	7415
907.907	7331
908.023	7468
908.139	7430
908.256	7346
908.372	7384
908.488	7305
908.604	7228
908.72	7232
908.836	7236
908.952	7244
909.068	7217
909.184	7343
909.3	7240
909.415	7316
909.531	7232
909.647	7088
909.762	7152
909.878	7057
909.993	7095
910.108	7099
910.224	7072
910.339	7080
910.454	7012
910.57	7019
910.685	6916
910.8	7149
910.915	7076
911.03	6996
911.145	6875
911.259	6825
911.374	6909
911.489	6875
911.604	6783
911.718	6719
911.833	6757
911.947	6608
912.062	6604
912.176	6734
912.291	6669
912.405	6684
912.519	6840
912.633	6821
912.748	6753
912.862	6696
912.976	6585
913.09	6551
913.204	6578
913.318	6639
913.431	6631
913.545	6681
913.659	6711
913.772	6669
913.886	6578
914	6574
914.113	6551
914.226	6612
914.34	6593
914.453	6448
914.566	6627
914.68	6513
914.793	6517
914.906	6433
915.019	6369
915.132	6399
915.245	6433
915.358	6479
915.47	6407
915.583	6448
915.696	6460
915.809	6509
915.921	6540
916.034	6441
916.146	6403
916.259	6399
916.371	6403
916.483	6426
916.595	6346
916.708	6418
916.82	6414
916.932	6380
917.044	6376
917.156	6391
917.268	6292
917.38	6361
917.491	6319
917.603	6334
917.715	6388
917.826	6353
917.938	6281
918.049	6232
918.161	6357
918.272	6380
918.384	6445
918.495	6353
918.606	6213
918.717	6209
918.828	6213
918.939	6239
919.05	6167
919.161	6273
919.272	6095
919.383	6136
919.494	6266
919.604	6376
919.715	6292
919.826	6186
919.936	6228
920.047	6395
920.157	6220
920.267	6445
920.378	6338
920.488	6277
920.598	6403
920.708	6559
920.818	6407
920.928	6464
921.038	6559
921.148	6604
921.258	6319
921.368	6304
921.477	6178
921.587	6098
921.697	6095
921.806	6178
921.916	6060
922.025	5954
922.134	5927
922.244	5870
922.353	5935
922.462	5794
922.571	5809
922.68	5680
922.789	5657
922.898	5676
923.007	5585
923.116	5707
923.224	5600
923.333	5619
923.442	5547
923.55	5535
923.659	5539
923.767	5619
923.876	5547
923.984	5592
924.092	5535
924.201	5554
924.309	5547
924.417	5512
924.525	5528
924.633	5539
924.741	6243
924.849	5402
924.956	5398
925.064	5379
925.172	5337
925.279	5284
925.387	5387
925.494	5330
925.602	5387
925.709	5402
925.816	5296
925.924	5254
926.031	5360
926.138	5303
926.245	5322
926.352	5197
926.459	5265
926.566	5334
926.673	5220
926.779	5201
926.886	5086
926.993	5029
927.099	4968
927.206	4946
927.312	4911
927.419	4961
927.525	4957
927.631	5045
927.737	4885
927.843	4839
927.95	4828
928.056	4786
928.162	4816
928.267	4828
928.373	5246
928.479	4843
928.585	4645
928.69	4748
928.796	4698
928.901	4660
929.007	4588
929.112	4668
929.218	4668
929.323	4630
929.428	4561
929.533	4675
929.638	4455
929.743	4554
929.848	4523
929.953	4512
930.058	4432
930.163	4291
930.267	4295
930.372	4409
930.477	4287
930.581	4451
930.685	4341
930.79	4215
930.894	4261
930.998	4272
931.103	4379
931.207	4162
931.311	4101
931.415	4059
931.519	3945
931.623	3945
