Data from glass_V78500241_449.txt Node
Date: Wed Sep 01 19:17:36 CST 2021
User: usil
Spectrometer: V785-0024
Trigger mode: 0
Integration Time (sec): 4.000000E-1
Scans to average: 1
Nonlinearity correction enabled: false
Boxcar width: 0
Storing dark spectrum: false
XAxis mode: Wavelengths
Number of Pixels in Spectrum: 1024
>>>>>Begin Spectral Data<<<<<
801.071	3766
801.214	3766
801.356	3766
801.499	3778
801.641	3762
801.783	3766
801.926	3873
802.068	3869
802.211	3865
802.353	3915
802.496	3857
802.638	3907
802.78	3896
802.923	3915
803.065	3880
803.208	3865
803.35	3861
803.492	3888
803.635	3937
803.777	3831
803.919	3918
804.061	4150
804.204	3968
804.346	3983
804.488	3930
804.63	4090
804.773	3987
804.915	4021
805.057	4173
805.199	4025
805.341	4097
805.483	4124
805.626	4109
805.768	4093
805.91	4261
806.052	4215
806.194	4234
806.336	4363
806.478	4219
806.62	4196
806.762	4246
806.904	4249
807.046	4356
807.188	4207
807.33	4246
807.472	4257
807.614	4207
807.756	4310
807.898	4219
808.04	4234
808.182	4234
808.324	4348
808.465	4428
808.607	4470
808.749	4451
808.891	4493
809.033	4497
809.174	4413
809.316	4310
809.458	4291
809.6	4207
809.741	4120
809.883	4120
810.025	4200
810.166	4257
810.308	4219
810.45	4242
810.591	4227
810.733	4295
810.875	4531
811.016	4828
811.158	5124
811.299	5265
811.441	5303
811.582	5079
811.724	4717
811.865	4474
812.007	4493
812.148	4443
812.29	4455
812.431	4447
812.573	4417
812.714	4371
812.855	4409
812.997	4447
813.138	4424
813.279	4447
813.421	4390
813.562	4409
813.703	4329
813.845	4360
813.986	4257
814.127	4234
814.268	4299
814.41	4284
814.551	4310
814.692	4287
814.833	4230
814.974	4325
815.115	4398
815.256	4246
815.397	4291
815.539	4276
815.68	4200
815.821	4223
815.962	4341
816.103	4249
816.244	4291
816.385	4230
816.526	4348
816.666	4215
816.807	4093
816.948	4166
817.089	4196
817.23	4169
817.371	4017
817.512	4032
817.653	4078
817.793	4044
817.934	4055
818.075	4135
818.216	4116
818.356	4158
818.497	4025
818.638	3968
818.778	3918
818.919	3934
819.06	3865
819.2	3945
819.341	3896
819.481	3842
819.622	3941
819.762	4002
819.903	3922
820.043	3835
820.184	3857
820.324	3854
820.465	3903
820.605	3899
820.746	3869
820.886	3831
821.026	3953
821.167	3926
821.307	3991
821.447	3979
821.588	3934
821.728	3987
821.868	3960
822.008	3850
822.149	3926
822.289	3922
822.429	3819
822.569	3751
822.709	3797
822.849	3724
822.99	3740
823.13	3762
823.27	3774
823.41	3690
823.55	3740
823.69	3743
823.83	3720
823.97	3743
824.11	3614
824.25	3625
824.389	3663
824.529	3648
824.669	3648
824.809	3724
824.949	3759
825.089	3728
825.228	3736
825.368	3603
825.508	3576
825.648	3553
825.787	3637
825.927	3656
826.067	3618
826.206	3686
826.346	3804
826.485	3835
826.625	3896
826.765	3949
826.904	3827
827.044	3606
827.183	3557
827.323	3447
827.462	3469
827.601	3431
827.741	3435
827.88	3469
828.02	3412
828.159	3443
828.298	3469
828.437	3557
828.577	3526
828.716	3591
828.855	3507
828.994	3424
829.134	3389
829.273	3401
829.412	3348
829.551	3298
829.69	3363
829.829	3435
829.968	3549
830.107	3481
830.246	3439
830.385	3424
830.524	3405
830.663	3321
830.802	3283
830.941	3214
831.08	3218
831.219	3279
831.357	3253
831.496	3428
831.635	3233
831.774	3237
831.913	3211
832.051	3138
832.19	3173
832.329	3214
832.467	3157
832.606	3127
832.744	3161
832.883	3226
833.022	3222
833.16	3253
833.299	3313
833.437	3332
833.576	3397
833.714	3393
833.852	3454
833.991	3435
834.129	3473
834.267	3439
834.406	3409
834.544	3447
834.682	3420
834.821	3439
834.959	3557
835.097	3447
835.235	3557
835.373	3488
835.511	3538
835.65	3477
835.788	3488
835.926	3382
836.064	3424
836.202	3424
836.34	3584
836.478	3610
836.615	3557
836.753	3599
836.891	3637
837.029	3599
837.167	3629
837.305	3561
837.443	3534
837.58	3507
837.718	3625
837.856	3545
837.993	3523
838.131	3595
838.269	3603
838.406	3618
838.544	3561
838.681	3504
838.819	3454
838.956	3367
839.094	3386
839.231	3454
839.369	3469
839.506	3698
839.643	3671
839.781	3492
839.918	3500
840.055	3530
840.193	3530
840.33	3561
840.467	3561
840.604	3660
840.742	3831
840.879	3557
841.016	3606
841.153	3625
841.29	3740
841.427	3740
841.564	3751
841.701	3740
841.838	3736
841.975	3671
842.112	3705
842.249	3656
842.385	3656
842.522	3831
842.659	3720
842.796	3671
842.933	3698
843.069	3698
843.206	3759
843.343	3827
843.479	3800
843.616	3846
843.752	3686
843.889	3690
844.025	3884
844.162	3724
844.298	3797
844.435	3793
844.571	3808
844.708	3930
844.844	4017
844.98	4044
845.117	4051
845.253	3953
845.389	3926
845.525	3979
845.661	3960
845.798	3930
845.934	3975
846.07	3956
846.206	4074
846.342	4078
846.478	4055
846.614	4002
846.75	3911
846.886	3949
847.022	4082
847.158	3953
847.294	4010
847.429	4032
847.565	4025
847.701	4253
847.837	3907
847.972	3869
848.108	3994
848.244	4010
848.379	3854
848.515	3865
848.65	3835
848.786	3888
848.921	3903
849.057	3926
849.192	3968
849.328	3888
849.463	3975
849.598	3941
849.734	3831
849.869	3850
850.004	3831
850.14	3816
850.275	3778
850.41	3781
850.545	3728
850.68	3857
850.815	3850
850.95	3804
851.085	3994
851.22	3876
851.355	3846
851.49	3827
851.625	3774
851.76	3770
851.895	3755
852.03	3747
852.165	3778
852.299	3854
852.434	3907
852.569	3865
852.703	3892
852.838	3972
852.973	4017
853.107	4013
853.242	3907
853.376	3869
853.511	3804
853.645	3896
853.78	3991
853.914	3918
854.048	3926
854.183	3922
854.317	3941
854.451	4059
854.585	3964
854.72	3953
854.854	4051
854.988	3949
855.122	4048
855.256	3918
855.39	4029
855.524	4139
855.658	4120
855.792	4097
855.926	4116
856.06	4219
856.194	4211
856.327	4181
856.461	4158
856.595	4196
856.729	4219
856.862	4284
856.996	4230
857.13	4371
857.263	4337
857.397	4363
857.53	4295
857.664	4348
857.797	4405
857.931	4447
858.064	4386
858.197	4504
858.331	4379
858.464	4409
858.597	4371
858.731	4428
858.864	4436
858.997	4497
859.13	4497
859.263	4527
859.396	4580
859.529	4516
859.662	4554
859.795	4516
859.928	4618
860.061	4733
860.194	4744
860.327	4691
860.46	4694
860.592	4778
860.725	4752
860.858	4771
860.99	4687
861.123	4660
861.256	4725
861.388	4805
861.521	5364
861.653	4748
861.786	4691
861.918	4744
862.05	4816
862.183	4889
862.315	4881
862.447	4938
862.58	4862
862.712	4774
862.844	4755
862.976	4866
863.108	4889
863.24	5227
863.372	4850
863.504	4942
863.636	4881
863.768	5003
863.9	4987
864.032	4946
864.164	4927
864.296	5003
864.428	5033
864.559	5113
864.691	5105
864.823	5105
864.954	5159
865.086	5197
865.217	5143
865.349	5136
865.48	5189
865.612	5223
865.743	5277
865.875	5227
866.006	5178
866.137	5223
866.269	5261
866.4	5258
866.531	5265
866.662	5208
866.793	5277
866.924	5284
867.055	5372
867.186	5326
867.317	5288
867.448	5368
867.579	5364
867.71	5417
867.841	5368
867.972	5509
868.103	5539
868.233	5543
868.364	5486
868.495	5615
868.625	5695
868.756	5760
868.886	5665
869.017	5786
869.147	5863
869.278	5851
869.408	5786
869.539	5836
869.669	5942
869.799	5954
869.929	6022
870.06	5980
870.19	6205
870.32	6201
870.45	6262
870.58	6357
870.71	6445
870.84	6479
870.97	6369
871.1	6517
871.23	6623
871.36	6707
871.489	6654
871.619	6741
871.749	6848
871.879	6928
872.008	6996
872.138	6954
872.267	7015
872.397	7031
872.526	7050
872.656	7076
872.785	7171
872.915	7346
873.044	7533
873.173	7590
873.303	7605
873.432	7738
873.561	7887
873.69	7982
873.819	7967
873.948	8134
874.077	8229
874.206	8347
874.335	8503
874.464	8678
874.593	8872
874.722	8937
874.851	9116
874.979	9298
875.108	9389
875.237	9416
875.365	9496
875.494	9694
875.623	9861
875.751	9884
875.88	9991
876.008	10112
876.136	10257
876.265	10516
876.393	10702
876.521	10736
876.65	10892
876.778	10869
876.906	10949
877.034	10953
877.162	11075
877.29	11239
877.418	11326
877.546	11315
877.674	11471
877.802	11436
877.93	11532
878.058	11535
878.185	11649
878.313	11604
878.441	11699
878.568	11596
878.696	11805
878.824	11859
878.951	11916
879.079	12060
879.206	12140
879.333	12102
879.461	11946
879.588	12121
879.715	11969
879.842	12258
879.97	12041
880.097	11885
880.224	11813
880.351	11874
880.478	11954
880.605	11882
880.732	11783
880.859	11977
880.986	11798
881.112	11863
881.239	11688
881.366	11638
881.493	11608
881.619	11577
881.746	11573
881.872	11551
881.999	11573
882.125	11505
882.252	11516
882.378	11501
882.505	11627
882.631	11376
882.757	11326
882.883	11303
883.01	11216
883.136	11239
883.262	11170
883.388	11075
883.514	11216
883.64	11155
883.766	11121
883.892	11056
884.018	11041
884.143	11060
884.269	11159
884.395	10869
884.52	10759
884.646	10778
884.772	10694
884.897	10694
885.023	10725
885.148	10694
885.274	10763
885.399	10759
885.524	10672
885.65	10569
885.775	10607
885.9	10523
886.025	10577
886.15	10603
886.275	10421
886.4	10341
886.525	10455
886.65	10306
886.775	10402
886.9	10466
887.025	10527
887.149	10348
887.274	10268
887.399	10131
887.523	10147
887.648	10162
887.773	10109
887.897	10314
888.021	10147
888.146	10051
888.27	10238
888.395	10303
888.519	10185
888.643	10109
888.767	10215
888.891	10139
889.015	9960
889.139	10078
889.263	9991
889.387	10093
889.511	10143
889.635	10147
889.759	9979
889.883	10044
890.006	9926
890.13	10150
890.254	10006
890.377	9945
890.501	9846
890.624	9774
890.748	9835
890.871	9857
890.995	9793
891.118	9717
891.241	9804
891.364	9766
891.488	9781
891.611	9743
891.734	9728
891.857	9823
891.98	9717
892.103	9747
892.226	9728
892.349	9701
892.471	9641
892.594	9610
892.717	9606
892.839	9637
892.962	9614
893.085	9660
893.207	9538
893.33	9504
893.452	9496
893.575	9637
893.697	9530
893.819	9599
893.941	9637
894.064	9545
894.186	9450
894.308	9412
894.43	9534
894.552	9644
894.674	9580
894.796	9439
894.918	9431
895.04	9367
895.161	9378
895.283	9351
895.405	9283
895.526	9336
895.648	9287
895.769	9321
895.891	9256
896.012	9283
896.134	9173
896.255	9218
896.376	9165
896.498	9157
896.619	9119
896.74	9085
896.861	9089
896.982	9294
897.103	9302
897.224	9180
897.345	9089
897.466	9070
897.587	9009
897.708	9157
897.828	8971
897.949	8929
898.07	8876
898.19	8883
898.311	9005
898.431	8902
898.552	8921
898.672	8899
898.792	8941
898.913	8937
899.033	8754
899.153	8701
899.273	8701
899.393	8697
899.513	8773
899.633	8788
899.753	8758
899.873	8678
899.993	8777
900.113	8617
900.232	8750
900.352	8739
900.472	8617
900.591	8594
900.711	8674
900.83	8552
900.95	8708
901.069	8712
901.189	8590
901.308	8473
901.427	8438
901.546	8419
901.665	8511
901.784	8537
901.904	8381
902.023	8305
902.141	8225
902.26	8183
902.379	8237
902.498	8214
902.617	8214
902.735	8301
902.854	8301
902.973	8256
903.091	8145
903.21	8088
903.328	8221
903.446	8096
903.565	8077
903.683	8077
903.801	8100
903.919	8176
904.038	8172
904.156	8062
904.274	8069
904.392	8001
904.51	8062
904.627	8084
904.745	8096
904.863	8073
904.981	7944
905.098	7906
905.216	7864
905.334	7913
905.451	7902
905.569	7902
905.686	7944
905.803	8031
905.921	7792
906.038	7883
906.155	7822
906.272	7696
906.389	7708
906.506	7651
906.623	7643
906.74	7552
906.857	7597
906.974	7578
907.091	7662
907.208	7731
907.324	7639
907.441	7578
907.557	7495
907.674	7457
907.79	7392
907.907	7434
908.023	7472
908.139	7434
908.256	7419
908.372	7369
908.488	7335
908.604	7297
908.72	7217
908.836	7308
908.952	7255
909.068	7266
909.184	7289
909.3	7228
909.415	7327
909.531	7327
909.647	7118
909.762	7129
909.878	7141
909.993	7072
910.108	7053
910.224	7034
910.339	7122
910.454	7072
910.57	7057
910.685	6943
910.8	7133
910.915	7114
911.03	7091
911.145	6875
911.259	6901
911.374	6875
911.489	6863
911.604	6840
911.718	6776
911.833	6772
911.947	6684
912.062	6585
912.176	6757
912.291	6650
912.405	6722
912.519	6798
912.633	6814
912.748	6760
912.862	6707
912.976	6677
913.09	6604
913.204	6612
913.318	6616
913.431	6658
913.545	6719
913.659	6722
913.772	6650
913.886	6612
914	6498
914.113	6688
914.226	6696
914.34	6627
914.453	6475
914.566	6593
914.68	6517
914.793	6498
914.906	6448
915.019	6403
915.132	6429
915.245	6418
915.358	6433
915.47	6460
915.583	6486
915.696	6528
915.809	6528
915.921	6612
916.034	6471
916.146	6422
916.259	6445
916.371	6467
916.483	6441
916.595	6395
916.708	6467
916.82	6365
916.932	6323
917.044	6441
917.156	6452
917.268	6342
917.38	6361
917.491	6323
917.603	6334
917.715	6410
917.826	6418
917.938	6300
918.049	6270
918.161	6289
918.272	6380
918.384	6448
918.495	6346
918.606	6247
918.717	6197
918.828	6258
918.939	6292
919.05	6213
919.161	6258
919.272	6125
919.383	6095
919.494	6350
919.604	6467
919.715	6281
919.826	6262
919.936	6262
920.047	6350
920.157	6296
920.267	6441
920.378	6346
920.488	6281
920.598	6483
920.708	6612
920.818	6502
920.928	6441
921.038	6608
921.148	6532
921.258	6369
921.368	6342
921.477	6239
921.587	6117
921.697	6057
921.806	6144
921.916	6068
922.025	5946
922.134	5973
922.244	5920
922.353	5920
922.462	5870
922.571	5809
922.68	5710
922.789	5657
922.898	5722
923.007	5661
923.116	5729
923.224	5714
923.333	5623
923.442	5570
923.55	5630
923.659	5520
923.767	5646
923.876	5512
923.984	5570
924.092	5562
924.201	5554
924.309	5551
924.417	5615
924.525	5478
924.633	5535
924.741	6315
924.849	5376
924.956	5539
925.064	5311
925.172	5303
925.279	5296
925.387	5379
925.494	5364
925.602	5455
925.709	5444
925.816	5307
925.924	5322
926.031	5353
926.138	5322
926.245	5345
926.352	5258
926.459	5360
926.566	5372
926.673	5204
926.779	5109
926.886	5094
926.993	4991
927.099	4999
927.206	4995
927.312	4976
927.419	5018
927.525	5003
927.631	5010
927.737	4946
927.843	4900
927.95	4812
928.056	4850
928.162	4839
928.267	4843
928.373	5280
928.479	4870
928.585	4698
928.69	4744
928.796	4748
928.901	4721
929.007	4577
929.112	4717
929.218	4653
929.323	4653
929.428	4580
929.533	4698
929.638	4535
929.743	4550
929.848	4550
929.953	4462
930.058	4474
930.163	4360
930.267	4344
930.372	4451
930.477	4325
930.581	4497
930.685	4383
930.79	4284
930.894	4314
930.998	4284
931.103	4386
931.207	4154
931.311	4055
931.415	4010
931.519	3998
931.623	3960
