Data from glass_V78500241_720.txt Node
Date: Wed Sep 01 19:19:29 CST 2021
User: usil
Spectrometer: V785-0024
Trigger mode: 0
Integration Time (sec): 4.000000E-1
Scans to average: 1
Nonlinearity correction enabled: false
Boxcar width: 0
Storing dark spectrum: false
XAxis mode: Wavelengths
Number of Pixels in Spectrum: 1024
>>>>>Begin Spectral Data<<<<<
801.071	3732
801.214	3717
801.356	3709
801.499	3736
801.641	3717
801.783	3781
801.926	3873
802.068	3823
802.211	3857
802.353	3903
802.496	3876
802.638	3899
802.78	3937
802.923	3953
803.065	3918
803.208	3911
803.35	3884
803.492	3888
803.635	3918
803.777	3793
803.919	3896
804.061	4181
804.204	4002
804.346	3937
804.488	3934
804.63	4032
804.773	4010
804.915	4040
805.057	4150
805.199	4055
805.341	4124
805.483	4158
805.626	4093
805.768	4143
805.91	4188
806.052	4227
806.194	4219
806.336	4398
806.478	4234
806.62	4166
806.762	4215
806.904	4280
807.046	4333
807.188	4211
807.33	4211
807.472	4238
807.614	4211
807.756	4287
807.898	4196
808.04	4280
808.182	4367
808.324	4322
808.465	4394
808.607	4478
808.749	4428
808.891	4493
809.033	4554
809.174	4436
809.316	4249
809.458	4246
809.6	4120
809.741	4154
809.883	4101
810.025	4196
810.166	4257
810.308	4223
810.45	4223
810.591	4227
810.733	4318
810.875	4531
811.016	4835
811.158	5223
811.299	5280
811.441	5296
811.582	5071
811.724	4710
811.865	4436
812.007	4455
812.148	4402
812.29	4432
812.431	4466
812.573	4424
812.714	4409
812.855	4428
812.997	4417
813.138	4504
813.279	4432
813.421	4325
813.562	4424
813.703	4363
813.845	4367
813.986	4314
814.127	4204
814.268	4295
814.41	4284
814.551	4272
814.692	4318
814.833	4272
814.974	4341
815.115	4337
815.256	4284
815.397	4272
815.539	4291
815.68	4200
815.821	4257
815.962	4344
816.103	4268
816.244	4261
816.385	4253
816.526	4325
816.666	4169
816.807	4131
816.948	4200
817.089	4192
817.23	4116
817.371	4082
817.512	4032
817.653	4097
817.793	4051
817.934	4059
818.075	4116
818.216	4090
818.356	4101
818.497	3987
818.638	3956
818.778	3968
818.919	3915
819.06	3842
819.2	3960
819.341	3899
819.481	3865
819.622	3930
819.762	4013
819.903	3949
820.043	3857
820.184	3846
820.324	3850
820.465	3915
820.605	3907
820.746	3861
820.886	3831
821.026	3975
821.167	3937
821.307	3960
821.447	4029
821.588	3968
821.728	3953
821.868	3949
822.008	3857
822.149	3926
822.289	3907
822.429	3827
822.569	3747
822.709	3800
822.849	3701
822.99	3766
823.13	3762
823.27	3774
823.41	3736
823.55	3701
823.69	3751
823.83	3766
823.97	3679
824.11	3633
824.25	3584
824.389	3663
824.529	3694
824.669	3603
824.809	3717
824.949	3747
825.089	3747
825.228	3709
825.368	3625
825.508	3553
825.648	3606
825.787	3576
825.927	3644
826.067	3671
826.206	3663
826.346	3747
826.485	3812
826.625	3918
826.765	3934
826.904	3865
827.044	3610
827.183	3542
827.323	3428
827.462	3511
827.601	3447
827.741	3450
827.88	3450
828.02	3393
828.159	3454
828.298	3485
828.437	3557
828.577	3488
828.716	3622
828.855	3523
828.994	3382
829.134	3332
829.273	3428
829.412	3348
829.551	3351
829.69	3332
829.829	3435
829.968	3511
830.107	3405
830.246	3450
830.385	3462
830.524	3351
830.663	3287
830.802	3272
830.941	3226
831.08	3184
831.219	3272
831.357	3264
831.496	3447
831.635	3256
831.774	3222
831.913	3180
832.051	3093
832.19	3150
832.329	3230
832.467	3146
832.606	3127
832.744	3184
832.883	3180
833.022	3184
833.16	3268
833.299	3313
833.437	3359
833.576	3382
833.714	3409
833.852	3435
833.991	3458
834.129	3481
834.267	3454
834.406	3416
834.544	3492
834.682	3469
834.821	3405
834.959	3603
835.097	3439
835.235	3549
835.373	3485
835.511	3538
835.65	3500
835.788	3511
835.926	3378
836.064	3389
836.202	3409
836.34	3595
836.478	3641
836.615	3549
836.753	3603
836.891	3648
837.029	3618
837.167	3599
837.305	3561
837.443	3568
837.58	3492
837.718	3603
837.856	3557
837.993	3584
838.131	3591
838.269	3610
838.406	3599
838.544	3603
838.681	3485
838.819	3504
838.956	3386
839.094	3412
839.231	3431
839.369	3553
839.506	3759
839.643	3633
839.781	3538
839.918	3473
840.055	3511
840.193	3515
840.33	3549
840.467	3561
840.604	3625
840.742	3835
840.879	3557
841.016	3584
841.153	3606
841.29	3751
841.427	3701
841.564	3724
841.701	3736
841.838	3720
841.975	3675
842.112	3732
842.249	3656
842.385	3614
842.522	3842
842.659	3686
842.796	3701
842.933	3755
843.069	3705
843.206	3679
843.343	3827
843.479	3816
843.616	3797
843.752	3675
843.889	3660
844.025	3869
844.162	3736
844.298	3892
844.435	3819
844.571	3854
844.708	3915
844.844	4002
844.98	4071
845.117	4013
845.253	3899
845.389	3884
845.525	3998
845.661	3964
845.798	3884
845.934	4055
846.07	3975
846.206	4074
846.342	4128
846.478	4059
846.614	3991
846.75	3956
846.886	3880
847.022	4029
847.158	4002
847.294	4048
847.429	4040
847.565	4013
847.701	4215
847.837	3873
847.972	3907
848.108	3956
848.244	3979
848.379	3827
848.515	3827
848.65	3846
848.786	3888
848.921	3880
849.057	3934
849.192	3937
849.328	3915
849.463	3918
849.598	3880
849.734	3926
849.869	3827
850.004	3778
850.14	3831
850.275	3766
850.41	3747
850.545	3766
850.68	3827
850.815	3781
850.95	3831
851.085	3945
851.22	3827
851.355	3823
851.49	3812
851.625	3812
851.76	3755
851.895	3747
852.03	3740
852.165	3793
852.299	3827
852.434	3899
852.569	3876
852.703	3861
852.838	3941
852.973	4017
853.107	4002
853.242	3907
853.376	3880
853.511	3778
853.645	3865
853.78	4013
853.914	3873
854.048	3873
854.183	3915
854.317	3956
854.451	4086
854.585	3968
854.72	4010
854.854	4048
854.988	3945
855.122	3998
855.256	3937
855.39	4021
855.524	4090
855.658	4090
855.792	4097
855.926	4162
856.06	4150
856.194	4215
856.327	4166
856.461	4185
856.595	4120
856.729	4238
856.862	4306
856.996	4246
857.13	4318
857.263	4348
857.397	4360
857.53	4303
857.664	4383
857.797	4409
857.931	4405
858.064	4379
858.197	4462
858.331	4417
858.464	4413
858.597	4363
858.731	4428
858.864	4470
858.997	4481
859.13	4489
859.263	4561
859.396	4565
859.529	4558
859.662	4565
859.795	4527
859.928	4649
860.061	4702
860.194	4748
860.327	4683
860.46	4603
860.592	4755
860.725	4774
860.858	4816
860.99	4698
861.123	4744
861.256	4729
861.388	4782
861.521	5372
861.653	4752
861.786	4740
861.918	4809
862.05	4812
862.183	4889
862.315	4839
862.447	4999
862.58	4938
862.712	4790
862.844	4755
862.976	4881
863.108	4839
863.24	5265
863.372	4847
863.504	4915
863.636	4892
863.768	5014
863.9	4984
864.032	4946
864.164	4915
864.296	5052
864.428	5102
864.559	5105
864.691	5143
864.823	5124
864.954	5102
865.086	5147
865.217	5140
865.349	5143
865.48	5189
865.612	5151
865.743	5341
865.875	5181
866.006	5197
866.137	5223
866.269	5239
866.4	5231
866.531	5269
866.662	5254
866.793	5261
866.924	5265
867.055	5376
867.186	5341
867.317	5299
867.448	5322
867.579	5334
867.71	5372
867.841	5391
867.972	5433
868.103	5452
868.233	5490
868.364	5482
868.495	5589
868.625	5699
868.756	5832
868.886	5668
869.017	5726
869.147	5847
869.278	5866
869.408	5798
869.539	5882
869.669	5901
869.799	5889
869.929	6026
870.06	6026
870.19	6258
870.32	6190
870.45	6277
870.58	6395
870.71	6437
870.84	6429
870.97	6426
871.1	6410
871.23	6639
871.36	6719
871.489	6662
871.619	6734
871.749	6741
871.879	6871
872.008	6962
872.138	6943
872.267	6985
872.397	7046
872.526	7050
872.656	7110
872.785	7183
872.915	7411
873.044	7537
873.173	7590
873.303	7616
873.432	7734
873.561	7856
873.69	7852
873.819	8065
873.948	8153
874.077	8290
874.206	8317
874.335	8469
874.464	8632
874.593	8872
874.722	8952
874.851	9173
874.979	9230
875.108	9359
875.237	9450
875.365	9500
875.494	9694
875.623	9880
875.751	9842
875.88	9987
876.008	10059
876.136	10337
876.265	10440
876.393	10668
876.521	10812
876.65	10790
876.778	10908
876.906	10923
877.034	10972
877.162	11075
877.29	11227
877.418	11258
877.546	11414
877.674	11395
877.802	11421
877.93	11471
878.058	11497
878.185	11562
878.313	11649
878.441	11752
878.568	11703
878.696	11805
878.824	11824
878.951	12030
879.079	12026
879.206	12136
879.333	11965
879.461	11977
879.588	12022
879.715	12057
879.842	12266
879.97	12057
880.097	11935
880.224	11908
880.351	11923
880.478	11961
880.605	11855
880.732	11855
880.859	12011
880.986	11832
881.112	11775
881.239	11786
881.366	11722
881.493	11665
881.619	11543
881.746	11558
881.872	11558
881.999	11551
882.125	11566
882.252	11604
882.378	11528
882.505	11509
882.631	11421
882.757	11368
882.883	11345
883.01	11246
883.136	11220
883.262	11166
883.388	11193
883.514	11227
883.64	11170
883.766	11136
883.892	11010
884.018	11006
884.143	11048
884.269	11113
884.395	10866
884.52	10885
884.646	10778
884.772	10748
884.897	10691
885.023	10714
885.148	10740
885.274	10809
885.399	10725
885.524	10596
885.65	10569
885.775	10569
885.9	10577
886.025	10630
886.15	10584
886.275	10481
886.4	10360
886.525	10443
886.65	10352
886.775	10306
886.9	10481
887.025	10580
887.149	10360
887.274	10242
887.399	10257
887.523	10154
887.648	10097
887.773	10143
887.897	10280
888.021	10310
888.146	10169
888.27	10204
888.395	10211
888.519	10223
888.643	10173
888.767	10154
888.891	10097
889.015	10055
889.139	10120
889.263	9945
889.387	10002
889.511	10109
889.635	10082
889.759	10010
889.883	9941
890.006	9994
890.13	10101
890.254	9975
890.377	9930
890.501	9873
890.624	9884
890.748	9941
890.871	9812
890.995	9717
891.118	9663
891.241	9740
891.364	9720
891.488	9804
891.611	9751
891.734	9827
891.857	9724
891.98	9690
892.103	9804
892.226	9762
892.349	9625
892.471	9515
892.594	9656
892.717	9606
892.839	9603
892.962	9610
893.085	9625
893.207	9538
893.33	9580
893.452	9496
893.575	9584
893.697	9466
893.819	9629
893.941	9656
894.064	9660
894.186	9447
894.308	9416
894.43	9454
894.552	9618
894.674	9557
894.796	9431
894.918	9355
895.04	9370
895.161	9382
895.283	9317
895.405	9279
895.526	9256
895.648	9268
895.769	9222
895.891	9233
896.012	9340
896.134	9317
896.255	9237
896.376	9066
896.498	9146
896.619	9093
896.74	9066
896.861	9005
896.982	9310
897.103	9294
897.224	9195
897.345	9108
897.466	8990
897.587	9062
897.708	9108
897.828	9047
897.949	8948
898.07	8819
898.19	8941
898.311	9036
898.431	8868
898.552	8891
898.672	8918
898.792	9024
898.913	8887
899.033	8826
899.153	8769
899.273	8610
899.393	8693
899.513	8746
899.633	8727
899.753	8792
899.873	8693
899.993	8807
900.113	8693
900.232	8762
900.352	8629
900.472	8716
900.591	8632
900.711	8587
900.83	8541
900.95	8636
901.069	8682
901.189	8606
901.308	8442
901.427	8404
901.546	8457
901.665	8495
901.784	8537
901.904	8431
902.023	8358
902.141	8225
902.26	8240
902.379	8305
902.498	8218
902.617	8210
902.735	8282
902.854	8305
902.973	8233
903.091	8100
903.21	8153
903.328	8172
903.446	8168
903.565	8084
903.683	8073
903.801	8119
903.919	8084
904.038	8134
904.156	8069
904.274	8073
904.392	8077
904.51	8016
904.627	8153
904.745	8157
904.863	8142
904.981	7936
905.098	7852
905.216	7879
905.334	7925
905.451	7925
905.569	7883
905.686	7894
905.803	7894
905.921	7830
906.038	7917
906.155	7803
906.272	7753
906.389	7734
906.506	7674
906.623	7674
906.74	7578
906.857	7567
906.974	7537
907.091	7616
907.208	7738
907.324	7605
907.441	7616
907.557	7426
907.674	7502
907.79	7400
907.907	7449
908.023	7384
908.139	7373
908.256	7365
908.372	7331
908.488	7403
908.604	7278
908.72	7297
908.836	7346
908.952	7228
909.068	7278
909.184	7343
909.3	7282
909.415	7312
909.531	7339
909.647	7145
909.762	7114
909.878	7137
909.993	7141
910.108	7110
910.224	7118
910.339	7091
910.454	7027
910.57	6996
910.685	6973
910.8	7171
910.915	7141
911.03	7031
911.145	6947
911.259	6928
911.374	6886
911.489	6837
911.604	6757
911.718	6700
911.833	6707
911.947	6620
912.062	6631
912.176	6734
912.291	6688
912.405	6703
912.519	6844
912.633	6802
912.748	6745
912.862	6707
912.976	6593
913.09	6517
913.204	6665
913.318	6650
913.431	6715
913.545	6688
913.659	6776
913.772	6665
913.886	6604
914	6593
914.113	6612
914.226	6673
914.34	6566
914.453	6540
914.566	6639
914.68	6589
914.793	6551
914.906	6441
915.019	6399
915.132	6456
915.245	6498
915.358	6483
915.47	6448
915.583	6506
915.696	6506
915.809	6547
915.921	6536
916.034	6448
916.146	6410
916.259	6384
916.371	6452
916.483	6464
916.595	6407
916.708	6391
916.82	6422
916.932	6391
917.044	6346
917.156	6410
917.268	6308
917.38	6319
917.491	6315
917.603	6300
917.715	6403
917.826	6433
917.938	6315
918.049	6254
918.161	6338
918.272	6456
918.384	6456
918.495	6334
918.606	6277
918.717	6277
918.828	6281
918.939	6319
919.05	6175
919.161	6319
919.272	6117
919.383	6159
919.494	6262
919.604	6407
919.715	6311
919.826	6262
919.936	6319
920.047	6426
920.157	6331
920.267	6494
920.378	6319
920.488	6273
920.598	6471
920.708	6532
920.818	6536
920.928	6494
921.038	6582
921.148	6589
921.258	6380
921.368	6346
921.477	6201
921.587	6247
921.697	6152
921.806	6167
921.916	6087
922.025	5958
922.134	5935
922.244	5912
922.353	5988
922.462	5904
922.571	5779
922.68	5726
922.789	5680
922.898	5748
923.007	5600
923.116	5737
923.224	5722
923.333	5691
923.442	5589
923.55	5592
923.659	5570
923.767	5649
923.876	5581
923.984	5623
924.092	5554
924.201	5562
924.309	5630
924.417	5551
924.525	5512
924.633	5501
924.741	6148
924.849	5391
924.956	5490
925.064	5364
925.172	5280
925.279	5265
925.387	5341
925.494	5353
925.602	5474
925.709	5383
925.816	5296
925.924	5261
926.031	5414
926.138	5292
926.245	5357
926.352	5189
926.459	5315
926.566	5303
926.673	5269
926.779	5105
926.886	5128
926.993	5094
927.099	5018
927.206	4972
927.312	4938
927.419	4999
927.525	4984
927.631	4976
927.737	4915
927.843	4870
927.95	4782
928.056	4831
928.162	4805
928.267	4843
928.373	5360
928.479	4828
928.585	4702
928.69	4812
928.796	4771
928.901	4702
929.007	4634
929.112	4664
929.218	4626
929.323	4641
929.428	4599
929.533	4694
929.638	4538
929.743	4554
929.848	4599
929.953	4519
930.058	4443
930.163	4341
930.267	4375
930.372	4451
930.477	4310
930.581	4519
930.685	4375
930.79	4306
930.894	4314
930.998	4238
931.103	4402
931.207	4192
931.311	4128
931.415	4055
931.519	3918
931.623	3979
