Data from glass_V78500241_2802.txt Node
Date: Wed Sep 01 19:33:55 CST 2021
User: usil
Spectrometer: V785-0024
Trigger mode: 0
Integration Time (sec): 4.000000E-1
Scans to average: 1
Nonlinearity correction enabled: false
Boxcar width: 0
Storing dark spectrum: false
XAxis mode: Wavelengths
Number of Pixels in Spectrum: 1024
>>>>>Begin Spectral Data<<<<<
801.071	3728
801.214	3705
801.356	3686
801.499	3724
801.641	3698
801.783	3785
801.926	3854
802.068	3819
802.211	3869
802.353	3869
802.496	3831
802.638	3865
802.78	3827
802.923	3949
803.065	3865
803.208	3865
803.35	3846
803.492	3880
803.635	3903
803.777	3854
803.919	3903
804.061	4128
804.204	3915
804.346	3918
804.488	3918
804.63	3968
804.773	3949
804.915	4010
805.057	4139
805.199	4029
805.341	4120
805.483	4101
805.626	4078
805.768	4105
805.91	4154
806.052	4192
806.194	4207
806.336	4371
806.478	4188
806.62	4139
806.762	4185
806.904	4227
807.046	4272
807.188	4242
807.33	4116
807.472	4204
807.614	4185
807.756	4249
807.898	4196
808.04	4204
808.182	4276
808.324	4318
808.465	4360
808.607	4417
808.749	4443
808.891	4440
809.033	4462
809.174	4383
809.316	4268
809.458	4230
809.6	4169
809.741	4139
809.883	4093
810.025	4177
810.166	4200
810.308	4234
810.45	4215
810.591	4158
810.733	4276
810.875	4523
811.016	4736
811.158	5098
811.299	5227
811.441	5307
811.582	5064
811.724	4656
811.865	4428
812.007	4493
812.148	4409
812.29	4367
812.431	4371
812.573	4390
812.714	4341
812.855	4371
812.997	4409
813.138	4478
813.279	4402
813.421	4375
813.562	4360
813.703	4314
813.845	4375
813.986	4227
814.127	4162
814.268	4246
814.41	4303
814.551	4253
814.692	4299
814.833	4284
814.974	4284
815.115	4333
815.256	4253
815.397	4188
815.539	4242
815.68	4177
815.821	4181
815.962	4314
816.103	4261
816.244	4196
816.385	4219
816.526	4215
816.666	4211
816.807	4032
816.948	4116
817.089	4124
817.23	4078
817.371	4006
817.512	4021
817.653	4063
817.793	4051
817.934	4017
818.075	4097
818.216	4036
818.356	4097
818.497	4006
818.638	3915
818.778	3888
818.919	3888
819.06	3899
819.2	3911
819.341	3892
819.481	3781
819.622	3911
819.762	3987
819.903	3899
820.043	3869
820.184	3762
820.324	3835
820.465	3869
820.605	3785
820.746	3842
820.886	3812
821.026	3937
821.167	3911
821.307	3945
821.447	4006
821.588	3907
821.728	3922
821.868	3926
822.008	3854
822.149	3888
822.289	3892
822.429	3800
822.569	3720
822.709	3793
822.849	3682
822.99	3713
823.13	3736
823.27	3781
823.41	3648
823.55	3686
823.69	3728
823.83	3709
823.97	3648
824.11	3599
824.25	3538
824.389	3625
824.529	3622
824.669	3603
824.809	3690
824.949	3762
825.089	3701
825.228	3675
825.368	3572
825.508	3511
825.648	3587
825.787	3587
825.927	3652
826.067	3625
826.206	3625
826.346	3755
826.485	3819
826.625	3850
826.765	3915
826.904	3789
827.044	3568
827.183	3492
827.323	3424
827.462	3481
827.601	3393
827.741	3405
827.88	3428
828.02	3359
828.159	3431
828.298	3458
828.437	3492
828.577	3469
828.716	3595
828.855	3507
828.994	3359
829.134	3355
829.273	3389
829.412	3329
829.551	3317
829.69	3363
829.829	3405
829.968	3507
830.107	3412
830.246	3412
830.385	3355
830.524	3325
830.663	3298
830.802	3241
830.941	3188
831.08	3195
831.219	3275
831.357	3253
831.496	3397
831.635	3249
831.774	3165
831.913	3233
832.051	3100
832.19	3131
832.329	3214
832.467	3119
832.606	3085
832.744	3157
832.883	3188
833.022	3146
833.16	3233
833.299	3298
833.437	3310
833.576	3317
833.714	3401
833.852	3405
833.991	3443
834.129	3462
834.267	3397
834.406	3382
834.544	3401
834.682	3416
834.821	3393
834.959	3557
835.097	3428
835.235	3496
835.373	3477
835.511	3458
835.65	3462
835.788	3507
835.926	3431
836.064	3393
836.202	3409
836.34	3511
836.478	3610
836.615	3511
836.753	3587
836.891	3603
837.029	3587
837.167	3614
837.305	3523
837.443	3519
837.58	3469
837.718	3614
837.856	3523
837.993	3496
838.131	3564
838.269	3599
838.406	3557
838.544	3526
838.681	3458
838.819	3420
838.956	3363
839.094	3370
839.231	3447
839.369	3492
839.506	3698
839.643	3599
839.781	3458
839.918	3447
840.055	3466
840.193	3530
840.33	3496
840.467	3549
840.604	3587
840.742	3732
840.879	3523
841.016	3530
841.153	3564
841.29	3751
841.427	3701
841.564	3656
841.701	3713
841.838	3663
841.975	3660
842.112	3682
842.249	3595
842.385	3603
842.522	3781
842.659	3717
842.796	3648
842.933	3690
843.069	3686
843.206	3663
843.343	3819
843.479	3812
843.616	3808
843.752	3656
843.889	3675
844.025	3850
844.162	3720
844.298	3823
844.435	3800
844.571	3762
844.708	3896
844.844	3998
844.98	4010
845.117	3979
845.253	3892
845.389	3884
845.525	4006
845.661	3964
845.798	3918
845.934	4036
846.07	3949
846.206	4055
846.342	4101
846.478	4044
846.614	3945
846.75	3945
846.886	3873
847.022	4013
847.158	3945
847.294	3991
847.429	4017
847.565	3968
847.701	4200
847.837	3861
847.972	3842
848.108	3956
848.244	3918
848.379	3835
848.515	3819
848.65	3835
848.786	3804
848.921	3854
849.057	3873
849.192	3949
849.328	3903
849.463	3876
849.598	3861
849.734	3869
849.869	3812
850.004	3732
850.14	3835
850.275	3755
850.41	3743
850.545	3747
850.68	3759
850.815	3766
850.95	3743
851.085	3918
851.22	3854
851.355	3831
851.49	3766
851.625	3736
851.76	3808
851.895	3743
852.03	3713
852.165	3781
852.299	3842
852.434	3816
852.569	3827
852.703	3846
852.838	3911
852.973	3956
853.107	3983
853.242	3850
853.376	3816
853.511	3732
853.645	3793
853.78	3926
853.914	3884
854.048	3842
854.183	3896
854.317	3930
854.451	4051
854.585	3956
854.72	3930
854.854	4044
854.988	3880
855.122	3979
855.256	3915
855.39	3994
855.524	4093
855.658	4082
855.792	4051
855.926	4067
856.06	4143
856.194	4192
856.327	4124
856.461	4120
856.595	4154
856.729	4109
856.862	4295
856.996	4166
857.13	4276
857.263	4291
857.397	4329
857.53	4287
857.664	4314
857.797	4383
857.931	4356
858.064	4352
858.197	4455
858.331	4386
858.464	4383
858.597	4310
858.731	4421
858.864	4390
858.997	4478
859.13	4489
859.263	4531
859.396	4512
859.529	4519
859.662	4527
859.795	4542
859.928	4584
860.061	4675
860.194	4717
860.327	4683
860.46	4679
860.592	4683
860.725	4759
860.858	4744
860.99	4698
861.123	4653
861.256	4679
861.388	4771
861.521	5250
861.653	4744
861.786	4649
861.918	4740
862.05	4778
862.183	4801
862.315	4900
862.447	4862
862.58	4870
862.712	4820
862.844	4729
862.976	4850
863.108	4873
863.24	5143
863.372	4812
863.504	4847
863.636	4919
863.768	4953
863.9	4995
864.032	4908
864.164	4987
864.296	4999
864.428	5079
864.559	5056
864.691	5056
864.823	5151
864.954	5067
865.086	5128
865.217	5083
865.349	5113
865.48	5109
865.612	5136
865.743	5299
865.875	5181
866.006	5124
866.137	5246
866.269	5235
866.4	5227
866.531	5212
866.662	5204
866.793	5277
866.924	5288
867.055	5337
867.186	5334
867.317	5288
867.448	5261
867.579	5406
867.71	5345
867.841	5341
867.972	5444
868.103	5421
868.233	5463
868.364	5486
868.495	5585
868.625	5630
868.756	5741
868.886	5684
869.017	5733
869.147	5828
869.278	5859
869.408	5828
869.539	5764
869.669	5897
869.799	5870
869.929	5988
870.06	6015
870.19	6159
870.32	6148
870.45	6300
870.58	6338
870.71	6391
870.84	6460
870.97	6464
871.1	6437
871.23	6665
871.36	6639
871.489	6593
871.619	6722
871.749	6757
871.879	6814
872.008	6916
872.138	6962
872.267	7000
872.397	6916
872.526	7042
872.656	7072
872.785	7187
872.915	7354
873.044	7571
873.173	7586
873.303	7620
873.432	7723
873.561	7841
873.69	7852
873.819	8020
873.948	8161
874.077	8259
874.206	8294
874.335	8499
874.464	8621
874.593	8826
874.722	8910
874.851	9074
874.979	9180
875.108	9279
875.237	9344
875.365	9454
875.494	9679
875.623	9755
875.751	9842
875.88	10051
876.008	10120
876.136	10173
876.265	10542
876.393	10679
876.521	10702
876.65	10759
876.778	10850
876.906	10900
877.034	11003
877.162	11105
877.29	11189
877.418	11277
877.546	11349
877.674	11360
877.802	11467
877.93	11505
878.058	11463
878.185	11566
878.313	11608
878.441	11714
878.568	11676
878.696	11783
878.824	11866
878.951	11878
879.079	11923
879.206	12064
879.333	12083
879.461	11958
879.588	12034
879.715	12026
879.842	12224
879.97	12076
880.097	11973
880.224	11855
880.351	11908
880.478	11885
880.605	11790
880.732	11851
880.859	12064
880.986	11783
881.112	11878
881.239	11710
881.366	11657
881.493	11619
881.619	11493
881.746	11668
881.872	11532
881.999	11501
882.125	11433
882.252	11509
882.378	11547
882.505	11547
882.631	11387
882.757	11258
882.883	11330
883.01	11284
883.136	11140
883.262	11124
883.388	11105
883.514	11162
883.64	11178
883.766	11162
883.892	10946
884.018	10896
884.143	11079
884.269	11033
884.395	10809
884.52	10752
884.646	10714
884.772	10744
884.897	10611
885.023	10664
885.148	10759
885.274	10748
885.399	10641
885.524	10664
885.65	10596
885.775	10542
885.9	10554
886.025	10538
886.15	10630
886.275	10432
886.4	10386
886.525	10405
886.65	10322
886.775	10303
886.9	10447
887.025	10440
887.149	10303
887.274	10109
887.399	10196
887.523	10139
887.648	10124
887.773	10105
887.897	10215
888.021	10215
888.146	10124
888.27	10181
888.395	10192
888.519	10124
888.643	10116
888.767	10188
888.891	9983
889.015	9998
889.139	9941
889.263	9926
889.387	10120
889.511	10086
889.635	10074
889.759	10051
889.883	9994
890.006	9979
890.13	10032
890.254	9884
890.377	9926
890.501	9903
890.624	9873
890.748	9876
890.871	9785
890.995	9751
891.118	9778
891.241	9755
891.364	9743
891.488	9778
891.611	9694
891.734	9603
891.857	9743
891.98	9686
892.103	9770
892.226	9652
892.349	9641
892.471	9469
892.594	9595
892.717	9644
892.839	9614
892.962	9576
893.085	9584
893.207	9538
893.33	9443
893.452	9458
893.575	9633
893.697	9553
893.819	9561
893.941	9564
894.064	9587
894.186	9458
894.308	9401
894.43	9416
894.552	9580
894.674	9553
894.796	9393
894.918	9336
895.04	9256
895.161	9336
895.283	9348
895.405	9207
895.526	9218
895.648	9154
895.769	9146
895.891	9291
896.012	9298
896.134	9237
896.255	9188
896.376	9157
896.498	9184
896.619	9074
896.74	9093
896.861	9089
896.982	9241
897.103	9332
897.224	9195
897.345	9020
897.466	8979
897.587	8990
897.708	9055
897.828	9013
897.949	8887
898.07	8826
898.19	8826
898.311	8956
898.431	8868
898.552	8876
898.672	8944
898.792	8918
898.913	8883
899.033	8766
899.153	8720
899.273	8655
899.393	8705
899.513	8716
899.633	8720
899.753	8773
899.873	8739
899.993	8762
900.113	8663
900.232	8659
900.352	8594
900.472	8537
900.591	8507
900.711	8552
900.83	8533
900.95	8663
901.069	8659
901.189	8541
901.308	8476
901.427	8358
901.546	8396
901.665	8446
901.784	8404
901.904	8313
902.023	8355
902.141	8256
902.26	8153
902.379	8336
902.498	8183
902.617	8161
902.735	8233
902.854	8233
902.973	8237
903.091	8092
903.21	8134
903.328	8168
903.446	8119
903.565	8073
903.683	8107
903.801	8046
903.919	8096
904.038	8103
904.156	8050
904.274	8035
904.392	8054
904.51	7963
904.627	7928
904.745	8027
904.863	8088
904.981	7841
905.098	7860
905.216	7837
905.334	7913
905.451	7917
905.569	7788
905.686	7871
905.803	7906
905.921	7769
906.038	7883
906.155	7830
906.272	7693
906.389	7731
906.506	7636
906.623	7559
906.74	7620
906.857	7529
906.974	7586
907.091	7605
907.208	7643
907.324	7590
907.441	7571
907.557	7453
907.674	7480
907.79	7358
907.907	7403
908.023	7445
908.139	7407
908.256	7327
908.372	7320
908.488	7289
908.604	7278
908.72	7236
908.836	7266
908.952	7209
909.068	7240
909.184	7274
909.3	7301
909.415	7308
909.531	7266
909.647	7126
909.762	7050
909.878	7118
909.993	7107
910.108	7088
910.224	7008
910.339	7053
910.454	7042
910.57	6970
910.685	6897
910.8	7129
910.915	7091
911.03	7042
911.145	6894
911.259	6810
911.374	6867
911.489	6802
911.604	6779
911.718	6730
911.833	6734
911.947	6631
912.062	6601
912.176	6620
912.291	6726
912.405	6681
912.519	6779
912.633	6749
912.748	6639
912.862	6711
912.976	6616
913.09	6517
913.204	6574
913.318	6597
913.431	6608
913.545	6662
913.659	6711
913.772	6604
913.886	6536
914	6601
914.113	6677
914.226	6544
914.34	6612
914.453	6517
914.566	6578
914.68	6464
914.793	6532
914.906	6388
915.019	6437
915.132	6391
915.245	6433
915.358	6445
915.47	6422
915.583	6467
915.696	6513
915.809	6544
915.921	6486
916.034	6418
916.146	6422
916.259	6376
916.371	6395
916.483	6437
916.595	6399
916.708	6407
916.82	6372
916.932	6380
917.044	6331
917.156	6410
917.268	6334
917.38	6361
917.491	6350
917.603	6391
917.715	6376
917.826	6372
917.938	6292
918.049	6232
918.161	6270
918.272	6418
918.384	6380
918.495	6273
918.606	6243
918.717	6220
918.828	6266
918.939	6235
919.05	6159
919.161	6266
919.272	6136
919.383	6186
919.494	6315
919.604	6391
919.715	6273
919.826	6247
919.936	6247
920.047	6376
920.157	6285
920.267	6490
920.378	6266
920.488	6300
920.598	6445
920.708	6536
920.818	6494
920.928	6437
921.038	6597
921.148	6536
921.258	6315
921.368	6216
921.477	6175
921.587	6144
921.697	6079
921.806	6178
921.916	6060
922.025	5855
922.134	5893
922.244	5828
922.353	5897
922.462	5844
922.571	5805
922.68	5703
922.789	5646
922.898	5691
923.007	5619
923.116	5726
923.224	5657
923.333	5684
923.442	5547
923.55	5573
923.659	5589
923.767	5634
923.876	5482
923.984	5543
924.092	5482
924.201	5554
924.309	5512
924.417	5520
924.525	5497
924.633	5455
924.741	6289
924.849	5353
924.956	5463
925.064	5315
925.172	5246
925.279	5311
925.387	5357
925.494	5303
925.602	5425
925.709	5318
925.816	5242
925.924	5311
926.031	5322
926.138	5288
926.245	5334
926.352	5174
926.459	5330
926.566	5322
926.673	5170
926.779	5105
926.886	5140
926.993	5029
927.099	5010
927.206	4961
927.312	4930
927.419	5056
927.525	4923
927.631	4968
927.737	4881
927.843	4843
927.95	4736
928.056	4816
928.162	4809
928.267	4839
928.373	5376
928.479	4889
928.585	4634
928.69	4782
928.796	4767
928.901	4656
929.007	4558
929.112	4683
929.218	4592
929.323	4618
929.428	4523
929.533	4664
929.638	4531
929.743	4561
929.848	4527
929.953	4478
930.058	4421
930.163	4280
930.267	4329
930.372	4398
930.477	4249
930.581	4470
930.685	4383
930.79	4268
930.894	4234
930.998	4249
931.103	4402
931.207	4067
931.311	4101
931.415	4036
931.519	3926
931.623	3915
