Data from glass_V78500241_2624.txt Node
Date: Wed Sep 01 19:32:41 CST 2021
User: usil
Spectrometer: V785-0024
Trigger mode: 0
Integration Time (sec): 4.000000E-1
Scans to average: 1
Nonlinearity correction enabled: false
Boxcar width: 0
Storing dark spectrum: false
XAxis mode: Wavelengths
Number of Pixels in Spectrum: 1024
>>>>>Begin Spectral Data<<<<<
801.071	3747
801.214	3732
801.356	3667
801.499	3732
801.641	3724
801.783	3740
801.926	3842
802.068	3797
802.211	3838
802.353	3823
802.496	3842
802.638	3857
802.78	3873
802.923	3915
803.065	3888
803.208	3831
803.35	3831
803.492	3892
803.635	3892
803.777	3774
803.919	3865
804.061	4109
804.204	3945
804.346	3926
804.488	3915
804.63	3968
804.773	3998
804.915	4029
805.057	4135
805.199	3994
805.341	4059
805.483	4147
805.626	4124
805.768	4120
805.91	4207
806.052	4265
806.194	4219
806.336	4291
806.478	4204
806.62	4120
806.762	4204
806.904	4257
807.046	4310
807.188	4158
807.33	4128
807.472	4261
807.614	4230
807.756	4261
807.898	4204
808.04	4223
808.182	4314
808.324	4268
808.465	4356
808.607	4451
808.749	4436
808.891	4466
809.033	4466
809.174	4348
809.316	4295
809.458	4238
809.6	4109
809.741	4177
809.883	4158
810.025	4207
810.166	4219
810.308	4128
810.45	4261
810.591	4227
810.733	4291
810.875	4516
811.016	4839
811.158	5166
811.299	5231
811.441	5227
811.582	5064
811.724	4672
811.865	4432
812.007	4440
812.148	4371
812.29	4379
812.431	4451
812.573	4383
812.714	4371
812.855	4405
812.997	4409
813.138	4447
813.279	4390
813.421	4421
813.562	4337
813.703	4303
813.845	4341
813.986	4242
814.127	4215
814.268	4284
814.41	4318
814.551	4230
814.692	4318
814.833	4284
814.974	4280
815.115	4329
815.256	4238
815.397	4230
815.539	4280
815.68	4204
815.821	4215
815.962	4341
816.103	4261
816.244	4234
816.385	4185
816.526	4242
816.666	4207
816.807	4101
816.948	4147
817.089	4181
817.23	4090
817.371	4051
817.512	4067
817.653	4090
817.793	4021
817.934	4067
818.075	4078
818.216	4078
818.356	4048
818.497	3968
818.638	3907
818.778	3899
818.919	3873
819.06	3854
819.2	3865
819.341	3808
819.481	3842
819.622	3922
819.762	3983
819.903	3907
820.043	3819
820.184	3838
820.324	3800
820.465	3884
820.605	3819
820.746	3816
820.886	3781
821.026	3945
821.167	3850
821.307	3972
821.447	3953
821.588	3953
821.728	3918
821.868	3922
822.008	3827
822.149	3892
822.289	3899
822.429	3766
822.569	3728
822.709	3770
822.849	3660
822.99	3682
823.13	3755
823.27	3755
823.41	3747
823.55	3698
823.69	3736
823.83	3743
823.97	3618
824.11	3625
824.25	3644
824.389	3663
824.529	3675
824.669	3614
824.809	3682
824.949	3728
825.089	3743
825.228	3663
825.368	3580
825.508	3534
825.648	3557
825.787	3576
825.927	3618
826.067	3648
826.206	3648
826.346	3751
826.485	3838
826.625	3880
826.765	3941
826.904	3835
827.044	3610
827.183	3542
827.323	3428
827.462	3507
827.601	3401
827.741	3389
827.88	3447
828.02	3359
828.159	3466
828.298	3469
828.437	3538
828.577	3477
828.716	3549
828.855	3447
828.994	3378
829.134	3348
829.273	3363
829.412	3340
829.551	3283
829.69	3355
829.829	3397
829.968	3492
830.107	3416
830.246	3431
830.385	3378
830.524	3336
830.663	3321
830.802	3272
830.941	3192
831.08	3169
831.219	3237
831.357	3230
831.496	3397
831.635	3218
831.774	3188
831.913	3173
832.051	3127
832.19	3112
832.329	3218
832.467	3138
832.606	3089
832.744	3150
832.883	3157
833.022	3173
833.16	3222
833.299	3294
833.437	3325
833.576	3351
833.714	3378
833.852	3412
833.991	3431
834.129	3473
834.267	3485
834.406	3386
834.544	3458
834.682	3412
834.821	3412
834.959	3561
835.097	3409
835.235	3526
835.373	3496
835.511	3481
835.65	3450
835.788	3462
835.926	3367
836.064	3355
836.202	3370
836.34	3542
836.478	3595
836.615	3530
836.753	3591
836.891	3618
837.029	3614
837.167	3587
837.305	3561
837.443	3534
837.58	3511
837.718	3584
837.856	3523
837.993	3564
838.131	3595
838.269	3561
838.406	3545
838.544	3561
838.681	3447
838.819	3466
838.956	3363
839.094	3405
839.231	3397
839.369	3496
839.506	3751
839.643	3614
839.781	3504
839.918	3405
840.055	3557
840.193	3572
840.33	3488
840.467	3553
840.604	3614
840.742	3793
840.879	3561
841.016	3561
841.153	3572
841.29	3762
841.427	3682
841.564	3698
841.701	3709
841.838	3667
841.975	3671
842.112	3682
842.249	3599
842.385	3622
842.522	3846
842.659	3667
842.796	3637
842.933	3713
843.069	3694
843.206	3717
843.343	3819
843.479	3770
843.616	3808
843.752	3622
843.889	3698
844.025	3854
844.162	3720
844.298	3865
844.435	3778
844.571	3747
844.708	3926
844.844	3972
844.98	4032
845.117	4036
845.253	3926
845.389	3857
845.525	3964
845.661	3972
845.798	3899
845.934	3934
846.07	3937
846.206	4044
846.342	4173
846.478	4032
846.614	3956
846.75	3922
846.886	3884
847.022	4036
847.158	3968
847.294	3964
847.429	4010
847.565	3960
847.701	4234
847.837	3846
847.972	3785
848.108	3956
848.244	3994
848.379	3854
848.515	3819
848.65	3785
848.786	3838
848.921	3861
849.057	3926
849.192	3964
849.328	3911
849.463	3915
849.598	3896
849.734	3884
849.869	3846
850.004	3778
850.14	3823
850.275	3778
850.41	3770
850.545	3781
850.68	3812
850.815	3751
850.95	3808
851.085	3903
851.22	3857
851.355	3804
851.49	3743
851.625	3793
851.76	3743
851.895	3743
852.03	3740
852.165	3789
852.299	3797
852.434	3854
852.569	3854
852.703	3854
852.838	3922
852.973	3968
853.107	3964
853.242	3861
853.376	3827
853.511	3747
853.645	3838
853.78	3960
853.914	3873
854.048	3892
854.183	3892
854.317	3903
854.451	4059
854.585	3960
854.72	3918
854.854	4032
854.988	3915
855.122	4017
855.256	3896
855.39	4002
855.524	4063
855.658	4086
855.792	4090
855.926	4090
856.06	4158
856.194	4215
856.327	4135
856.461	4105
856.595	4147
856.729	4135
856.862	4253
856.996	4207
857.13	4257
857.263	4284
857.397	4375
857.53	4261
857.664	4322
857.797	4394
857.931	4417
858.064	4360
858.197	4417
858.331	4398
858.464	4398
858.597	4341
858.731	4466
858.864	4428
858.997	4478
859.13	4470
859.263	4535
859.396	4592
859.529	4451
859.662	4523
859.795	4527
859.928	4584
860.061	4656
860.194	4706
860.327	4626
860.46	4641
860.592	4694
860.725	4774
860.858	4771
860.99	4694
861.123	4634
861.256	4668
861.388	4763
861.521	5326
861.653	4660
861.786	4714
861.918	4717
862.05	4759
862.183	4812
862.315	4828
862.447	4927
862.58	4923
862.712	4812
862.844	4786
862.976	4873
863.108	4862
863.24	5216
863.372	4771
863.504	4889
863.636	4934
863.768	4972
863.9	4957
864.032	4938
864.164	4957
864.296	4999
864.428	5045
864.559	5143
864.691	5143
864.823	5109
864.954	5128
865.086	5113
865.217	5113
865.349	5094
865.48	5128
865.612	5155
865.743	5296
865.875	5185
866.006	5189
866.137	5193
866.269	5181
866.4	5277
866.531	5204
866.662	5239
866.793	5292
866.924	5299
867.055	5318
867.186	5376
867.317	5334
867.448	5239
867.579	5353
867.71	5391
867.841	5337
867.972	5425
868.103	5474
868.233	5516
868.364	5467
868.495	5547
868.625	5665
868.756	5741
868.886	5714
869.017	5710
869.147	5832
869.278	5863
869.408	5767
869.539	5832
869.669	5901
869.799	5908
869.929	6026
870.06	5977
870.19	6228
870.32	6133
870.45	6285
870.58	6334
870.71	6407
870.84	6445
870.97	6422
871.1	6445
871.23	6650
871.36	6646
871.489	6608
871.619	6707
871.749	6787
871.879	6837
872.008	6943
872.138	6996
872.267	7012
872.397	7004
872.526	7034
872.656	7080
872.785	7236
872.915	7339
873.044	7510
873.173	7518
873.303	7666
873.432	7807
873.561	7913
873.69	7928
873.819	7970
873.948	8210
874.077	8233
874.206	8248
874.335	8450
874.464	8613
874.593	8796
874.722	8986
874.851	9108
874.979	9165
875.108	9306
875.237	9481
875.365	9469
875.494	9629
875.623	9873
875.751	9781
875.88	9994
876.008	10090
876.136	10234
876.265	10550
876.393	10729
876.521	10668
876.65	10881
876.778	10828
876.906	10881
877.034	10980
877.162	11109
877.29	11151
877.418	11223
877.546	11410
877.674	11421
877.802	11532
877.93	11566
878.058	11547
878.185	11577
878.313	11714
878.441	11737
878.568	11722
878.696	11790
878.824	11863
878.951	11961
879.079	11965
879.206	12148
879.333	12007
879.461	12007
879.588	12041
879.715	12110
879.842	12247
879.97	11988
880.097	11893
880.224	11840
880.351	11874
880.478	11920
880.605	11878
880.732	11817
880.859	11977
880.986	11828
881.112	11805
881.239	11745
881.366	11630
881.493	11600
881.619	11520
881.746	11581
881.872	11532
881.999	11474
882.125	11539
882.252	11554
882.378	11482
882.505	11596
882.631	11364
882.757	11265
882.883	11258
883.01	11269
883.136	11147
883.262	11071
883.388	11105
883.514	11204
883.64	11178
883.766	11121
883.892	11064
884.018	10896
884.143	11090
884.269	11178
884.395	10843
884.52	10759
884.646	10782
884.772	10694
884.897	10618
885.023	10679
885.148	10710
885.274	10771
885.399	10683
885.524	10649
885.65	10596
885.775	10580
885.9	10569
886.025	10645
886.15	10466
886.275	10402
886.4	10409
886.525	10360
886.65	10360
886.775	10268
886.9	10481
887.025	10489
887.149	10356
887.274	10310
887.399	10234
887.523	10223
887.648	10109
887.773	10154
887.897	10192
888.021	10211
888.146	10093
888.27	10322
888.395	10227
888.519	10120
888.643	10135
888.767	10188
888.891	10048
889.015	9964
889.139	10032
889.263	9945
889.387	10067
889.511	10143
889.635	10090
889.759	9964
889.883	10010
890.006	9964
890.13	10105
890.254	9899
890.377	9945
890.501	9903
890.624	9926
890.748	9835
890.871	9850
890.995	9762
891.118	9724
891.241	9770
891.364	9747
891.488	9846
891.611	9717
891.734	9663
891.857	9781
891.98	9682
892.103	9797
892.226	9759
892.349	9701
892.471	9477
892.594	9572
892.717	9580
892.839	9549
892.962	9580
893.085	9618
893.207	9526
893.33	9500
893.452	9420
893.575	9584
893.697	9591
893.819	9591
893.941	9599
894.064	9568
894.186	9428
894.308	9420
894.43	9572
894.552	9545
894.674	9549
894.796	9435
894.918	9447
895.04	9363
895.161	9466
895.283	9294
895.405	9256
895.526	9291
895.648	9294
895.769	9222
895.891	9291
896.012	9264
896.134	9245
896.255	9211
896.376	9127
896.498	9123
896.619	9062
896.74	9085
896.861	9135
896.982	9253
897.103	9230
897.224	9207
897.345	9081
897.466	8956
897.587	8982
897.708	9081
897.828	8963
897.949	8921
898.07	8811
898.19	8883
898.311	8975
898.431	8891
898.552	9001
898.672	8982
898.792	8902
898.913	8880
899.033	8815
899.153	8648
899.273	8682
899.393	8788
899.513	8678
899.633	8716
899.753	8762
899.873	8659
899.993	8739
900.113	8674
900.232	8674
900.352	8667
900.472	8648
900.591	8461
900.711	8610
900.83	8495
900.95	8606
901.069	8686
901.189	8488
901.308	8461
901.427	8282
901.546	8347
901.665	8450
901.784	8492
901.904	8366
902.023	8282
902.141	8161
902.26	8100
902.379	8313
902.498	8252
902.617	8214
902.735	8240
902.854	8267
902.973	8229
903.091	8123
903.21	8111
903.328	8168
903.446	8081
903.565	8096
903.683	8084
903.801	8058
903.919	8183
904.038	8164
904.156	7970
904.274	8081
904.392	8012
904.51	8046
904.627	8069
904.745	8138
904.863	8092
904.981	7925
905.098	7875
905.216	7860
905.334	7860
905.451	7932
905.569	7860
905.686	7917
905.803	7932
905.921	7788
906.038	7875
906.155	7811
906.272	7750
906.389	7674
906.506	7578
906.623	7601
906.74	7616
906.857	7487
906.974	7537
907.091	7643
907.208	7647
907.324	7605
907.441	7525
907.557	7419
907.674	7449
907.79	7426
907.907	7438
908.023	7457
908.139	7480
908.256	7388
908.372	7301
908.488	7331
908.604	7251
908.72	7221
908.836	7278
908.952	7228
909.068	7293
909.184	7320
909.3	7263
909.415	7270
909.531	7270
909.647	7160
909.762	7080
909.878	7122
909.993	7133
910.108	7107
910.224	7080
910.339	7099
910.454	7038
910.57	7027
910.685	6909
910.8	7099
910.915	7095
911.03	6939
911.145	6852
911.259	6913
911.374	6840
911.489	6886
911.604	6795
911.718	6662
911.833	6734
911.947	6616
912.062	6540
912.176	6681
912.291	6692
912.405	6711
912.519	6802
912.633	6806
912.748	6692
912.862	6715
912.976	6593
913.09	6536
913.204	6601
913.318	6525
913.431	6688
913.545	6665
913.659	6730
913.772	6601
913.886	6616
914	6502
914.113	6639
914.226	6635
914.34	6650
914.453	6490
914.566	6601
914.68	6528
914.793	6578
914.906	6365
915.019	6395
915.132	6296
915.245	6433
915.358	6422
915.47	6418
915.583	6410
915.696	6506
915.809	6540
915.921	6585
916.034	6422
916.146	6426
916.259	6334
916.371	6429
916.483	6475
916.595	6327
916.708	6422
916.82	6426
916.932	6353
917.044	6372
917.156	6388
917.268	6296
917.38	6369
917.491	6372
917.603	6361
917.715	6388
917.826	6391
917.938	6327
918.049	6247
918.161	6304
918.272	6391
918.384	6414
918.495	6323
918.606	6270
918.717	6155
918.828	6277
918.939	6247
919.05	6136
919.161	6262
919.272	6076
919.383	6117
919.494	6281
919.604	6391
919.715	6266
919.826	6194
919.936	6254
920.047	6304
920.157	6243
920.267	6410
920.378	6270
920.488	6258
920.598	6445
920.708	6456
920.818	6467
920.928	6483
921.038	6635
921.148	6471
921.258	6376
921.368	6258
921.477	6171
921.587	6171
921.697	6095
921.806	6155
921.916	6076
922.025	5935
922.134	5863
922.244	5889
922.353	5935
922.462	5794
922.571	5779
922.68	5707
922.789	5619
922.898	5695
923.007	5596
923.116	5695
923.224	5661
923.333	5646
923.442	5608
923.55	5516
923.659	5543
923.767	5570
923.876	5581
923.984	5558
924.092	5554
924.201	5547
924.309	5585
924.417	5516
924.525	5455
924.633	5452
924.741	6277
924.849	5387
924.956	5452
925.064	5330
925.172	5318
925.279	5250
925.387	5345
925.494	5322
925.602	5406
925.709	5326
925.816	5265
925.924	5277
926.031	5345
926.138	5235
926.245	5246
926.352	5174
926.459	5288
926.566	5307
926.673	5162
926.779	5117
926.886	5113
926.993	5003
927.099	4995
927.206	4968
927.312	4908
927.419	4995
927.525	4976
927.631	5010
927.737	4835
927.843	4873
927.95	4767
928.056	4801
928.162	4812
928.267	4839
928.373	5307
928.479	4877
928.585	4698
928.69	4736
928.796	4793
928.901	4653
929.007	4569
929.112	4706
929.218	4592
929.323	4546
929.428	4584
929.533	4656
929.638	4481
929.743	4565
929.848	4516
929.953	4504
930.058	4375
930.163	4329
930.267	4344
930.372	4455
930.477	4265
930.581	4440
930.685	4360
930.79	4257
930.894	4265
930.998	4287
931.103	4375
931.207	4173
931.311	4090
931.415	4040
931.519	3899
931.623	3922
