Data from glass_V78500241_335.txt Node
Date: Wed Sep 01 19:16:49 CST 2021
User: usil
Spectrometer: V785-0024
Trigger mode: 0
Integration Time (sec): 4.000000E-1
Scans to average: 1
Nonlinearity correction enabled: false
Boxcar width: 0
Storing dark spectrum: false
XAxis mode: Wavelengths
Number of Pixels in Spectrum: 1024
>>>>>Begin Spectral Data<<<<<
801.071	3705
801.214	3755
801.356	3736
801.499	3743
801.641	3743
801.783	3789
801.926	3857
802.068	3865
802.211	3876
802.353	3899
802.496	3880
802.638	3896
802.78	3941
802.923	3937
803.065	3934
803.208	3869
803.35	3850
803.492	3903
803.635	3884
803.777	3816
803.919	3975
804.061	4162
804.204	3979
804.346	3972
804.488	3915
804.63	4048
804.773	4017
804.915	4067
805.057	4143
805.199	4109
805.341	4135
805.483	4177
805.626	4120
805.768	4112
805.91	4230
806.052	4215
806.194	4200
806.336	4405
806.478	4200
806.62	4196
806.762	4200
806.904	4291
807.046	4386
807.188	4268
807.33	4200
807.472	4287
807.614	4158
807.756	4276
807.898	4261
808.04	4253
808.182	4314
808.324	4314
808.465	4379
808.607	4481
808.749	4504
808.891	4504
809.033	4554
809.174	4402
809.316	4261
809.458	4223
809.6	4139
809.741	4181
809.883	4185
810.025	4268
810.166	4215
810.308	4211
810.45	4268
810.591	4246
810.733	4280
810.875	4542
811.016	4771
811.158	5185
811.299	5296
811.441	5337
811.582	5071
811.724	4694
811.865	4481
812.007	4504
812.148	4489
812.29	4417
812.431	4428
812.573	4379
812.714	4386
812.855	4405
812.997	4436
813.138	4481
813.279	4413
813.421	4402
813.562	4405
813.703	4363
813.845	4318
813.986	4284
814.127	4150
814.268	4265
814.41	4276
814.551	4291
814.692	4360
814.833	4276
814.974	4306
815.115	4295
815.256	4265
815.397	4242
815.539	4272
815.68	4238
815.821	4223
815.962	4303
816.103	4314
816.244	4234
816.385	4215
816.526	4280
816.666	4261
816.807	4131
816.948	4177
817.089	4173
817.23	4124
817.371	4040
817.512	4074
817.653	4143
817.793	4029
817.934	4063
818.075	4131
818.216	4036
818.356	4109
818.497	3960
818.638	3949
818.778	3941
818.919	3888
819.06	3907
819.2	3915
819.341	3926
819.481	3884
819.622	3880
819.762	4017
819.903	3949
820.043	3857
820.184	3857
820.324	3876
820.465	3926
820.605	3907
820.746	3857
820.886	3835
821.026	3964
821.167	3926
821.307	4010
821.447	4002
821.588	3983
821.728	3949
821.868	3937
822.008	3869
822.149	3922
822.289	3937
822.429	3842
822.569	3766
822.709	3835
822.849	3682
822.99	3736
823.13	3732
823.27	3797
823.41	3770
823.55	3717
823.69	3743
823.83	3774
823.97	3694
824.11	3610
824.25	3568
824.389	3641
824.529	3698
824.669	3648
824.809	3720
824.949	3778
825.089	3732
825.228	3709
825.368	3603
825.508	3614
825.648	3606
825.787	3614
825.927	3686
826.067	3694
826.206	3622
826.346	3800
826.485	3816
826.625	3873
826.765	4002
826.904	3816
827.044	3667
827.183	3538
827.323	3443
827.462	3450
827.601	3443
827.741	3469
827.88	3469
828.02	3405
828.159	3458
828.298	3488
828.437	3568
828.577	3500
828.716	3591
828.855	3515
828.994	3439
829.134	3351
829.273	3329
829.412	3367
829.551	3348
829.69	3382
829.829	3458
829.968	3523
830.107	3454
830.246	3454
830.385	3359
830.524	3351
830.663	3340
830.802	3287
830.941	3184
831.08	3176
831.219	3279
831.357	3218
831.496	3435
831.635	3283
831.774	3203
831.913	3188
832.051	3157
832.19	3138
832.329	3222
832.467	3135
832.606	3127
832.744	3192
832.883	3184
833.022	3222
833.16	3275
833.299	3336
833.437	3367
833.576	3401
833.714	3420
833.852	3428
833.991	3462
834.129	3473
834.267	3469
834.406	3431
834.544	3420
834.682	3492
834.821	3443
834.959	3564
835.097	3424
835.235	3492
835.373	3500
835.511	3538
835.65	3473
835.788	3473
835.926	3424
836.064	3416
836.202	3439
836.34	3599
836.478	3660
836.615	3538
836.753	3641
836.891	3629
837.029	3633
837.167	3599
837.305	3568
837.443	3523
837.58	3534
837.718	3610
837.856	3549
837.993	3564
838.131	3606
838.269	3591
838.406	3576
838.544	3572
838.681	3500
838.819	3450
838.956	3401
839.094	3420
839.231	3466
839.369	3492
839.506	3705
839.643	3629
839.781	3538
839.918	3466
840.055	3534
840.193	3545
840.33	3488
840.467	3564
840.604	3606
840.742	3789
840.879	3599
841.016	3545
841.153	3595
841.29	3766
841.427	3728
841.564	3717
841.701	3740
841.838	3705
841.975	3694
842.112	3709
842.249	3667
842.385	3663
842.522	3850
842.659	3724
842.796	3686
842.933	3736
843.069	3728
843.206	3740
843.343	3835
843.479	3846
843.616	3812
843.752	3686
843.889	3701
844.025	3899
844.162	3724
844.298	3835
844.435	3770
844.571	3774
844.708	3907
844.844	3991
844.98	4055
845.117	4017
845.253	3930
845.389	3934
845.525	3972
845.661	4002
845.798	3968
845.934	4032
846.07	3922
846.206	4074
846.342	4120
846.478	4055
846.614	4002
846.75	3926
846.886	3941
847.022	4090
847.158	4006
847.294	4013
847.429	4067
847.565	3998
847.701	4253
847.837	3861
847.972	3930
848.108	4013
848.244	4002
848.379	3888
848.515	3865
848.65	3827
848.786	3884
848.921	3888
849.057	3968
849.192	3945
849.328	3930
849.463	3907
849.598	3884
849.734	3884
849.869	3831
850.004	3800
850.14	3793
850.275	3797
850.41	3759
850.545	3781
850.68	3842
850.815	3812
850.95	3766
851.085	3934
851.22	3869
851.355	3835
851.49	3838
851.625	3823
851.76	3842
851.895	3751
852.03	3705
852.165	3812
852.299	3861
852.434	3941
852.569	3880
852.703	3857
852.838	3915
852.973	3998
853.107	4025
853.242	3926
853.376	3800
853.511	3778
853.645	3846
853.78	3979
853.914	3907
854.048	3888
854.183	3941
854.317	3953
854.451	4101
854.585	3956
854.72	3979
854.854	4051
854.988	3968
855.122	3987
855.256	3953
855.39	4013
855.524	4116
855.658	4093
855.792	4124
855.926	4147
856.06	4166
856.194	4211
856.327	4150
856.461	4158
856.595	4196
856.729	4185
856.862	4276
856.996	4211
857.13	4249
857.263	4318
857.397	4379
857.53	4325
857.664	4405
857.797	4428
857.931	4428
858.064	4421
858.197	4493
858.331	4386
858.464	4481
858.597	4337
858.731	4466
858.864	4474
858.997	4462
859.13	4519
859.263	4527
859.396	4603
859.529	4508
859.662	4542
859.795	4558
859.928	4603
860.061	4748
860.194	4717
860.327	4664
860.46	4706
860.592	4767
860.725	4816
860.858	4759
860.99	4721
861.123	4649
861.256	4683
861.388	4809
861.521	5357
861.653	4744
861.786	4748
861.918	4714
862.05	4805
862.183	4850
862.315	4911
862.447	4934
862.58	4896
862.712	4911
862.844	4755
862.976	4908
863.108	4870
863.24	5258
863.372	4828
863.504	4930
863.636	4889
863.768	5014
863.9	4946
864.032	4942
864.164	4949
864.296	4995
864.428	5124
864.559	5109
864.691	5109
864.823	5170
864.954	5086
865.086	5094
865.217	5136
865.349	5143
865.48	5185
865.612	5166
865.743	5296
865.875	5265
866.006	5109
866.137	5261
866.269	5239
866.4	5254
866.531	5204
866.662	5261
866.793	5307
866.924	5284
867.055	5353
867.186	5292
867.317	5326
867.448	5315
867.579	5414
867.71	5410
867.841	5429
867.972	5440
868.103	5444
868.233	5539
868.364	5512
868.495	5581
868.625	5684
868.756	5786
868.886	5676
869.017	5695
869.147	5923
869.278	5897
869.408	5870
869.539	5874
869.669	5958
869.799	5931
869.929	5977
870.06	5988
870.19	6197
870.32	6205
870.45	6277
870.58	6380
870.71	6437
870.84	6486
870.97	6445
871.1	6464
871.23	6585
871.36	6688
871.489	6673
871.619	6768
871.749	6802
871.879	6886
872.008	6954
872.138	7023
872.267	7004
872.397	6966
872.526	7023
872.656	7084
872.785	7206
872.915	7396
873.044	7552
873.173	7616
873.303	7681
873.432	7761
873.561	7955
873.69	7898
873.819	7982
873.948	8142
874.077	8267
874.206	8328
874.335	8507
874.464	8648
874.593	8883
874.722	8941
874.851	9154
874.979	9241
875.108	9389
875.237	9477
875.365	9435
875.494	9694
875.623	9876
875.751	9884
875.88	9983
876.008	10093
876.136	10238
876.265	10470
876.393	10702
876.521	10805
876.65	10828
876.778	10839
876.906	10930
877.034	11018
877.162	11045
877.29	11140
877.418	11254
877.546	11376
877.674	11501
877.802	11448
877.93	11551
878.058	11547
878.185	11630
878.313	11695
878.441	11680
878.568	11756
878.696	11805
878.824	11836
878.951	11939
879.079	11996
879.206	12083
879.333	12091
879.461	11977
879.588	12022
879.715	12049
879.842	12167
879.97	12057
880.097	11859
880.224	11923
880.351	11790
880.478	11851
880.605	11889
880.732	11813
880.859	11965
880.986	11832
881.112	11813
881.239	11733
881.366	11623
881.493	11630
881.619	11570
881.746	11558
881.872	11619
881.999	11501
882.125	11512
882.252	11528
882.378	11516
882.505	11558
882.631	11322
882.757	11318
882.883	11269
883.01	11315
883.136	11239
883.262	11166
883.388	11098
883.514	11140
883.64	11048
883.766	11086
883.892	11014
884.018	11018
884.143	11064
884.269	11185
884.395	10850
884.52	10653
884.646	10847
884.772	10763
884.897	10767
885.023	10759
885.148	10721
885.274	10816
885.399	10672
885.524	10714
885.65	10588
885.775	10573
885.9	10558
886.025	10687
886.15	10497
886.275	10493
886.4	10371
886.525	10417
886.65	10409
886.775	10402
886.9	10443
887.025	10542
887.149	10287
887.274	10291
887.399	10181
887.523	10166
887.648	10215
887.773	10188
887.897	10287
888.021	10230
888.146	10128
888.27	10207
888.395	10215
888.519	10116
888.643	10207
888.767	10204
888.891	10116
889.015	9937
889.139	10048
889.263	9968
889.387	10097
889.511	10093
889.635	10090
889.759	9968
889.883	10048
890.006	9968
890.13	10173
890.254	9983
890.377	9998
890.501	9869
890.624	9781
890.748	9934
890.871	9873
890.995	9709
891.118	9671
891.241	9759
891.364	9732
891.488	9846
891.611	9770
891.734	9823
891.857	9705
891.98	9690
892.103	9812
892.226	9720
892.349	9641
892.471	9553
892.594	9568
892.717	9534
892.839	9629
892.962	9682
893.085	9564
893.207	9580
893.33	9504
893.452	9534
893.575	9637
893.697	9485
893.819	9656
893.941	9591
894.064	9625
894.186	9454
894.308	9382
894.43	9530
894.552	9568
894.674	9507
894.796	9348
894.918	9428
895.04	9344
895.161	9447
895.283	9336
895.405	9233
895.526	9287
895.648	9241
895.769	9298
895.891	9279
896.012	9340
896.134	9176
896.255	9161
896.376	9161
896.498	9165
896.619	9116
896.74	9077
896.861	9081
896.982	9253
897.103	9249
897.224	9169
897.345	9058
897.466	9058
897.587	9024
897.708	9146
897.828	9070
897.949	8921
898.07	8914
898.19	8960
898.311	9051
898.431	8891
898.552	8887
898.672	9028
898.792	8967
898.913	8929
899.033	8857
899.153	8769
899.273	8724
899.393	8762
899.513	8754
899.633	8693
899.753	8819
899.873	8712
899.993	8842
900.113	8697
900.232	8735
900.352	8701
900.472	8632
900.591	8526
900.711	8625
900.83	8507
900.95	8621
901.069	8701
901.189	8610
901.308	8473
901.427	8423
901.546	8408
901.665	8461
901.784	8499
901.904	8393
902.023	8271
902.141	8233
902.26	8221
902.379	8259
902.498	8240
902.617	8225
902.735	8358
902.854	8385
902.973	8259
903.091	8180
903.21	8134
903.328	8168
903.446	8081
903.565	8092
903.683	8153
903.801	8069
903.919	8145
904.038	8180
904.156	8027
904.274	8130
904.392	8035
904.51	8111
904.627	8073
904.745	8111
904.863	8077
904.981	7978
905.098	7959
905.216	7909
905.334	7845
905.451	7906
905.569	7906
905.686	7906
905.803	7936
905.921	7788
906.038	7849
906.155	7757
906.272	7753
906.389	7742
906.506	7628
906.623	7582
906.74	7601
906.857	7529
906.974	7594
907.091	7696
907.208	7677
907.324	7689
907.441	7571
907.557	7441
907.674	7388
907.79	7403
907.907	7373
908.023	7506
908.139	7430
908.256	7327
908.372	7377
908.488	7384
908.604	7297
908.72	7305
908.836	7236
908.952	7289
909.068	7316
909.184	7335
909.3	7282
909.415	7251
909.531	7335
909.647	7194
909.762	7168
909.878	7095
909.993	7213
910.108	7061
910.224	7046
910.339	7152
910.454	7050
910.57	7019
910.685	6973
910.8	7221
910.915	7145
911.03	7076
911.145	6871
911.259	6859
911.374	6985
911.489	6886
911.604	6814
911.718	6730
911.833	6730
911.947	6627
912.062	6593
912.176	6753
912.291	6730
912.405	6730
912.519	6791
912.633	6848
912.748	6707
912.862	6662
912.976	6658
913.09	6502
913.204	6635
913.318	6604
913.431	6681
913.545	6669
913.659	6715
913.772	6677
913.886	6574
914	6521
914.113	6639
914.226	6650
914.34	6551
914.453	6509
914.566	6597
914.68	6540
914.793	6589
914.906	6414
915.019	6414
915.132	6380
915.245	6426
915.358	6464
915.47	6448
915.583	6509
915.696	6559
915.809	6559
915.921	6582
916.034	6448
916.146	6445
916.259	6369
916.371	6464
916.483	6460
916.595	6410
916.708	6422
916.82	6361
916.932	6441
917.044	6410
917.156	6403
917.268	6361
917.38	6308
917.491	6357
917.603	6365
917.715	6372
917.826	6433
917.938	6277
918.049	6228
918.161	6251
918.272	6452
918.384	6460
918.495	6369
918.606	6277
918.717	6197
918.828	6277
918.939	6254
919.05	6292
919.161	6334
919.272	6117
919.383	6197
919.494	6239
919.604	6407
919.715	6292
919.826	6251
919.936	6281
920.047	6353
920.157	6319
920.267	6456
920.378	6331
920.488	6296
920.598	6479
920.708	6631
920.818	6509
920.928	6483
921.038	6582
921.148	6563
921.258	6372
921.368	6353
921.477	6281
921.587	6224
921.697	6171
921.806	6186
921.916	6095
922.025	5927
922.134	5954
922.244	5927
922.353	6011
922.462	5855
922.571	5878
922.68	5699
922.789	5714
922.898	5691
923.007	5642
923.116	5783
923.224	5752
923.333	5649
923.442	5608
923.55	5581
923.659	5615
923.767	5642
923.876	5566
923.984	5619
924.092	5554
924.201	5600
924.309	5505
924.417	5543
924.525	5528
924.633	5509
924.741	6262
924.849	5410
924.956	5463
925.064	5406
925.172	5337
925.279	5315
925.387	5368
925.494	5379
925.602	5471
925.709	5414
925.816	5318
925.924	5364
926.031	5406
926.138	5334
926.245	5376
926.352	5261
926.459	5288
926.566	5318
926.673	5227
926.779	5132
926.886	5140
926.993	5022
927.099	5048
927.206	4972
927.312	4957
927.419	5060
927.525	4957
927.631	5022
927.737	4881
927.843	4858
927.95	4774
928.056	4877
928.162	4809
928.267	4820
928.373	5246
928.479	4927
928.585	4717
928.69	4778
928.796	4774
928.901	4683
929.007	4584
929.112	4649
929.218	4649
929.323	4622
929.428	4569
929.533	4694
929.638	4558
929.743	4580
929.848	4569
929.953	4580
930.058	4455
930.163	4344
930.267	4390
930.372	4459
930.477	4314
930.581	4478
930.685	4344
930.79	4272
930.894	4295
930.998	4295
931.103	4375
931.207	4139
931.311	4078
931.415	4025
931.519	3975
931.623	3941
