Data from glass_V78500241_2682.txt Node
Date: Wed Sep 01 19:33:05 CST 2021
User: usil
Spectrometer: V785-0024
Trigger mode: 0
Integration Time (sec): 4.000000E-1
Scans to average: 1
Nonlinearity correction enabled: false
Boxcar width: 0
Storing dark spectrum: false
XAxis mode: Wavelengths
Number of Pixels in Spectrum: 1024
>>>>>Begin Spectral Data<<<<<
801.071	3705
801.214	3717
801.356	3717
801.499	3701
801.641	3690
801.783	3774
801.926	3838
802.068	3838
802.211	3827
802.353	3857
802.496	3816
802.638	3876
802.78	3861
802.923	3911
803.065	3865
803.208	3831
803.35	3911
803.492	3918
803.635	3884
803.777	3800
803.919	3903
804.061	4139
804.204	3949
804.346	3968
804.488	3926
804.63	4044
804.773	3968
804.915	3983
805.057	4124
805.199	4048
805.341	4059
805.483	4101
805.626	4105
805.768	4090
805.91	4185
806.052	4234
806.194	4147
806.336	4337
806.478	4215
806.62	4177
806.762	4166
806.904	4230
807.046	4310
807.188	4185
807.33	4238
807.472	4238
807.614	4177
807.756	4234
807.898	4219
808.04	4147
808.182	4284
808.324	4322
808.465	4352
808.607	4440
808.749	4459
808.891	4432
809.033	4489
809.174	4398
809.316	4219
809.458	4230
809.6	4154
809.741	4109
809.883	4135
810.025	4227
810.166	4268
810.308	4196
810.45	4253
810.591	4246
810.733	4287
810.875	4493
811.016	4786
811.158	5060
811.299	5231
811.441	5242
811.582	5003
811.724	4641
811.865	4455
812.007	4470
812.148	4398
812.29	4440
812.431	4421
812.573	4379
812.714	4329
812.855	4405
812.997	4383
813.138	4466
813.279	4352
813.421	4398
813.562	4325
813.703	4360
813.845	4329
813.986	4234
814.127	4257
814.268	4265
814.41	4303
814.551	4261
814.692	4295
814.833	4200
814.974	4272
815.115	4333
815.256	4249
815.397	4234
815.539	4227
815.68	4188
815.821	4230
815.962	4295
816.103	4223
816.244	4200
816.385	4230
816.526	4234
816.666	4162
816.807	4109
816.948	4169
817.089	4135
817.23	4086
817.371	4044
817.512	3991
817.653	4074
817.793	4025
817.934	4051
818.075	4025
818.216	4097
818.356	4040
818.497	3979
818.638	3884
818.778	3884
818.919	3876
819.06	3850
819.2	3918
819.341	3869
819.481	3823
819.622	3888
819.762	4017
819.903	3979
820.043	3797
820.184	3835
820.324	3819
820.465	3850
820.605	3804
820.746	3819
820.886	3755
821.026	3907
821.167	3892
821.307	3949
821.447	3979
821.588	3899
821.728	3937
821.868	3896
822.008	3857
822.149	3865
822.289	3937
822.429	3747
822.569	3736
822.709	3800
822.849	3698
822.99	3701
823.13	3766
823.27	3770
823.41	3728
823.55	3740
823.69	3717
823.83	3724
823.97	3660
824.11	3618
824.25	3587
824.389	3618
824.529	3686
824.669	3652
824.809	3690
824.949	3759
825.089	3686
825.228	3698
825.368	3584
825.508	3557
825.648	3580
825.787	3538
825.927	3606
826.067	3633
826.206	3682
826.346	3717
826.485	3827
826.625	3812
826.765	3934
826.904	3838
827.044	3545
827.183	3504
827.323	3447
827.462	3473
827.601	3428
827.741	3401
827.88	3397
828.02	3340
828.159	3409
828.298	3488
828.437	3500
828.577	3447
828.716	3561
828.855	3450
828.994	3348
829.134	3409
829.273	3363
829.412	3306
829.551	3329
829.69	3313
829.829	3428
829.968	3507
830.107	3420
830.246	3424
830.385	3348
830.524	3340
830.663	3306
830.802	3272
830.941	3146
831.08	3226
831.219	3253
831.357	3268
831.496	3431
831.635	3241
831.774	3154
831.913	3157
832.051	3119
832.19	3173
832.329	3184
832.467	3104
832.606	3074
832.744	3108
832.883	3180
833.022	3192
833.16	3313
833.299	3310
833.437	3359
833.576	3340
833.714	3412
833.852	3397
833.991	3412
834.129	3492
834.267	3420
834.406	3367
834.544	3412
834.682	3428
834.821	3344
834.959	3530
835.097	3382
835.235	3511
835.373	3454
835.511	3485
835.65	3439
835.788	3481
835.926	3405
836.064	3340
836.202	3336
836.34	3595
836.478	3622
836.615	3572
836.753	3584
836.891	3637
837.029	3595
837.167	3599
837.305	3519
837.443	3534
837.58	3481
837.718	3572
837.856	3542
837.993	3526
838.131	3568
838.269	3572
838.406	3545
838.544	3587
838.681	3458
838.819	3488
838.956	3378
839.094	3367
839.231	3428
839.369	3488
839.506	3713
839.643	3625
839.781	3500
839.918	3450
840.055	3530
840.193	3561
840.33	3473
840.467	3564
840.604	3557
840.742	3812
840.879	3557
841.016	3538
841.153	3549
841.29	3766
841.427	3724
841.564	3690
841.701	3705
841.838	3675
841.975	3698
842.112	3671
842.249	3637
842.385	3603
842.522	3823
842.659	3625
842.796	3648
842.933	3701
843.069	3690
843.206	3679
843.343	3797
843.479	3762
843.616	3759
843.752	3648
843.889	3675
844.025	3838
844.162	3698
844.298	3869
844.435	3762
844.571	3774
844.708	3884
844.844	3960
844.98	3983
845.117	3972
845.253	3907
845.389	3899
845.525	3953
845.661	3983
845.798	3915
845.934	4010
846.07	3899
846.206	4086
846.342	4090
846.478	4078
846.614	3972
846.75	3865
846.886	3896
847.022	4044
847.158	3964
847.294	3998
847.429	4021
847.565	3960
847.701	4234
847.837	3857
847.972	3857
848.108	3987
848.244	3945
848.379	3823
848.515	3759
848.65	3789
848.786	3835
848.921	3865
849.057	3903
849.192	3896
849.328	3922
849.463	3903
849.598	3838
849.734	3865
849.869	3838
850.004	3797
850.14	3762
850.275	3808
850.41	3740
850.545	3740
850.68	3740
850.815	3747
850.95	3804
851.085	3903
851.22	3857
851.355	3781
851.49	3747
851.625	3835
851.76	3812
851.895	3720
852.03	3713
852.165	3781
852.299	3793
852.434	3865
852.569	3819
852.703	3884
852.838	3911
852.973	3964
853.107	4013
853.242	3896
853.376	3831
853.511	3751
853.645	3827
853.78	3998
853.914	3861
854.048	3842
854.183	3808
854.317	3922
854.451	4055
854.585	3949
854.72	3911
854.854	4067
854.988	3930
855.122	3983
855.256	3896
855.39	4013
855.524	4109
855.658	4078
855.792	4105
855.926	4128
856.06	4185
856.194	4207
856.327	4147
856.461	4074
856.595	4128
856.729	4162
856.862	4268
856.996	4223
857.13	4280
857.263	4325
857.397	4348
857.53	4280
857.664	4356
857.797	4375
857.931	4371
858.064	4375
858.197	4432
858.331	4352
858.464	4402
858.597	4310
858.731	4428
858.864	4424
858.997	4424
859.13	4500
859.263	4519
859.396	4554
859.529	4538
859.662	4489
859.795	4489
859.928	4580
860.061	4710
860.194	4782
860.327	4656
860.46	4679
860.592	4717
860.725	4721
860.858	4744
860.99	4710
861.123	4660
861.256	4683
861.388	4744
861.521	5360
861.653	4736
861.786	4672
861.918	4767
862.05	4759
862.183	4828
862.315	4911
862.447	4911
862.58	4927
862.712	4839
862.844	4744
862.976	4843
863.108	4892
863.24	5231
863.372	4839
863.504	4927
863.636	4877
863.768	4965
863.9	4938
864.032	4904
864.164	4957
864.296	5045
864.428	5083
864.559	5086
864.691	5052
864.823	5136
864.954	5045
865.086	5155
865.217	5128
865.349	5147
865.48	5166
865.612	5151
865.743	5288
865.875	5189
866.006	5162
866.137	5227
866.269	5235
866.4	5273
866.531	5201
866.662	5204
866.793	5242
866.924	5299
867.055	5303
867.186	5277
867.317	5372
867.448	5307
867.579	5364
867.71	5440
867.841	5322
867.972	5421
868.103	5471
868.233	5444
868.364	5509
868.495	5543
868.625	5623
868.756	5798
868.886	5668
869.017	5699
869.147	5779
869.278	5855
869.408	5851
869.539	5756
869.669	5912
869.799	5874
869.929	5946
870.06	5988
870.19	6220
870.32	6171
870.45	6254
870.58	6273
870.71	6369
870.84	6441
870.97	6395
871.1	6433
871.23	6654
871.36	6692
871.489	6681
871.619	6779
871.749	6806
871.879	6852
872.008	6924
872.138	6993
872.267	6977
872.397	6977
872.526	7015
872.656	7057
872.785	7187
872.915	7384
873.044	7521
873.173	7548
873.303	7628
873.432	7670
873.561	7890
873.69	7864
873.819	8005
873.948	8103
874.077	8244
874.206	8313
874.335	8385
874.464	8644
874.593	8811
874.722	8876
874.851	9104
874.979	9233
875.108	9310
875.237	9416
875.365	9492
875.494	9656
875.623	9895
875.751	9785
875.88	9983
876.008	10097
876.136	10276
876.265	10516
876.393	10714
876.521	10725
876.65	10896
876.778	10831
876.906	10801
877.034	10987
877.162	11037
877.29	11189
877.418	11258
877.546	11254
877.674	11368
877.802	11471
877.93	11554
878.058	11570
878.185	11539
878.313	11653
878.441	11726
878.568	11688
878.696	11775
878.824	11767
878.951	11908
879.079	11950
879.206	12053
879.333	11996
879.461	11965
879.588	12110
879.715	12136
879.842	12182
879.97	12015
880.097	11935
880.224	11893
880.351	11817
880.478	11821
880.605	11863
880.732	11786
880.859	12015
880.986	11786
881.112	11802
881.239	11699
881.366	11638
881.493	11630
881.619	11547
881.746	11528
881.872	11448
881.999	11463
882.125	11482
882.252	11509
882.378	11391
882.505	11570
882.631	11372
882.757	11315
882.883	11376
883.01	11204
883.136	11208
883.262	11094
883.388	11079
883.514	11265
883.64	11128
883.766	11052
883.892	10961
884.018	10995
884.143	11025
884.269	11140
884.395	10889
884.52	10805
884.646	10797
884.772	10683
884.897	10668
885.023	10622
885.148	10714
885.274	10744
885.399	10710
885.524	10649
885.65	10618
885.775	10603
885.9	10531
886.025	10592
886.15	10592
886.275	10424
886.4	10394
886.525	10386
886.65	10318
886.775	10341
886.9	10481
887.025	10519
887.149	10344
887.274	10238
887.399	10230
887.523	10162
887.648	10131
887.773	10101
887.897	10192
888.021	10227
888.146	10124
888.27	10234
888.395	10253
888.519	10215
888.643	10177
888.767	10147
888.891	10032
889.015	9964
889.139	10090
889.263	9983
889.387	10025
889.511	10086
889.635	10067
889.759	9884
889.883	9937
890.006	9987
890.13	10093
890.254	9892
890.377	9941
890.501	9823
890.624	9873
890.748	9915
890.871	9755
890.995	9713
891.118	9694
891.241	9701
891.364	9720
891.488	9816
891.611	9724
891.734	9778
891.857	9808
891.98	9740
892.103	9873
892.226	9747
892.349	9618
892.471	9584
892.594	9610
892.717	9549
892.839	9557
892.962	9637
893.085	9675
893.207	9515
893.33	9454
893.452	9519
893.575	9591
893.697	9462
893.819	9610
893.941	9584
894.064	9610
894.186	9389
894.308	9378
894.43	9504
894.552	9564
894.674	9519
894.796	9386
894.918	9325
895.04	9344
895.161	9325
895.283	9302
895.405	9253
895.526	9241
895.648	9237
895.769	9195
895.891	9325
896.012	9203
896.134	9154
896.255	9195
896.376	9123
896.498	9165
896.619	9123
896.74	9024
896.861	9058
896.982	9256
897.103	9310
897.224	9112
897.345	9081
897.466	8963
897.587	9009
897.708	9112
897.828	9043
897.949	8948
898.07	8880
898.19	8857
898.311	9043
898.431	8921
898.552	8887
898.672	8967
898.792	8925
898.913	8868
899.033	8849
899.153	8750
899.273	8648
899.393	8739
899.513	8750
899.633	8701
899.753	8781
899.873	8689
899.993	8758
900.113	8663
900.232	8693
900.352	8670
900.472	8537
900.591	8575
900.711	8541
900.83	8511
900.95	8651
901.069	8617
901.189	8606
901.308	8469
901.427	8370
901.546	8355
901.665	8408
901.784	8484
901.904	8450
902.023	8366
902.141	8237
902.26	8191
902.379	8244
902.498	8221
902.617	8233
902.735	8320
902.854	8282
902.973	8164
903.091	8119
903.21	8145
903.328	8237
903.446	8073
903.565	8065
903.683	8107
903.801	8027
903.919	8126
904.038	8107
904.156	8062
904.274	8134
904.392	7993
904.51	8058
904.627	8024
904.745	8100
904.863	8043
904.981	7963
905.098	7887
905.216	7852
905.334	7909
905.451	7868
905.569	7849
905.686	7913
905.803	7803
905.921	7792
906.038	7860
906.155	7750
906.272	7689
906.389	7689
906.506	7647
906.623	7563
906.74	7632
906.857	7438
906.974	7559
907.091	7674
907.208	7734
907.324	7601
907.441	7597
907.557	7464
907.674	7457
907.79	7403
907.907	7403
908.023	7464
908.139	7411
908.256	7377
908.372	7388
908.488	7350
908.604	7293
908.72	7198
908.836	7247
908.952	7263
909.068	7202
909.184	7289
909.3	7289
909.415	7297
909.531	7221
909.647	7095
909.762	7122
909.878	7114
909.993	7095
910.108	7095
910.224	7080
910.339	7107
910.454	6977
910.57	6985
910.685	6970
910.8	7126
910.915	7080
911.03	7065
911.145	6882
911.259	6829
911.374	6871
911.489	6810
911.604	6783
911.718	6707
911.833	6711
911.947	6669
912.062	6639
912.176	6741
912.291	6677
912.405	6677
912.519	6726
912.633	6859
912.748	6703
912.862	6688
912.976	6601
913.09	6582
913.204	6582
913.318	6566
913.431	6688
913.545	6669
913.659	6681
913.772	6608
913.886	6532
914	6498
914.113	6597
914.226	6597
914.34	6593
914.453	6422
914.566	6658
914.68	6460
914.793	6498
914.906	6395
915.019	6384
915.132	6338
915.245	6418
915.358	6414
915.47	6410
915.583	6448
915.696	6467
915.809	6563
915.921	6532
916.034	6319
916.146	6380
916.259	6414
916.371	6513
916.483	6479
916.595	6391
916.708	6350
916.82	6331
916.932	6308
917.044	6372
917.156	6410
917.268	6319
917.38	6232
917.491	6296
917.603	6319
917.715	6380
917.826	6380
917.938	6308
918.049	6270
918.161	6281
918.272	6395
918.384	6403
918.495	6308
918.606	6213
918.717	6228
918.828	6228
918.939	6296
919.05	6155
919.161	6243
919.272	6129
919.383	6129
919.494	6254
919.604	6372
919.715	6285
919.826	6178
919.936	6243
920.047	6338
920.157	6254
920.267	6410
920.378	6338
920.488	6281
920.598	6467
920.708	6525
920.818	6433
920.928	6429
921.038	6536
921.148	6608
921.258	6304
921.368	6243
921.477	6258
921.587	6182
921.697	6057
921.806	6117
921.916	6038
922.025	5927
922.134	5870
922.244	5851
922.353	5939
922.462	5805
922.571	5771
922.68	5733
922.789	5661
922.898	5688
923.007	5600
923.116	5726
923.224	5726
923.333	5600
923.442	5630
923.55	5573
923.659	5600
923.767	5592
923.876	5551
923.984	5604
924.092	5467
924.201	5558
924.309	5482
924.417	5535
924.525	5493
924.633	5547
924.741	6213
924.849	5364
924.956	5414
925.064	5360
925.172	5311
925.279	5242
925.387	5284
925.494	5299
925.602	5425
925.709	5353
925.816	5250
925.924	5261
926.031	5383
926.138	5273
926.245	5311
926.352	5204
926.459	5322
926.566	5341
926.673	5208
926.779	5128
926.886	5079
926.993	5006
927.099	4953
927.206	4965
927.312	4980
927.419	4946
927.525	4968
927.631	5006
927.737	4877
927.843	4847
927.95	4733
928.056	4843
928.162	4786
928.267	4881
928.373	5261
928.479	4847
928.585	4607
928.69	4790
928.796	4729
928.901	4656
929.007	4577
929.112	4675
929.218	4599
929.323	4546
929.428	4523
929.533	4611
929.638	4500
929.743	4554
929.848	4588
929.953	4504
930.058	4443
930.163	4371
930.267	4318
930.372	4455
930.477	4333
930.581	4481
930.685	4318
930.79	4265
930.894	4344
930.998	4234
931.103	4352
931.207	4067
931.311	4055
931.415	4040
931.519	3934
931.623	3903
