Data from glass_V78500241_937.txt Node
Date: Wed Sep 01 19:20:59 CST 2021
User: usil
Spectrometer: V785-0024
Trigger mode: 0
Integration Time (sec): 4.000000E-1
Scans to average: 1
Nonlinearity correction enabled: false
Boxcar width: 0
Storing dark spectrum: false
XAxis mode: Wavelengths
Number of Pixels in Spectrum: 1024
>>>>>Begin Spectral Data<<<<<
801.071	3759
801.214	3736
801.356	3728
801.499	3793
801.641	3728
801.783	3819
801.926	3892
802.068	3835
802.211	3861
802.353	3892
802.496	3835
802.638	3907
802.78	3930
802.923	3892
803.065	3918
803.208	3869
803.35	3937
803.492	3934
803.635	3907
803.777	3827
803.919	3915
804.061	4120
804.204	4025
804.346	3953
804.488	3945
804.63	4055
804.773	3994
804.915	4078
805.057	4185
805.199	4044
805.341	4105
805.483	4120
805.626	4135
805.768	4067
805.91	4246
806.052	4276
806.194	4185
806.336	4325
806.478	4215
806.62	4143
806.762	4238
806.904	4272
807.046	4322
807.188	4230
807.33	4219
807.472	4284
807.614	4238
807.756	4234
807.898	4230
808.04	4204
808.182	4276
808.324	4318
808.465	4367
808.607	4489
808.749	4459
808.891	4443
809.033	4500
809.174	4409
809.316	4253
809.458	4219
809.6	4135
809.741	4169
809.883	4173
810.025	4223
810.166	4268
810.308	4204
810.45	4265
810.591	4223
810.733	4314
810.875	4519
811.016	4805
811.158	5117
811.299	5292
811.441	5349
811.582	5064
811.724	4706
811.865	4519
812.007	4497
812.148	4428
812.29	4424
812.431	4375
812.573	4390
812.714	4341
812.855	4424
812.997	4409
813.138	4451
813.279	4455
813.421	4413
813.562	4409
813.703	4299
813.845	4329
813.986	4261
814.127	4238
814.268	4268
814.41	4310
814.551	4242
814.692	4341
814.833	4230
814.974	4360
815.115	4333
815.256	4257
815.397	4238
815.539	4253
815.68	4200
815.821	4253
815.962	4306
816.103	4329
816.244	4227
816.385	4265
816.526	4276
816.666	4230
816.807	4116
816.948	4219
817.089	4188
817.23	4150
817.371	4059
817.512	4044
817.653	4074
817.793	3998
817.934	4040
818.075	4105
818.216	4093
818.356	4078
818.497	3994
818.638	3930
818.778	3930
818.919	3896
819.06	3850
819.2	3941
819.341	3869
819.481	3842
819.622	3926
819.762	4006
819.903	3930
820.043	3835
820.184	3838
820.324	3816
820.465	3915
820.605	3892
820.746	3896
820.886	3785
821.026	3911
821.167	3899
821.307	4002
821.447	3983
821.588	3926
821.728	3972
821.868	3987
822.008	3926
822.149	3915
822.289	3896
822.429	3804
822.569	3812
822.709	3816
822.849	3705
822.99	3736
823.13	3778
823.27	3827
823.41	3747
823.55	3743
823.69	3724
823.83	3759
823.97	3698
824.11	3667
824.25	3614
824.389	3637
824.529	3690
824.669	3663
824.809	3694
824.949	3766
825.089	3747
825.228	3728
825.368	3606
825.508	3568
825.648	3591
825.787	3614
825.927	3660
826.067	3660
826.206	3671
826.346	3766
826.485	3884
826.625	3842
826.765	3945
826.904	3835
827.044	3637
827.183	3530
827.323	3389
827.462	3504
827.601	3458
827.741	3447
827.88	3458
828.02	3393
828.159	3409
828.298	3511
828.437	3504
828.577	3507
828.716	3591
828.855	3500
828.994	3431
829.134	3378
829.273	3359
829.412	3332
829.551	3344
829.69	3374
829.829	3405
829.968	3477
830.107	3466
830.246	3405
830.385	3397
830.524	3332
830.663	3325
830.802	3241
830.941	3199
831.08	3207
831.219	3264
831.357	3298
831.496	3389
831.635	3207
831.774	3199
831.913	3230
832.051	3157
832.19	3150
832.329	3233
832.467	3146
832.606	3062
832.744	3192
832.883	3211
833.022	3214
833.16	3298
833.299	3344
833.437	3302
833.576	3389
833.714	3389
833.852	3439
833.991	3466
834.129	3473
834.267	3454
834.406	3363
834.544	3382
834.682	3462
834.821	3412
834.959	3587
835.097	3424
835.235	3500
835.373	3485
835.511	3523
835.65	3450
835.788	3519
835.926	3409
836.064	3363
836.202	3443
836.34	3568
836.478	3641
836.615	3572
836.753	3580
836.891	3644
837.029	3663
837.167	3610
837.305	3580
837.443	3481
837.58	3553
837.718	3610
837.856	3519
837.993	3530
838.131	3618
838.269	3564
838.406	3591
838.544	3580
838.681	3477
838.819	3477
838.956	3378
839.094	3405
839.231	3473
839.369	3523
839.506	3736
839.643	3644
839.781	3545
839.918	3504
840.055	3549
840.193	3504
840.33	3485
840.467	3603
840.604	3618
840.742	3804
840.879	3549
841.016	3564
841.153	3606
841.29	3766
841.427	3720
841.564	3717
841.701	3751
841.838	3694
841.975	3663
842.112	3728
842.249	3641
842.385	3656
842.522	3804
842.659	3698
842.796	3717
842.933	3751
843.069	3747
843.206	3740
843.343	3804
843.479	3827
843.616	3823
843.752	3694
843.889	3698
844.025	3846
844.162	3717
844.298	3861
844.435	3816
844.571	3804
844.708	3915
844.844	4029
844.98	4044
845.117	4025
845.253	3941
845.389	3911
845.525	3998
845.661	3991
845.798	3979
845.934	4021
846.07	3941
846.206	4032
846.342	4158
846.478	4044
846.614	3979
846.75	3941
846.886	3930
847.022	4059
847.158	3987
847.294	3972
847.429	4051
847.565	3983
847.701	4227
847.837	3846
847.972	3903
848.108	4021
848.244	3998
848.379	3869
848.515	3812
848.65	3774
848.786	3865
848.921	3884
849.057	3949
849.192	3922
849.328	3880
849.463	3903
849.598	3888
849.734	3846
849.869	3842
850.004	3770
850.14	3869
850.275	3770
850.41	3770
850.545	3774
850.68	3785
850.815	3812
850.95	3800
851.085	3934
851.22	3873
851.355	3850
851.49	3819
851.625	3812
851.76	3808
851.895	3759
852.03	3747
852.165	3816
852.299	3835
852.434	3911
852.569	3899
852.703	3850
852.838	3941
852.973	4025
853.107	3994
853.242	3922
853.376	3880
853.511	3781
853.645	3842
853.78	4032
853.914	3876
854.048	3964
854.183	3819
854.317	3941
854.451	4048
854.585	3975
854.72	3956
854.854	4036
854.988	3956
855.122	4017
855.256	3888
855.39	4067
855.524	4105
855.658	4131
855.792	4173
855.926	4169
856.06	4166
856.194	4219
856.327	4128
856.461	4139
856.595	4124
856.729	4169
856.862	4238
856.996	4230
857.13	4322
857.263	4352
857.397	4367
857.53	4322
857.664	4322
857.797	4398
857.931	4432
858.064	4367
858.197	4424
858.331	4379
858.464	4367
858.597	4383
858.731	4455
858.864	4451
858.997	4500
859.13	4512
859.263	4554
859.396	4637
859.529	4500
859.662	4584
859.795	4474
859.928	4599
860.061	4710
860.194	4733
860.327	4634
860.46	4630
860.592	4748
860.725	4786
860.858	4831
860.99	4763
861.123	4649
861.256	4717
861.388	4820
861.521	5493
861.653	4733
861.786	4721
861.918	4752
862.05	4797
862.183	4850
862.315	4896
862.447	4957
862.58	4873
862.712	4835
862.844	4793
862.976	4911
863.108	4911
863.24	5189
863.372	4816
863.504	4885
863.636	4877
863.768	5006
863.9	4892
864.032	4938
864.164	4976
864.296	5079
864.428	5048
864.559	5075
864.691	5147
864.823	5189
864.954	5151
865.086	5094
865.217	5105
865.349	5124
865.48	5204
865.612	5220
865.743	5307
865.875	5223
866.006	5151
866.137	5239
866.269	5273
866.4	5254
866.531	5242
866.662	5242
866.793	5296
866.924	5284
867.055	5326
867.186	5387
867.317	5280
867.448	5341
867.579	5410
867.71	5376
867.841	5379
867.972	5539
868.103	5478
868.233	5505
868.364	5512
868.495	5562
868.625	5680
868.756	5779
868.886	5630
869.017	5748
869.147	5897
869.278	5885
869.408	5866
869.539	5828
869.669	5965
869.799	5923
869.929	6049
870.06	6041
870.19	6140
870.32	6182
870.45	6289
870.58	6350
870.71	6407
870.84	6460
870.97	6452
871.1	6441
871.23	6616
871.36	6719
871.489	6692
871.619	6776
871.749	6856
871.879	6894
872.008	6939
872.138	7008
872.267	6985
872.397	7023
872.526	6989
872.656	7122
872.785	7179
872.915	7392
873.044	7502
873.173	7616
873.303	7689
873.432	7719
873.561	7902
873.69	7909
873.819	8103
873.948	8187
874.077	8233
874.206	8298
874.335	8434
874.464	8640
874.593	8792
874.722	8944
874.851	9154
874.979	9165
875.108	9370
875.237	9477
875.365	9496
875.494	9698
875.623	9842
875.751	9781
875.88	10002
876.008	10143
876.136	10276
876.265	10538
876.393	10752
876.521	10725
876.65	10847
876.778	10984
876.906	10892
877.034	10889
877.162	11060
877.29	11174
877.418	11261
877.546	11364
877.674	11429
877.802	11558
877.93	11524
878.058	11577
878.185	11551
878.313	11695
878.441	11767
878.568	11672
878.696	11821
878.824	11847
878.951	11916
879.079	11980
879.206	12216
879.333	12102
879.461	11996
879.588	12095
879.715	12095
879.842	12201
879.97	12148
880.097	11828
880.224	11870
880.351	11908
880.478	11851
880.605	11866
880.732	11779
880.859	11935
880.986	11817
881.112	11870
881.239	11703
881.366	11684
881.493	11566
881.619	11505
881.746	11608
881.872	11543
881.999	11573
882.125	11474
882.252	11642
882.378	11444
882.505	11520
882.631	11387
882.757	11383
882.883	11349
883.01	11280
883.136	11212
883.262	11064
883.388	11048
883.514	11223
883.64	11193
883.766	11166
883.892	11014
884.018	11025
884.143	11037
884.269	11140
884.395	10858
884.52	10740
884.646	10748
884.772	10649
884.897	10717
885.023	10683
885.148	10710
885.274	10736
885.399	10679
885.524	10596
885.65	10554
885.775	10580
885.9	10577
886.025	10561
886.15	10512
886.275	10402
886.4	10428
886.525	10386
886.65	10447
886.775	10386
886.9	10470
887.025	10535
887.149	10344
887.274	10219
887.399	10204
887.523	10147
887.648	10120
887.773	10128
887.897	10303
888.021	10200
888.146	10181
888.27	10223
888.395	10162
888.519	10299
888.643	10204
888.767	10162
888.891	10032
889.015	10013
889.139	10025
889.263	9983
889.387	10090
889.511	10188
889.635	10097
889.759	10032
889.883	9991
890.006	9960
890.13	10128
890.254	9895
890.377	10067
890.501	9873
890.624	9835
890.748	9876
890.871	9850
890.995	9713
891.118	9781
891.241	9698
891.364	9736
891.488	9850
891.611	9755
891.734	9720
891.857	9740
891.98	9637
892.103	9717
892.226	9709
892.349	9618
892.471	9447
892.594	9622
892.717	9675
892.839	9637
892.962	9671
893.085	9713
893.207	9663
893.33	9523
893.452	9526
893.575	9580
893.697	9439
893.819	9660
893.941	9618
894.064	9561
894.186	9526
894.308	9412
894.43	9507
894.552	9557
894.674	9534
894.796	9386
894.918	9435
895.04	9401
895.161	9416
895.283	9302
895.405	9230
895.526	9287
895.648	9264
895.769	9268
895.891	9192
896.012	9340
896.134	9176
896.255	9253
896.376	9150
896.498	9199
896.619	9165
896.74	9074
896.861	9070
896.982	9321
897.103	9310
897.224	9165
897.345	9009
897.466	8979
897.587	8986
897.708	9058
897.828	9001
897.949	8944
898.07	8853
898.19	8876
898.311	9051
898.431	8880
898.552	8929
898.672	9005
898.792	8952
898.913	8963
899.033	8872
899.153	8727
899.273	8716
899.393	8754
899.513	8766
899.633	8712
899.753	8842
899.873	8659
899.993	8743
900.113	8613
900.232	8697
900.352	8674
900.472	8587
900.591	8560
900.711	8640
900.83	8530
900.95	8686
901.069	8705
901.189	8514
901.308	8492
901.427	8366
901.546	8461
901.665	8488
901.784	8530
901.904	8427
902.023	8313
902.141	8244
902.26	8195
902.379	8290
902.498	8279
902.617	8202
902.735	8317
902.854	8309
902.973	8271
903.091	8123
903.21	8130
903.328	8183
903.446	8168
903.565	8065
903.683	8115
903.801	8107
903.919	8145
904.038	8058
904.156	8107
904.274	8153
904.392	8024
904.51	8058
904.627	8065
904.745	8096
904.863	8069
904.981	7978
905.098	7887
905.216	7917
905.334	7963
905.451	7940
905.569	7864
905.686	7940
905.803	7913
905.921	7856
906.038	7830
906.155	7818
906.272	7727
906.389	7677
906.506	7624
906.623	7628
906.74	7601
906.857	7578
906.974	7567
907.091	7658
907.208	7750
907.324	7643
907.441	7594
907.557	7441
907.674	7422
907.79	7411
907.907	7464
908.023	7434
908.139	7487
908.256	7480
908.372	7377
908.488	7369
908.604	7270
908.72	7297
908.836	7305
908.952	7274
909.068	7270
909.184	7373
909.3	7282
909.415	7312
909.531	7259
909.647	7149
909.762	7133
909.878	7110
909.993	7137
910.108	7103
910.224	7053
910.339	7183
910.454	7050
910.57	7038
910.685	6958
910.8	7168
910.915	7114
911.03	6985
911.145	6947
911.259	6962
911.374	6840
911.489	6867
911.604	6791
911.718	6662
911.833	6802
911.947	6631
912.062	6616
912.176	6719
912.291	6696
912.405	6654
912.519	6779
912.633	6798
912.748	6715
912.862	6722
912.976	6639
913.09	6498
913.204	6620
913.318	6646
913.431	6700
913.545	6715
913.659	6719
913.772	6616
913.886	6604
914	6563
914.113	6639
914.226	6631
914.34	6608
914.453	6509
914.566	6608
914.68	6551
914.793	6540
914.906	6452
915.019	6399
915.132	6429
915.245	6399
915.358	6369
915.47	6494
915.583	6471
915.696	6445
915.809	6544
915.921	6528
916.034	6391
916.146	6433
916.259	6365
916.371	6494
916.483	6483
916.595	6369
916.708	6426
916.82	6365
916.932	6433
917.044	6391
917.156	6346
917.268	6304
917.38	6334
917.491	6331
917.603	6376
917.715	6445
917.826	6429
917.938	6346
918.049	6232
918.161	6327
918.272	6380
918.384	6426
918.495	6304
918.606	6296
918.717	6209
918.828	6277
918.939	6251
919.05	6232
919.161	6308
919.272	6110
919.383	6129
919.494	6285
919.604	6441
919.715	6285
919.826	6281
919.936	6209
920.047	6361
920.157	6243
920.267	6471
920.378	6388
920.488	6292
920.598	6509
920.708	6582
920.818	6525
920.928	6429
921.038	6650
921.148	6589
921.258	6353
921.368	6311
921.477	6258
921.587	6167
921.697	6064
921.806	6182
921.916	6083
922.025	5950
922.134	5920
922.244	5889
922.353	5889
922.462	5859
922.571	5764
922.68	5767
922.789	5695
922.898	5699
923.007	5627
923.116	5752
923.224	5672
923.333	5668
923.442	5611
923.55	5623
923.659	5566
923.767	5615
923.876	5535
923.984	5589
924.092	5558
924.201	5539
924.309	5596
924.417	5505
924.525	5436
924.633	5444
924.741	6159
924.849	5376
924.956	5501
925.064	5402
925.172	5345
925.279	5307
925.387	5360
925.494	5376
925.602	5387
925.709	5387
925.816	5299
925.924	5315
926.031	5372
926.138	5273
926.245	5299
926.352	5223
926.459	5315
926.566	5330
926.673	5235
926.779	5166
926.886	5181
926.993	5022
927.099	4980
927.206	4987
927.312	4972
927.419	4991
927.525	4976
927.631	5022
927.737	4911
927.843	4873
927.95	4752
928.056	4885
928.162	4824
928.267	4885
928.373	5364
928.479	4911
928.585	4679
928.69	4820
928.796	4805
928.901	4687
929.007	4550
929.112	4637
929.218	4664
929.323	4615
929.428	4580
929.533	4649
929.638	4558
929.743	4558
929.848	4535
929.953	4531
930.058	4409
930.163	4306
930.267	4375
930.372	4489
930.477	4360
930.581	4493
930.685	4352
930.79	4238
930.894	4272
930.998	4265
931.103	4413
931.207	4120
931.311	4097
931.415	4025
931.519	3968
931.623	3941
