Data from glass_V78500241_2159.txt Node
Date: Wed Sep 01 19:29:28 CST 2021
User: usil
Spectrometer: V785-0024
Trigger mode: 0
Integration Time (sec): 4.000000E-1
Scans to average: 1
Nonlinearity correction enabled: false
Boxcar width: 0
Storing dark spectrum: false
XAxis mode: Wavelengths
Number of Pixels in Spectrum: 1024
>>>>>Begin Spectral Data<<<<<
801.071	3720
801.214	3740
801.356	3736
801.499	3724
801.641	3747
801.783	3762
801.926	3800
802.068	3831
802.211	3827
802.353	3865
802.496	3789
802.638	3857
802.78	3873
802.923	3892
803.065	3896
803.208	3861
803.35	3899
803.492	3899
803.635	3934
803.777	3800
803.919	3903
804.061	4150
804.204	3975
804.346	3949
804.488	3892
804.63	4013
804.773	3979
804.915	4006
805.057	4169
805.199	4006
805.341	4074
805.483	4143
805.626	4154
805.768	4074
805.91	4192
806.052	4227
806.194	4219
806.336	4329
806.478	4215
806.62	4154
806.762	4219
806.904	4303
807.046	4329
807.188	4234
807.33	4173
807.472	4234
807.614	4162
807.756	4246
807.898	4211
808.04	4227
808.182	4261
808.324	4257
808.465	4329
808.607	4466
808.749	4489
808.891	4485
809.033	4500
809.174	4394
809.316	4257
809.458	4261
809.6	4120
809.741	4116
809.883	4181
810.025	4185
810.166	4192
810.308	4215
810.45	4246
810.591	4192
810.733	4291
810.875	4470
811.016	4786
811.158	5098
811.299	5284
811.441	5284
811.582	5052
811.724	4714
811.865	4440
812.007	4413
812.148	4440
812.29	4424
812.431	4413
812.573	4383
812.714	4379
812.855	4390
812.997	4409
813.138	4497
813.279	4417
813.421	4287
813.562	4356
813.703	4303
813.845	4303
813.986	4246
814.127	4166
814.268	4257
814.41	4318
814.551	4234
814.692	4314
814.833	4272
814.974	4299
815.115	4322
815.256	4249
815.397	4223
815.539	4276
815.68	4207
815.821	4227
815.962	4291
816.103	4242
816.244	4242
816.385	4227
816.526	4314
816.666	4211
816.807	4097
816.948	4128
817.089	4185
817.23	4097
817.371	4029
817.512	4017
817.653	4059
817.793	4013
817.934	4017
818.075	4101
818.216	4097
818.356	4071
818.497	4017
818.638	3945
818.778	3915
818.919	3899
819.06	3873
819.2	3956
819.341	3903
819.481	3865
819.622	3869
819.762	3968
819.903	3937
820.043	3812
820.184	3819
820.324	3831
820.465	3888
820.605	3892
820.746	3854
820.886	3835
821.026	3934
821.167	3953
821.307	3968
821.447	4013
821.588	3876
821.728	3922
821.868	3907
822.008	3850
822.149	3896
822.289	3937
822.429	3759
822.569	3766
822.709	3778
822.849	3701
822.99	3724
823.13	3766
823.27	3781
823.41	3701
823.55	3705
823.69	3717
823.83	3759
823.97	3660
824.11	3606
824.25	3603
824.389	3652
824.529	3637
824.669	3641
824.809	3705
824.949	3713
825.089	3728
825.228	3701
825.368	3595
825.508	3549
825.648	3549
825.787	3603
825.927	3648
826.067	3652
826.206	3641
826.346	3778
826.485	3838
826.625	3835
826.765	3941
826.904	3793
827.044	3618
827.183	3507
827.323	3393
827.462	3488
827.601	3405
827.741	3424
827.88	3428
828.02	3325
828.159	3443
828.298	3466
828.437	3530
828.577	3485
828.716	3584
828.855	3530
828.994	3389
829.134	3363
829.273	3336
829.412	3355
829.551	3344
829.69	3340
829.829	3424
829.968	3469
830.107	3428
830.246	3416
830.385	3355
830.524	3325
830.663	3313
830.802	3260
830.941	3253
831.08	3203
831.219	3230
831.357	3260
831.496	3409
831.635	3211
831.774	3226
831.913	3222
832.051	3154
832.19	3138
832.329	3199
832.467	3142
832.606	3097
832.744	3184
832.883	3161
833.022	3233
833.16	3241
833.299	3294
833.437	3340
833.576	3367
833.714	3409
833.852	3416
833.991	3431
834.129	3462
834.267	3416
834.406	3386
834.544	3431
834.682	3412
834.821	3416
834.959	3610
835.097	3405
835.235	3534
835.373	3530
835.511	3492
835.65	3458
835.788	3477
835.926	3409
836.064	3420
836.202	3393
836.34	3587
836.478	3576
836.615	3553
836.753	3576
836.891	3614
837.029	3606
837.167	3595
837.305	3587
837.443	3538
837.58	3477
837.718	3610
837.856	3576
837.993	3545
838.131	3595
838.269	3580
838.406	3622
838.544	3595
838.681	3447
838.819	3454
838.956	3393
839.094	3412
839.231	3424
839.369	3530
839.506	3728
839.643	3595
839.781	3507
839.918	3458
840.055	3526
840.193	3481
840.33	3557
840.467	3542
840.604	3660
840.742	3816
840.879	3519
841.016	3580
841.153	3584
841.29	3747
841.427	3698
841.564	3660
841.701	3709
841.838	3679
841.975	3675
842.112	3717
842.249	3606
842.385	3614
842.522	3880
842.659	3701
842.796	3663
842.933	3679
843.069	3694
843.206	3713
843.343	3793
843.479	3770
843.616	3842
843.752	3690
843.889	3644
844.025	3827
844.162	3736
844.298	3873
844.435	3781
844.571	3823
844.708	3888
844.844	3922
844.98	4032
845.117	4021
845.253	3975
845.389	3888
845.525	3964
845.661	3972
845.798	3937
845.934	3949
846.07	3972
846.206	4055
846.342	4112
846.478	4036
846.614	4002
846.75	3934
846.886	3922
847.022	4013
847.158	3975
847.294	3953
847.429	4017
847.565	3979
847.701	4185
847.837	3861
847.972	3884
848.108	3994
848.244	3968
848.379	3846
848.515	3778
848.65	3800
848.786	3854
848.921	3831
849.057	3937
849.192	3991
849.328	3873
849.463	3945
849.598	3869
849.734	3873
849.869	3865
850.004	3831
850.14	3800
850.275	3755
850.41	3770
850.545	3755
850.68	3736
850.815	3797
850.95	3793
851.085	3930
851.22	3846
851.355	3774
851.49	3816
851.625	3732
851.76	3808
851.895	3694
852.03	3705
852.165	3793
852.299	3846
852.434	3930
852.569	3816
852.703	3850
852.838	3888
852.973	3930
853.107	4002
853.242	3911
853.376	3816
853.511	3766
853.645	3861
853.78	3941
853.914	3880
854.048	3907
854.183	3835
854.317	3918
854.451	4051
854.585	3953
854.72	3930
854.854	4025
854.988	3899
855.122	3987
855.256	3964
855.39	4029
855.524	4120
855.658	4131
855.792	4074
855.926	4143
856.06	4181
856.194	4261
856.327	4147
856.461	4105
856.595	4147
856.729	4219
856.862	4322
856.996	4227
857.13	4268
857.263	4306
857.397	4344
857.53	4253
857.664	4344
857.797	4390
857.931	4424
858.064	4390
858.197	4436
858.331	4417
858.464	4379
858.597	4303
858.731	4417
858.864	4443
858.997	4455
859.13	4512
859.263	4573
859.396	4569
859.529	4535
859.662	4519
859.795	4550
859.928	4569
860.061	4729
860.194	4717
860.327	4649
860.46	4649
860.592	4733
860.725	4717
860.858	4744
860.99	4653
861.123	4679
861.256	4653
861.388	4786
861.521	5410
861.653	4736
861.786	4683
861.918	4736
862.05	4744
862.183	4862
862.315	4885
862.447	4949
862.58	4870
862.712	4793
862.844	4763
862.976	4854
863.108	4885
863.24	5181
863.372	4820
863.504	4984
863.636	4877
863.768	4942
863.9	4976
864.032	4896
864.164	4957
864.296	4991
864.428	5083
864.559	5086
864.691	5124
864.823	5098
864.954	5105
865.086	5143
865.217	5086
865.349	5109
865.48	5212
865.612	5178
865.743	5254
865.875	5178
866.006	5204
866.137	5178
866.269	5201
866.4	5254
866.531	5242
866.662	5204
866.793	5239
866.924	5258
867.055	5341
867.186	5284
867.317	5307
867.448	5315
867.579	5315
867.71	5360
867.841	5353
867.972	5440
868.103	5410
868.233	5486
868.364	5516
868.495	5516
868.625	5691
868.756	5779
868.886	5661
869.017	5760
869.147	5798
869.278	5851
869.408	5802
869.539	5790
869.669	5927
869.799	5927
869.929	5942
870.06	6019
870.19	6091
870.32	6159
870.45	6232
870.58	6334
870.71	6350
870.84	6471
870.97	6403
871.1	6395
871.23	6646
871.36	6642
871.489	6677
871.619	6719
871.749	6821
871.879	6802
872.008	6947
872.138	6951
872.267	7004
872.397	6962
872.526	6993
872.656	7095
872.785	7145
872.915	7392
873.044	7575
873.173	7571
873.303	7662
873.432	7681
873.561	7849
873.69	7887
873.819	8027
873.948	8065
874.077	8191
874.206	8339
874.335	8419
874.464	8610
874.593	8853
874.722	8906
874.851	9104
874.979	9135
875.108	9367
875.237	9473
875.365	9450
875.494	9629
875.623	9869
875.751	9793
875.88	9994
876.008	10124
876.136	10261
876.265	10531
876.393	10687
876.521	10679
876.65	10752
876.778	10847
876.906	10949
877.034	10930
877.162	11113
877.29	11117
877.418	11265
877.546	11349
877.674	11395
877.802	11448
877.93	11471
878.058	11634
878.185	11615
878.313	11668
878.441	11779
878.568	11745
878.696	11817
878.824	11824
878.951	12030
879.079	11996
879.206	12068
879.333	12049
879.461	12030
879.588	12053
879.715	12110
879.842	12182
879.97	12068
880.097	11832
880.224	11843
880.351	11939
880.478	11859
880.605	11775
880.732	11714
880.859	11984
880.986	11897
881.112	11866
881.239	11688
881.366	11611
881.493	11726
881.619	11585
881.746	11547
881.872	11585
881.999	11467
882.125	11353
882.252	11501
882.378	11516
882.505	11570
882.631	11402
882.757	11280
882.883	11311
883.01	11250
883.136	11197
883.262	11128
883.388	11178
883.514	11147
883.64	11178
883.766	11181
883.892	10946
884.018	11056
884.143	11113
884.269	11090
884.395	10797
884.52	10774
884.646	10763
884.772	10698
884.897	10687
885.023	10725
885.148	10763
885.274	10729
885.399	10706
885.524	10561
885.65	10611
885.775	10607
885.9	10573
886.025	10645
886.15	10580
886.275	10478
886.4	10291
886.525	10390
886.65	10367
886.775	10413
886.9	10466
887.025	10489
887.149	10344
887.274	10249
887.399	10230
887.523	10238
887.648	10131
887.773	10143
887.897	10276
888.021	10207
888.146	10105
888.27	10238
888.395	10162
888.519	10211
888.643	10162
888.767	10185
888.891	10139
889.015	9983
889.139	10074
889.263	9991
889.387	10017
889.511	10082
889.635	10071
889.759	9949
889.883	9953
890.006	10010
890.13	10090
890.254	9903
890.377	9915
890.501	9865
890.624	9850
890.748	9892
890.871	9743
890.995	9728
891.118	9736
891.241	9701
891.364	9705
891.488	9842
891.611	9747
891.734	9766
891.857	9713
891.98	9717
892.103	9740
892.226	9686
892.349	9690
892.471	9561
892.594	9530
892.717	9603
892.839	9618
892.962	9629
893.085	9686
893.207	9580
893.33	9519
893.452	9549
893.575	9561
893.697	9416
893.819	9595
893.941	9633
894.064	9584
894.186	9488
894.308	9447
894.43	9458
894.552	9595
894.674	9515
894.796	9382
894.918	9416
895.04	9340
895.161	9393
895.283	9321
895.405	9237
895.526	9275
895.648	9253
895.769	9169
895.891	9195
896.012	9283
896.134	9245
896.255	9180
896.376	9116
896.498	9154
896.619	9104
896.74	9066
896.861	9154
896.982	9260
897.103	9435
897.224	9135
897.345	9085
897.466	9058
897.587	9039
897.708	9074
897.828	9036
897.949	8918
898.07	8876
898.19	8899
898.311	9089
898.431	8868
898.552	8880
898.672	9013
898.792	8956
898.913	8899
899.033	8819
899.153	8785
899.273	8708
899.393	8743
899.513	8720
899.633	8712
899.753	8693
899.873	8689
899.993	8712
900.113	8735
900.232	8701
900.352	8640
900.472	8594
900.591	8621
900.711	8579
900.83	8511
900.95	8632
901.069	8659
901.189	8533
901.308	8454
901.427	8389
901.546	8400
901.665	8488
901.784	8480
901.904	8298
902.023	8385
902.141	8233
902.26	8134
902.379	8248
902.498	8195
902.617	8183
902.735	8271
902.854	8271
902.973	8282
903.091	8172
903.21	8183
903.328	8092
903.446	8081
903.565	8100
903.683	8081
903.801	8046
903.919	8103
904.038	8103
904.156	8046
904.274	8054
904.392	8039
904.51	8039
904.627	7978
904.745	8092
904.863	8062
904.981	7963
905.098	7799
905.216	7803
905.334	7887
905.451	7887
905.569	7860
905.686	7959
905.803	7868
905.921	7776
906.038	7898
906.155	7784
906.272	7788
906.389	7666
906.506	7662
906.623	7655
906.74	7620
906.857	7586
906.974	7506
907.091	7636
907.208	7689
907.324	7601
907.441	7586
907.557	7460
907.674	7392
907.79	7415
907.907	7415
908.023	7468
908.139	7422
908.256	7362
908.372	7369
908.488	7411
908.604	7221
908.72	7175
908.836	7236
908.952	7255
909.068	7263
909.184	7324
909.3	7228
909.415	7259
909.531	7297
909.647	7091
909.762	7118
909.878	7114
909.993	7103
910.108	7076
910.224	7103
910.339	7031
910.454	6966
910.57	7050
910.685	6977
910.8	7168
910.915	7053
911.03	6966
911.145	6913
911.259	6863
911.374	6905
911.489	6802
911.604	6749
911.718	6692
911.833	6757
911.947	6669
912.062	6597
912.176	6760
912.291	6715
912.405	6719
912.519	6798
912.633	6856
912.748	6776
912.862	6707
912.976	6631
913.09	6582
913.204	6517
913.318	6566
913.431	6646
913.545	6650
913.659	6711
913.772	6616
913.886	6540
914	6525
914.113	6601
914.226	6639
914.34	6639
914.453	6479
914.566	6623
914.68	6517
914.793	6559
914.906	6426
915.019	6422
915.132	6407
915.245	6391
915.358	6388
915.47	6429
915.583	6448
915.696	6467
915.809	6486
915.921	6525
916.034	6407
916.146	6369
916.259	6391
916.371	6445
916.483	6422
916.595	6418
916.708	6441
916.82	6395
916.932	6384
917.044	6323
917.156	6410
917.268	6300
917.38	6331
917.491	6304
917.603	6372
917.715	6380
917.826	6418
917.938	6281
918.049	6251
918.161	6311
918.272	6407
918.384	6403
918.495	6281
918.606	6243
918.717	6209
918.828	6262
918.939	6304
919.05	6209
919.161	6266
919.272	6064
919.383	6117
919.494	6285
919.604	6410
919.715	6308
919.826	6178
919.936	6254
920.047	6338
920.157	6239
920.267	6407
920.378	6414
920.488	6266
920.598	6475
920.708	6593
920.818	6479
920.928	6448
921.038	6574
921.148	6574
921.258	6334
921.368	6292
921.477	6171
921.587	6213
921.697	6049
921.806	6209
921.916	6064
922.025	5939
922.134	5889
922.244	5798
922.353	5954
922.462	5775
922.571	5813
922.68	5691
922.789	5668
922.898	5699
923.007	5611
923.116	5676
923.224	5695
923.333	5665
923.442	5573
923.55	5554
923.659	5573
923.767	5619
923.876	5539
923.984	5570
924.092	5528
924.201	5554
924.309	5516
924.417	5547
924.525	5433
924.633	5509
924.741	6270
924.849	5349
924.956	5478
925.064	5337
925.172	5341
925.279	5326
925.387	5349
925.494	5284
925.602	5444
925.709	5376
925.816	5280
925.924	5330
926.031	5345
926.138	5288
926.245	5337
926.352	5235
926.459	5334
926.566	5364
926.673	5204
926.779	5166
926.886	5159
926.993	5010
927.099	5010
927.206	4976
927.312	5029
927.419	4976
927.525	4911
927.631	5003
927.737	4835
927.843	4847
927.95	4763
928.056	4801
928.162	4816
928.267	4824
928.373	5311
928.479	4824
928.585	4637
928.69	4774
928.796	4763
928.901	4714
929.007	4584
929.112	4694
929.218	4607
929.323	4592
929.428	4577
929.533	4702
929.638	4523
929.743	4512
929.848	4535
929.953	4538
930.058	4428
930.163	4363
930.267	4306
930.372	4462
930.477	4303
930.581	4443
930.685	4337
930.79	4242
930.894	4276
930.998	4265
931.103	4348
931.207	4109
931.311	4071
931.415	4044
931.519	3899
931.623	3922
