Data from glass_V78500241_794.txt Node
Date: Wed Sep 01 19:20:00 CST 2021
User: usil
Spectrometer: V785-0024
Trigger mode: 0
Integration Time (sec): 4.000000E-1
Scans to average: 1
Nonlinearity correction enabled: false
Boxcar width: 0
Storing dark spectrum: false
XAxis mode: Wavelengths
Number of Pixels in Spectrum: 1024
>>>>>Begin Spectral Data<<<<<
801.071	3759
801.214	3781
801.356	3759
801.499	3728
801.641	3713
801.783	3793
801.926	3899
802.068	3857
802.211	3876
802.353	3941
802.496	3854
802.638	3907
802.78	3934
802.923	3956
803.065	3956
803.208	3911
803.35	3911
803.492	3918
803.635	3937
803.777	3827
803.919	3854
804.061	4181
804.204	3964
804.346	3972
804.488	3926
804.63	4067
804.773	3972
804.915	4074
805.057	4158
805.199	4059
805.341	4112
805.483	4150
805.626	4154
805.768	4139
805.91	4192
806.052	4230
806.194	4207
806.336	4402
806.478	4238
806.62	4166
806.762	4207
806.904	4261
807.046	4383
807.188	4207
807.33	4169
807.472	4238
807.614	4227
807.756	4268
807.898	4227
808.04	4215
808.182	4272
808.324	4299
808.465	4356
808.607	4474
808.749	4443
808.891	4485
809.033	4516
809.174	4402
809.316	4261
809.458	4227
809.6	4188
809.741	4158
809.883	4162
810.025	4185
810.166	4215
810.308	4223
810.45	4268
810.591	4219
810.733	4299
810.875	4538
811.016	4870
811.158	5117
811.299	5269
811.441	5254
811.582	5022
811.724	4675
811.865	4489
812.007	4512
812.148	4440
812.29	4432
812.431	4421
812.573	4417
812.714	4405
812.855	4394
812.997	4432
813.138	4538
813.279	4356
813.421	4428
813.562	4375
813.703	4341
813.845	4299
813.986	4261
814.127	4257
814.268	4238
814.41	4257
814.551	4280
814.692	4310
814.833	4230
814.974	4280
815.115	4367
815.256	4272
815.397	4246
815.539	4238
815.68	4173
815.821	4211
815.962	4314
816.103	4303
816.244	4246
816.385	4230
816.526	4284
816.666	4200
816.807	4078
816.948	4192
817.089	4181
817.23	4124
817.371	4048
817.512	4093
817.653	4067
817.793	4074
817.934	4048
818.075	4112
818.216	4044
818.356	4086
818.497	4017
818.638	3922
818.778	3884
818.919	3892
819.06	3869
819.2	3941
819.341	3854
819.481	3854
819.622	3918
819.762	4021
819.903	3953
820.043	3880
820.184	3800
820.324	3846
820.465	3907
820.605	3857
820.746	3873
820.886	3846
821.026	3953
821.167	3964
821.307	4006
821.447	4036
821.588	3972
821.728	4002
821.868	3956
822.008	3903
822.149	3884
822.289	3926
822.429	3838
822.569	3797
822.709	3812
822.849	3709
822.99	3743
823.13	3804
823.27	3823
823.41	3713
823.55	3762
823.69	3751
823.83	3740
823.97	3675
824.11	3625
824.25	3614
824.389	3618
824.529	3713
824.669	3644
824.809	3740
824.949	3793
825.089	3709
825.228	3709
825.368	3591
825.508	3553
825.648	3572
825.787	3606
825.927	3644
826.067	3622
826.206	3713
826.346	3793
826.485	3819
826.625	3819
826.765	3953
826.904	3857
827.044	3629
827.183	3564
827.323	3450
827.462	3511
827.601	3485
827.741	3424
827.88	3435
828.02	3389
828.159	3450
828.298	3485
828.437	3534
828.577	3473
828.716	3618
828.855	3511
828.994	3386
829.134	3397
829.273	3416
829.412	3386
829.551	3325
829.69	3393
829.829	3435
829.968	3534
830.107	3473
830.246	3458
830.385	3401
830.524	3351
830.663	3332
830.802	3279
830.941	3211
831.08	3195
831.219	3264
831.357	3275
831.496	3431
831.635	3249
831.774	3161
831.913	3214
832.051	3157
832.19	3135
832.329	3199
832.467	3135
832.606	3161
832.744	3180
832.883	3226
833.022	3237
833.16	3241
833.299	3321
833.437	3344
833.576	3374
833.714	3447
833.852	3454
833.991	3462
834.129	3507
834.267	3428
834.406	3420
834.544	3424
834.682	3450
834.821	3389
834.959	3545
835.097	3393
835.235	3572
835.373	3530
835.511	3492
835.65	3488
835.788	3477
835.926	3416
836.064	3405
836.202	3405
836.34	3587
836.478	3584
836.615	3534
836.753	3568
836.891	3641
837.029	3580
837.167	3606
837.305	3587
837.443	3538
837.58	3500
837.718	3599
837.856	3553
837.993	3530
838.131	3629
838.269	3561
838.406	3564
838.544	3599
838.681	3466
838.819	3492
838.956	3378
839.094	3397
839.231	3420
839.369	3534
839.506	3720
839.643	3656
839.781	3557
839.918	3504
840.055	3564
840.193	3526
840.33	3557
840.467	3572
840.604	3625
840.742	3827
840.879	3568
841.016	3591
841.153	3614
841.29	3789
841.427	3751
841.564	3698
841.701	3720
841.838	3701
841.975	3679
842.112	3736
842.249	3660
842.385	3606
842.522	3842
842.659	3694
842.796	3671
842.933	3717
843.069	3713
843.206	3717
843.343	3835
843.479	3800
843.616	3831
843.752	3667
843.889	3701
844.025	3835
844.162	3759
844.298	3831
844.435	3869
844.571	3766
844.708	3926
844.844	3945
844.98	4055
845.117	4021
845.253	3945
845.389	3953
845.525	3956
845.661	3964
845.798	3926
845.934	4059
846.07	3972
846.206	4090
846.342	4112
846.478	4116
846.614	3979
846.75	3934
846.886	3911
847.022	4051
847.158	3975
847.294	4010
847.429	4040
847.565	4010
847.701	4207
847.837	3880
847.972	3907
848.108	3975
848.244	4029
848.379	3842
848.515	3797
848.65	3797
848.786	3857
848.921	3876
849.057	3987
849.192	3960
849.328	3896
849.463	3930
849.598	3899
849.734	3896
849.869	3846
850.004	3800
850.14	3838
850.275	3804
850.41	3766
850.545	3755
850.68	3793
850.815	3838
850.95	3835
851.085	3934
851.22	3838
851.355	3797
851.49	3747
851.625	3781
851.76	3835
851.895	3781
852.03	3728
852.165	3835
852.299	3789
852.434	3903
852.569	3926
852.703	3857
852.838	3937
852.973	3972
853.107	3983
853.242	3930
853.376	3873
853.511	3819
853.645	3804
853.78	3983
853.914	3899
854.048	3915
854.183	3903
854.317	3972
854.451	4055
854.585	3968
854.72	3960
854.854	4093
854.988	3983
855.122	4002
855.256	3903
855.39	4059
855.524	4150
855.658	4116
855.792	4090
855.926	4135
856.06	4200
856.194	4265
856.327	4105
856.461	4131
856.595	4143
856.729	4162
856.862	4253
856.996	4242
857.13	4272
857.263	4314
857.397	4379
857.53	4295
857.664	4329
857.797	4394
857.931	4421
858.064	4421
858.197	4478
858.331	4436
858.464	4402
858.597	4322
858.731	4409
858.864	4440
858.997	4455
859.13	4523
859.263	4550
859.396	4592
859.529	4519
859.662	4584
859.795	4531
859.928	4603
860.061	4717
860.194	4763
860.327	4630
860.46	4641
860.592	4733
860.725	4740
860.858	4809
860.99	4752
861.123	4698
861.256	4721
861.388	4763
861.521	5436
861.653	4752
861.786	4675
861.918	4698
862.05	4828
862.183	4839
862.315	4847
862.447	4984
862.58	4911
862.712	4797
862.844	4824
862.976	4892
863.108	4854
863.24	5254
863.372	4870
863.504	4908
863.636	4873
863.768	4980
863.9	4980
864.032	4938
864.164	4965
864.296	4984
864.428	5090
864.559	5102
864.691	5117
864.823	5155
864.954	5083
865.086	5124
865.217	5113
865.349	5166
865.48	5147
865.612	5189
865.743	5299
865.875	5254
866.006	5181
866.137	5246
866.269	5265
866.4	5265
866.531	5284
866.662	5174
866.793	5261
866.924	5315
867.055	5360
867.186	5303
867.317	5330
867.448	5322
867.579	5353
867.71	5383
867.841	5372
867.972	5478
868.103	5463
868.233	5493
868.364	5471
868.495	5596
868.625	5680
868.756	5775
868.886	5649
869.017	5786
869.147	5824
869.278	5866
869.408	5832
869.539	5855
869.669	5901
869.799	5927
869.929	5977
870.06	6022
870.19	6239
870.32	6216
870.45	6247
870.58	6357
870.71	6414
870.84	6448
870.97	6441
871.1	6422
871.23	6631
871.36	6662
871.489	6601
871.619	6760
871.749	6806
871.879	6878
872.008	6935
872.138	7015
872.267	6981
872.397	7004
872.526	7046
872.656	7141
872.785	7225
872.915	7422
873.044	7582
873.173	7609
873.303	7575
873.432	7734
873.561	7860
873.69	7909
873.819	8043
873.948	8096
874.077	8290
874.206	8347
874.335	8457
874.464	8693
874.593	8868
874.722	8880
874.851	9161
874.979	9226
875.108	9378
875.237	9363
875.365	9450
875.494	9663
875.623	9819
875.751	9835
875.88	10032
876.008	10192
876.136	10249
876.265	10504
876.393	10702
876.521	10793
876.65	10843
876.778	10881
876.906	10930
877.034	11006
877.162	11041
877.29	11212
877.418	11242
877.546	11410
877.674	11368
877.802	11524
877.93	11520
878.058	11532
878.185	11562
878.313	11695
878.441	11748
878.568	11649
878.696	11794
878.824	11840
878.951	11942
879.079	12083
879.206	12072
879.333	12110
879.461	12019
879.588	12079
879.715	12068
879.842	12311
879.97	12133
880.097	11866
880.224	11874
880.351	11927
880.478	11863
880.605	11874
880.732	11783
880.859	12038
880.986	11836
881.112	11874
881.239	11729
881.366	11653
881.493	11547
881.619	11611
881.746	11615
881.872	11497
881.999	11467
882.125	11520
882.252	11604
882.378	11482
882.505	11509
882.631	11353
882.757	11296
882.883	11273
883.01	11277
883.136	11174
883.262	11086
883.388	11064
883.514	11197
883.64	11181
883.766	11102
883.892	11010
884.018	10984
884.143	11045
884.269	11124
884.395	10930
884.52	10786
884.646	10790
884.772	10763
884.897	10748
885.023	10683
885.148	10706
885.274	10771
885.399	10683
885.524	10615
885.65	10603
885.775	10668
885.9	10550
886.025	10558
886.15	10474
886.275	10459
886.4	10348
886.525	10417
886.65	10421
886.775	10306
886.9	10432
887.025	10554
887.149	10382
887.274	10204
887.399	10253
887.523	10143
887.648	10162
887.773	10185
887.897	10268
888.021	10257
888.146	10074
888.27	10261
888.395	10276
888.519	10177
888.643	10200
888.767	10211
888.891	10101
889.015	10055
889.139	10021
889.263	10025
889.387	10093
889.511	10154
889.635	10093
889.759	9991
889.883	10036
890.006	10078
890.13	10055
890.254	9960
890.377	9918
890.501	9911
890.624	9895
890.748	9915
890.871	9755
890.995	9755
891.118	9774
891.241	9842
891.364	9759
891.488	9785
891.611	9816
891.734	9713
891.857	9755
891.98	9724
892.103	9755
892.226	9705
892.349	9633
892.471	9595
892.594	9561
892.717	9584
892.839	9633
892.962	9625
893.085	9709
893.207	9591
893.33	9599
893.452	9504
893.575	9660
893.697	9523
893.819	9637
893.941	9713
894.064	9641
894.186	9420
894.308	9496
894.43	9584
894.552	9496
894.674	9473
894.796	9408
894.918	9416
895.04	9389
895.161	9367
895.283	9405
895.405	9214
895.526	9253
895.648	9211
895.769	9268
895.891	9294
896.012	9230
896.134	9230
896.255	9161
896.376	9176
896.498	9192
896.619	9077
896.74	9070
896.861	9100
896.982	9272
897.103	9264
897.224	9135
897.345	9142
897.466	9017
897.587	9097
897.708	9119
897.828	9039
897.949	8891
898.07	8868
898.19	8975
898.311	9017
898.431	8857
898.552	8925
898.672	9039
898.792	8956
898.913	8899
899.033	8823
899.153	8724
899.273	8693
899.393	8670
899.513	8739
899.633	8693
899.753	8754
899.873	8727
899.993	8708
900.113	8746
900.232	8720
900.352	8621
900.472	8629
900.591	8499
900.711	8590
900.83	8537
900.95	8648
901.069	8659
901.189	8564
901.308	8507
901.427	8404
901.546	8423
901.665	8461
901.784	8476
901.904	8434
902.023	8294
902.141	8202
902.26	8218
902.379	8271
902.498	8225
902.617	8214
902.735	8404
902.854	8305
902.973	8275
903.091	8145
903.21	8107
903.328	8134
903.446	8126
903.565	8092
903.683	8077
903.801	8092
903.919	8199
904.038	8107
904.156	7970
904.274	8084
904.392	8039
904.51	8142
904.627	8084
904.745	8043
904.863	8107
904.981	7963
905.098	7917
905.216	7917
905.334	7879
905.451	7909
905.569	7818
905.686	7997
905.803	7906
905.921	7784
906.038	7887
906.155	7765
906.272	7750
906.389	7727
906.506	7609
906.623	7651
906.74	7616
906.857	7514
906.974	7563
907.091	7753
907.208	7689
907.324	7681
907.441	7559
907.557	7502
907.674	7464
907.79	7400
907.907	7419
908.023	7533
908.139	7441
908.256	7411
908.372	7411
908.488	7438
908.604	7285
908.72	7289
908.836	7274
908.952	7255
909.068	7251
909.184	7278
909.3	7251
909.415	7236
909.531	7301
909.647	7103
909.762	7133
909.878	7095
909.993	7145
910.108	7122
910.224	7152
910.339	7114
910.454	7088
910.57	7084
910.685	6913
910.8	7202
910.915	7126
911.03	6947
911.145	6909
911.259	6913
911.374	6977
911.489	6776
911.604	6783
911.718	6692
911.833	6730
911.947	6700
912.062	6631
912.176	6711
912.291	6669
912.405	6692
912.519	6783
912.633	6867
912.748	6753
912.862	6760
912.976	6639
913.09	6563
913.204	6608
913.318	6631
913.431	6677
913.545	6612
913.659	6738
913.772	6646
913.886	6582
914	6540
914.113	6612
914.226	6608
914.34	6544
914.453	6570
914.566	6604
914.68	6490
914.793	6536
914.906	6426
915.019	6422
915.132	6346
915.245	6483
915.358	6441
915.47	6437
915.583	6467
915.696	6521
915.809	6566
915.921	6517
916.034	6407
916.146	6407
916.259	6384
916.371	6460
916.483	6483
916.595	6384
916.708	6479
916.82	6342
916.932	6384
917.044	6410
917.156	6479
917.268	6311
917.38	6399
917.491	6346
917.603	6323
917.715	6418
917.826	6479
917.938	6262
918.049	6266
918.161	6388
918.272	6479
918.384	6437
918.495	6384
918.606	6266
918.717	6186
918.828	6228
918.939	6304
919.05	6224
919.161	6254
919.272	6140
919.383	6140
919.494	6262
919.604	6395
919.715	6254
919.826	6228
919.936	6308
920.047	6289
920.157	6289
920.267	6452
920.378	6308
920.488	6273
920.598	6452
920.708	6574
920.818	6521
920.928	6506
921.038	6616
921.148	6559
921.258	6365
921.368	6243
921.477	6239
921.587	6159
921.697	6087
921.806	6209
921.916	6091
922.025	5920
922.134	5908
922.244	5973
922.353	5950
922.462	5847
922.571	5844
922.68	5729
922.789	5714
922.898	5707
923.007	5623
923.116	5756
923.224	5688
923.333	5668
923.442	5600
923.55	5589
923.659	5615
923.767	5630
923.876	5573
923.984	5600
924.092	5532
924.201	5589
924.309	5566
924.417	5539
924.525	5482
924.633	5570
924.741	6159
924.849	5337
924.956	5512
925.064	5357
925.172	5322
925.279	5341
925.387	5337
925.494	5391
925.602	5410
925.709	5395
925.816	5292
925.924	5315
926.031	5391
926.138	5296
926.245	5341
926.352	5216
926.459	5353
926.566	5353
926.673	5258
926.779	5174
926.886	5124
926.993	5018
927.099	4991
927.206	4927
927.312	4965
927.419	5014
927.525	4991
927.631	4980
927.737	4911
927.843	4877
927.95	4797
928.056	4850
928.162	4843
928.267	4877
928.373	5391
928.479	4858
928.585	4717
928.69	4778
928.796	4812
928.901	4725
929.007	4622
929.112	4691
929.218	4622
929.323	4611
929.428	4596
929.533	4683
929.638	4504
929.743	4523
929.848	4565
929.953	4577
930.058	4489
930.163	4329
930.267	4348
930.372	4489
930.477	4306
930.581	4481
930.685	4314
930.79	4261
930.894	4306
930.998	4325
931.103	4375
931.207	4135
931.311	4017
931.415	3998
931.519	3941
931.623	4006
