Data from glass_V78500241_1351.txt Node
Date: Wed Sep 01 19:23:51 CST 2021
User: usil
Spectrometer: V785-0024
Trigger mode: 0
Integration Time (sec): 4.000000E-1
Scans to average: 1
Nonlinearity correction enabled: false
Boxcar width: 0
Storing dark spectrum: false
XAxis mode: Wavelengths
Number of Pixels in Spectrum: 1024
>>>>>Begin Spectral Data<<<<<
801.071	3713
801.214	3759
801.356	3701
801.499	3732
801.641	3755
801.783	3785
801.926	3880
802.068	3850
802.211	3835
802.353	3884
802.496	3835
802.638	3888
802.78	3884
802.923	3964
803.065	3899
803.208	3850
803.35	3861
803.492	3880
803.635	3918
803.777	3785
803.919	3915
804.061	4116
804.204	3983
804.346	3983
804.488	3937
804.63	4040
804.773	3983
804.915	4002
805.057	4158
805.199	4063
805.341	4120
805.483	4169
805.626	4158
805.768	4124
805.91	4185
806.052	4284
806.194	4177
806.336	4325
806.478	4249
806.62	4147
806.762	4200
806.904	4261
807.046	4341
807.188	4230
807.33	4173
807.472	4287
807.614	4227
807.756	4211
807.898	4268
808.04	4227
808.182	4249
808.324	4375
808.465	4375
808.607	4451
808.749	4462
808.891	4516
809.033	4577
809.174	4390
809.316	4272
809.458	4276
809.6	4177
809.741	4158
809.883	4128
810.025	4196
810.166	4185
810.308	4223
810.45	4227
810.591	4215
810.733	4299
810.875	4516
811.016	4816
811.158	5128
811.299	5284
811.441	5292
811.582	5098
811.724	4679
811.865	4470
812.007	4466
812.148	4466
812.29	4466
812.431	4436
812.573	4440
812.714	4455
812.855	4428
812.997	4459
813.138	4504
813.279	4428
813.421	4398
813.562	4390
813.703	4348
813.845	4344
813.986	4249
814.127	4230
814.268	4227
814.41	4253
814.551	4265
814.692	4348
814.833	4284
814.974	4284
815.115	4337
815.256	4272
815.397	4261
815.539	4242
815.68	4196
815.821	4227
815.962	4276
816.103	4280
816.244	4242
816.385	4246
816.526	4325
816.666	4227
816.807	4120
816.948	4238
817.089	4200
817.23	4131
817.371	4044
817.512	4025
817.653	4093
817.793	4055
817.934	4006
818.075	4128
818.216	4067
818.356	4071
818.497	3930
818.638	3876
818.778	3854
818.919	3922
819.06	3823
819.2	3964
819.341	3896
819.481	3838
819.622	3903
819.762	3994
819.903	3983
820.043	3880
820.184	3873
820.324	3846
820.465	3911
820.605	3937
820.746	3888
820.886	3789
821.026	3964
821.167	3892
821.307	3972
821.447	4002
821.588	3911
821.728	3956
821.868	3979
822.008	3896
822.149	3911
822.289	3922
822.429	3804
822.569	3740
822.709	3804
822.849	3701
822.99	3724
823.13	3781
823.27	3785
823.41	3713
823.55	3759
823.69	3690
823.83	3736
823.97	3675
824.11	3637
824.25	3618
824.389	3606
824.529	3698
824.669	3633
824.809	3705
824.949	3751
825.089	3732
825.228	3709
825.368	3610
825.508	3557
825.648	3572
825.787	3641
825.927	3641
826.067	3633
826.206	3682
826.346	3774
826.485	3846
826.625	3842
826.765	3937
826.904	3831
827.044	3587
827.183	3580
827.323	3450
827.462	3504
827.601	3431
827.741	3466
827.88	3439
828.02	3393
828.159	3450
828.298	3542
828.437	3504
828.577	3477
828.716	3629
828.855	3496
828.994	3386
829.134	3363
829.273	3405
829.412	3332
829.551	3351
829.69	3386
829.829	3389
829.968	3450
830.107	3431
830.246	3447
830.385	3340
830.524	3340
830.663	3321
830.802	3264
830.941	3165
831.08	3230
831.219	3317
831.357	3275
831.496	3370
831.635	3222
831.774	3173
831.913	3222
832.051	3116
832.19	3173
832.329	3226
832.467	3180
832.606	3116
832.744	3199
832.883	3157
833.022	3192
833.16	3275
833.299	3294
833.437	3386
833.576	3405
833.714	3416
833.852	3454
833.991	3412
834.129	3454
834.267	3450
834.406	3428
834.544	3416
834.682	3431
834.821	3412
834.959	3637
835.097	3439
835.235	3538
835.373	3526
835.511	3458
835.65	3431
835.788	3469
835.926	3412
836.064	3401
836.202	3405
836.34	3576
836.478	3618
836.615	3561
836.753	3625
836.891	3660
837.029	3656
837.167	3584
837.305	3542
837.443	3561
837.58	3492
837.718	3629
837.856	3576
837.993	3542
838.131	3610
838.269	3603
838.406	3587
838.544	3603
838.681	3450
838.819	3481
838.956	3374
839.094	3420
839.231	3485
839.369	3530
839.506	3766
839.643	3622
839.781	3534
839.918	3462
840.055	3549
840.193	3561
840.33	3526
840.467	3553
840.604	3591
840.742	3793
840.879	3622
841.016	3603
841.153	3564
841.29	3740
841.427	3732
841.564	3667
841.701	3766
841.838	3690
841.975	3743
842.112	3732
842.249	3652
842.385	3599
842.522	3819
842.659	3698
842.796	3660
842.933	3675
843.069	3747
843.206	3690
843.343	3850
843.479	3762
843.616	3819
843.752	3682
843.889	3633
844.025	3846
844.162	3724
844.298	3876
844.435	3766
844.571	3759
844.708	3941
844.844	3987
844.98	4017
845.117	3975
845.253	3930
845.389	3888
845.525	3956
845.661	3972
845.798	3930
845.934	4025
846.07	3956
846.206	4067
846.342	4082
846.478	4078
846.614	3998
846.75	3956
846.886	3911
847.022	4071
847.158	3987
847.294	4029
847.429	4032
847.565	3994
847.701	4249
847.837	3922
847.972	3888
848.108	3941
848.244	3918
848.379	3873
848.515	3846
848.65	3850
848.786	3823
848.921	3899
849.057	3937
849.192	3934
849.328	3903
849.463	3949
849.598	3873
849.734	3831
849.869	3823
850.004	3770
850.14	3778
850.275	3823
850.41	3766
850.545	3797
850.68	3778
850.815	3816
850.95	3770
851.085	3941
851.22	3865
851.355	3846
851.49	3766
851.625	3819
851.76	3827
851.895	3732
852.03	3747
852.165	3823
852.299	3888
852.434	3911
852.569	3804
852.703	3850
852.838	3953
852.973	4013
853.107	4013
853.242	3861
853.376	3835
853.511	3740
853.645	3797
853.78	3968
853.914	3865
854.048	3907
854.183	3865
854.317	3915
854.451	4067
854.585	3972
854.72	3930
854.854	4025
854.988	3968
855.122	4010
855.256	3930
855.39	4010
855.524	4074
855.658	4101
855.792	4105
855.926	4135
856.06	4154
856.194	4223
856.327	4112
856.461	4097
856.595	4158
856.729	4181
856.862	4322
856.996	4238
857.13	4318
857.263	4375
857.397	4318
857.53	4284
857.664	4360
857.797	4409
857.931	4371
858.064	4398
858.197	4424
858.331	4455
858.464	4375
858.597	4341
858.731	4421
858.864	4455
858.997	4447
859.13	4523
859.263	4535
859.396	4580
859.529	4527
859.662	4516
859.795	4546
859.928	4641
860.061	4683
860.194	4771
860.327	4683
860.46	4641
860.592	4714
860.725	4744
860.858	4812
860.99	4694
861.123	4706
861.256	4733
861.388	4755
861.521	5505
861.653	4774
861.786	4675
861.918	4793
862.05	4805
862.183	4828
862.315	4854
862.447	4938
862.58	4892
862.712	4805
862.844	4774
862.976	4881
863.108	4835
863.24	5136
863.372	4850
863.504	4919
863.636	4900
863.768	4968
863.9	4957
864.032	4953
864.164	4965
864.296	5045
864.428	5010
864.559	5109
864.691	5128
864.823	5132
864.954	5143
865.086	5159
865.217	5128
865.349	5117
865.48	5193
865.612	5201
865.743	5307
865.875	5273
866.006	5208
866.137	5235
866.269	5223
866.4	5273
866.531	5197
866.662	5208
866.793	5277
866.924	5239
867.055	5379
867.186	5349
867.317	5368
867.448	5269
867.579	5353
867.71	5398
867.841	5372
867.972	5452
868.103	5509
868.233	5467
868.364	5501
868.495	5573
868.625	5638
868.756	5779
868.886	5684
869.017	5733
869.147	5805
869.278	5916
869.408	5790
869.539	5882
869.669	5927
869.799	5904
869.929	5973
870.06	6045
870.19	6159
870.32	6155
870.45	6239
870.58	6338
870.71	6376
870.84	6441
870.97	6391
871.1	6486
871.23	6604
871.36	6646
871.489	6673
871.619	6711
871.749	6844
871.879	6871
872.008	6989
872.138	6985
872.267	7012
872.397	6996
872.526	7061
872.656	7118
872.785	7228
872.915	7480
873.044	7464
873.173	7556
873.303	7636
873.432	7780
873.561	7909
873.69	7970
873.819	8024
873.948	8206
874.077	8225
874.206	8305
874.335	8446
874.464	8632
874.593	8853
874.722	9001
874.851	9131
874.979	9211
875.108	9393
875.237	9447
875.365	9511
875.494	9698
875.623	9827
875.751	9823
875.88	9975
876.008	10211
876.136	10303
876.265	10523
876.393	10729
876.521	10714
876.65	10782
876.778	10843
876.906	10908
877.034	10991
877.162	11155
877.29	11151
877.418	11364
877.546	11288
877.674	11497
877.802	11463
877.93	11482
878.058	11627
878.185	11547
878.313	11623
878.441	11832
878.568	11672
878.696	11843
878.824	11840
878.951	11954
879.079	11984
879.206	12163
879.333	12117
879.461	12007
879.588	12072
879.715	12057
879.842	12152
879.97	12041
880.097	11882
880.224	11878
880.351	11893
880.478	11901
880.605	11843
880.732	11767
880.859	11988
880.986	11779
881.112	11805
881.239	11729
881.366	11699
881.493	11638
881.619	11581
881.746	11512
881.872	11600
881.999	11486
882.125	11535
882.252	11600
882.378	11554
882.505	11566
882.631	11448
882.757	11151
882.883	11288
883.01	11322
883.136	11201
883.262	11132
883.388	11086
883.514	11250
883.64	11128
883.766	11102
883.892	11018
884.018	10946
884.143	11052
884.269	11132
884.395	10923
884.52	10835
884.646	10812
884.772	10660
884.897	10698
885.023	10786
885.148	10714
885.274	10729
885.399	10679
885.524	10694
885.65	10592
885.775	10504
885.9	10565
886.025	10611
886.15	10531
886.275	10489
886.4	10421
886.525	10500
886.65	10455
886.775	10318
886.9	10451
887.025	10538
887.149	10325
887.274	10261
887.399	10211
887.523	10230
887.648	10078
887.773	10249
887.897	10272
888.021	10150
888.146	10162
888.27	10158
888.395	10207
888.519	10131
888.643	10227
888.767	10169
888.891	10074
889.015	10017
889.139	10071
889.263	10025
889.387	10154
889.511	10120
889.635	10055
889.759	9964
889.883	9964
890.006	10025
890.13	10188
890.254	9975
890.377	9998
890.501	9888
890.624	9884
890.748	9869
890.871	9861
890.995	9728
891.118	9656
891.241	9835
891.364	9690
891.488	9785
891.611	9694
891.734	9816
891.857	9766
891.98	9797
892.103	9728
892.226	9698
892.349	9701
892.471	9481
892.594	9637
892.717	9644
892.839	9557
892.962	9595
893.085	9694
893.207	9580
893.33	9492
893.452	9466
893.575	9584
893.697	9545
893.819	9644
893.941	9618
894.064	9610
894.186	9511
894.308	9507
894.43	9515
894.552	9595
894.674	9568
894.796	9397
894.918	9382
895.04	9393
895.161	9329
895.283	9348
895.405	9253
895.526	9306
895.648	9233
895.769	9355
895.891	9272
896.012	9291
896.134	9192
896.255	9253
896.376	9176
896.498	9176
896.619	9108
896.74	9097
896.861	9089
896.982	9165
897.103	9332
897.224	9013
897.345	9070
897.466	9013
897.587	9013
897.708	9116
897.828	9058
897.949	8967
898.07	8857
898.19	8876
898.311	9051
898.431	8933
898.552	8948
898.672	9058
898.792	8948
898.913	8887
899.033	8838
899.153	8731
899.273	8693
899.393	8663
899.513	8739
899.633	8746
899.753	8800
899.873	8724
899.993	8766
900.113	8792
900.232	8632
900.352	8678
900.472	8674
900.591	8583
900.711	8579
900.83	8579
900.95	8678
901.069	8739
901.189	8594
901.308	8370
901.427	8419
901.546	8412
901.665	8454
901.784	8495
901.904	8336
902.023	8339
902.141	8267
902.26	8183
902.379	8252
902.498	8176
902.617	8240
902.735	8377
902.854	8244
902.973	8290
903.091	8199
903.21	8142
903.328	8149
903.446	8100
903.565	8103
903.683	8142
903.801	8077
903.919	8138
904.038	8115
904.156	8020
904.274	8096
904.392	8046
904.51	8054
904.627	8069
904.745	8081
904.863	8088
904.981	7894
905.098	7875
905.216	7856
905.334	7951
905.451	7982
905.569	7894
905.686	7887
905.803	7963
905.921	7712
906.038	7871
906.155	7799
906.272	7655
906.389	7693
906.506	7647
906.623	7632
906.74	7590
906.857	7575
906.974	7594
907.091	7643
907.208	7700
907.324	7594
907.441	7613
907.557	7445
907.674	7422
907.79	7449
907.907	7438
908.023	7506
908.139	7346
908.256	7415
908.372	7362
908.488	7327
908.604	7255
908.72	7194
908.836	7274
908.952	7190
909.068	7225
909.184	7308
909.3	7202
909.415	7259
909.531	7316
909.647	7069
909.762	7160
909.878	7110
909.993	7160
910.108	7103
910.224	7088
910.339	7152
910.454	7031
910.57	6977
910.685	6924
910.8	7198
910.915	7076
911.03	7050
911.145	6890
911.259	6901
911.374	6871
911.489	6821
911.604	6844
911.718	6707
911.833	6760
911.947	6650
912.062	6623
912.176	6753
912.291	6757
912.405	6684
912.519	6856
912.633	6875
912.748	6741
912.862	6650
912.976	6631
913.09	6532
913.204	6620
913.318	6593
913.431	6635
913.545	6692
913.659	6779
913.772	6681
913.886	6593
914	6593
914.113	6616
914.226	6623
914.34	6601
914.453	6551
914.566	6582
914.68	6585
914.793	6544
914.906	6460
915.019	6445
915.132	6414
915.245	6452
915.358	6410
915.47	6448
915.583	6475
915.696	6464
915.809	6532
915.921	6547
916.034	6437
916.146	6460
916.259	6365
916.371	6460
916.483	6452
916.595	6422
916.708	6433
916.82	6395
916.932	6414
917.044	6391
917.156	6391
917.268	6331
917.38	6350
917.491	6323
917.603	6338
917.715	6414
917.826	6445
917.938	6353
918.049	6311
918.161	6342
918.272	6414
918.384	6403
918.495	6296
918.606	6232
918.717	6258
918.828	6319
918.939	6292
919.05	6232
919.161	6262
919.272	6114
919.383	6194
919.494	6338
919.604	6395
919.715	6292
919.826	6235
919.936	6266
920.047	6361
920.157	6258
920.267	6502
920.378	6338
920.488	6243
920.598	6486
920.708	6612
920.818	6407
920.928	6395
921.038	6578
921.148	6525
921.258	6353
921.368	6319
921.477	6224
921.587	6114
921.697	6079
921.806	6167
921.916	6079
922.025	5916
922.134	5923
922.244	5897
922.353	5984
922.462	5847
922.571	5847
922.68	5748
922.789	5668
922.898	5699
923.007	5653
923.116	5680
923.224	5707
923.333	5653
923.442	5634
923.55	5581
923.659	5558
923.767	5619
923.876	5573
923.984	5630
924.092	5558
924.201	5539
924.309	5547
924.417	5573
924.525	5505
924.633	5448
924.741	6323
924.849	5387
924.956	5440
925.064	5345
925.172	5322
925.279	5269
925.387	5379
925.494	5383
925.602	5429
925.709	5372
925.816	5318
925.924	5337
926.031	5364
926.138	5334
926.245	5318
926.352	5235
926.459	5334
926.566	5341
926.673	5239
926.779	5201
926.886	5094
926.993	5033
927.099	4987
927.206	5003
927.312	4976
927.419	5071
927.525	5006
927.631	4942
927.737	4892
927.843	4885
927.95	4782
928.056	4828
928.162	4820
928.267	4847
928.373	5315
928.479	4831
928.585	4729
928.69	4801
928.796	4812
928.901	4687
929.007	4588
929.112	4687
929.218	4634
929.323	4584
929.428	4618
929.533	4683
929.638	4493
929.743	4531
929.848	4565
929.953	4535
930.058	4421
930.163	4295
930.267	4333
930.372	4485
930.477	4325
930.581	4493
930.685	4413
930.79	4272
930.894	4246
930.998	4249
931.103	4405
931.207	4105
931.311	4044
931.415	4071
931.519	3937
931.623	3930
