Data from glass_V78500241_893.txt Node
Date: Wed Sep 01 19:20:41 CST 2021
User: usil
Spectrometer: V785-0024
Trigger mode: 0
Integration Time (sec): 4.000000E-1
Scans to average: 1
Nonlinearity correction enabled: false
Boxcar width: 0
Storing dark spectrum: false
XAxis mode: Wavelengths
Number of Pixels in Spectrum: 1024
>>>>>Begin Spectral Data<<<<<
801.071	3747
801.214	3762
801.356	3694
801.499	3755
801.641	3740
801.783	3793
801.926	3854
802.068	3854
802.211	3876
802.353	3880
802.496	3816
802.638	3956
802.78	3896
802.923	3941
803.065	3911
803.208	3861
803.35	3907
803.492	3934
803.635	3956
803.777	3781
803.919	3918
804.061	4177
804.204	3968
804.346	3987
804.488	3945
804.63	4055
804.773	3968
804.915	4063
805.057	4177
805.199	3994
805.341	4086
805.483	4192
805.626	4192
805.768	4109
805.91	4230
806.052	4238
806.194	4230
806.336	4363
806.478	4211
806.62	4204
806.762	4230
806.904	4223
807.046	4333
807.188	4227
807.33	4204
807.472	4242
807.614	4200
807.756	4238
807.898	4230
808.04	4173
808.182	4299
808.324	4276
808.465	4363
808.607	4451
808.749	4478
808.891	4489
809.033	4512
809.174	4455
809.316	4272
809.458	4261
809.6	4188
809.741	4162
809.883	4128
810.025	4188
810.166	4207
810.308	4246
810.45	4249
810.591	4211
810.733	4322
810.875	4489
811.016	4862
811.158	5083
811.299	5277
811.441	5269
811.582	5064
811.724	4702
811.865	4455
812.007	4462
812.148	4405
812.29	4432
812.431	4440
812.573	4363
812.714	4417
812.855	4348
812.997	4424
813.138	4485
813.279	4398
813.421	4402
813.562	4375
813.703	4310
813.845	4352
813.986	4280
814.127	4272
814.268	4276
814.41	4253
814.551	4268
814.692	4276
814.833	4287
814.974	4284
815.115	4322
815.256	4257
815.397	4207
815.539	4276
815.68	4169
815.821	4242
815.962	4337
816.103	4299
816.244	4246
816.385	4257
816.526	4303
816.666	4223
816.807	4086
816.948	4246
817.089	4204
817.23	4158
817.371	4090
817.512	4097
817.653	4101
817.793	4048
817.934	4032
818.075	4105
818.216	4101
818.356	4150
818.497	3991
818.638	3926
818.778	3926
818.919	3880
819.06	3861
819.2	3930
819.341	3865
819.481	3903
819.622	3956
819.762	3998
819.903	3968
820.043	3876
820.184	3846
820.324	3823
820.465	3865
820.605	3896
820.746	3884
820.886	3793
821.026	3956
821.167	3907
821.307	3991
821.447	3994
821.588	3964
821.728	3949
821.868	3926
822.008	3857
822.149	3918
822.289	3960
822.429	3785
822.569	3785
822.709	3778
822.849	3713
822.99	3751
823.13	3740
823.27	3816
823.41	3709
823.55	3724
823.69	3762
823.83	3789
823.97	3675
824.11	3618
824.25	3603
824.389	3641
824.529	3698
824.669	3660
824.809	3732
824.949	3755
825.089	3720
825.228	3713
825.368	3618
825.508	3523
825.648	3587
825.787	3587
825.927	3633
826.067	3629
826.206	3660
826.346	3804
826.485	3831
826.625	3869
826.765	3956
826.904	3812
827.044	3614
827.183	3542
827.323	3431
827.462	3477
827.601	3439
827.741	3435
827.88	3431
828.02	3382
828.159	3500
828.298	3511
828.437	3595
828.577	3488
828.716	3660
828.855	3488
828.994	3412
829.134	3386
829.273	3382
829.412	3363
829.551	3359
829.69	3355
829.829	3469
829.968	3553
830.107	3496
830.246	3439
830.385	3363
830.524	3351
830.663	3332
830.802	3283
830.941	3203
831.08	3256
831.219	3310
831.357	3279
831.496	3447
831.635	3272
831.774	3214
831.913	3237
832.051	3119
832.19	3131
832.329	3195
832.467	3116
832.606	3119
832.744	3180
832.883	3218
833.022	3233
833.16	3275
833.299	3310
833.437	3336
833.576	3370
833.714	3409
833.852	3481
833.991	3473
834.129	3462
834.267	3439
834.406	3420
834.544	3443
834.682	3466
834.821	3416
834.959	3580
835.097	3439
835.235	3557
835.373	3492
835.511	3511
835.65	3477
835.788	3504
835.926	3416
836.064	3382
836.202	3424
836.34	3572
836.478	3633
836.615	3557
836.753	3564
836.891	3648
837.029	3614
837.167	3580
837.305	3561
837.443	3545
837.58	3511
837.718	3614
837.856	3568
837.993	3526
838.131	3637
838.269	3648
838.406	3576
838.544	3561
838.681	3492
838.819	3481
838.956	3450
839.094	3382
839.231	3424
839.369	3507
839.506	3720
839.643	3625
839.781	3511
839.918	3504
840.055	3553
840.193	3500
840.33	3584
840.467	3572
840.604	3641
840.742	3789
840.879	3568
841.016	3576
841.153	3603
841.29	3774
841.427	3728
841.564	3747
841.701	3759
841.838	3686
841.975	3679
842.112	3724
842.249	3641
842.385	3622
842.522	3876
842.659	3656
842.796	3713
842.933	3656
843.069	3732
843.206	3694
843.343	3846
843.479	3793
843.616	3819
843.752	3656
843.889	3667
844.025	3838
844.162	3682
844.298	3903
844.435	3842
844.571	3785
844.708	3937
844.844	3972
844.98	4017
845.117	4010
845.253	3922
845.389	3956
845.525	3968
845.661	4010
845.798	3911
845.934	4010
846.07	3991
846.206	4051
846.342	4135
846.478	4074
846.614	4013
846.75	3972
846.886	3907
847.022	4067
847.158	4013
847.294	3960
847.429	4071
847.565	4048
847.701	4253
847.837	3903
847.972	3918
848.108	4044
848.244	4021
848.379	3876
848.515	3838
848.65	3816
848.786	3854
848.921	3873
849.057	3918
849.192	3979
849.328	3876
849.463	3968
849.598	3896
849.734	3896
849.869	3823
850.004	3797
850.14	3873
850.275	3793
850.41	3759
850.545	3759
850.68	3770
850.815	3835
850.95	3804
851.085	3964
851.22	3903
851.355	3888
851.49	3774
851.625	3797
851.76	3838
851.895	3762
852.03	3770
852.165	3800
852.299	3873
852.434	3903
852.569	3884
852.703	3926
852.838	3972
852.973	4059
853.107	3979
853.242	3896
853.376	3850
853.511	3793
853.645	3873
853.78	3956
853.914	3903
854.048	3941
854.183	3850
854.317	3926
854.451	4055
854.585	3945
854.72	3884
854.854	4082
854.988	3941
855.122	4002
855.256	3941
855.39	4021
855.524	4116
855.658	4116
855.792	4097
855.926	4112
856.06	4185
856.194	4192
856.327	4147
856.461	4128
856.595	4154
856.729	4200
856.862	4272
856.996	4204
857.13	4299
857.263	4325
857.397	4421
857.53	4291
857.664	4356
857.797	4398
857.931	4443
858.064	4375
858.197	4474
858.331	4447
858.464	4383
858.597	4352
858.731	4485
858.864	4459
858.997	4474
859.13	4493
859.263	4485
859.396	4615
859.529	4542
859.662	4512
859.795	4561
859.928	4626
860.061	4740
860.194	4744
860.327	4653
860.46	4637
860.592	4755
860.725	4740
860.858	4793
860.99	4706
861.123	4733
861.256	4725
861.388	4801
861.521	5554
861.653	4702
861.786	4702
861.918	4702
862.05	4797
862.183	4854
862.315	4934
862.447	4961
862.58	4877
862.712	4820
862.844	4778
862.976	4873
863.108	4892
863.24	5162
863.372	4820
863.504	4904
863.636	4904
863.768	4968
863.9	4961
864.032	4911
864.164	4957
864.296	5037
864.428	5094
864.559	5109
864.691	5117
864.823	5136
864.954	5113
865.086	5124
865.217	5140
865.349	5098
865.48	5151
865.612	5197
865.743	5307
865.875	5223
866.006	5197
866.137	5284
866.269	5261
866.4	5254
866.531	5231
866.662	5201
866.793	5235
866.924	5311
867.055	5326
867.186	5334
867.317	5341
867.448	5326
867.579	5383
867.71	5341
867.841	5334
867.972	5436
868.103	5497
868.233	5471
868.364	5554
868.495	5596
868.625	5707
868.756	5794
868.886	5649
869.017	5752
869.147	5863
869.278	5870
869.408	5882
869.539	5847
869.669	5855
869.799	5935
869.929	6003
870.06	6057
870.19	6220
870.32	6175
870.45	6235
870.58	6376
870.71	6414
870.84	6509
870.97	6464
871.1	6445
871.23	6745
871.36	6662
871.489	6654
871.619	6753
871.749	6719
871.879	6867
872.008	7034
872.138	6913
872.267	7053
872.397	7038
872.526	7000
872.656	7095
872.785	7285
872.915	7343
873.044	7521
873.173	7552
873.303	7597
873.432	7727
873.561	7845
873.69	7940
873.819	8001
873.948	8123
874.077	8271
874.206	8317
874.335	8461
874.464	8705
874.593	8906
874.722	8872
874.851	9146
874.979	9203
875.108	9367
875.237	9382
875.365	9393
875.494	9713
875.623	9823
875.751	9861
875.88	10006
876.008	10207
876.136	10287
876.265	10546
876.393	10782
876.521	10729
876.65	10835
876.778	10968
876.906	10854
877.034	10987
877.162	11071
877.29	11121
877.418	11288
877.546	11299
877.674	11395
877.802	11539
877.93	11463
878.058	11570
878.185	11554
878.313	11608
878.441	11710
878.568	11619
878.696	11889
878.824	11908
878.951	12003
879.079	12007
879.206	12186
879.333	12133
879.461	11923
879.588	12011
879.715	12083
879.842	12228
879.97	12087
880.097	12022
880.224	11988
880.351	11904
880.478	11843
880.605	11851
880.732	11813
880.859	12030
880.986	11722
881.112	11756
881.239	11745
881.366	11627
881.493	11634
881.619	11623
881.746	11566
881.872	11570
881.999	11535
882.125	11524
882.252	11535
882.378	11493
882.505	11592
882.631	11421
882.757	11292
882.883	11387
883.01	11334
883.136	11239
883.262	11174
883.388	11208
883.514	11189
883.64	11189
883.766	11128
883.892	10961
884.018	10934
884.143	11121
884.269	11143
884.395	10881
884.52	10721
884.646	10820
884.772	10717
884.897	10660
885.023	10691
885.148	10759
885.274	10816
885.399	10672
885.524	10641
885.65	10580
885.775	10603
885.9	10519
886.025	10489
886.15	10615
886.275	10489
886.4	10405
886.525	10390
886.65	10367
886.775	10295
886.9	10493
887.025	10592
887.149	10337
887.274	10207
887.399	10116
887.523	10116
887.648	10158
887.773	10207
887.897	10261
888.021	10249
888.146	10177
888.27	10215
888.395	10177
888.519	10265
888.643	10227
888.767	10173
888.891	10055
889.015	10078
889.139	10051
889.263	10013
889.387	10150
889.511	10143
889.635	10040
889.759	9937
889.883	10021
890.006	10013
890.13	10105
890.254	10029
890.377	10013
890.501	9823
890.624	9854
890.748	9888
890.871	9816
890.995	9793
891.118	9751
891.241	9705
891.364	9720
891.488	9819
891.611	9671
891.734	9766
891.857	9823
891.98	9679
892.103	9816
892.226	9705
892.349	9660
892.471	9519
892.594	9629
892.717	9606
892.839	9587
892.962	9652
893.085	9728
893.207	9561
893.33	9542
893.452	9515
893.575	9618
893.697	9507
893.819	9618
893.941	9637
894.064	9637
894.186	9431
894.308	9488
894.43	9496
894.552	9576
894.674	9580
894.796	9382
894.918	9389
895.04	9374
895.161	9466
895.283	9336
895.405	9279
895.526	9237
895.648	9245
895.769	9283
895.891	9253
896.012	9294
896.134	9256
896.255	9256
896.376	9108
896.498	9150
896.619	9131
896.74	9150
896.861	9036
896.982	9268
897.103	9340
897.224	9142
897.345	9005
897.466	8933
897.587	9013
897.708	9150
897.828	9020
897.949	8929
898.07	8910
898.19	8929
898.311	8979
898.431	8929
898.552	8960
898.672	9028
898.792	9020
898.913	8944
899.033	8876
899.153	8754
899.273	8705
899.393	8785
899.513	8792
899.633	8727
899.753	8781
899.873	8716
899.993	8788
900.113	8758
900.232	8731
900.352	8663
900.472	8594
900.591	8568
900.711	8613
900.83	8526
900.95	8674
901.069	8758
901.189	8598
901.308	8400
901.427	8396
901.546	8400
901.665	8423
901.784	8469
901.904	8400
902.023	8343
902.141	8259
902.26	8240
902.379	8305
902.498	8271
902.617	8233
902.735	8248
902.854	8305
902.973	8298
903.091	8149
903.21	8145
903.328	8149
903.446	8096
903.565	8119
903.683	8092
903.801	7963
903.919	8084
904.038	8138
904.156	8062
904.274	8126
904.392	8062
904.51	8043
904.627	8039
904.745	8092
904.863	8142
904.981	7936
905.098	7928
905.216	7913
905.334	7951
905.451	7936
905.569	7841
905.686	7913
905.803	7967
905.921	7750
906.038	7830
906.155	7822
906.272	7685
906.389	7727
906.506	7670
906.623	7609
906.74	7685
906.857	7552
906.974	7624
907.091	7708
907.208	7666
907.324	7636
907.441	7624
907.557	7499
907.674	7502
907.79	7415
907.907	7396
908.023	7430
908.139	7430
908.256	7415
908.372	7354
908.488	7438
908.604	7263
908.72	7316
908.836	7202
908.952	7236
909.068	7316
909.184	7377
909.3	7236
909.415	7301
909.531	7305
909.647	7129
909.762	7133
909.878	7126
909.993	7156
910.108	7141
910.224	7053
910.339	7072
910.454	7088
910.57	7004
910.685	6943
910.8	7126
910.915	7084
911.03	7027
911.145	6916
911.259	6932
911.374	6981
911.489	6875
911.604	6844
911.718	6715
911.833	6738
911.947	6642
912.062	6662
912.176	6730
912.291	6692
912.405	6673
912.519	6833
912.633	6840
912.748	6753
912.862	6768
912.976	6604
913.09	6536
913.204	6566
913.318	6604
913.431	6639
913.545	6707
913.659	6703
913.772	6665
913.886	6627
914	6544
914.113	6612
914.226	6665
914.34	6589
914.453	6506
914.566	6646
914.68	6574
914.793	6517
914.906	6456
915.019	6403
915.132	6384
915.245	6452
915.358	6426
915.47	6448
915.583	6536
915.696	6483
915.809	6574
915.921	6547
916.034	6418
916.146	6369
916.259	6418
916.371	6433
916.483	6475
916.595	6460
916.708	6414
916.82	6467
916.932	6452
917.044	6414
917.156	6418
917.268	6357
917.38	6391
917.491	6311
917.603	6384
917.715	6403
917.826	6464
917.938	6311
918.049	6304
918.161	6308
918.272	6475
918.384	6456
918.495	6357
918.606	6281
918.717	6251
918.828	6308
918.939	6296
919.05	6175
919.161	6266
919.272	6079
919.383	6178
919.494	6350
919.604	6483
919.715	6331
919.826	6224
919.936	6289
920.047	6342
920.157	6342
920.267	6509
920.378	6331
920.488	6308
920.598	6464
920.708	6528
920.818	6460
920.928	6498
921.038	6654
921.148	6620
921.258	6384
921.368	6262
921.477	6213
921.587	6247
921.697	6136
921.806	6186
921.916	6098
922.025	6003
922.134	5901
922.244	5958
922.353	5950
922.462	5923
922.571	5809
922.68	5737
922.789	5665
922.898	5684
923.007	5646
923.116	5688
923.224	5649
923.333	5680
923.442	5653
923.55	5596
923.659	5585
923.767	5688
923.876	5566
923.984	5642
924.092	5543
924.201	5535
924.309	5570
924.417	5592
924.525	5501
924.633	5528
924.741	6148
924.849	5395
924.956	5490
925.064	5357
925.172	5318
925.279	5307
925.387	5410
925.494	5307
925.602	5406
925.709	5402
925.816	5322
925.924	5357
926.031	5318
926.138	5307
926.245	5353
926.352	5280
926.459	5303
926.566	5334
926.673	5242
926.779	5155
926.886	5132
926.993	5003
927.099	5033
927.206	5052
927.312	4957
927.419	5067
927.525	4987
927.631	5029
927.737	4908
927.843	4911
927.95	4771
928.056	4862
928.162	4862
928.267	4873
928.373	5376
928.479	4881
928.585	4653
928.69	4733
928.796	4752
928.901	4687
929.007	4607
929.112	4660
929.218	4664
929.323	4675
929.428	4577
929.533	4664
929.638	4478
929.743	4561
929.848	4584
929.953	4542
930.058	4466
930.163	4291
930.267	4383
930.372	4481
930.477	4322
930.581	4485
930.685	4383
930.79	4291
930.894	4322
930.998	4261
931.103	4367
931.207	4169
931.311	4131
931.415	4063
931.519	3926
931.623	3979
