Data from glass_V78500241_277.txt Node
Date: Wed Sep 01 19:16:25 CST 2021
User: usil
Spectrometer: V785-0024
Trigger mode: 0
Integration Time (sec): 4.000000E-1
Scans to average: 1
Nonlinearity correction enabled: false
Boxcar width: 0
Storing dark spectrum: false
XAxis mode: Wavelengths
Number of Pixels in Spectrum: 1024
>>>>>Begin Spectral Data<<<<<
801.071	3793
801.214	3724
801.356	3778
801.499	3781
801.641	3720
801.783	3766
801.926	3884
802.068	3873
802.211	3869
802.353	3888
802.496	3846
802.638	3854
802.78	3918
802.923	3953
803.065	3911
803.208	3819
803.35	3915
803.492	3930
803.635	3930
803.777	3816
803.919	3937
804.061	4200
804.204	4002
804.346	3964
804.488	3956
804.63	4040
804.773	4021
804.915	4032
805.057	4139
805.199	4071
805.341	4105
805.483	4158
805.626	4173
805.768	4173
805.91	4238
806.052	4268
806.194	4215
806.336	4386
806.478	4196
806.62	4211
806.762	4227
806.904	4303
807.046	4329
807.188	4246
807.33	4200
807.472	4223
807.614	4196
807.756	4261
807.898	4215
808.04	4249
808.182	4325
808.324	4341
808.465	4405
808.607	4455
808.749	4497
808.891	4512
809.033	4535
809.174	4421
809.316	4291
809.458	4261
809.6	4124
809.741	4204
809.883	4166
810.025	4185
810.166	4192
810.308	4257
810.45	4261
810.591	4230
810.733	4303
810.875	4584
811.016	4801
811.158	5155
811.299	5299
811.441	5311
811.582	5067
811.724	4767
811.865	4489
812.007	4474
812.148	4447
812.29	4493
812.431	4417
812.573	4360
812.714	4375
812.855	4432
812.997	4421
813.138	4485
813.279	4398
813.421	4432
813.562	4398
813.703	4363
813.845	4371
813.986	4299
814.127	4227
814.268	4215
814.41	4287
814.551	4280
814.692	4303
814.833	4291
814.974	4356
815.115	4375
815.256	4291
815.397	4257
815.539	4265
815.68	4200
815.821	4215
815.962	4329
816.103	4322
816.244	4268
816.385	4299
816.526	4322
816.666	4211
816.807	4124
816.948	4211
817.089	4204
817.23	4116
817.371	4051
817.512	4074
817.653	4044
817.793	4029
817.934	4071
818.075	4071
818.216	4101
818.356	4131
818.497	4036
818.638	3903
818.778	3926
818.919	3911
819.06	3896
819.2	3926
819.341	3865
819.481	3831
819.622	3903
819.762	4017
819.903	3972
820.043	3854
820.184	3854
820.324	3846
820.465	3888
820.605	3880
820.746	3846
820.886	3800
821.026	3949
821.167	3911
821.307	3983
821.447	3987
821.588	3968
821.728	3983
821.868	3941
822.008	3903
822.149	3941
822.289	3918
822.429	3774
822.569	3781
822.709	3816
822.849	3732
822.99	3724
823.13	3755
823.27	3816
823.41	3690
823.55	3785
823.69	3766
823.83	3781
823.97	3720
824.11	3633
824.25	3622
824.389	3622
824.529	3698
824.669	3603
824.809	3732
824.949	3740
825.089	3781
825.228	3652
825.368	3587
825.508	3572
825.648	3584
825.787	3622
825.927	3648
826.067	3667
826.206	3648
826.346	3800
826.485	3888
826.625	3857
826.765	3953
826.904	3846
827.044	3610
827.183	3561
827.323	3458
827.462	3496
827.601	3458
827.741	3431
827.88	3409
828.02	3374
828.159	3507
828.298	3500
828.437	3538
828.577	3488
828.716	3614
828.855	3500
828.994	3386
829.134	3416
829.273	3393
829.412	3355
829.551	3367
829.69	3336
829.829	3447
829.968	3492
830.107	3416
830.246	3466
830.385	3378
830.524	3367
830.663	3317
830.802	3253
830.941	3192
831.08	3245
831.219	3264
831.357	3268
831.496	3439
831.635	3226
831.774	3199
831.913	3169
832.051	3161
832.19	3169
832.329	3226
832.467	3195
832.606	3116
832.744	3150
832.883	3180
833.022	3184
833.16	3268
833.299	3306
833.437	3378
833.576	3359
833.714	3424
833.852	3454
833.991	3458
834.129	3488
834.267	3443
834.406	3412
834.544	3447
834.682	3420
834.821	3435
834.959	3584
835.097	3409
835.235	3564
835.373	3500
835.511	3511
835.65	3462
835.788	3526
835.926	3397
836.064	3401
836.202	3435
836.34	3549
836.478	3614
836.615	3526
836.753	3557
836.891	3667
837.029	3633
837.167	3603
837.305	3553
837.443	3534
837.58	3504
837.718	3534
837.856	3572
837.993	3572
838.131	3610
838.269	3610
838.406	3572
838.544	3618
838.681	3473
838.819	3485
838.956	3382
839.094	3389
839.231	3454
839.369	3530
839.506	3770
839.643	3671
839.781	3545
839.918	3496
840.055	3542
840.193	3549
840.33	3553
840.467	3591
840.604	3637
840.742	3812
840.879	3507
841.016	3549
841.153	3625
841.29	3778
841.427	3720
841.564	3694
841.701	3762
841.838	3679
841.975	3663
842.112	3732
842.249	3671
842.385	3652
842.522	3884
842.659	3686
842.796	3648
842.933	3751
843.069	3717
843.206	3759
843.343	3857
843.479	3842
843.616	3861
843.752	3675
843.889	3660
844.025	3861
844.162	3743
844.298	3941
844.435	3797
844.571	3789
844.708	3930
844.844	3998
844.98	4048
845.117	4044
845.253	3918
845.389	3911
845.525	3991
845.661	3994
845.798	3930
845.934	3960
846.07	3983
846.206	4124
846.342	4101
846.478	4082
846.614	3991
846.75	3934
846.886	3907
847.022	4063
847.158	4010
847.294	4021
847.429	3994
847.565	3991
847.701	4253
847.837	3838
847.972	3850
848.108	4013
848.244	3979
848.379	3846
848.515	3842
848.65	3827
848.786	3865
848.921	3899
849.057	3907
849.192	3975
849.328	3899
849.463	3930
849.598	3873
849.734	3888
849.869	3850
850.004	3850
850.14	3850
850.275	3793
850.41	3766
850.545	3797
850.68	3789
850.815	3774
850.95	3823
851.085	3930
851.22	3857
851.355	3846
851.49	3755
851.625	3774
851.76	3835
851.895	3770
852.03	3762
852.165	3816
852.299	3838
852.434	3926
852.569	3915
852.703	3888
852.838	3941
852.973	3998
853.107	4013
853.242	3968
853.376	3854
853.511	3762
853.645	3865
853.78	3968
853.914	3915
854.048	3949
854.183	3888
854.317	3983
854.451	4063
854.585	3941
854.72	3998
854.854	4044
854.988	3972
855.122	4025
855.256	3960
855.39	4002
855.524	4105
855.658	4097
855.792	4090
855.926	4158
856.06	4200
856.194	4200
856.327	4162
856.461	4131
856.595	4181
856.729	4215
856.862	4291
856.996	4249
857.13	4352
857.263	4383
857.397	4398
857.53	4253
857.664	4379
857.797	4383
857.931	4436
858.064	4390
858.197	4466
858.331	4466
858.464	4428
858.597	4367
858.731	4432
858.864	4497
858.997	4459
859.13	4481
859.263	4535
859.396	4622
859.529	4550
859.662	4527
859.795	4584
859.928	4577
860.061	4664
860.194	4725
860.327	4664
860.46	4622
860.592	4717
860.725	4736
860.858	4782
860.99	4698
861.123	4702
861.256	4679
861.388	4755
861.521	5292
861.653	4729
861.786	4778
861.918	4801
862.05	4824
862.183	4805
862.315	4892
862.447	4946
862.58	4923
862.712	4824
862.844	4797
862.976	4858
863.108	4881
863.24	5265
863.372	4843
863.504	4919
863.636	4873
863.768	5022
863.9	4972
864.032	4938
864.164	5029
864.296	5006
864.428	5102
864.559	5075
864.691	5113
864.823	5117
864.954	5143
865.086	5098
865.217	5083
865.349	5121
865.48	5189
865.612	5193
865.743	5307
865.875	5201
866.006	5189
866.137	5273
866.269	5235
866.4	5269
866.531	5231
866.662	5242
866.793	5261
866.924	5307
867.055	5372
867.186	5360
867.317	5334
867.448	5334
867.579	5341
867.71	5364
867.841	5406
867.972	5463
868.103	5501
868.233	5471
868.364	5490
868.495	5532
868.625	5688
868.756	5783
868.886	5695
869.017	5752
869.147	5878
869.278	5836
869.408	5798
869.539	5889
869.669	5927
869.799	5958
869.929	6019
870.06	6087
870.19	6220
870.32	6220
870.45	6266
870.58	6346
870.71	6437
870.84	6502
870.97	6414
871.1	6410
871.23	6658
871.36	6681
871.489	6665
871.619	6791
871.749	6886
871.879	6890
872.008	6996
872.138	7000
872.267	7053
872.397	6947
872.526	7069
872.656	7118
872.785	7149
872.915	7403
873.044	7544
873.173	7575
873.303	7643
873.432	7750
873.561	7906
873.69	7951
873.819	8073
873.948	8168
874.077	8256
874.206	8347
874.335	8461
874.464	8651
874.593	8872
874.722	8933
874.851	9150
874.979	9169
875.108	9431
875.237	9458
875.365	9469
875.494	9686
875.623	9812
875.751	9854
875.88	9983
876.008	10185
876.136	10276
876.265	10466
876.393	10687
876.521	10748
876.65	10831
876.778	10915
876.906	10915
877.034	10961
877.162	11060
877.29	11178
877.418	11334
877.546	11326
877.674	11467
877.802	11417
877.93	11551
878.058	11585
878.185	11509
878.313	11642
878.441	11802
878.568	11623
878.696	11824
878.824	11779
878.951	11916
879.079	12098
879.206	12087
879.333	11992
879.461	11969
879.588	12133
879.715	12152
879.842	12235
879.97	12060
880.097	11832
880.224	11843
880.351	11783
880.478	11904
880.605	11821
880.732	11874
880.859	11954
880.986	11863
881.112	11824
881.239	11794
881.366	11707
881.493	11581
881.619	11463
881.746	11570
881.872	11528
881.999	11478
882.125	11509
882.252	11608
882.378	11554
882.505	11554
882.631	11330
882.757	11356
882.883	11303
883.01	11273
883.136	11170
883.262	11147
883.388	11140
883.514	11166
883.64	11197
883.766	11124
883.892	10984
884.018	11022
884.143	11128
884.269	11083
884.395	10892
884.52	10820
884.646	10793
884.772	10694
884.897	10592
885.023	10774
885.148	10691
885.274	10748
885.399	10778
885.524	10599
885.65	10630
885.775	10561
885.9	10535
886.025	10569
886.15	10554
886.275	10474
886.4	10421
886.525	10481
886.65	10360
886.775	10337
886.9	10565
887.025	10500
887.149	10398
887.274	10169
887.399	10196
887.523	10204
887.648	10177
887.773	10097
887.897	10257
888.021	10219
888.146	10139
888.27	10261
888.395	10280
888.519	10211
888.643	10230
888.767	10234
888.891	10109
889.015	10013
889.139	10048
889.263	9975
889.387	10150
889.511	10181
889.635	10036
889.759	9945
889.883	10013
890.006	10067
890.13	10086
890.254	9975
890.377	9926
890.501	9854
890.624	9850
890.748	9991
890.871	9774
890.995	9838
891.118	9827
891.241	9770
891.364	9766
891.488	9816
891.611	9736
891.734	9701
891.857	9766
891.98	9713
892.103	9793
892.226	9694
892.349	9660
892.471	9553
892.594	9580
892.717	9591
892.839	9587
892.962	9641
893.085	9701
893.207	9682
893.33	9496
893.452	9549
893.575	9599
893.697	9530
893.819	9671
893.941	9595
894.064	9599
894.186	9447
894.308	9420
894.43	9526
894.552	9538
894.674	9568
894.796	9416
894.918	9397
895.04	9340
895.161	9416
895.283	9340
895.405	9260
895.526	9367
895.648	9226
895.769	9264
895.891	9241
896.012	9275
896.134	9233
896.255	9176
896.376	9188
896.498	9188
896.619	9119
896.74	9081
896.861	9085
896.982	9306
897.103	9355
897.224	9222
897.345	9104
897.466	8971
897.587	9093
897.708	9062
897.828	9066
897.949	9077
898.07	8914
898.19	8941
898.311	9058
898.431	8971
898.552	8986
898.672	8914
898.792	9013
898.913	8883
899.033	8804
899.153	8727
899.273	8670
899.393	8667
899.513	8678
899.633	8800
899.753	8746
899.873	8769
899.993	8739
900.113	8720
900.232	8758
900.352	8670
900.472	8625
900.591	8587
900.711	8549
900.83	8583
900.95	8644
901.069	8686
901.189	8568
901.308	8480
901.427	8465
901.546	8450
901.665	8461
901.784	8564
901.904	8442
902.023	8313
902.141	8221
902.26	8199
902.379	8271
902.498	8237
902.617	8267
902.735	8317
902.854	8275
902.973	8256
903.091	8115
903.21	8107
903.328	8195
903.446	8138
903.565	8088
903.683	8168
903.801	8062
903.919	8084
904.038	8119
904.156	8027
904.274	8073
904.392	8050
904.51	8039
904.627	8050
904.745	8111
904.863	8046
904.981	7944
905.098	7818
905.216	7860
905.334	7974
905.451	7849
905.569	7898
905.686	8016
905.803	7921
905.921	7761
906.038	7906
906.155	7852
906.272	7757
906.389	7693
906.506	7666
906.623	7719
906.74	7666
906.857	7628
906.974	7636
907.091	7655
907.208	7757
907.324	7685
907.441	7548
907.557	7472
907.674	7403
907.79	7403
907.907	7422
908.023	7529
908.139	7403
908.256	7324
908.372	7350
908.488	7324
908.604	7259
908.72	7266
908.836	7213
908.952	7240
909.068	7263
909.184	7354
909.3	7305
909.415	7297
909.531	7266
909.647	7084
909.762	7179
909.878	7152
909.993	7141
910.108	7190
910.224	7084
910.339	7088
910.454	7038
910.57	7015
910.685	6958
910.8	7263
910.915	7145
911.03	6993
911.145	6913
911.259	6871
911.374	6909
911.489	6837
911.604	6764
911.718	6696
911.833	6753
911.947	6665
912.062	6620
912.176	6711
912.291	6662
912.405	6738
912.519	6935
912.633	6764
912.748	6734
912.862	6692
912.976	6612
913.09	6555
913.204	6582
913.318	6620
913.431	6703
913.545	6692
913.659	6779
913.772	6673
913.886	6559
914	6574
914.113	6623
914.226	6665
914.34	6627
914.453	6494
914.566	6635
914.68	6559
914.793	6517
914.906	6391
915.019	6418
915.132	6407
915.245	6372
915.358	6467
915.47	6460
915.583	6479
915.696	6418
915.809	6513
915.921	6593
916.034	6410
916.146	6460
916.259	6452
916.371	6494
916.483	6517
916.595	6426
916.708	6403
916.82	6456
916.932	6338
917.044	6403
917.156	6407
917.268	6346
917.38	6357
917.491	6300
917.603	6296
917.715	6410
917.826	6445
917.938	6357
918.049	6254
918.161	6304
918.272	6448
918.384	6460
918.495	6361
918.606	6323
918.717	6251
918.828	6292
918.939	6243
919.05	6224
919.161	6224
919.272	6171
919.383	6171
919.494	6334
919.604	6388
919.715	6285
919.826	6243
919.936	6315
920.047	6338
920.157	6331
920.267	6475
920.378	6372
920.488	6311
920.598	6414
920.708	6563
920.818	6517
920.928	6456
921.038	6627
921.148	6536
921.258	6342
921.368	6315
921.477	6239
921.587	6258
921.697	6117
921.806	6209
921.916	6072
922.025	6015
922.134	5946
922.244	5863
922.353	5973
922.462	5893
922.571	5840
922.68	5737
922.789	5688
922.898	5733
923.007	5649
923.116	5688
923.224	5722
923.333	5726
923.442	5642
923.55	5585
923.659	5577
923.767	5608
923.876	5535
923.984	5585
924.092	5520
924.201	5558
924.309	5505
924.417	5516
924.525	5524
924.633	5535
924.741	6327
924.849	5379
924.956	5509
925.064	5387
925.172	5288
925.279	5326
925.387	5315
925.494	5345
925.602	5429
925.709	5387
925.816	5288
925.924	5357
926.031	5372
926.138	5296
926.245	5330
926.352	5216
926.459	5349
926.566	5322
926.673	5208
926.779	5201
926.886	5231
926.993	5029
927.099	5014
927.206	5014
927.312	5006
927.419	5037
927.525	4965
927.631	4999
927.737	4904
927.843	4858
927.95	4782
928.056	4797
928.162	4850
928.267	4847
928.373	5299
928.479	4900
928.585	4698
928.69	4771
928.796	4740
928.901	4725
929.007	4577
929.112	4714
929.218	4618
929.323	4603
929.428	4569
929.533	4660
929.638	4561
929.743	4554
929.848	4580
929.953	4519
930.058	4447
930.163	4337
930.267	4386
930.372	4451
930.477	4318
930.581	4485
930.685	4352
930.79	4280
930.894	4291
930.998	4325
931.103	4371
931.207	4086
931.311	4131
931.415	4071
931.519	3930
931.623	3960
