Data from glass_V78500241_2542.txt Node
Date: Wed Sep 01 19:32:07 CST 2021
User: usil
Spectrometer: V785-0024
Trigger mode: 0
Integration Time (sec): 4.000000E-1
Scans to average: 1
Nonlinearity correction enabled: false
Boxcar width: 0
Storing dark spectrum: false
XAxis mode: Wavelengths
Number of Pixels in Spectrum: 1024
>>>>>Begin Spectral Data<<<<<
801.071	3766
801.214	3713
801.356	3705
801.499	3785
801.641	3717
801.783	3766
801.926	3865
802.068	3808
802.211	3812
802.353	3873
802.496	3827
802.638	3857
802.78	3888
802.923	3937
803.065	3884
803.208	3816
803.35	3888
803.492	3884
803.635	3930
803.777	3778
803.919	3926
804.061	4131
804.204	3911
804.346	3907
804.488	3918
804.63	4048
804.773	3918
804.915	3979
805.057	4139
805.199	3994
805.341	4074
805.483	4112
805.626	4109
805.768	4101
805.91	4227
806.052	4246
806.194	4196
806.336	4363
806.478	4211
806.62	4139
806.762	4211
806.904	4261
807.046	4329
807.188	4188
807.33	4131
807.472	4253
807.614	4147
807.756	4303
807.898	4200
808.04	4200
808.182	4276
808.324	4284
808.465	4314
808.607	4436
808.749	4428
808.891	4440
809.033	4485
809.174	4360
809.316	4253
809.458	4207
809.6	4128
809.741	4162
809.883	4147
810.025	4207
810.166	4181
810.308	4211
810.45	4223
810.591	4215
810.733	4287
810.875	4500
811.016	4824
811.158	5121
811.299	5299
811.441	5227
811.582	5029
811.724	4702
811.865	4470
812.007	4432
812.148	4413
812.29	4424
812.431	4394
812.573	4383
812.714	4386
812.855	4402
812.997	4432
813.138	4508
813.279	4424
813.421	4371
813.562	4348
813.703	4287
813.845	4322
813.986	4280
814.127	4227
814.268	4196
814.41	4280
814.551	4261
814.692	4287
814.833	4257
814.974	4272
815.115	4310
815.256	4215
815.397	4242
815.539	4242
815.68	4150
815.821	4185
815.962	4325
816.103	4238
816.244	4215
816.385	4204
816.526	4287
816.666	4200
816.807	4124
816.948	4177
817.089	4173
817.23	4067
817.371	3987
817.512	4032
817.653	4044
817.793	4032
817.934	4017
818.075	4078
818.216	4044
818.356	4105
818.497	4021
818.638	3918
818.778	3907
818.919	3880
819.06	3800
819.2	3915
819.341	3838
819.481	3804
819.622	3838
819.762	3998
819.903	3899
820.043	3846
820.184	3831
820.324	3800
820.465	3888
820.605	3861
820.746	3865
820.886	3812
821.026	3880
821.167	3937
821.307	3960
821.447	3994
821.588	4017
821.728	3945
821.868	3937
822.008	3861
822.149	3888
822.289	3896
822.429	3778
822.569	3770
822.709	3720
822.849	3667
822.99	3690
823.13	3747
823.27	3774
823.41	3709
823.55	3717
823.69	3728
823.83	3740
823.97	3656
824.11	3561
824.25	3595
824.389	3648
824.529	3652
824.669	3625
824.809	3660
824.949	3755
825.089	3781
825.228	3698
825.368	3584
825.508	3545
825.648	3538
825.787	3656
825.927	3641
826.067	3641
826.206	3679
826.346	3789
826.485	3800
826.625	3861
826.765	3953
826.904	3831
827.044	3606
827.183	3519
827.323	3382
827.462	3469
827.601	3462
827.741	3348
827.88	3454
828.02	3348
828.159	3462
828.298	3477
828.437	3530
828.577	3526
828.716	3576
828.855	3511
828.994	3382
829.134	3329
829.273	3378
829.412	3340
829.551	3363
829.69	3355
829.829	3393
829.968	3458
830.107	3416
830.246	3424
830.385	3382
830.524	3336
830.663	3325
830.802	3268
830.941	3176
831.08	3195
831.219	3268
831.357	3283
831.496	3412
831.635	3233
831.774	3142
831.913	3188
832.051	3157
832.19	3131
832.329	3214
832.467	3127
832.606	3058
832.744	3150
832.883	3203
833.022	3207
833.16	3245
833.299	3272
833.437	3306
833.576	3367
833.714	3393
833.852	3424
833.991	3435
834.129	3405
834.267	3462
834.406	3389
834.544	3363
834.682	3393
834.821	3428
834.959	3545
835.097	3393
835.235	3477
835.373	3504
835.511	3515
835.65	3488
835.788	3481
835.926	3355
836.064	3374
836.202	3393
836.34	3545
836.478	3576
836.615	3538
836.753	3610
836.891	3652
837.029	3606
837.167	3564
837.305	3534
837.443	3511
837.58	3496
837.718	3580
837.856	3530
837.993	3542
838.131	3576
838.269	3584
838.406	3580
838.544	3572
838.681	3515
838.819	3469
838.956	3367
839.094	3370
839.231	3439
839.369	3511
839.506	3698
839.643	3644
839.781	3469
839.918	3469
840.055	3511
840.193	3515
840.33	3515
840.467	3530
840.604	3591
840.742	3774
840.879	3534
841.016	3576
841.153	3595
841.29	3751
841.427	3690
841.564	3675
841.701	3736
841.838	3671
841.975	3663
842.112	3728
842.249	3644
842.385	3610
842.522	3793
842.659	3709
842.796	3660
842.933	3675
843.069	3682
843.206	3698
843.343	3827
843.479	3812
843.616	3823
843.752	3660
843.889	3648
844.025	3823
844.162	3732
844.298	3842
844.435	3797
844.571	3732
844.708	3915
844.844	3960
844.98	4021
845.117	3960
845.253	3907
845.389	3854
845.525	3911
845.661	3941
845.798	3911
845.934	4040
846.07	3945
846.206	4010
846.342	4086
846.478	4036
846.614	3956
846.75	3930
846.886	3865
847.022	4036
847.158	3956
847.294	3979
847.429	4032
847.565	3945
847.701	4234
847.837	3850
847.972	3831
848.108	3983
848.244	3949
848.379	3812
848.515	3793
848.65	3774
848.786	3880
848.921	3804
849.057	3903
849.192	3941
849.328	3903
849.463	3880
849.598	3842
849.734	3892
849.869	3838
850.004	3751
850.14	3812
850.275	3785
850.41	3736
850.545	3709
850.68	3766
850.815	3800
850.95	3812
851.085	3907
851.22	3823
851.355	3869
851.49	3759
851.625	3808
851.76	3755
851.895	3740
852.03	3713
852.165	3793
852.299	3842
852.434	3918
852.569	3869
852.703	3865
852.838	3896
852.973	3983
853.107	3956
853.242	3896
853.376	3854
853.511	3778
853.645	3793
853.78	3964
853.914	3869
854.048	3846
854.183	3899
854.317	3918
854.451	4097
854.585	3896
854.72	3899
854.854	4051
854.988	3892
855.122	4013
855.256	3892
855.39	3983
855.524	4048
855.658	4074
855.792	4051
855.926	4173
856.06	4128
856.194	4181
856.327	4124
856.461	4074
856.595	4105
856.729	4124
856.862	4242
856.996	4211
857.13	4303
857.263	4299
857.397	4348
857.53	4295
857.664	4398
857.797	4371
857.931	4383
858.064	4424
858.197	4451
858.331	4375
858.464	4386
858.597	4348
858.731	4390
858.864	4466
858.997	4428
859.13	4527
859.263	4455
859.396	4558
859.529	4500
859.662	4508
859.795	4516
859.928	4569
860.061	4763
860.194	4721
860.327	4656
860.46	4630
860.592	4733
860.725	4729
860.858	4729
860.99	4687
861.123	4683
861.256	4698
861.388	4733
861.521	5421
861.653	4717
861.786	4752
861.918	4729
862.05	4816
862.183	4786
862.315	4858
862.447	4934
862.58	4927
862.712	4805
862.844	4759
862.976	4839
863.108	4919
863.24	5159
863.372	4828
863.504	4885
863.636	4881
863.768	4915
863.9	4953
864.032	4915
864.164	4961
864.296	5010
864.428	5064
864.559	5064
864.691	5147
864.823	5037
864.954	5162
865.086	5140
865.217	5143
865.349	5102
865.48	5121
865.612	5174
865.743	5299
865.875	5178
866.006	5151
866.137	5223
866.269	5193
866.4	5220
866.531	5280
866.662	5223
866.793	5277
866.924	5258
867.055	5292
867.186	5334
867.317	5341
867.448	5337
867.579	5349
867.71	5364
867.841	5345
867.972	5425
868.103	5440
868.233	5459
868.364	5452
868.495	5505
868.625	5657
868.756	5798
868.886	5714
869.017	5680
869.147	5870
869.278	5897
869.408	5794
869.539	5870
869.669	5912
869.799	5901
869.929	6007
870.06	5996
870.19	6186
870.32	6186
870.45	6277
870.58	6350
870.71	6369
870.84	6513
870.97	6407
871.1	6429
871.23	6623
871.36	6692
871.489	6654
871.619	6776
871.749	6806
871.879	6840
872.008	6966
872.138	6993
872.267	7008
872.397	7004
872.526	7034
872.656	7076
872.785	7137
872.915	7365
873.044	7518
873.173	7559
873.303	7647
873.432	7746
873.561	7814
873.69	7906
873.819	7978
873.948	8130
874.077	8244
874.206	8313
874.335	8446
874.464	8636
874.593	8834
874.722	8918
874.851	9123
874.979	9180
875.108	9332
875.237	9397
875.365	9393
875.494	9629
875.623	9842
875.751	9823
875.88	9915
876.008	10131
876.136	10303
876.265	10508
876.393	10588
876.521	10694
876.65	10831
876.778	10862
876.906	10923
877.034	11029
877.162	11041
877.29	11143
877.418	11208
877.546	11376
877.674	11433
877.802	11471
877.93	11562
878.058	11528
878.185	11570
878.313	11688
878.441	11729
878.568	11615
878.696	11794
878.824	11912
878.951	11897
879.079	12057
879.206	12091
879.333	12053
879.461	12011
879.588	12178
879.715	12026
879.842	12224
879.97	12022
880.097	11885
880.224	11893
880.351	11889
880.478	11840
880.605	11946
880.732	11802
880.859	12019
880.986	11752
881.112	11863
881.239	11710
881.366	11615
881.493	11672
881.619	11524
881.746	11554
881.872	11501
881.999	11490
882.125	11433
882.252	11581
882.378	11448
882.505	11638
882.631	11395
882.757	11284
882.883	11311
883.01	11330
883.136	11197
883.262	11132
883.388	11060
883.514	11136
883.64	11136
883.766	11136
883.892	11022
884.018	10995
884.143	11060
884.269	11060
884.395	10862
884.52	10908
884.646	10729
884.772	10675
884.897	10733
885.023	10637
885.148	10755
885.274	10797
885.399	10714
885.524	10668
885.65	10561
885.775	10607
885.9	10592
886.025	10546
886.15	10485
886.275	10500
886.4	10337
886.525	10341
886.65	10428
886.775	10333
886.9	10478
887.025	10599
887.149	10356
887.274	10177
887.399	10207
887.523	10177
887.648	10196
887.773	10090
887.897	10284
888.021	10261
888.146	10112
888.27	10204
888.395	10090
888.519	10158
888.643	10154
888.767	10169
888.891	10101
889.015	9987
889.139	10124
889.263	10006
889.387	10147
889.511	10147
889.635	10017
889.759	9930
889.883	10032
890.006	9945
890.13	10071
890.254	9915
890.377	9895
890.501	9835
890.624	9888
890.748	9838
890.871	9743
890.995	9732
891.118	9701
891.241	9766
891.364	9838
891.488	9808
891.611	9720
891.734	9720
891.857	9740
891.98	9690
892.103	9747
892.226	9675
892.349	9713
892.471	9500
892.594	9511
892.717	9656
892.839	9641
892.962	9629
893.085	9633
893.207	9599
893.33	9466
893.452	9519
893.575	9610
893.697	9545
893.819	9576
893.941	9599
894.064	9629
894.186	9405
894.308	9408
894.43	9469
894.552	9576
894.674	9526
894.796	9325
894.918	9367
895.04	9370
895.161	9332
895.283	9351
895.405	9249
895.526	9279
895.648	9199
895.769	9207
895.891	9355
896.012	9340
896.134	9195
896.255	9176
896.376	9112
896.498	9051
896.619	9169
896.74	9100
896.861	9093
896.982	9241
897.103	9287
897.224	9123
897.345	9062
897.466	8998
897.587	9047
897.708	9039
897.828	9017
897.949	8906
898.07	8853
898.19	8853
898.311	9081
898.431	8883
898.552	8933
898.672	8887
898.792	8918
898.913	8876
899.033	8792
899.153	8773
899.273	8651
899.393	8743
899.513	8796
899.633	8716
899.753	8708
899.873	8701
899.993	8731
900.113	8708
900.232	8667
900.352	8648
900.472	8632
900.591	8571
900.711	8590
900.83	8537
900.95	8636
901.069	8648
901.189	8560
901.308	8454
901.427	8374
901.546	8393
901.665	8423
901.784	8514
901.904	8336
902.023	8370
902.141	8256
902.26	8240
902.379	8305
902.498	8153
902.617	8199
902.735	8320
902.854	8294
902.973	8282
903.091	8065
903.21	8065
903.328	8142
903.446	8084
903.565	8103
903.683	8142
903.801	8058
903.919	8077
904.038	8107
904.156	8020
904.274	8035
904.392	8001
904.51	8119
904.627	8012
904.745	8050
904.863	8081
904.981	7890
905.098	7894
905.216	7887
905.334	7909
905.451	7814
905.569	7856
905.686	7868
905.803	7871
905.921	7734
906.038	7841
906.155	7780
906.272	7746
906.389	7662
906.506	7563
906.623	7647
906.74	7582
906.857	7548
906.974	7609
907.091	7685
907.208	7696
907.324	7590
907.441	7548
907.557	7438
907.674	7403
907.79	7312
907.907	7400
908.023	7441
908.139	7426
908.256	7411
908.372	7426
908.488	7320
908.604	7255
908.72	7198
908.836	7240
908.952	7270
909.068	7293
909.184	7346
909.3	7266
909.415	7232
909.531	7266
909.647	7118
909.762	7145
909.878	7080
909.993	7129
910.108	7099
910.224	7088
910.339	7129
910.454	7004
910.57	7046
910.685	6981
910.8	7141
910.915	7107
911.03	7034
911.145	6863
911.259	6840
911.374	6867
911.489	6878
911.604	6798
911.718	6703
911.833	6757
911.947	6639
912.062	6635
912.176	6700
912.291	6700
912.405	6734
912.519	6821
912.633	6806
912.748	6669
912.862	6696
912.976	6589
913.09	6525
913.204	6517
913.318	6521
913.431	6681
913.545	6688
913.659	6730
913.772	6597
913.886	6506
914	6509
914.113	6620
914.226	6620
914.34	6532
914.453	6464
914.566	6563
914.68	6536
914.793	6563
914.906	6414
915.019	6452
915.132	6395
915.245	6460
915.358	6418
915.47	6414
915.583	6418
915.696	6407
915.809	6494
915.921	6525
916.034	6418
916.146	6304
916.259	6372
916.371	6467
916.483	6445
916.595	6407
916.708	6384
916.82	6384
916.932	6365
917.044	6372
917.156	6384
917.268	6334
917.38	6346
917.491	6304
917.603	6334
917.715	6361
917.826	6433
917.938	6292
918.049	6281
918.161	6296
918.272	6414
918.384	6410
918.495	6353
918.606	6205
918.717	6175
918.828	6201
918.939	6247
919.05	6224
919.161	6266
919.272	6140
919.383	6144
919.494	6304
919.604	6448
919.715	6296
919.826	6159
919.936	6197
920.047	6353
920.157	6258
920.267	6422
920.378	6323
920.488	6262
920.598	6361
920.708	6490
920.818	6399
920.928	6445
921.038	6616
921.148	6525
921.258	6346
921.368	6262
921.477	6201
921.587	6197
921.697	6072
921.806	6182
921.916	6034
922.025	5916
922.134	5897
922.244	5878
922.353	5942
922.462	5805
922.571	5828
922.68	5661
922.789	5642
922.898	5646
923.007	5619
923.116	5676
923.224	5699
923.333	5657
923.442	5562
923.55	5596
923.659	5627
923.767	5623
923.876	5539
923.984	5646
924.092	5433
924.201	5558
924.309	5516
924.417	5539
924.525	5463
924.633	5497
924.741	6273
924.849	5372
924.956	5516
925.064	5368
925.172	5292
925.279	5288
925.387	5379
925.494	5311
925.602	5395
925.709	5372
925.816	5292
925.924	5315
926.031	5318
926.138	5273
926.245	5383
926.352	5204
926.459	5292
926.566	5273
926.673	5151
926.779	5105
926.886	5174
926.993	4995
927.099	4984
927.206	5003
927.312	4953
927.419	5025
927.525	4980
927.631	4999
927.737	4866
927.843	4831
927.95	4793
928.056	4828
928.162	4797
928.267	4797
928.373	5273
928.479	4828
928.585	4706
928.69	4702
928.796	4809
928.901	4702
929.007	4561
929.112	4660
929.218	4637
929.323	4584
929.428	4519
929.533	4660
929.638	4508
929.743	4527
929.848	4561
929.953	4508
930.058	4478
930.163	4348
930.267	4306
930.372	4417
930.477	4333
930.581	4447
930.685	4325
930.79	4242
930.894	4295
930.998	4234
931.103	4375
931.207	4101
931.311	4029
931.415	3998
931.519	3941
931.623	3956
