Data from glass_V78500241_1764.txt Node
Date: Wed Sep 01 19:26:43 CST 2021
User: usil
Spectrometer: V785-0024
Trigger mode: 0
Integration Time (sec): 4.000000E-1
Scans to average: 1
Nonlinearity correction enabled: false
Boxcar width: 0
Storing dark spectrum: false
XAxis mode: Wavelengths
Number of Pixels in Spectrum: 1024
>>>>>Begin Spectral Data<<<<<
801.071	3766
801.214	3713
801.356	3698
801.499	3789
801.641	3690
801.783	3789
801.926	3846
802.068	3831
802.211	3827
802.353	3926
802.496	3835
802.638	3911
802.78	3953
802.923	3945
803.065	3873
803.208	3884
803.35	3880
803.492	3873
803.635	3857
803.777	3823
803.919	3930
804.061	4166
804.204	3956
804.346	3922
804.488	3934
804.63	4002
804.773	3979
804.915	4002
805.057	4135
805.199	4029
805.341	4139
805.483	4131
805.626	4112
805.768	4097
805.91	4238
806.052	4242
806.194	4204
806.336	4322
806.478	4249
806.62	4120
806.762	4196
806.904	4253
807.046	4322
807.188	4177
807.33	4169
807.472	4257
807.614	4196
807.756	4272
807.898	4253
808.04	4234
808.182	4295
808.324	4299
808.465	4348
808.607	4455
808.749	4470
808.891	4447
809.033	4466
809.174	4409
809.316	4242
809.458	4223
809.6	4116
809.741	4143
809.883	4124
810.025	4215
810.166	4223
810.308	4166
810.45	4215
810.591	4215
810.733	4272
810.875	4538
811.016	4816
811.158	5155
811.299	5250
811.441	5326
811.582	5083
811.724	4721
811.865	4428
812.007	4470
812.148	4367
812.29	4405
812.431	4409
812.573	4402
812.714	4398
812.855	4409
812.997	4398
813.138	4428
813.279	4409
813.421	4405
813.562	4337
813.703	4341
813.845	4344
813.986	4299
814.127	4257
814.268	4265
814.41	4272
814.551	4344
814.692	4265
814.833	4287
814.974	4314
815.115	4363
815.256	4246
815.397	4238
815.539	4257
815.68	4192
815.821	4219
815.962	4360
816.103	4295
816.244	4230
816.385	4196
816.526	4280
816.666	4185
816.807	4105
816.948	4147
817.089	4131
817.23	4109
817.371	4067
817.512	4071
817.653	4040
817.793	4044
817.934	4082
818.075	4131
818.216	4063
818.356	4067
818.497	4032
818.638	3899
818.778	3926
818.919	3884
819.06	3850
819.2	3911
819.341	3838
819.481	3846
819.622	3937
819.762	4017
819.903	3934
820.043	3884
820.184	3804
820.324	3812
820.465	3873
820.605	3876
820.746	3888
820.886	3812
821.026	3918
821.167	3918
821.307	3975
821.447	3994
821.588	3979
821.728	3953
821.868	3934
822.008	3823
822.149	3876
822.289	3911
822.429	3804
822.569	3819
822.709	3774
822.849	3690
822.99	3709
823.13	3759
823.27	3770
823.41	3720
823.55	3705
823.69	3720
823.83	3732
823.97	3633
824.11	3610
824.25	3591
824.389	3656
824.529	3671
824.669	3652
824.809	3740
824.949	3759
825.089	3751
825.228	3679
825.368	3595
825.508	3542
825.648	3557
825.787	3587
825.927	3622
826.067	3648
826.206	3656
826.346	3812
826.485	3823
826.625	3899
826.765	3922
826.904	3800
827.044	3606
827.183	3538
827.323	3447
827.462	3473
827.601	3439
827.741	3492
827.88	3454
828.02	3355
828.159	3447
828.298	3469
828.437	3530
828.577	3454
828.716	3625
828.855	3500
828.994	3378
829.134	3355
829.273	3401
829.412	3393
829.551	3332
829.69	3340
829.829	3439
829.968	3526
830.107	3447
830.246	3428
830.385	3367
830.524	3370
830.663	3313
830.802	3260
830.941	3173
831.08	3222
831.219	3298
831.357	3245
831.496	3405
831.635	3226
831.774	3169
831.913	3180
832.051	3150
832.19	3157
832.329	3253
832.467	3131
832.606	3081
832.744	3169
832.883	3176
833.022	3218
833.16	3268
833.299	3336
833.437	3359
833.576	3386
833.714	3416
833.852	3454
833.991	3412
834.129	3439
834.267	3473
834.406	3409
834.544	3374
834.682	3412
834.821	3393
834.959	3576
835.097	3397
835.235	3549
835.373	3496
835.511	3530
835.65	3435
835.788	3485
835.926	3405
836.064	3351
836.202	3401
836.34	3564
836.478	3652
836.615	3568
836.753	3603
836.891	3625
837.029	3572
837.167	3603
837.305	3568
837.443	3526
837.58	3477
837.718	3629
837.856	3568
837.993	3538
838.131	3568
838.269	3603
838.406	3599
838.544	3515
838.681	3477
838.819	3477
838.956	3386
839.094	3412
839.231	3443
839.369	3523
839.506	3717
839.643	3663
839.781	3500
839.918	3492
840.055	3576
840.193	3549
840.33	3523
840.467	3542
840.604	3637
840.742	3800
840.879	3534
841.016	3549
841.153	3557
841.29	3755
841.427	3701
841.564	3717
841.701	3720
841.838	3694
841.975	3667
842.112	3694
842.249	3652
842.385	3641
842.522	3808
842.659	3656
842.796	3667
842.933	3743
843.069	3686
843.206	3660
843.343	3778
843.479	3785
843.616	3816
843.752	3652
843.889	3671
844.025	3823
844.162	3713
844.298	3842
844.435	3774
844.571	3804
844.708	3915
844.844	4040
844.98	4002
845.117	3979
845.253	3880
845.389	3922
845.525	3972
845.661	3934
845.798	3987
845.934	4006
846.07	3953
846.206	4074
846.342	4112
846.478	4032
846.614	3972
846.75	3903
846.886	3941
847.022	4029
847.158	3979
847.294	3979
847.429	4010
847.565	3975
847.701	4204
847.837	3873
847.972	3857
848.108	3934
848.244	3930
848.379	3850
848.515	3819
848.65	3835
848.786	3819
848.921	3846
849.057	3941
849.192	3926
849.328	3899
849.463	3930
849.598	3842
849.734	3869
849.869	3861
850.004	3793
850.14	3812
850.275	3808
850.41	3755
850.545	3778
850.68	3781
850.815	3740
850.95	3755
851.085	3945
851.22	3911
851.355	3793
851.49	3816
851.625	3793
851.76	3778
851.895	3747
852.03	3751
852.165	3774
852.299	3835
852.434	3884
852.569	3884
852.703	3846
852.838	3926
852.973	3998
853.107	4029
853.242	3892
853.376	3838
853.511	3781
853.645	3800
853.78	3983
853.914	3926
854.048	3873
854.183	3930
854.317	3998
854.451	4048
854.585	3907
854.72	3949
854.854	4040
854.988	3949
855.122	3991
855.256	3941
855.39	4025
855.524	4105
855.658	4074
855.792	4067
855.926	4166
856.06	4173
856.194	4219
856.327	4181
856.461	4082
856.595	4196
856.729	4173
856.862	4265
856.996	4238
857.13	4322
857.263	4333
857.397	4394
857.53	4306
857.664	4344
857.797	4379
857.931	4421
858.064	4367
858.197	4436
858.331	4375
858.464	4371
858.597	4318
858.731	4428
858.864	4459
858.997	4455
859.13	4485
859.263	4542
859.396	4554
859.529	4523
859.662	4519
859.795	4485
859.928	4596
860.061	4698
860.194	4714
860.327	4653
860.46	4687
860.592	4725
860.725	4687
860.858	4828
860.99	4736
861.123	4675
861.256	4675
861.388	4759
861.521	5387
861.653	4740
861.786	4771
861.918	4752
862.05	4778
862.183	4850
862.315	4881
862.447	4915
862.58	4854
862.712	4782
862.844	4771
862.976	4877
863.108	4900
863.24	5208
863.372	4831
863.504	4923
863.636	4866
863.768	4957
863.9	4980
864.032	4904
864.164	4949
864.296	5045
864.428	5067
864.559	5098
864.691	5151
864.823	5094
864.954	5128
865.086	5098
865.217	5128
865.349	5140
865.48	5170
865.612	5151
865.743	5307
865.875	5162
866.006	5223
866.137	5261
866.269	5246
866.4	5246
866.531	5273
866.662	5246
866.793	5280
866.924	5258
867.055	5322
867.186	5322
867.317	5318
867.448	5353
867.579	5360
867.71	5383
867.841	5360
867.972	5425
868.103	5455
868.233	5497
868.364	5478
868.495	5619
868.625	5627
868.756	5874
868.886	5653
869.017	5646
869.147	5908
869.278	5840
869.408	5821
869.539	5821
869.669	5942
869.799	5874
869.929	6015
870.06	6038
870.19	6220
870.32	6175
870.45	6254
870.58	6285
870.71	6422
870.84	6494
870.97	6380
871.1	6426
871.23	6620
871.36	6673
871.489	6627
871.619	6791
871.749	6764
871.879	6837
872.008	7012
872.138	7008
872.267	6954
872.397	7050
872.526	7038
872.656	7103
872.785	7160
872.915	7369
873.044	7476
873.173	7537
873.303	7670
873.432	7776
873.561	7830
873.69	7936
873.819	7974
873.948	8225
874.077	8259
874.206	8366
874.335	8442
874.464	8610
874.593	8899
874.722	8891
874.851	9074
874.979	9268
875.108	9370
875.237	9469
875.365	9485
875.494	9717
875.623	9823
875.751	9869
875.88	10040
876.008	10082
876.136	10322
876.265	10546
876.393	10714
876.521	10672
876.65	10831
876.778	10900
876.906	10896
877.034	10976
877.162	11098
877.29	11174
877.418	11303
877.546	11364
877.674	11463
877.802	11467
877.93	11493
878.058	11604
878.185	11619
878.313	11767
878.441	11680
878.568	11726
878.696	11741
878.824	11866
878.951	11939
879.079	12045
879.206	12178
879.333	12007
879.461	11999
879.588	12057
879.715	12095
879.842	12220
879.97	12117
880.097	11878
880.224	11931
880.351	11824
880.478	11946
880.605	11779
880.732	11756
880.859	11946
880.986	11802
881.112	11809
881.239	11741
881.366	11638
881.493	11695
881.619	11528
881.746	11528
881.872	11505
881.999	11501
882.125	11429
882.252	11497
882.378	11501
882.505	11501
882.631	11455
882.757	11288
882.883	11402
883.01	11280
883.136	11155
883.262	11128
883.388	11174
883.514	11223
883.64	11083
883.766	11181
883.892	11010
884.018	10919
884.143	11037
884.269	11162
884.395	10942
884.52	10729
884.646	10816
884.772	10767
884.897	10626
885.023	10660
885.148	10714
885.274	10828
885.399	10740
885.524	10611
885.65	10580
885.775	10554
885.9	10493
886.025	10611
886.15	10603
886.275	10432
886.4	10409
886.525	10405
886.65	10265
886.775	10284
886.9	10478
887.025	10497
887.149	10314
887.274	10204
887.399	10230
887.523	10128
887.648	10131
887.773	10143
887.897	10234
888.021	10215
888.146	10112
888.27	10242
888.395	10291
888.519	10185
888.643	10192
888.767	10185
888.891	10135
889.015	10013
889.139	10044
889.263	9975
889.387	10036
889.511	10131
889.635	10074
889.759	10006
889.883	9975
890.006	9915
890.13	10048
890.254	9979
890.377	10021
890.501	9895
890.624	9876
890.748	9922
890.871	9759
890.995	9747
891.118	9701
891.241	9751
891.364	9766
891.488	9732
891.611	9652
891.734	9743
891.857	9736
891.98	9701
892.103	9747
892.226	9762
892.349	9667
892.471	9545
892.594	9599
892.717	9584
892.839	9568
892.962	9606
893.085	9675
893.207	9538
893.33	9424
893.452	9568
893.575	9576
893.697	9545
893.819	9652
893.941	9629
894.064	9557
894.186	9428
894.308	9382
894.43	9519
894.552	9610
894.674	9534
894.796	9386
894.918	9359
895.04	9382
895.161	9363
895.283	9298
895.405	9188
895.526	9294
895.648	9241
895.769	9249
895.891	9268
896.012	9260
896.134	9275
896.255	9199
896.376	9089
896.498	9150
896.619	9233
896.74	9089
896.861	9055
896.982	9313
897.103	9233
897.224	9199
897.345	9089
897.466	9089
897.587	9093
897.708	9100
897.828	9039
897.949	8891
898.07	8929
898.19	8853
898.311	8982
898.431	8937
898.552	8944
898.672	8956
898.792	8899
898.913	8849
899.033	8773
899.153	8708
899.273	8663
899.393	8739
899.513	8781
899.633	8689
899.753	8853
899.873	8705
899.993	8682
900.113	8629
900.232	8727
900.352	8606
900.472	8610
900.591	8579
900.711	8587
900.83	8598
900.95	8651
901.069	8716
901.189	8571
901.308	8419
901.427	8404
901.546	8408
901.665	8450
901.784	8480
901.904	8393
902.023	8336
902.141	8210
902.26	8164
902.379	8252
902.498	8218
902.617	8172
902.735	8301
902.854	8275
902.973	8320
903.091	8111
903.21	8123
903.328	8103
903.446	8081
903.565	8077
903.683	8092
903.801	7978
903.919	8149
904.038	8164
904.156	8050
904.274	8062
904.392	8024
904.51	8096
904.627	8043
904.745	8069
904.863	8088
904.981	7902
905.098	7879
905.216	7898
905.334	7894
905.451	7936
905.569	7841
905.686	7951
905.803	7871
905.921	7765
906.038	7902
906.155	7811
906.272	7750
906.389	7693
906.506	7696
906.623	7624
906.74	7594
906.857	7502
906.974	7563
907.091	7670
907.208	7674
907.324	7620
907.441	7628
907.557	7434
907.674	7495
907.79	7411
907.907	7377
908.023	7411
908.139	7434
908.256	7346
908.372	7289
908.488	7305
908.604	7259
908.72	7266
908.836	7236
908.952	7194
909.068	7263
909.184	7346
909.3	7168
909.415	7327
909.531	7247
909.647	7122
909.762	7091
909.878	7046
909.993	7110
910.108	7133
910.224	7038
910.339	7152
910.454	7072
910.57	7031
910.685	7012
910.8	7190
910.915	7088
911.03	7031
911.145	6897
911.259	6920
911.374	6913
911.489	6783
911.604	6802
911.718	6681
911.833	6738
911.947	6673
912.062	6654
912.176	6658
912.291	6779
912.405	6719
912.519	6856
912.633	6890
912.748	6703
912.862	6681
912.976	6627
913.09	6509
913.204	6555
913.318	6570
913.431	6639
913.545	6688
913.659	6734
913.772	6646
913.886	6513
914	6532
914.113	6707
914.226	6620
914.34	6639
914.453	6475
914.566	6635
914.68	6536
914.793	6513
914.906	6365
915.019	6365
915.132	6327
915.245	6456
915.358	6407
915.47	6525
915.583	6509
915.696	6494
915.809	6547
915.921	6578
916.034	6433
916.146	6414
916.259	6422
916.371	6410
916.483	6433
916.595	6395
916.708	6399
916.82	6441
916.932	6342
917.044	6372
917.156	6308
917.268	6319
917.38	6357
917.491	6319
917.603	6395
917.715	6433
917.826	6350
917.938	6334
918.049	6228
918.161	6353
918.272	6418
918.384	6429
918.495	6376
918.606	6292
918.717	6220
918.828	6251
918.939	6327
919.05	6209
919.161	6277
919.272	6163
919.383	6159
919.494	6251
919.604	6429
919.715	6277
919.826	6258
919.936	6251
920.047	6273
920.157	6258
920.267	6513
920.378	6338
920.488	6266
920.598	6467
920.708	6506
920.818	6418
920.928	6441
921.038	6612
921.148	6570
921.258	6391
921.368	6262
921.477	6220
921.587	6209
921.697	6060
921.806	6175
921.916	6083
922.025	5923
922.134	5904
922.244	5889
922.353	5973
922.462	5817
922.571	5828
922.68	5718
922.789	5688
922.898	5699
923.007	5615
923.116	5676
923.224	5703
923.333	5661
923.442	5627
923.55	5585
923.659	5558
923.767	5619
923.876	5551
923.984	5577
924.092	5482
924.201	5528
924.309	5532
924.417	5554
924.525	5486
924.633	5482
924.741	6220
924.849	5360
924.956	5520
925.064	5315
925.172	5288
925.279	5296
925.387	5364
925.494	5303
925.602	5406
925.709	5410
925.816	5303
925.924	5349
926.031	5360
926.138	5345
926.245	5307
926.352	5284
926.459	5299
926.566	5318
926.673	5246
926.779	5121
926.886	5098
926.993	5045
927.099	5037
927.206	5010
927.312	5003
927.419	5041
927.525	5033
927.631	4991
927.737	4877
927.843	4889
927.95	4774
928.056	4763
928.162	4847
928.267	4873
928.373	5387
928.479	4828
928.585	4672
928.69	4786
928.796	4740
928.901	4725
929.007	4618
929.112	4637
929.218	4626
929.323	4653
929.428	4519
929.533	4637
929.638	4569
929.743	4550
929.848	4523
929.953	4455
930.058	4451
930.163	4341
930.267	4329
930.372	4409
930.477	4314
930.581	4440
930.685	4348
930.79	4223
930.894	4272
930.998	4246
931.103	4363
931.207	4131
931.311	4074
931.415	4021
931.519	3930
931.623	3979
