Data from glass_V78500241_2569.txt Node
Date: Wed Sep 01 19:32:18 CST 2021
User: usil
Spectrometer: V785-0024
Trigger mode: 0
Integration Time (sec): 4.000000E-1
Scans to average: 1
Nonlinearity correction enabled: false
Boxcar width: 0
Storing dark spectrum: false
XAxis mode: Wavelengths
Number of Pixels in Spectrum: 1024
>>>>>Begin Spectral Data<<<<<
801.071	3770
801.214	3736
801.356	3709
801.499	3740
801.641	3743
801.783	3812
801.926	3888
802.068	3785
802.211	3842
802.353	3899
802.496	3793
802.638	3846
802.78	3876
802.923	3945
803.065	3892
803.208	3838
803.35	3888
803.492	3918
803.635	3922
803.777	3804
803.919	3865
804.061	4143
804.204	3934
804.346	3964
804.488	3896
804.63	4029
804.773	3926
804.915	4055
805.057	4109
805.199	4086
805.341	4051
805.483	4116
805.626	4131
805.768	4063
805.91	4158
806.052	4219
806.194	4181
806.336	4360
806.478	4192
806.62	4150
806.762	4131
806.904	4257
807.046	4303
807.188	4223
807.33	4177
807.472	4223
807.614	4200
807.756	4261
807.898	4177
808.04	4181
808.182	4265
808.324	4322
808.465	4363
808.607	4462
808.749	4451
808.891	4424
809.033	4508
809.174	4409
809.316	4215
809.458	4230
809.6	4150
809.741	4173
809.883	4112
810.025	4215
810.166	4200
810.308	4200
810.45	4253
810.591	4257
810.733	4299
810.875	4523
811.016	4809
811.158	5109
811.299	5299
811.441	5269
811.582	5079
811.724	4664
811.865	4455
812.007	4455
812.148	4405
812.29	4405
812.431	4398
812.573	4398
812.714	4310
812.855	4394
812.997	4432
813.138	4440
813.279	4447
813.421	4402
813.562	4341
813.703	4360
813.845	4333
813.986	4249
814.127	4185
814.268	4257
814.41	4276
814.551	4310
814.692	4306
814.833	4310
814.974	4299
815.115	4303
815.256	4265
815.397	4227
815.539	4238
815.68	4238
815.821	4219
815.962	4310
816.103	4303
816.244	4211
816.385	4196
816.526	4284
816.666	4192
816.807	4105
816.948	4166
817.089	4173
817.23	4093
817.371	4029
817.512	4063
817.653	4021
817.793	4032
817.934	4051
818.075	4116
818.216	4063
818.356	4059
818.497	3994
818.638	3850
818.778	3968
818.919	3876
819.06	3838
819.2	3888
819.341	3854
819.481	3835
819.622	3892
819.762	3975
819.903	3945
820.043	3819
820.184	3835
820.324	3778
820.465	3884
820.605	3869
820.746	3873
820.886	3785
821.026	3915
821.167	3934
821.307	3960
821.447	3956
821.588	3922
821.728	3907
821.868	3937
822.008	3827
822.149	3903
822.289	3899
822.429	3720
822.569	3789
822.709	3785
822.849	3701
822.99	3675
823.13	3701
823.27	3766
823.41	3694
823.55	3740
823.69	3724
823.83	3724
823.97	3614
824.11	3580
824.25	3553
824.389	3618
824.529	3656
824.669	3622
824.809	3679
824.949	3759
825.089	3724
825.228	3679
825.368	3564
825.508	3553
825.648	3576
825.787	3564
825.927	3618
826.067	3618
826.206	3679
826.346	3747
826.485	3816
826.625	3869
826.765	3918
826.904	3861
827.044	3561
827.183	3538
827.323	3454
827.462	3485
827.601	3386
827.741	3370
827.88	3481
828.02	3386
828.159	3393
828.298	3473
828.437	3504
828.577	3473
828.716	3553
828.855	3485
828.994	3370
829.134	3325
829.273	3344
829.412	3329
829.551	3351
829.69	3325
829.829	3405
829.968	3523
830.107	3412
830.246	3424
830.385	3332
830.524	3389
830.663	3287
830.802	3264
830.941	3180
831.08	3203
831.219	3233
831.357	3272
831.496	3378
831.635	3188
831.774	3176
831.913	3180
832.051	3157
832.19	3173
832.329	3154
832.467	3154
832.606	3066
832.744	3150
832.883	3169
833.022	3195
833.16	3260
833.299	3294
833.437	3336
833.576	3370
833.714	3424
833.852	3439
833.991	3424
834.129	3458
834.267	3386
834.406	3393
834.544	3374
834.682	3393
834.821	3435
834.959	3557
835.097	3389
835.235	3462
835.373	3496
835.511	3500
835.65	3462
835.788	3481
835.926	3367
836.064	3370
836.202	3374
836.34	3557
836.478	3599
836.615	3526
836.753	3595
836.891	3618
837.029	3603
837.167	3591
837.305	3561
837.443	3526
837.58	3511
837.718	3595
837.856	3523
837.993	3534
838.131	3584
838.269	3564
838.406	3561
838.544	3553
838.681	3450
838.819	3477
838.956	3359
839.094	3367
839.231	3401
839.369	3519
839.506	3701
839.643	3618
839.781	3488
839.918	3447
840.055	3500
840.193	3507
840.33	3492
840.467	3568
840.604	3584
840.742	3819
840.879	3549
841.016	3511
841.153	3561
841.29	3747
841.427	3667
841.564	3709
841.701	3698
841.838	3698
841.975	3701
842.112	3709
842.249	3603
842.385	3675
842.522	3804
842.659	3713
842.796	3663
842.933	3709
843.069	3694
843.206	3736
843.343	3831
843.479	3812
843.616	3808
843.752	3675
843.889	3656
844.025	3869
844.162	3675
844.298	3842
844.435	3800
844.571	3740
844.708	3896
844.844	3975
844.98	4006
845.117	3987
845.253	3869
845.389	3857
845.525	3987
845.661	3964
845.798	3876
845.934	3994
846.07	3953
846.206	4048
846.342	4074
846.478	4086
846.614	3972
846.75	3892
846.886	3907
847.022	4013
847.158	3945
847.294	3926
847.429	4029
847.565	3964
847.701	4207
847.837	3896
847.972	3842
848.108	3972
848.244	3956
848.379	3854
848.515	3819
848.65	3816
848.786	3816
848.921	3850
849.057	3926
849.192	3934
849.328	3899
849.463	3911
849.598	3850
849.734	3812
849.869	3857
850.004	3759
850.14	3816
850.275	3774
850.41	3762
850.545	3736
850.68	3816
850.815	3808
850.95	3751
851.085	3937
851.22	3857
851.355	3861
851.49	3827
851.625	3800
851.76	3812
851.895	3709
852.03	3728
852.165	3793
852.299	3857
852.434	3926
852.569	3888
852.703	3857
852.838	3949
852.973	4006
853.107	3979
853.242	3865
853.376	3827
853.511	3774
853.645	3835
853.78	3987
853.914	3903
854.048	3861
854.183	3854
854.317	3926
854.451	4063
854.585	3998
854.72	3915
854.854	4006
854.988	3884
855.122	3968
855.256	3945
855.39	3991
855.524	4090
855.658	4074
855.792	4109
855.926	4135
856.06	4166
856.194	4200
856.327	4101
856.461	4124
856.595	4158
856.729	4166
856.862	4287
856.996	4192
857.13	4253
857.263	4272
857.397	4318
857.53	4306
857.664	4360
857.797	4383
857.931	4424
858.064	4371
858.197	4436
858.331	4421
858.464	4405
858.597	4344
858.731	4409
858.864	4440
858.997	4493
859.13	4493
859.263	4527
859.396	4596
859.529	4527
859.662	4504
859.795	4493
859.928	4611
860.061	4683
860.194	4755
860.327	4615
860.46	4645
860.592	4729
860.725	4710
860.858	4736
860.99	4733
861.123	4660
861.256	4687
861.388	4771
861.521	5372
861.653	4706
861.786	4717
861.918	4752
862.05	4801
862.183	4801
862.315	4885
862.447	4877
862.58	4835
862.712	4786
862.844	4759
862.976	4839
863.108	4862
863.24	5201
863.372	4828
863.504	4908
863.636	4908
863.768	4953
863.9	4949
864.032	4911
864.164	4949
864.296	5010
864.428	5109
864.559	5128
864.691	5060
864.823	5143
864.954	5075
865.086	5170
865.217	5128
865.349	5060
865.48	5170
865.612	5151
865.743	5235
865.875	5136
866.006	5170
866.137	5254
866.269	5273
866.4	5265
866.531	5181
866.662	5242
866.793	5273
866.924	5284
867.055	5353
867.186	5334
867.317	5258
867.448	5318
867.579	5345
867.71	5364
867.841	5360
867.972	5455
868.103	5448
868.233	5448
868.364	5535
868.495	5539
868.625	5646
868.756	5790
868.886	5646
869.017	5729
869.147	5904
869.278	5866
869.408	5794
869.539	5836
869.669	5908
869.799	5920
869.929	5988
870.06	6038
870.19	6186
870.32	6159
870.45	6266
870.58	6338
870.71	6418
870.84	6448
870.97	6426
871.1	6399
871.23	6627
871.36	6665
871.489	6684
871.619	6707
871.749	6840
871.879	6833
872.008	6928
872.138	6970
872.267	6973
872.397	7015
872.526	6981
872.656	7080
872.785	7259
872.915	7445
873.044	7464
873.173	7586
873.303	7655
873.432	7837
873.561	7902
873.69	7921
873.819	7982
873.948	8096
874.077	8191
874.206	8385
874.335	8484
874.464	8708
874.593	8834
874.722	8998
874.851	9112
874.979	9264
875.108	9374
875.237	9469
875.365	9481
875.494	9633
875.623	9770
875.751	9850
875.88	10071
876.008	10166
876.136	10272
876.265	10516
876.393	10763
876.521	10672
876.65	10771
876.778	10877
876.906	10877
877.034	10911
877.162	11022
877.29	11140
877.418	11299
877.546	11265
877.674	11436
877.802	11535
877.93	11509
878.058	11573
878.185	11589
878.313	11642
878.441	11737
878.568	11672
878.696	11783
878.824	11931
878.951	11923
879.079	11969
879.206	12125
879.333	12041
879.461	12003
879.588	12125
879.715	12003
879.842	12270
879.97	12041
880.097	11916
880.224	11942
880.351	11946
880.478	11828
880.605	11878
880.732	11904
880.859	11912
880.986	11752
881.112	11859
881.239	11733
881.366	11630
881.493	11661
881.619	11573
881.746	11532
881.872	11551
881.999	11547
882.125	11493
882.252	11543
882.378	11436
882.505	11554
882.631	11334
882.757	11296
882.883	11292
883.01	11273
883.136	11201
883.262	11102
883.388	11060
883.514	11189
883.64	11181
883.766	11098
883.892	11014
884.018	11010
884.143	10987
884.269	11136
884.395	10843
884.52	10748
884.646	10744
884.772	10637
884.897	10626
885.023	10622
885.148	10672
885.274	10771
885.399	10630
885.524	10656
885.65	10573
885.775	10577
885.9	10493
886.025	10558
886.15	10546
886.275	10481
886.4	10360
886.525	10386
886.65	10402
886.775	10299
886.9	10478
887.025	10569
887.149	10371
887.274	10230
887.399	10185
887.523	10223
887.648	10135
887.773	10093
887.897	10257
888.021	10192
888.146	10147
888.27	10230
888.395	10211
888.519	10120
888.643	10109
888.767	10257
888.891	10048
889.015	10017
889.139	10002
889.263	9949
889.387	10067
889.511	10128
889.635	9983
889.759	9888
889.883	9960
890.006	9983
890.13	10082
890.254	9934
890.377	9854
890.501	9751
890.624	9831
890.748	9842
890.871	9774
890.995	9781
891.118	9720
891.241	9766
891.364	9671
891.488	9774
891.611	9740
891.734	9762
891.857	9785
891.98	9717
892.103	9762
892.226	9663
892.349	9671
892.471	9424
892.594	9519
892.717	9633
892.839	9561
892.962	9656
893.085	9641
893.207	9549
893.33	9477
893.452	9511
893.575	9561
893.697	9515
893.819	9637
893.941	9618
894.064	9603
894.186	9420
894.308	9428
894.43	9549
894.552	9542
894.674	9526
894.796	9401
894.918	9348
895.04	9355
895.161	9424
895.283	9313
895.405	9207
895.526	9287
895.648	9218
895.769	9313
895.891	9272
896.012	9272
896.134	9199
896.255	9199
896.376	9085
896.498	9066
896.619	9184
896.74	9104
896.861	9032
896.982	9317
897.103	9317
897.224	9135
897.345	9081
897.466	9055
897.587	9005
897.708	9062
897.828	8982
897.949	8891
898.07	8872
898.19	8853
898.311	9024
898.431	8857
898.552	8868
898.672	8925
898.792	8914
898.913	8842
899.033	8804
899.153	8716
899.273	8651
899.393	8625
899.513	8785
899.633	8689
899.753	8724
899.873	8701
899.993	8792
900.113	8651
900.232	8636
900.352	8594
900.472	8556
900.591	8560
900.711	8617
900.83	8484
900.95	8625
901.069	8712
901.189	8545
901.308	8408
901.427	8423
901.546	8412
901.665	8469
901.784	8454
901.904	8336
902.023	8351
902.141	8252
902.26	8199
902.379	8339
902.498	8183
902.617	8221
902.735	8282
902.854	8267
902.973	8221
903.091	8115
903.21	8100
903.328	8069
903.446	8183
903.565	8123
903.683	8084
903.801	8062
903.919	8107
904.038	8130
904.156	8008
904.274	8069
904.392	8020
904.51	8081
904.627	7982
904.745	8073
904.863	8035
904.981	7902
905.098	7890
905.216	7871
905.334	7883
905.451	7967
905.569	7868
905.686	7909
905.803	7845
905.921	7757
906.038	7852
906.155	7734
906.272	7700
906.389	7693
906.506	7575
906.623	7662
906.74	7609
906.857	7575
906.974	7571
907.091	7685
907.208	7738
907.324	7685
907.441	7552
907.557	7438
907.674	7476
907.79	7403
907.907	7407
908.023	7415
908.139	7426
908.256	7369
908.372	7350
908.488	7339
908.604	7247
908.72	7217
908.836	7247
908.952	7244
909.068	7285
909.184	7301
909.3	7209
909.415	7282
909.531	7308
909.647	7103
909.762	7107
909.878	7110
909.993	7046
910.108	7110
910.224	7069
910.339	7038
910.454	7091
910.57	7046
910.685	6989
910.8	7183
910.915	7137
911.03	7015
911.145	6913
911.259	6890
911.374	6818
911.489	6840
911.604	6795
911.718	6684
911.833	6749
911.947	6604
912.062	6566
912.176	6700
912.291	6681
912.405	6673
912.519	6810
912.633	6856
912.748	6642
912.862	6646
912.976	6627
913.09	6525
913.204	6578
913.318	6509
913.431	6646
913.545	6711
913.659	6726
913.772	6707
913.886	6547
914	6601
914.113	6566
914.226	6631
914.34	6616
914.453	6479
914.566	6582
914.68	6551
914.793	6483
914.906	6502
915.019	6490
915.132	6391
915.245	6372
915.358	6433
915.47	6384
915.583	6452
915.696	6448
915.809	6494
915.921	6544
916.034	6422
916.146	6384
916.259	6327
916.371	6437
916.483	6395
916.595	6445
916.708	6342
916.82	6357
916.932	6388
917.044	6315
917.156	6391
917.268	6296
917.38	6315
917.491	6369
917.603	6342
917.715	6376
917.826	6418
917.938	6311
918.049	6285
918.161	6403
918.272	6357
918.384	6418
918.495	6292
918.606	6216
918.717	6175
918.828	6209
918.939	6235
919.05	6182
919.161	6216
919.272	6121
919.383	6186
919.494	6277
919.604	6384
919.715	6308
919.826	6182
919.936	6232
920.047	6384
920.157	6273
920.267	6369
920.378	6357
920.488	6327
920.598	6460
920.708	6547
920.818	6429
920.928	6467
921.038	6578
921.148	6578
921.258	6331
921.368	6308
921.477	6277
921.587	6182
921.697	6129
921.806	6186
921.916	6091
922.025	5992
922.134	5908
922.244	5916
922.353	5992
922.462	5794
922.571	5752
922.68	5665
922.789	5604
922.898	5714
923.007	5630
923.116	5665
923.224	5695
923.333	5646
923.442	5592
923.55	5585
923.659	5608
923.767	5630
923.876	5516
923.984	5554
924.092	5463
924.201	5558
924.309	5585
924.417	5543
924.525	5448
924.633	5486
924.741	6247
924.849	5334
924.956	5459
925.064	5383
925.172	5360
925.279	5265
925.387	5292
925.494	5330
925.602	5406
925.709	5330
925.816	5265
925.924	5318
926.031	5318
926.138	5311
926.245	5368
926.352	5231
926.459	5357
926.566	5292
926.673	5216
926.779	5166
926.886	5121
926.993	5041
927.099	4976
927.206	4987
927.312	4915
927.419	4980
927.525	4984
927.631	4961
927.737	4885
927.843	4812
927.95	4763
928.056	4824
928.162	4828
928.267	4774
928.373	5265
928.479	4858
928.585	4675
928.69	4733
928.796	4717
928.901	4706
929.007	4577
929.112	4645
929.218	4634
929.323	4569
929.428	4535
929.533	4649
929.638	4535
929.743	4538
929.848	4558
929.953	4519
930.058	4379
930.163	4318
930.267	4341
930.372	4394
930.477	4295
930.581	4470
930.685	4341
930.79	4215
930.894	4287
930.998	4242
931.103	4322
931.207	4128
931.311	4090
931.415	4082
931.519	3915
931.623	3880
