Data from glass_V78500241_2807.txt Node
Date: Wed Sep 01 19:33:57 CST 2021
User: usil
Spectrometer: V785-0024
Trigger mode: 0
Integration Time (sec): 4.000000E-1
Scans to average: 1
Nonlinearity correction enabled: false
Boxcar width: 0
Storing dark spectrum: false
XAxis mode: Wavelengths
Number of Pixels in Spectrum: 1024
>>>>>Begin Spectral Data<<<<<
801.071	3713
801.214	3747
801.356	3724
801.499	3747
801.641	3709
801.783	3736
801.926	3827
802.068	3850
802.211	3835
802.353	3876
802.496	3838
802.638	3892
802.78	3892
802.923	3899
803.065	3892
803.208	3823
803.35	3854
803.492	3880
803.635	3884
803.777	3797
803.919	3854
804.061	4116
804.204	3937
804.346	3972
804.488	3903
804.63	4025
804.773	3945
804.915	3991
805.057	4139
805.199	4006
805.341	4082
805.483	4101
805.626	4128
805.768	4071
805.91	4211
806.052	4211
806.194	4196
806.336	4318
806.478	4207
806.62	4139
806.762	4207
806.904	4227
807.046	4310
807.188	4246
807.33	4185
807.472	4227
807.614	4143
807.756	4227
807.898	4204
808.04	4219
808.182	4234
808.324	4303
808.465	4348
808.607	4443
808.749	4428
808.891	4402
809.033	4424
809.174	4398
809.316	4272
809.458	4188
809.6	4135
809.741	4128
809.883	4101
810.025	4200
810.166	4234
810.308	4166
810.45	4227
810.591	4238
810.733	4272
810.875	4550
811.016	4824
811.158	5147
811.299	5227
811.441	5288
811.582	5086
811.724	4691
811.865	4432
812.007	4485
812.148	4356
812.29	4344
812.431	4383
812.573	4375
812.714	4363
812.855	4379
812.997	4409
813.138	4440
813.279	4394
813.421	4405
813.562	4383
813.703	4303
813.845	4344
813.986	4242
814.127	4200
814.268	4230
814.41	4295
814.551	4261
814.692	4333
814.833	4204
814.974	4291
815.115	4344
815.256	4230
815.397	4223
815.539	4204
815.68	4196
815.821	4246
815.962	4268
816.103	4265
816.244	4196
816.385	4204
816.526	4291
816.666	4200
816.807	4097
816.948	4135
817.089	4154
817.23	4124
817.371	4025
817.512	4044
817.653	4078
817.793	4025
817.934	3987
818.075	4082
818.216	4063
818.356	4048
818.497	4044
818.638	3930
818.778	3888
818.919	3850
819.06	3842
819.2	3945
819.341	3808
819.481	3812
819.622	3899
819.762	4010
819.903	3896
820.043	3823
820.184	3789
820.324	3812
820.465	3873
820.605	3869
820.746	3838
820.886	3816
821.026	3937
821.167	3899
821.307	3968
821.447	3911
821.588	3903
821.728	3934
821.868	3907
822.008	3854
822.149	3892
822.289	3915
822.429	3762
822.569	3766
822.709	3789
822.849	3656
822.99	3679
823.13	3724
823.27	3789
823.41	3705
823.55	3717
823.69	3713
823.83	3713
823.97	3614
824.11	3584
824.25	3557
824.389	3625
824.529	3641
824.669	3622
824.809	3705
824.949	3766
825.089	3720
825.228	3652
825.368	3584
825.508	3534
825.648	3542
825.787	3591
825.927	3576
826.067	3576
826.206	3629
826.346	3743
826.485	3812
826.625	3816
826.765	3922
826.904	3873
827.044	3614
827.183	3515
827.323	3435
827.462	3473
827.601	3389
827.741	3412
827.88	3424
828.02	3355
828.159	3409
828.298	3439
828.437	3496
828.577	3447
828.716	3568
828.855	3488
828.994	3351
829.134	3374
829.273	3374
829.412	3340
829.551	3291
829.69	3363
829.829	3405
829.968	3504
830.107	3409
830.246	3416
830.385	3348
830.524	3306
830.663	3279
830.802	3287
830.941	3180
831.08	3199
831.219	3268
831.357	3253
831.496	3367
831.635	3173
831.774	3150
831.913	3188
832.051	3127
832.19	3138
832.329	3180
832.467	3097
832.606	3089
832.744	3157
832.883	3142
833.022	3154
833.16	3226
833.299	3203
833.437	3378
833.576	3359
833.714	3386
833.852	3416
833.991	3435
834.129	3458
834.267	3458
834.406	3393
834.544	3439
834.682	3416
834.821	3405
834.959	3545
835.097	3409
835.235	3492
835.373	3443
835.511	3481
835.65	3428
835.788	3431
835.926	3355
836.064	3416
836.202	3378
836.34	3542
836.478	3564
836.615	3523
836.753	3572
836.891	3606
837.029	3564
837.167	3561
837.305	3576
837.443	3526
837.58	3481
837.718	3606
837.856	3492
837.993	3515
838.131	3549
838.269	3557
838.406	3584
838.544	3538
838.681	3466
838.819	3439
838.956	3332
839.094	3378
839.231	3412
839.369	3519
839.506	3720
839.643	3633
839.781	3488
839.918	3428
840.055	3534
840.193	3511
840.33	3500
840.467	3542
840.604	3515
840.742	3785
840.879	3534
841.016	3564
841.153	3584
841.29	3732
841.427	3694
841.564	3717
841.701	3717
841.838	3656
841.975	3671
842.112	3690
842.249	3656
842.385	3614
842.522	3838
842.659	3644
842.796	3637
842.933	3701
843.069	3682
843.206	3717
843.343	3797
843.479	3778
843.616	3781
843.752	3667
843.889	3671
844.025	3842
844.162	3675
844.298	3812
844.435	3797
844.571	3751
844.708	3918
844.844	3960
844.98	3975
845.117	4010
845.253	3922
845.389	3922
845.525	3953
845.661	3922
845.798	3911
845.934	3979
846.07	3918
846.206	4006
846.342	4048
846.478	4040
846.614	3960
846.75	3918
846.886	3846
847.022	4044
847.158	3975
847.294	3972
847.429	4032
847.565	3983
847.701	4188
847.837	3850
847.972	3846
848.108	3922
848.244	3934
848.379	3857
848.515	3816
848.65	3774
848.786	3842
848.921	3835
849.057	3930
849.192	3934
849.328	3888
849.463	3922
849.598	3861
849.734	3884
849.869	3812
850.004	3789
850.14	3770
850.275	3762
850.41	3747
850.545	3732
850.68	3762
850.815	3774
850.95	3762
851.085	3953
851.22	3915
851.355	3800
851.49	3755
851.625	3747
851.76	3781
851.895	3705
852.03	3705
852.165	3778
852.299	3861
852.434	3884
852.569	3861
852.703	3857
852.838	3869
852.973	3968
853.107	3975
853.242	3899
853.376	3823
853.511	3747
853.645	3819
853.78	3972
853.914	3922
854.048	3865
854.183	3888
854.317	3964
854.451	4063
854.585	3949
854.72	3934
854.854	4002
854.988	3892
855.122	3987
855.256	3899
855.39	4002
855.524	4131
855.658	4029
855.792	4059
855.926	4120
856.06	4147
856.194	4227
856.327	4059
856.461	4097
856.595	4128
856.729	4112
856.862	4272
856.996	4230
857.13	4227
857.263	4287
857.397	4375
857.53	4287
857.664	4371
857.797	4333
857.931	4390
858.064	4379
858.197	4352
858.331	4390
858.464	4386
858.597	4333
858.731	4405
858.864	4462
858.997	4489
859.13	4546
859.263	4519
859.396	4546
859.529	4451
859.662	4527
859.795	4516
859.928	4550
860.061	4656
860.194	4740
860.327	4630
860.46	4622
860.592	4683
860.725	4733
860.858	4786
860.99	4672
861.123	4641
861.256	4649
861.388	4748
861.521	5212
861.653	4706
861.786	4668
861.918	4687
862.05	4755
862.183	4850
862.315	4835
862.447	4900
862.58	4873
862.712	4778
862.844	4786
862.976	4828
863.108	4904
863.24	5178
863.372	4809
863.504	4900
863.636	4877
863.768	4908
863.9	4930
864.032	4873
864.164	4942
864.296	5048
864.428	5064
864.559	5071
864.691	5128
864.823	5094
864.954	5105
865.086	5117
865.217	5121
865.349	5117
865.48	5181
865.612	5223
865.743	5303
865.875	5193
866.006	5185
866.137	5181
866.269	5273
866.4	5246
866.531	5216
866.662	5212
866.793	5273
866.924	5254
867.055	5288
867.186	5296
867.317	5334
867.448	5296
867.579	5334
867.71	5326
867.841	5387
867.972	5429
868.103	5455
868.233	5501
868.364	5497
868.495	5532
868.625	5665
868.756	5828
868.886	5672
869.017	5665
869.147	5855
869.278	5798
869.408	5745
869.539	5866
869.669	5847
869.799	5901
869.929	6041
870.06	6019
870.19	6148
870.32	6190
870.45	6273
870.58	6380
870.71	6369
870.84	6426
870.97	6407
871.1	6464
871.23	6604
871.36	6700
871.489	6650
871.619	6707
871.749	6818
871.879	6852
872.008	6958
872.138	6924
872.267	6996
872.397	7004
872.526	7019
872.656	7118
872.785	7149
872.915	7381
873.044	7491
873.173	7495
873.303	7693
873.432	7776
873.561	7841
873.69	7887
873.819	7967
873.948	8172
874.077	8275
874.206	8305
874.335	8362
874.464	8621
874.593	8887
874.722	8956
874.851	9150
874.979	9226
875.108	9416
875.237	9397
875.365	9420
875.494	9618
875.623	9816
875.751	9823
875.88	9937
876.008	10063
876.136	10166
876.265	10481
876.393	10622
876.521	10733
876.65	10771
876.778	10824
876.906	10873
877.034	10900
877.162	11086
877.29	11155
877.418	11189
877.546	11311
877.674	11467
877.802	11440
877.93	11482
878.058	11512
878.185	11528
878.313	11665
878.441	11741
878.568	11619
878.696	11729
878.824	11866
878.951	11946
879.079	11961
879.206	12125
879.333	12049
879.461	11912
879.588	12057
879.715	11973
879.842	12228
879.97	11958
880.097	11908
880.224	11794
880.351	11866
880.478	11939
880.605	11832
880.732	11710
880.859	11999
880.986	11779
881.112	11832
881.239	11722
881.366	11668
881.493	11592
881.619	11512
881.746	11532
881.872	11471
881.999	11497
882.125	11471
882.252	11646
882.378	11455
882.505	11577
882.631	11360
882.757	11231
882.883	11265
883.01	11258
883.136	11162
883.262	11136
883.388	11086
883.514	11223
883.64	11178
883.766	11037
883.892	10991
884.018	11014
884.143	11067
884.269	11064
884.395	10824
884.52	10675
884.646	10725
884.772	10668
884.897	10733
885.023	10660
885.148	10698
885.274	10683
885.399	10546
885.524	10596
885.65	10615
885.775	10626
885.9	10546
886.025	10599
886.15	10523
886.275	10508
886.4	10348
886.525	10390
886.65	10287
886.775	10341
886.9	10470
887.025	10497
887.149	10348
887.274	10147
887.399	10192
887.523	10249
887.648	10204
887.773	10181
887.897	10261
888.021	10177
888.146	10116
888.27	10185
888.395	10211
888.519	10169
888.643	10120
888.767	10215
888.891	10017
889.015	10006
889.139	10059
889.263	9937
889.387	9968
889.511	10025
889.635	10006
889.759	9941
889.883	9915
890.006	9953
890.13	10124
890.254	9895
890.377	9926
890.501	9850
890.624	9842
890.748	9892
890.871	9876
890.995	9812
891.118	9823
891.241	9717
891.364	9736
891.488	9880
891.611	9762
891.734	9667
891.857	9728
891.98	9633
892.103	9698
892.226	9701
892.349	9663
892.471	9473
892.594	9625
892.717	9557
892.839	9625
892.962	9580
893.085	9679
893.207	9564
893.33	9439
893.452	9538
893.575	9606
893.697	9412
893.819	9519
893.941	9641
894.064	9534
894.186	9450
894.308	9412
894.43	9507
894.552	9538
894.674	9523
894.796	9439
894.918	9382
895.04	9332
895.161	9313
895.283	9321
895.405	9138
895.526	9272
895.648	9275
895.769	9154
895.891	9165
896.012	9268
896.134	9249
896.255	9176
896.376	9066
896.498	9230
896.619	9093
896.74	9055
896.861	9066
896.982	9245
897.103	9359
897.224	9131
897.345	9093
897.466	8979
897.587	8990
897.708	9074
897.828	8967
897.949	8887
898.07	8895
898.19	8906
898.311	8979
898.431	8941
898.552	8921
898.672	8975
898.792	8967
898.913	8830
899.033	8819
899.153	8701
899.273	8640
899.393	8689
899.513	8720
899.633	8773
899.753	8682
899.873	8678
899.993	8712
900.113	8670
900.232	8663
900.352	8564
900.472	8610
900.591	8545
900.711	8511
900.83	8473
900.95	8640
901.069	8644
901.189	8552
901.308	8408
901.427	8343
901.546	8434
901.665	8446
901.784	8465
901.904	8313
902.023	8374
902.141	8275
902.26	8206
902.379	8301
902.498	8210
902.617	8229
902.735	8225
902.854	8248
902.973	8237
903.091	8100
903.21	8115
903.328	8210
903.446	8092
903.565	8069
903.683	8088
903.801	8046
903.919	8081
904.038	8126
904.156	8008
904.274	8046
904.392	7993
904.51	8077
904.627	8043
904.745	8058
904.863	8073
904.981	7917
905.098	7837
905.216	7875
905.334	7875
905.451	7963
905.569	7795
905.686	7913
905.803	7868
905.921	7765
906.038	7860
906.155	7795
906.272	7708
906.389	7670
906.506	7605
906.623	7628
906.74	7548
906.857	7480
906.974	7594
907.091	7662
907.208	7685
907.324	7628
907.441	7537
907.557	7483
907.674	7460
907.79	7369
907.907	7422
908.023	7460
908.139	7373
908.256	7377
908.372	7358
908.488	7331
908.604	7255
908.72	7232
908.836	7202
908.952	7251
909.068	7194
909.184	7247
909.3	7232
909.415	7305
909.531	7251
909.647	7095
909.762	7118
909.878	7053
909.993	7122
910.108	7027
910.224	7019
910.339	7015
910.454	7050
910.57	7008
910.685	6924
910.8	7133
910.915	7114
911.03	7012
911.145	6897
911.259	6943
911.374	6844
911.489	6768
911.604	6810
911.718	6749
911.833	6753
911.947	6646
912.062	6620
912.176	6639
912.291	6681
912.405	6684
912.519	6848
912.633	6844
912.748	6642
912.862	6684
912.976	6620
913.09	6467
913.204	6566
913.318	6593
913.431	6658
913.545	6601
913.659	6738
913.772	6700
913.886	6517
914	6475
914.113	6585
914.226	6623
914.34	6597
914.453	6479
914.566	6635
914.68	6494
914.793	6540
914.906	6395
915.019	6441
915.132	6422
915.245	6369
915.358	6414
915.47	6433
915.583	6494
915.696	6483
915.809	6528
915.921	6547
916.034	6422
916.146	6384
916.259	6350
916.371	6460
916.483	6437
916.595	6304
916.708	6365
916.82	6380
916.932	6323
917.044	6361
917.156	6361
917.268	6273
917.38	6277
917.491	6289
917.603	6315
917.715	6391
917.826	6334
917.938	6311
918.049	6228
918.161	6304
918.272	6441
918.384	6414
918.495	6372
918.606	6220
918.717	6243
918.828	6239
918.939	6292
919.05	6155
919.161	6262
919.272	6106
919.383	6136
919.494	6216
919.604	6422
919.715	6258
919.826	6247
919.936	6235
920.047	6289
920.157	6285
920.267	6441
920.378	6319
920.488	6315
920.598	6410
920.708	6540
920.818	6426
920.928	6407
921.038	6574
921.148	6547
921.258	6315
921.368	6308
921.477	6175
921.587	6140
921.697	6053
921.806	6159
921.916	6034
922.025	5855
922.134	5863
922.244	5832
922.353	5923
922.462	5832
922.571	5722
922.68	5707
922.789	5653
922.898	5665
923.007	5638
923.116	5657
923.224	5676
923.333	5646
923.442	5615
923.55	5551
923.659	5573
923.767	5604
923.876	5452
923.984	5615
924.092	5535
924.201	5509
924.309	5516
924.417	5577
924.525	5520
924.633	5440
924.741	6258
924.849	5360
924.956	5459
925.064	5376
925.172	5280
925.279	5246
925.387	5326
925.494	5349
925.602	5395
925.709	5376
925.816	5280
925.924	5296
926.031	5337
926.138	5292
926.245	5299
926.352	5189
926.459	5345
926.566	5292
926.673	5181
926.779	5094
926.886	5033
926.993	5018
927.099	4953
927.206	4923
927.312	4889
927.419	5045
927.525	4995
927.631	5006
927.737	4873
927.843	4858
927.95	4733
928.056	4854
928.162	4752
928.267	4797
928.373	5273
928.479	4835
928.585	4653
928.69	4740
928.796	4774
928.901	4641
929.007	4558
929.112	4641
929.218	4641
929.323	4588
929.428	4634
929.533	4668
929.638	4459
929.743	4504
929.848	4512
929.953	4478
930.058	4398
930.163	4325
930.267	4261
930.372	4348
930.477	4287
930.581	4417
930.685	4367
930.79	4219
930.894	4246
930.998	4299
931.103	4325
931.207	4086
931.311	4090
931.415	4010
931.519	3941
931.623	3922
