Data from glass_V78500241_1511.txt Node
Date: Wed Sep 01 19:24:58 CST 2021
User: usil
Spectrometer: V785-0024
Trigger mode: 0
Integration Time (sec): 4.000000E-1
Scans to average: 1
Nonlinearity correction enabled: false
Boxcar width: 0
Storing dark spectrum: false
XAxis mode: Wavelengths
Number of Pixels in Spectrum: 1024
>>>>>Begin Spectral Data<<<<<
801.071	3751
801.214	3701
801.356	3701
801.499	3774
801.641	3747
801.783	3781
801.926	3854
802.068	3812
802.211	3808
802.353	3857
802.496	3846
802.638	3842
802.78	3926
802.923	3930
803.065	3907
803.208	3876
803.35	3869
803.492	3854
803.635	3876
803.777	3819
803.919	3873
804.061	4158
804.204	3930
804.346	3949
804.488	3915
804.63	4029
804.773	3987
804.915	4044
805.057	4158
805.199	4032
805.341	4071
805.483	4173
805.626	4131
805.768	4090
805.91	4223
806.052	4238
806.194	4257
806.336	4329
806.478	4219
806.62	4173
806.762	4204
806.904	4242
807.046	4333
807.188	4215
807.33	4166
807.472	4253
807.614	4200
807.756	4287
807.898	4177
808.04	4207
808.182	4295
808.324	4325
808.465	4402
808.607	4497
808.749	4447
808.891	4485
809.033	4523
809.174	4379
809.316	4272
809.458	4234
809.6	4158
809.741	4185
809.883	4097
810.025	4200
810.166	4215
810.308	4223
810.45	4246
810.591	4280
810.733	4314
810.875	4516
811.016	4831
811.158	5147
811.299	5227
811.441	5261
811.582	5094
811.724	4691
811.865	4459
812.007	4474
812.148	4470
812.29	4443
812.431	4356
812.573	4394
812.714	4436
812.855	4375
812.997	4424
813.138	4497
813.279	4443
813.421	4348
813.562	4459
813.703	4303
813.845	4291
813.986	4265
814.127	4238
814.268	4287
814.41	4261
814.551	4280
814.692	4386
814.833	4280
814.974	4318
815.115	4363
815.256	4257
815.397	4242
815.539	4238
815.68	4181
815.821	4185
815.962	4322
816.103	4329
816.244	4227
816.385	4268
816.526	4261
816.666	4234
816.807	4109
816.948	4169
817.089	4131
817.23	4105
817.371	4093
817.512	4036
817.653	4101
817.793	4048
817.934	4055
818.075	4139
818.216	4074
818.356	4074
818.497	3960
818.638	3896
818.778	3941
818.919	3880
819.06	3903
819.2	3934
819.341	3846
819.481	3854
819.622	3926
819.762	4025
819.903	3953
820.043	3888
820.184	3861
820.324	3816
820.465	3892
820.605	3896
820.746	3876
820.886	3785
821.026	3892
821.167	3899
821.307	4029
821.447	4002
821.588	3968
821.728	3987
821.868	3899
822.008	3865
822.149	3888
822.289	3903
822.429	3800
822.569	3793
822.709	3759
822.849	3644
822.99	3740
823.13	3755
823.27	3766
823.41	3732
823.55	3724
823.69	3785
823.83	3720
823.97	3671
824.11	3641
824.25	3591
824.389	3614
824.529	3641
824.669	3652
824.809	3686
824.949	3709
825.089	3713
825.228	3743
825.368	3572
825.508	3580
825.648	3572
825.787	3622
825.927	3648
826.067	3549
826.206	3663
826.346	3797
826.485	3842
826.625	3861
826.765	3926
826.904	3823
827.044	3580
827.183	3511
827.323	3439
827.462	3447
827.601	3431
827.741	3443
827.88	3473
828.02	3351
828.159	3435
828.298	3496
828.437	3549
828.577	3447
828.716	3564
828.855	3507
828.994	3336
829.134	3378
829.273	3393
829.412	3321
829.551	3306
829.69	3332
829.829	3409
829.968	3488
830.107	3416
830.246	3420
830.385	3412
830.524	3393
830.663	3245
830.802	3253
830.941	3199
831.08	3199
831.219	3268
831.357	3249
831.496	3367
831.635	3237
831.774	3188
831.913	3192
832.051	3131
832.19	3157
832.329	3237
832.467	3135
832.606	3131
832.744	3199
832.883	3180
833.022	3214
833.16	3249
833.299	3313
833.437	3329
833.576	3336
833.714	3428
833.852	3412
833.991	3431
834.129	3466
834.267	3450
834.406	3420
834.544	3412
834.682	3428
834.821	3409
834.959	3545
835.097	3443
835.235	3488
835.373	3492
835.511	3507
835.65	3424
835.788	3500
835.926	3435
836.064	3401
836.202	3420
836.34	3580
836.478	3599
836.615	3507
836.753	3625
836.891	3663
837.029	3606
837.167	3580
837.305	3496
837.443	3542
837.58	3469
837.718	3568
837.856	3584
837.993	3538
838.131	3622
838.269	3576
838.406	3644
838.544	3534
838.681	3473
838.819	3462
838.956	3378
839.094	3431
839.231	3477
839.369	3519
839.506	3759
839.643	3591
839.781	3507
839.918	3447
840.055	3500
840.193	3488
840.33	3530
840.467	3576
840.604	3557
840.742	3778
840.879	3576
841.016	3576
841.153	3591
841.29	3751
841.427	3709
841.564	3728
841.701	3720
841.838	3728
841.975	3671
842.112	3755
842.249	3572
842.385	3603
842.522	3808
842.659	3709
842.796	3698
842.933	3698
843.069	3724
843.206	3747
843.343	3842
843.479	3800
843.616	3854
843.752	3694
843.889	3690
844.025	3854
844.162	3663
844.298	3861
844.435	3755
844.571	3804
844.708	3911
844.844	3979
844.98	4036
845.117	3991
845.253	3941
845.389	3888
845.525	3968
845.661	3937
845.798	3945
845.934	4029
846.07	3983
846.206	4025
846.342	4097
846.478	4101
846.614	3983
846.75	3918
846.886	3918
847.022	4036
847.158	3964
847.294	4013
847.429	3998
847.565	3983
847.701	4246
847.837	3873
847.972	3838
848.108	3987
848.244	3975
848.379	3892
848.515	3819
848.65	3876
848.786	3850
848.921	3857
849.057	3937
849.192	3987
849.328	3880
849.463	3922
849.598	3888
849.734	3876
849.869	3819
850.004	3797
850.14	3793
850.275	3797
850.41	3740
850.545	3774
850.68	3793
850.815	3766
850.95	3812
851.085	3949
851.22	3888
851.355	3797
851.49	3797
851.625	3816
851.76	3766
851.895	3774
852.03	3701
852.165	3797
852.299	3842
852.434	3930
852.569	3846
852.703	3876
852.838	3972
852.973	4013
853.107	3968
853.242	3907
853.376	3823
853.511	3766
853.645	3842
853.78	3964
853.914	3842
854.048	3903
854.183	3857
854.317	3941
854.451	4063
854.585	3975
854.72	3922
854.854	4036
854.988	3918
855.122	3983
855.256	3911
855.39	4017
855.524	4124
855.658	4090
855.792	4109
855.926	4139
856.06	4135
856.194	4196
856.327	4169
856.461	4101
856.595	4166
856.729	4169
856.862	4249
856.996	4227
857.13	4337
857.263	4306
857.397	4360
857.53	4265
857.664	4341
857.797	4440
857.931	4432
858.064	4428
858.197	4424
858.331	4417
858.464	4375
858.597	4379
858.731	4417
858.864	4451
858.997	4455
859.13	4504
859.263	4580
859.396	4592
859.529	4516
859.662	4538
859.795	4500
859.928	4550
860.061	4736
860.194	4725
860.327	4634
860.46	4668
860.592	4717
860.725	4801
860.858	4763
860.99	4687
861.123	4725
861.256	4710
861.388	4702
861.521	5444
861.653	4725
861.786	4710
861.918	4714
862.05	4790
862.183	4805
862.315	4919
862.447	4919
862.58	4911
862.712	4786
862.844	4763
862.976	4896
863.108	4896
863.24	5269
863.372	4809
863.504	4919
863.636	4835
863.768	4957
863.9	4987
864.032	4911
864.164	4961
864.296	5075
864.428	5102
864.559	5094
864.691	5079
864.823	5121
864.954	5117
865.086	5109
865.217	5174
865.349	5056
865.48	5201
865.612	5197
865.743	5254
865.875	5208
866.006	5208
866.137	5235
866.269	5197
866.4	5254
866.531	5231
866.662	5204
866.793	5292
866.924	5265
867.055	5364
867.186	5334
867.317	5269
867.448	5357
867.579	5334
867.71	5349
867.841	5410
867.972	5448
868.103	5471
868.233	5490
868.364	5493
868.495	5528
868.625	5676
868.756	5802
868.886	5695
869.017	5748
869.147	5904
869.278	5870
869.408	5817
869.539	5844
869.669	5920
869.799	5942
869.929	6019
870.06	5958
870.19	6209
870.32	6194
870.45	6285
870.58	6350
870.71	6384
870.84	6471
870.97	6410
871.1	6445
871.23	6635
871.36	6741
871.489	6612
871.619	6715
871.749	6779
871.879	6844
872.008	6939
872.138	6924
872.267	7008
872.397	6981
872.526	7076
872.656	7027
872.785	7190
872.915	7369
873.044	7521
873.173	7544
873.303	7655
873.432	7765
873.561	7868
873.69	7906
873.819	7947
873.948	8050
874.077	8324
874.206	8412
874.335	8511
874.464	8617
874.593	8899
874.722	8861
874.851	9093
874.979	9321
875.108	9386
875.237	9382
875.365	9504
875.494	9595
875.623	9854
875.751	9911
875.88	10025
876.008	10112
876.136	10344
876.265	10493
876.393	10656
876.521	10691
876.65	10774
876.778	10911
876.906	10968
877.034	10919
877.162	11151
877.29	11147
877.418	11261
877.546	11376
877.674	11471
877.802	11493
877.93	11543
878.058	11562
878.185	11528
878.313	11699
878.441	11729
878.568	11668
878.696	11847
878.824	11828
878.951	11878
879.079	12011
879.206	12117
879.333	12178
879.461	12011
879.588	12095
879.715	12095
879.842	12213
879.97	12144
880.097	11889
880.224	11942
880.351	11874
880.478	11821
880.605	11775
880.732	11824
880.859	12049
880.986	11882
881.112	11798
881.239	11691
881.366	11638
881.493	11634
881.619	11520
881.746	11657
881.872	11554
881.999	11528
882.125	11524
882.252	11558
882.378	11493
882.505	11589
882.631	11406
882.757	11265
882.883	11383
883.01	11307
883.136	11269
883.262	11098
883.388	11102
883.514	11204
883.64	11201
883.766	11113
883.892	11033
884.018	10995
884.143	11067
884.269	11193
884.395	10877
884.52	10793
884.646	10797
884.772	10763
884.897	10660
885.023	10691
885.148	10736
885.274	10694
885.399	10733
885.524	10637
885.65	10588
885.775	10630
885.9	10592
886.025	10569
886.15	10561
886.275	10443
886.4	10375
886.525	10379
886.65	10390
886.775	10360
886.9	10573
887.025	10592
887.149	10363
887.274	10314
887.399	10215
887.523	10215
887.648	10090
887.773	10135
887.897	10177
888.021	10169
888.146	10177
888.27	10158
888.395	10154
888.519	10116
888.643	10234
888.767	10200
888.891	10071
889.015	10021
889.139	10105
889.263	9945
889.387	10048
889.511	10131
889.635	10074
889.759	9972
889.883	9994
890.006	9972
890.13	10116
890.254	10013
890.377	10013
890.501	9816
890.624	9892
890.748	9945
890.871	9861
890.995	9717
891.118	9675
891.241	9747
891.364	9774
891.488	9888
891.611	9743
891.734	9686
891.857	9892
891.98	9759
892.103	9766
892.226	9736
892.349	9614
892.471	9538
892.594	9622
892.717	9633
892.839	9622
892.962	9599
893.085	9675
893.207	9584
893.33	9519
893.452	9557
893.575	9584
893.697	9549
893.819	9568
893.941	9568
894.064	9534
894.186	9435
894.308	9420
894.43	9523
894.552	9576
894.674	9599
894.796	9412
894.918	9424
895.04	9389
895.161	9378
895.283	9329
895.405	9245
895.526	9298
895.648	9214
895.769	9340
895.891	9313
896.012	9207
896.134	9294
896.255	9165
896.376	9085
896.498	9127
896.619	9142
896.74	8963
896.861	9085
896.982	9294
897.103	9264
897.224	9150
897.345	9089
897.466	9020
897.587	9051
897.708	9131
897.828	8998
897.949	8921
898.07	8891
898.19	8876
898.311	9081
898.431	8910
898.552	8960
898.672	8948
898.792	8941
898.913	8906
899.033	8796
899.153	8735
899.273	8697
899.393	8682
899.513	8762
899.633	8720
899.753	8766
899.873	8663
899.993	8720
900.113	8697
900.232	8720
900.352	8648
900.472	8636
900.591	8552
900.711	8571
900.83	8564
900.95	8636
901.069	8636
901.189	8492
901.308	8419
901.427	8381
901.546	8393
901.665	8473
901.784	8484
901.904	8400
902.023	8279
902.141	8279
902.26	8157
902.379	8298
902.498	8119
902.617	8176
902.735	8328
902.854	8351
902.973	8244
903.091	8115
903.21	8164
903.328	8111
903.446	8088
903.565	8092
903.683	8157
903.801	8035
903.919	8119
904.038	8229
904.156	8027
904.274	8084
904.392	8031
904.51	8092
904.627	7970
904.745	8073
904.863	8035
904.981	7902
905.098	7807
905.216	7826
905.334	7898
905.451	7944
905.569	7944
905.686	7890
905.803	7906
905.921	7753
906.038	7860
906.155	7799
906.272	7731
906.389	7712
906.506	7696
906.623	7624
906.74	7552
906.857	7571
906.974	7571
907.091	7738
907.208	7674
907.324	7601
907.441	7556
907.557	7434
907.674	7457
907.79	7434
907.907	7415
908.023	7381
908.139	7358
908.256	7415
908.372	7369
908.488	7308
908.604	7293
908.72	7263
908.836	7266
908.952	7285
909.068	7251
909.184	7369
909.3	7266
909.415	7285
909.531	7255
909.647	7076
909.762	7050
909.878	7122
909.993	7061
910.108	7023
910.224	7114
910.339	7072
910.454	7084
910.57	7042
910.685	6981
910.8	7152
910.915	7080
911.03	7034
911.145	6890
911.259	6897
911.374	6928
911.489	6825
911.604	6894
911.718	6700
911.833	6715
911.947	6738
912.062	6620
912.176	6703
912.291	6677
912.405	6776
912.519	6833
912.633	6814
912.748	6722
912.862	6669
912.976	6665
913.09	6540
913.204	6544
913.318	6654
913.431	6642
913.545	6639
913.659	6745
913.772	6566
913.886	6544
914	6525
914.113	6639
914.226	6665
914.34	6604
914.453	6532
914.566	6608
914.68	6498
914.793	6563
914.906	6353
915.019	6429
915.132	6433
915.245	6460
915.358	6467
915.47	6452
915.583	6448
915.696	6445
915.809	6521
915.921	6547
916.034	6414
916.146	6422
916.259	6365
916.371	6502
916.483	6479
916.595	6334
916.708	6403
916.82	6384
916.932	6372
917.044	6380
917.156	6384
917.268	6262
917.38	6338
917.491	6292
917.603	6338
917.715	6380
917.826	6407
917.938	6331
918.049	6178
918.161	6327
918.272	6384
918.384	6410
918.495	6376
918.606	6289
918.717	6228
918.828	6350
918.939	6247
919.05	6194
919.161	6228
919.272	6194
919.383	6136
919.494	6254
919.604	6437
919.715	6220
919.826	6216
919.936	6232
920.047	6380
920.157	6323
920.267	6475
920.378	6357
920.488	6304
920.598	6448
920.708	6574
920.818	6452
920.928	6502
921.038	6585
921.148	6509
921.258	6388
921.368	6258
921.477	6228
921.587	6163
921.697	6087
921.806	6171
921.916	6095
922.025	5958
922.134	5923
922.244	5855
922.353	5980
922.462	5855
922.571	5786
922.68	5733
922.789	5649
922.898	5684
923.007	5581
923.116	5665
923.224	5676
923.333	5615
923.442	5577
923.55	5562
923.659	5562
923.767	5600
923.876	5562
923.984	5585
924.092	5608
924.201	5558
924.309	5528
924.417	5570
924.525	5501
924.633	5539
924.741	6060
924.849	5349
924.956	5512
925.064	5376
925.172	5322
925.279	5296
925.387	5322
925.494	5349
925.602	5387
925.709	5383
925.816	5277
925.924	5318
926.031	5334
926.138	5326
926.245	5357
926.352	5212
926.459	5345
926.566	5337
926.673	5208
926.779	5113
926.886	5086
926.993	5060
927.099	5033
927.206	4991
927.312	4957
927.419	5003
927.525	5006
927.631	5010
927.737	4881
927.843	4835
927.95	4752
928.056	4866
928.162	4816
928.267	4847
928.373	5239
928.479	4892
928.585	4717
928.69	4816
928.796	4755
928.901	4675
929.007	4618
929.112	4645
929.218	4637
929.323	4615
929.428	4531
929.533	4668
929.638	4527
929.743	4546
929.848	4542
929.953	4554
930.058	4424
930.163	4371
930.267	4325
930.372	4455
930.477	4303
930.581	4455
930.685	4379
930.79	4291
930.894	4325
930.998	4227
931.103	4402
931.207	4093
931.311	4040
931.415	4036
931.519	3960
931.623	3945
