Data from glass_V78500241_2651.txt Node
Date: Wed Sep 01 19:32:52 CST 2021
User: usil
Spectrometer: V785-0024
Trigger mode: 0
Integration Time (sec): 4.000000E-1
Scans to average: 1
Nonlinearity correction enabled: false
Boxcar width: 0
Storing dark spectrum: false
XAxis mode: Wavelengths
Number of Pixels in Spectrum: 1024
>>>>>Begin Spectral Data<<<<<
801.071	3740
801.214	3720
801.356	3751
801.499	3690
801.641	3740
801.783	3778
801.926	3842
802.068	3793
802.211	3857
802.353	3922
802.496	3793
802.638	3850
802.78	3873
802.923	3911
803.065	3896
803.208	3854
803.35	3857
803.492	3880
803.635	3880
803.777	3781
803.919	3880
804.061	4131
804.204	3918
804.346	3918
804.488	3907
804.63	4025
804.773	3945
804.915	4006
805.057	4147
805.199	4017
805.341	4097
805.483	4120
805.626	4120
805.768	4109
805.91	4139
806.052	4207
806.194	4166
806.336	4325
806.478	4204
806.62	4223
806.762	4207
806.904	4230
807.046	4287
807.188	4238
807.33	4124
807.472	4272
807.614	4196
807.756	4207
807.898	4192
808.04	4227
808.182	4306
808.324	4303
808.465	4344
808.607	4436
808.749	4436
808.891	4462
809.033	4500
809.174	4409
809.316	4268
809.458	4242
809.6	4154
809.741	4112
809.883	4128
810.025	4234
810.166	4162
810.308	4207
810.45	4230
810.591	4223
810.733	4249
810.875	4531
811.016	4797
811.158	5048
811.299	5242
811.441	5307
811.582	5003
811.724	4687
811.865	4462
812.007	4424
812.148	4424
812.29	4405
812.431	4447
812.573	4383
812.714	4356
812.855	4402
812.997	4440
813.138	4440
813.279	4402
813.421	4363
813.562	4325
813.703	4360
813.845	4306
813.986	4242
814.127	4246
814.268	4238
814.41	4246
814.551	4268
814.692	4295
814.833	4265
814.974	4276
815.115	4314
815.256	4253
815.397	4261
815.539	4261
815.68	4200
815.821	4207
815.962	4322
816.103	4284
816.244	4234
816.385	4268
816.526	4234
816.666	4211
816.807	4093
816.948	4143
817.089	4169
817.23	4097
817.371	4082
817.512	4074
817.653	4078
817.793	4010
817.934	4059
818.075	4071
818.216	4074
818.356	4051
818.497	4017
818.638	3892
818.778	3892
818.919	3880
819.06	3835
819.2	3899
819.341	3846
819.481	3812
819.622	3880
819.762	4029
819.903	3945
820.043	3827
820.184	3812
820.324	3812
820.465	3896
820.605	3857
820.746	3896
820.886	3778
821.026	3899
821.167	3888
821.307	3964
821.447	3975
821.588	3911
821.728	3975
821.868	3899
822.008	3854
822.149	3934
822.289	3911
822.429	3743
822.569	3740
822.709	3762
822.849	3671
822.99	3675
823.13	3755
823.27	3751
823.41	3759
823.55	3686
823.69	3690
823.83	3713
823.97	3667
824.11	3580
824.25	3576
824.389	3629
824.529	3618
824.669	3629
824.809	3717
824.949	3740
825.089	3717
825.228	3633
825.368	3549
825.508	3553
825.648	3568
825.787	3584
825.927	3618
826.067	3641
826.206	3667
826.346	3751
826.485	3816
826.625	3842
826.765	3934
826.904	3797
827.044	3618
827.183	3526
827.323	3462
827.462	3519
827.601	3382
827.741	3412
827.88	3424
828.02	3370
828.159	3412
828.298	3447
828.437	3557
828.577	3466
828.716	3576
828.855	3458
828.994	3336
829.134	3363
829.273	3401
829.412	3393
829.551	3340
829.69	3378
829.829	3397
829.968	3477
830.107	3416
830.246	3454
830.385	3344
830.524	3317
830.663	3287
830.802	3272
830.941	3199
831.08	3131
831.219	3272
831.357	3272
831.496	3397
831.635	3245
831.774	3195
831.913	3161
832.051	3135
832.19	3089
832.329	3195
832.467	3100
832.606	3085
832.744	3184
832.883	3154
833.022	3169
833.16	3237
833.299	3310
833.437	3325
833.576	3393
833.714	3397
833.852	3416
833.991	3473
834.129	3454
834.267	3447
834.406	3428
834.544	3409
834.682	3409
834.821	3378
834.959	3576
835.097	3363
835.235	3526
835.373	3466
835.511	3511
835.65	3485
835.788	3473
835.926	3409
836.064	3370
836.202	3401
836.34	3568
836.478	3561
836.615	3561
836.753	3587
836.891	3599
837.029	3614
837.167	3549
837.305	3530
837.443	3530
837.58	3450
837.718	3576
837.856	3568
837.993	3515
838.131	3561
838.269	3572
838.406	3576
838.544	3534
838.681	3473
838.819	3462
838.956	3340
839.094	3344
839.231	3488
839.369	3526
839.506	3740
839.643	3629
839.781	3488
839.918	3469
840.055	3515
840.193	3542
840.33	3545
840.467	3530
840.604	3564
840.742	3793
840.879	3507
841.016	3530
841.153	3564
841.29	3778
841.427	3698
841.564	3732
841.701	3705
841.838	3637
841.975	3698
842.112	3679
842.249	3637
842.385	3614
842.522	3846
842.659	3671
842.796	3667
842.933	3705
843.069	3652
843.206	3690
843.343	3797
843.479	3785
843.616	3800
843.752	3667
843.889	3679
844.025	3876
844.162	3690
844.298	3846
844.435	3705
844.571	3781
844.708	3857
844.844	3956
844.98	3941
845.117	3994
845.253	3922
845.389	3888
845.525	3903
845.661	3937
845.798	3880
845.934	3956
846.07	3991
846.206	4017
846.342	4074
846.478	4067
846.614	3918
846.75	3911
846.886	3854
847.022	4025
847.158	3949
847.294	3979
847.429	3994
847.565	3956
847.701	4219
847.837	3869
847.972	3884
848.108	3934
848.244	3941
848.379	3819
848.515	3812
848.65	3816
848.786	3797
848.921	3865
849.057	3926
849.192	3937
849.328	3915
849.463	3880
849.598	3903
849.734	3846
849.869	3808
850.004	3804
850.14	3812
850.275	3762
850.41	3736
850.545	3724
850.68	3728
850.815	3781
850.95	3789
851.085	3960
851.22	3846
851.355	3827
851.49	3759
851.625	3781
851.76	3781
851.895	3690
852.03	3709
852.165	3781
852.299	3808
852.434	3865
852.569	3819
852.703	3896
852.838	3926
852.973	3945
853.107	3941
853.242	3857
853.376	3854
853.511	3766
853.645	3800
853.78	3968
853.914	3907
854.048	3892
854.183	3823
854.317	3941
854.451	4067
854.585	3953
854.72	3953
854.854	3972
854.988	3930
855.122	3972
855.256	3899
855.39	4006
855.524	4116
855.658	4032
855.792	4059
855.926	4105
856.06	4169
856.194	4188
856.327	4143
856.461	4109
856.595	4139
856.729	4158
856.862	4272
856.996	4215
857.13	4284
857.263	4333
857.397	4329
857.53	4276
857.664	4310
857.797	4363
857.931	4405
858.064	4344
858.197	4379
858.331	4371
858.464	4360
858.597	4310
858.731	4402
858.864	4512
858.997	4470
859.13	4508
859.263	4489
859.396	4573
859.529	4508
859.662	4500
859.795	4443
859.928	4573
860.061	4675
860.194	4725
860.327	4622
860.46	4645
860.592	4714
860.725	4767
860.858	4740
860.99	4702
861.123	4710
861.256	4691
861.388	4793
861.521	5360
861.653	4691
861.786	4679
861.918	4691
862.05	4793
862.183	4805
862.315	4862
862.447	4965
862.58	4915
862.712	4790
862.844	4740
862.976	4831
863.108	4866
863.24	5204
863.372	4870
863.504	4881
863.636	4904
863.768	4949
863.9	4953
864.032	4900
864.164	4942
864.296	5022
864.428	5090
864.559	5090
864.691	5102
864.823	5124
864.954	5113
865.086	5140
865.217	5060
865.349	5121
865.48	5132
865.612	5181
865.743	5307
865.875	5189
866.006	5181
866.137	5227
866.269	5220
866.4	5227
866.531	5235
866.662	5239
866.793	5273
866.924	5250
867.055	5353
867.186	5334
867.317	5269
867.448	5307
867.579	5372
867.71	5307
867.841	5406
867.972	5414
868.103	5429
868.233	5512
868.364	5493
868.495	5554
868.625	5672
868.756	5760
868.886	5707
869.017	5680
869.147	5836
869.278	5885
869.408	5771
869.539	5844
869.669	5889
869.799	5901
869.929	5984
870.06	5999
870.19	6186
870.32	6129
870.45	6239
870.58	6315
870.71	6418
870.84	6437
870.97	6346
871.1	6448
871.23	6589
871.36	6650
871.489	6681
871.619	6749
871.749	6814
871.879	6840
872.008	6932
872.138	6996
872.267	6962
872.397	6996
872.526	6985
872.656	7069
872.785	7084
872.915	7434
873.044	7544
873.173	7518
873.303	7613
873.432	7731
873.561	7906
873.69	7894
873.819	8031
873.948	8161
874.077	8244
874.206	8324
874.335	8393
874.464	8629
874.593	8891
874.722	8918
874.851	9047
874.979	9173
875.108	9332
875.237	9428
875.365	9519
875.494	9599
875.623	9797
875.751	9808
875.88	9960
876.008	10143
876.136	10249
876.265	10500
876.393	10702
876.521	10710
876.65	10805
876.778	10774
876.906	10908
877.034	11014
877.162	11105
877.29	11090
877.418	11376
877.546	11376
877.674	11440
877.802	11467
877.93	11627
878.058	11520
878.185	11509
878.313	11657
878.441	11764
878.568	11570
878.696	11745
878.824	11802
878.951	11920
879.079	12041
879.206	12041
879.333	12121
879.461	12015
879.588	12129
879.715	12068
879.842	12270
879.97	12057
880.097	11878
880.224	11901
880.351	11859
880.478	11836
880.605	11863
880.732	11779
880.859	11961
880.986	11809
881.112	11794
881.239	11729
881.366	11619
881.493	11611
881.619	11482
881.746	11600
881.872	11516
881.999	11486
882.125	11501
882.252	11482
882.378	11448
882.505	11577
882.631	11398
882.757	11269
882.883	11330
883.01	11277
883.136	11178
883.262	11109
883.388	11060
883.514	11239
883.64	11136
883.766	11113
883.892	11060
884.018	11048
884.143	11010
884.269	11056
884.395	10847
884.52	10847
884.646	10782
884.772	10717
884.897	10607
885.023	10687
885.148	10702
885.274	10740
885.399	10725
885.524	10656
885.65	10630
885.775	10565
885.9	10607
886.025	10603
886.15	10516
886.275	10497
886.4	10409
886.525	10447
886.65	10333
886.775	10333
886.9	10386
887.025	10440
887.149	10363
887.274	10268
887.399	10192
887.523	10131
887.648	10135
887.773	10036
887.897	10299
888.021	10230
888.146	10109
888.27	10249
888.395	10188
888.519	10200
888.643	10162
888.767	10120
888.891	10105
889.015	10006
889.139	10071
889.263	9945
889.387	10013
889.511	10116
889.635	10071
889.759	9964
889.883	9994
890.006	10010
890.13	10082
890.254	9953
890.377	9960
890.501	9857
890.624	9911
890.748	9892
890.871	9804
890.995	9770
891.118	9686
891.241	9720
891.364	9789
891.488	9804
891.611	9743
891.734	9759
891.857	9766
891.98	9705
892.103	9740
892.226	9671
892.349	9576
892.471	9519
892.594	9618
892.717	9580
892.839	9633
892.962	9576
893.085	9614
893.207	9519
893.33	9454
893.452	9496
893.575	9538
893.697	9485
893.819	9584
893.941	9614
894.064	9637
894.186	9397
894.308	9428
894.43	9526
894.552	9447
894.674	9564
894.796	9355
894.918	9355
895.04	9340
895.161	9325
895.283	9382
895.405	9214
895.526	9245
895.648	9283
895.769	9249
895.891	9279
896.012	9310
896.134	9241
896.255	9165
896.376	9017
896.498	9176
896.619	9192
896.74	9108
896.861	9062
896.982	9291
897.103	9291
897.224	9119
897.345	9131
897.466	8967
897.587	9020
897.708	9051
897.828	9017
897.949	8979
898.07	8918
898.19	8963
898.311	8986
898.431	8952
898.552	8921
898.672	8994
898.792	8910
898.913	8910
899.033	8739
899.153	8720
899.273	8583
899.393	8674
899.513	8781
899.633	8697
899.753	8766
899.873	8663
899.993	8720
900.113	8708
900.232	8682
900.352	8594
900.472	8610
900.591	8556
900.711	8575
900.83	8507
900.95	8678
901.069	8682
901.189	8610
901.308	8438
901.427	8389
901.546	8415
901.665	8446
901.784	8530
901.904	8431
902.023	8305
902.141	8248
902.26	8210
902.379	8301
902.498	8153
902.617	8214
902.735	8286
902.854	8271
902.973	8282
903.091	8111
903.21	8107
903.328	8161
903.446	8100
903.565	8035
903.683	8115
903.801	8016
903.919	8157
904.038	8149
904.156	8058
904.274	8050
904.392	8062
904.51	7993
904.627	8077
904.745	8046
904.863	8077
904.981	7917
905.098	7909
905.216	7871
905.334	7864
905.451	7849
905.569	7799
905.686	7890
905.803	7902
905.921	7811
906.038	7856
906.155	7742
906.272	7712
906.389	7700
906.506	7639
906.623	7582
906.74	7578
906.857	7510
906.974	7620
907.091	7643
907.208	7715
907.324	7636
907.441	7533
907.557	7441
907.674	7422
907.79	7392
907.907	7384
908.023	7426
908.139	7438
908.256	7396
908.372	7282
908.488	7316
908.604	7293
908.72	7266
908.836	7335
908.952	7297
909.068	7225
909.184	7308
909.3	7145
909.415	7285
909.531	7198
909.647	7171
909.762	7103
909.878	7095
909.993	7137
910.108	7080
910.224	7031
910.339	7080
910.454	7023
910.57	7034
910.685	6916
910.8	7152
910.915	7023
911.03	7031
911.145	6863
911.259	6913
911.374	6901
911.489	6825
911.604	6856
911.718	6688
911.833	6730
911.947	6635
912.062	6646
912.176	6681
912.291	6734
912.405	6722
912.519	6772
912.633	6795
912.748	6688
912.862	6658
912.976	6597
913.09	6532
913.204	6570
913.318	6642
913.431	6620
913.545	6616
913.659	6673
913.772	6616
913.886	6574
914	6540
914.113	6612
914.226	6612
914.34	6532
914.453	6471
914.566	6570
914.68	6547
914.793	6494
914.906	6403
915.019	6410
915.132	6376
915.245	6445
915.358	6418
915.47	6479
915.583	6380
915.696	6448
915.809	6517
915.921	6506
916.034	6410
916.146	6391
916.259	6376
916.371	6445
916.483	6479
916.595	6410
916.708	6399
916.82	6407
916.932	6361
917.044	6391
917.156	6334
917.268	6273
917.38	6319
917.491	6308
917.603	6300
917.715	6372
917.826	6376
917.938	6331
918.049	6270
918.161	6380
918.272	6445
918.384	6437
918.495	6338
918.606	6304
918.717	6213
918.828	6232
918.939	6308
919.05	6201
919.161	6224
919.272	6125
919.383	6197
919.494	6319
919.604	6426
919.715	6247
919.826	6194
919.936	6270
920.047	6281
920.157	6273
920.267	6391
920.378	6331
920.488	6239
920.598	6448
920.708	6540
920.818	6460
920.928	6403
921.038	6601
921.148	6540
921.258	6315
921.368	6296
921.477	6190
921.587	6171
921.697	6030
921.806	6167
921.916	6072
922.025	5912
922.134	5870
922.244	5863
922.353	5954
922.462	5844
922.571	5729
922.68	5714
922.789	5703
922.898	5684
923.007	5661
923.116	5764
923.224	5710
923.333	5589
923.442	5608
923.55	5532
923.659	5547
923.767	5604
923.876	5535
923.984	5581
924.092	5493
924.201	5573
924.309	5505
924.417	5539
924.525	5417
924.633	5532
924.741	6201
924.849	5349
924.956	5501
925.064	5345
925.172	5299
925.279	5307
925.387	5345
925.494	5326
925.602	5353
925.709	5398
925.816	5261
925.924	5318
926.031	5277
926.138	5315
926.245	5318
926.352	5189
926.459	5307
926.566	5292
926.673	5235
926.779	5079
926.886	5071
926.993	5045
927.099	4965
927.206	4949
927.312	4900
927.419	5025
927.525	4999
927.631	4953
927.737	4961
927.843	4892
927.95	4805
928.056	4797
928.162	4835
928.267	4828
928.373	5341
928.479	4881
928.585	4683
928.69	4763
928.796	4763
928.901	4664
929.007	4645
929.112	4626
929.218	4615
929.323	4554
929.428	4542
929.533	4630
929.638	4466
929.743	4554
929.848	4542
929.953	4519
930.058	4417
930.163	4367
930.267	4383
930.372	4428
930.477	4261
930.581	4481
930.685	4314
930.79	4204
930.894	4268
930.998	4253
931.103	4390
931.207	4105
931.311	4074
931.415	4017
931.519	3892
931.623	3972
