Data from glass_V78500241_2150.txt Node
Date: Wed Sep 01 19:29:24 CST 2021
User: usil
Spectrometer: V785-0024
Trigger mode: 0
Integration Time (sec): 4.000000E-1
Scans to average: 1
Nonlinearity correction enabled: false
Boxcar width: 0
Storing dark spectrum: false
XAxis mode: Wavelengths
Number of Pixels in Spectrum: 1024
>>>>>Begin Spectral Data<<<<<
801.071	3740
801.214	3747
801.356	3720
801.499	3755
801.641	3720
801.783	3789
801.926	3857
802.068	3800
802.211	3854
802.353	3896
802.496	3816
802.638	3930
802.78	3865
802.923	3956
803.065	3915
803.208	3838
803.35	3884
803.492	3934
803.635	3865
803.777	3823
803.919	3907
804.061	4158
804.204	3987
804.346	3941
804.488	3876
804.63	4025
804.773	3953
804.915	4029
805.057	4139
805.199	3994
805.341	4093
805.483	4097
805.626	4101
805.768	4086
805.91	4219
806.052	4173
806.194	4196
806.336	4341
806.478	4211
806.62	4120
806.762	4211
806.904	4211
807.046	4261
807.188	4188
807.33	4158
807.472	4211
807.614	4211
807.756	4314
807.898	4261
808.04	4227
808.182	4287
808.324	4295
808.465	4379
808.607	4440
808.749	4424
808.891	4470
809.033	4447
809.174	4371
809.316	4265
809.458	4257
809.6	4173
809.741	4169
809.883	4135
810.025	4242
810.166	4200
810.308	4192
810.45	4223
810.591	4249
810.733	4310
810.875	4516
811.016	4812
811.158	5048
811.299	5299
811.441	5254
811.582	5045
811.724	4683
811.865	4500
812.007	4466
812.148	4443
812.29	4405
812.431	4440
812.573	4459
812.714	4386
812.855	4363
812.997	4375
813.138	4493
813.279	4432
813.421	4371
813.562	4417
813.703	4329
813.845	4367
813.986	4234
814.127	4188
814.268	4261
814.41	4234
814.551	4230
814.692	4348
814.833	4268
814.974	4337
815.115	4280
815.256	4207
815.397	4230
815.539	4268
815.68	4200
815.821	4173
815.962	4344
816.103	4249
816.244	4253
816.385	4219
816.526	4291
816.666	4215
816.807	4063
816.948	4185
817.089	4147
817.23	4097
817.371	4044
817.512	4032
817.653	4044
817.793	4051
817.934	4067
818.075	4097
818.216	4071
818.356	4063
818.497	3964
818.638	3937
818.778	3918
818.919	3846
819.06	3896
819.2	3876
819.341	3888
819.481	3812
819.622	3899
819.762	4017
819.903	3934
820.043	3846
820.184	3838
820.324	3865
820.465	3884
820.605	3857
820.746	3861
820.886	3812
821.026	3937
821.167	3899
821.307	3915
821.447	4013
821.588	3964
821.728	3888
821.868	3903
822.008	3876
822.149	3918
822.289	3922
822.429	3762
822.569	3747
822.709	3804
822.849	3698
822.99	3751
823.13	3759
823.27	3793
823.41	3686
823.55	3698
823.69	3690
823.83	3751
823.97	3641
824.11	3610
824.25	3576
824.389	3641
824.529	3682
824.669	3603
824.809	3747
824.949	3736
825.089	3709
825.228	3698
825.368	3576
825.508	3564
825.648	3603
825.787	3568
825.927	3629
826.067	3644
826.206	3671
826.346	3740
826.485	3842
826.625	3831
826.765	3926
826.904	3800
827.044	3622
827.183	3538
827.323	3405
827.462	3481
827.601	3447
827.741	3416
827.88	3428
828.02	3386
828.159	3409
828.298	3447
828.437	3572
828.577	3466
828.716	3610
828.855	3511
828.994	3378
829.134	3348
829.273	3370
829.412	3302
829.551	3302
829.69	3351
829.829	3416
829.968	3557
830.107	3424
830.246	3405
830.385	3393
830.524	3340
830.663	3306
830.802	3264
830.941	3214
831.08	3173
831.219	3287
831.357	3230
831.496	3393
831.635	3218
831.774	3203
831.913	3184
832.051	3116
832.19	3146
832.329	3188
832.467	3108
832.606	3116
832.744	3135
832.883	3138
833.022	3184
833.16	3260
833.299	3294
833.437	3325
833.576	3374
833.714	3382
833.852	3450
833.991	3439
834.129	3450
834.267	3443
834.406	3393
834.544	3431
834.682	3435
834.821	3420
834.959	3603
835.097	3412
835.235	3481
835.373	3507
835.511	3500
835.65	3458
835.788	3420
835.926	3393
836.064	3340
836.202	3378
836.34	3591
836.478	3561
836.615	3523
836.753	3584
836.891	3652
837.029	3591
837.167	3538
837.305	3519
837.443	3557
837.58	3488
837.718	3599
837.856	3542
837.993	3545
838.131	3595
838.269	3549
838.406	3580
838.544	3511
838.681	3450
838.819	3466
838.956	3409
839.094	3401
839.231	3401
839.369	3507
839.506	3736
839.643	3644
839.781	3530
839.918	3443
840.055	3496
840.193	3488
840.33	3485
840.467	3561
840.604	3591
840.742	3808
840.879	3515
841.016	3587
841.153	3591
841.29	3690
841.427	3690
841.564	3732
841.701	3656
841.838	3682
841.975	3648
842.112	3709
842.249	3633
842.385	3625
842.522	3774
842.659	3717
842.796	3694
842.933	3694
843.069	3690
843.206	3694
843.343	3770
843.479	3778
843.616	3808
843.752	3667
843.889	3637
844.025	3884
844.162	3778
844.298	3842
844.435	3736
844.571	3778
844.708	3926
844.844	3983
844.98	3991
845.117	4025
845.253	3915
845.389	3911
845.525	3983
845.661	3960
845.798	3888
845.934	3979
846.07	3930
846.206	4101
846.342	4097
846.478	4082
846.614	3956
846.75	3930
846.886	3937
847.022	4029
847.158	3975
847.294	4013
847.429	4010
847.565	4002
847.701	4227
847.837	3869
847.972	3876
848.108	3972
848.244	3934
848.379	3865
848.515	3819
848.65	3789
848.786	3831
848.921	3903
849.057	3934
849.192	3930
849.328	3880
849.463	3899
849.598	3896
849.734	3854
849.869	3804
850.004	3774
850.14	3838
850.275	3800
850.41	3747
850.545	3762
850.68	3816
850.815	3785
850.95	3797
851.085	3899
851.22	3888
851.355	3846
851.49	3770
851.625	3793
851.76	3785
851.895	3698
852.03	3644
852.165	3797
852.299	3823
852.434	3899
852.569	3831
852.703	3888
852.838	3960
852.973	4010
853.107	3972
853.242	3865
853.376	3873
853.511	3736
853.645	3819
853.78	3972
853.914	3899
854.048	3880
854.183	3827
854.317	3937
854.451	4063
854.585	3983
854.72	3979
854.854	4036
854.988	3930
855.122	4044
855.256	3892
855.39	4002
855.524	4086
855.658	4067
855.792	4044
855.926	4120
856.06	4090
856.194	4207
856.327	4105
856.461	4188
856.595	4154
856.729	4200
856.862	4268
856.996	4238
857.13	4299
857.263	4261
857.397	4360
857.53	4242
857.664	4322
857.797	4371
857.931	4398
858.064	4375
858.197	4424
858.331	4402
858.464	4375
858.597	4352
858.731	4394
858.864	4466
858.997	4440
859.13	4489
859.263	4535
859.396	4618
859.529	4470
859.662	4485
859.795	4508
859.928	4558
860.061	4740
860.194	4759
860.327	4675
860.46	4649
860.592	4698
860.725	4725
860.858	4767
860.99	4694
861.123	4630
861.256	4691
861.388	4786
861.521	5414
861.653	4725
861.786	4675
861.918	4721
862.05	4752
862.183	4824
862.315	4892
862.447	5010
862.58	4946
862.712	4790
862.844	4729
862.976	4828
863.108	4885
863.24	5159
863.372	4801
863.504	4889
863.636	4892
863.768	4949
863.9	4934
864.032	4980
864.164	4957
864.296	5006
864.428	5045
864.559	5109
864.691	5109
864.823	5128
864.954	5109
865.086	5162
865.217	5067
865.349	5086
865.48	5155
865.612	5155
865.743	5280
865.875	5147
866.006	5181
866.137	5220
866.269	5204
866.4	5162
866.531	5216
866.662	5212
866.793	5235
866.924	5315
867.055	5345
867.186	5296
867.317	5322
867.448	5322
867.579	5337
867.71	5318
867.841	5368
867.972	5452
868.103	5452
868.233	5471
868.364	5512
868.495	5562
868.625	5642
868.756	5805
868.886	5630
869.017	5722
869.147	5809
869.278	5870
869.408	5859
869.539	5809
869.669	5885
869.799	5897
869.929	5958
870.06	5950
870.19	6175
870.32	6125
870.45	6239
870.58	6338
870.71	6403
870.84	6384
870.97	6460
871.1	6471
871.23	6646
871.36	6696
871.489	6612
871.619	6715
871.749	6795
871.879	6890
872.008	6985
872.138	6894
872.267	6977
872.397	6939
872.526	6989
872.656	7042
872.785	7171
872.915	7362
873.044	7472
873.173	7525
873.303	7624
873.432	7788
873.561	7830
873.69	7879
873.819	7951
873.948	8096
874.077	8149
874.206	8309
874.335	8393
874.464	8686
874.593	8853
874.722	8921
874.851	9104
874.979	9272
875.108	9378
875.237	9397
875.365	9515
875.494	9671
875.623	9808
875.751	9865
875.88	10010
876.008	10169
876.136	10200
876.265	10542
876.393	10668
876.521	10664
876.65	10862
876.778	10828
876.906	10923
877.034	10938
877.162	11071
877.29	11170
877.418	11258
877.546	11410
877.674	11471
877.802	11512
877.93	11524
878.058	11547
878.185	11528
878.313	11642
878.441	11722
878.568	11710
878.696	11843
878.824	11870
878.951	11988
879.079	12038
879.206	12144
879.333	12076
879.461	11958
879.588	11999
879.715	12091
879.842	12235
879.97	12106
880.097	11824
880.224	11912
880.351	11969
880.478	11893
880.605	11901
880.732	11809
880.859	11973
880.986	11779
881.112	11790
881.239	11737
881.366	11608
881.493	11566
881.619	11493
881.746	11486
881.872	11452
881.999	11490
882.125	11444
882.252	11619
882.378	11471
882.505	11585
882.631	11406
882.757	11280
882.883	11303
883.01	11235
883.136	11235
883.262	11056
883.388	11090
883.514	11185
883.64	11201
883.766	11155
883.892	10972
884.018	10942
884.143	11083
884.269	11037
884.395	10862
884.52	10774
884.646	10797
884.772	10725
884.897	10672
885.023	10664
885.148	10698
885.274	10831
885.399	10698
885.524	10672
885.65	10542
885.775	10565
885.9	10527
886.025	10531
886.15	10584
886.275	10497
886.4	10405
886.525	10466
886.65	10386
886.775	10291
886.9	10459
887.025	10546
887.149	10287
887.274	10310
887.399	10230
887.523	10173
887.648	10112
887.773	10101
887.897	10272
888.021	10196
888.146	10071
888.27	10196
888.395	10223
888.519	10158
888.643	10185
888.767	10166
888.891	10055
889.015	9991
889.139	10051
889.263	9975
889.387	10059
889.511	10090
889.635	10013
889.759	9960
889.883	9972
890.006	9956
890.13	10090
890.254	9983
890.377	9903
890.501	9819
890.624	9865
890.748	9835
890.871	9812
890.995	9728
891.118	9766
891.241	9816
891.364	9686
891.488	9774
891.611	9751
891.734	9705
891.857	9743
891.98	9675
892.103	9720
892.226	9675
892.349	9603
892.471	9576
892.594	9584
892.717	9633
892.839	9610
892.962	9576
893.085	9633
893.207	9511
893.33	9496
893.452	9458
893.575	9629
893.697	9473
893.819	9618
893.941	9629
894.064	9591
894.186	9462
894.308	9424
894.43	9500
894.552	9488
894.674	9466
894.796	9389
894.918	9420
895.04	9329
895.161	9397
895.283	9370
895.405	9268
895.526	9249
895.648	9287
895.769	9154
895.891	9226
896.012	9283
896.134	9237
896.255	9184
896.376	9154
896.498	9104
896.619	9116
896.74	9051
896.861	9081
896.982	9233
897.103	9294
897.224	9161
897.345	9036
897.466	9024
897.587	9047
897.708	9112
897.828	8944
897.949	8971
898.07	8838
898.19	8948
898.311	9047
898.431	8876
898.552	8842
898.672	8975
898.792	8948
898.913	8925
899.033	8739
899.153	8788
899.273	8712
899.393	8670
899.513	8727
899.633	8735
899.753	8682
899.873	8625
899.993	8754
900.113	8632
900.232	8708
900.352	8610
900.472	8594
900.591	8530
900.711	8602
900.83	8518
900.95	8682
901.069	8727
901.189	8518
901.308	8442
901.427	8374
901.546	8415
901.665	8442
901.784	8492
901.904	8389
902.023	8347
902.141	8221
902.26	8210
902.379	8271
902.498	8210
902.617	8195
902.735	8259
902.854	8290
902.973	8301
903.091	8103
903.21	8142
903.328	8161
903.446	8103
903.565	8020
903.683	8103
903.801	8046
903.919	8115
904.038	8088
904.156	8039
904.274	8153
904.392	8039
904.51	8035
904.627	8077
904.745	8084
904.863	8073
904.981	7890
905.098	7792
905.216	7818
905.334	7993
905.451	7845
905.569	7864
905.686	7928
905.803	7932
905.921	7750
906.038	7826
906.155	7712
906.272	7685
906.389	7693
906.506	7693
906.623	7704
906.74	7563
906.857	7476
906.974	7628
907.091	7613
907.208	7731
907.324	7632
907.441	7624
907.557	7419
907.674	7430
907.79	7369
907.907	7350
908.023	7449
908.139	7411
908.256	7388
908.372	7354
908.488	7308
908.604	7266
908.72	7179
908.836	7259
908.952	7255
909.068	7232
909.184	7339
909.3	7187
909.415	7251
909.531	7285
909.647	7088
909.762	7122
909.878	7080
909.993	7095
910.108	7080
910.224	7141
910.339	7152
910.454	7050
910.57	6977
910.685	6993
910.8	7171
910.915	7072
911.03	7050
911.145	6882
911.259	6932
911.374	6916
911.489	6818
911.604	6818
911.718	6665
911.833	6654
911.947	6620
912.062	6574
912.176	6715
912.291	6700
912.405	6646
912.519	6859
912.633	6840
912.748	6692
912.862	6684
912.976	6616
913.09	6479
913.204	6559
913.318	6627
913.431	6684
913.545	6677
913.659	6700
913.772	6658
913.886	6566
914	6517
914.113	6612
914.226	6612
914.34	6608
914.453	6475
914.566	6608
914.68	6498
914.793	6540
914.906	6403
915.019	6391
915.132	6289
915.245	6475
915.358	6422
915.47	6475
915.583	6467
915.696	6490
915.809	6532
915.921	6566
916.034	6445
916.146	6376
916.259	6418
916.371	6456
916.483	6372
916.595	6399
916.708	6418
916.82	6372
916.932	6395
917.044	6399
917.156	6365
917.268	6308
917.38	6334
917.491	6300
917.603	6285
917.715	6464
917.826	6418
917.938	6304
918.049	6213
918.161	6334
918.272	6418
918.384	6369
918.495	6388
918.606	6277
918.717	6175
918.828	6232
918.939	6273
919.05	6273
919.161	6270
919.272	6125
919.383	6171
919.494	6270
919.604	6391
919.715	6243
919.826	6186
919.936	6258
920.047	6338
920.157	6239
920.267	6426
920.378	6361
920.488	6262
920.598	6490
920.708	6525
920.818	6498
920.928	6429
921.038	6639
921.148	6608
921.258	6323
921.368	6292
921.477	6182
921.587	6152
921.697	6102
921.806	6178
921.916	6079
922.025	5923
922.134	5866
922.244	5901
922.353	5939
922.462	5802
922.571	5851
922.68	5684
922.789	5688
922.898	5680
923.007	5627
923.116	5745
923.224	5627
923.333	5676
923.442	5585
923.55	5619
923.659	5592
923.767	5619
923.876	5566
923.984	5554
924.092	5493
924.201	5562
924.309	5482
924.417	5539
924.525	5471
924.633	5535
924.741	6270
924.849	5349
924.956	5455
925.064	5364
925.172	5349
925.279	5318
925.387	5353
925.494	5345
925.602	5353
925.709	5372
925.816	5235
925.924	5296
926.031	5376
926.138	5254
926.245	5353
926.352	5239
926.459	5337
926.566	5326
926.673	5235
926.779	5155
926.886	5143
926.993	5025
927.099	4987
927.206	4961
927.312	4938
927.419	5014
927.525	4972
927.631	5029
927.737	4892
927.843	4843
927.95	4778
928.056	4866
928.162	4877
928.267	4908
928.373	5357
928.479	4812
928.585	4721
928.69	4744
928.796	4786
928.901	4649
929.007	4592
929.112	4664
929.218	4607
929.323	4641
929.428	4565
929.533	4675
929.638	4519
929.743	4512
929.848	4550
929.953	4516
930.058	4443
930.163	4310
930.267	4363
930.372	4428
930.477	4299
930.581	4428
930.685	4356
930.79	4261
930.894	4257
930.998	4265
931.103	4390
931.207	4128
931.311	4071
931.415	4029
931.519	3937
931.623	3960
