Data from glass_V78500241_2777.txt Node
Date: Wed Sep 01 19:33:45 CST 2021
User: usil
Spectrometer: V785-0024
Trigger mode: 0
Integration Time (sec): 4.000000E-1
Scans to average: 1
Nonlinearity correction enabled: false
Boxcar width: 0
Storing dark spectrum: false
XAxis mode: Wavelengths
Number of Pixels in Spectrum: 1024
>>>>>Begin Spectral Data<<<<<
801.071	3667
801.214	3755
801.356	3713
801.499	3713
801.641	3732
801.783	3705
801.926	3880
802.068	3819
802.211	3846
802.353	3915
802.496	3797
802.638	3884
802.78	3911
802.923	3892
803.065	3876
803.208	3846
803.35	3857
803.492	3922
803.635	3880
803.777	3785
803.919	3911
804.061	4105
804.204	3922
804.346	3907
804.488	3899
804.63	4002
804.773	3979
804.915	3949
805.057	4131
805.199	4071
805.341	4109
805.483	4139
805.626	4109
805.768	4101
805.91	4150
806.052	4192
806.194	4158
806.336	4352
806.478	4211
806.62	4147
806.762	4192
806.904	4211
807.046	4360
807.188	4162
807.33	4169
807.472	4200
807.614	4188
807.756	4246
807.898	4166
808.04	4188
808.182	4261
808.324	4306
808.465	4375
808.607	4462
808.749	4432
808.891	4459
809.033	4485
809.174	4386
809.316	4268
809.458	4249
809.6	4124
809.741	4120
809.883	4131
810.025	4181
810.166	4204
810.308	4162
810.45	4234
810.591	4219
810.733	4276
810.875	4512
811.016	4748
811.158	5121
811.299	5235
811.441	5337
811.582	5113
811.724	4714
811.865	4455
812.007	4459
812.148	4424
812.29	4394
812.431	4409
812.573	4440
812.714	4356
812.855	4402
812.997	4379
813.138	4428
813.279	4421
813.421	4291
813.562	4325
813.703	4295
813.845	4310
813.986	4272
814.127	4158
814.268	4227
814.41	4272
814.551	4211
814.692	4268
814.833	4223
814.974	4272
815.115	4322
815.256	4268
815.397	4242
815.539	4188
815.68	4181
815.821	4200
815.962	4299
816.103	4261
816.244	4223
816.385	4227
816.526	4242
816.666	4177
816.807	4105
816.948	4158
817.089	4200
817.23	4063
817.371	4040
817.512	3987
817.653	4109
817.793	3994
817.934	4002
818.075	4074
818.216	4044
818.356	4078
818.497	3983
818.638	3903
818.778	3888
818.919	3903
819.06	3857
819.2	3899
819.341	3857
819.481	3812
819.622	3884
819.762	4010
819.903	3975
820.043	3854
820.184	3831
820.324	3789
820.465	3865
820.605	3808
820.746	3831
820.886	3774
821.026	3899
821.167	3899
821.307	3975
821.447	3991
821.588	3960
821.728	3934
821.868	3911
822.008	3854
822.149	3956
822.289	3892
822.429	3751
822.569	3789
822.709	3747
822.849	3705
822.99	3663
823.13	3747
823.27	3785
823.41	3694
823.55	3717
823.69	3709
823.83	3751
823.97	3675
824.11	3587
824.25	3568
824.389	3584
824.529	3671
824.669	3637
824.809	3667
824.949	3732
825.089	3686
825.228	3648
825.368	3542
825.508	3545
825.648	3549
825.787	3606
825.927	3610
826.067	3603
826.206	3622
826.346	3732
826.485	3838
826.625	3785
826.765	3861
826.904	3781
827.044	3572
827.183	3519
827.323	3450
827.462	3435
827.601	3435
827.741	3439
827.88	3416
828.02	3348
828.159	3420
828.298	3454
828.437	3473
828.577	3504
828.716	3530
828.855	3485
828.994	3374
829.134	3351
829.273	3409
829.412	3329
829.551	3310
829.69	3325
829.829	3382
829.968	3450
830.107	3420
830.246	3431
830.385	3363
830.524	3332
830.663	3264
830.802	3241
830.941	3188
831.08	3184
831.219	3230
831.357	3260
831.496	3359
831.635	3230
831.774	3214
831.913	3207
832.051	3104
832.19	3108
832.329	3207
832.467	3081
832.606	3127
832.744	3161
832.883	3184
833.022	3199
833.16	3233
833.299	3272
833.437	3317
833.576	3374
833.714	3397
833.852	3374
833.991	3481
834.129	3450
834.267	3420
834.406	3329
834.544	3431
834.682	3420
834.821	3386
834.959	3549
835.097	3389
835.235	3500
835.373	3435
835.511	3466
835.65	3443
835.788	3492
835.926	3374
836.064	3367
836.202	3370
836.34	3534
836.478	3595
836.615	3496
836.753	3549
836.891	3637
837.029	3587
837.167	3568
837.305	3526
837.443	3488
837.58	3485
837.718	3542
837.856	3584
837.993	3515
838.131	3557
838.269	3591
838.406	3584
838.544	3538
838.681	3492
838.819	3416
838.956	3332
839.094	3351
839.231	3431
839.369	3504
839.506	3713
839.643	3660
839.781	3492
839.918	3416
840.055	3507
840.193	3511
840.33	3519
840.467	3557
840.604	3584
840.742	3747
840.879	3507
841.016	3511
841.153	3561
841.29	3751
841.427	3663
841.564	3694
841.701	3732
841.838	3667
841.975	3641
842.112	3694
842.249	3618
842.385	3610
842.522	3789
842.659	3656
842.796	3656
842.933	3705
843.069	3667
843.206	3698
843.343	3781
843.479	3743
843.616	3831
843.752	3648
843.889	3694
844.025	3846
844.162	3717
844.298	3827
844.435	3740
844.571	3770
844.708	3869
844.844	3941
844.98	4029
845.117	4021
845.253	3888
845.389	3888
845.525	3975
845.661	3983
845.798	3915
845.934	3968
846.07	3953
846.206	4021
846.342	4112
846.478	4044
846.614	3991
846.75	3911
846.886	3892
847.022	4013
847.158	3979
847.294	4021
847.429	3987
847.565	3979
847.701	4238
847.837	3899
847.972	3846
848.108	3979
848.244	3964
848.379	3842
848.515	3816
848.65	3804
848.786	3842
848.921	3827
849.057	3937
849.192	3907
849.328	3876
849.463	3934
849.598	3880
849.734	3850
849.869	3808
850.004	3812
850.14	3800
850.275	3747
850.41	3728
850.545	3713
850.68	3789
850.815	3781
850.95	3743
851.085	3907
851.22	3827
851.355	3800
851.49	3778
851.625	3774
851.76	3766
851.895	3701
852.03	3663
852.165	3774
852.299	3831
852.434	3896
852.569	3857
852.703	3842
852.838	3937
852.973	3979
853.107	3975
853.242	3838
853.376	3861
853.511	3747
853.645	3804
853.78	3956
853.914	3892
854.048	3884
854.183	3854
854.317	3945
854.451	4067
854.585	3934
854.72	3930
854.854	3998
854.988	3926
855.122	4029
855.256	3903
855.39	3972
855.524	4101
855.658	4086
855.792	4086
855.926	4177
856.06	4131
856.194	4249
856.327	4120
856.461	4120
856.595	4090
856.729	4101
856.862	4211
856.996	4227
857.13	4257
857.263	4280
857.397	4295
857.53	4272
857.664	4337
857.797	4337
857.931	4375
858.064	4402
858.197	4421
858.331	4348
858.464	4348
858.597	4344
858.731	4413
858.864	4447
858.997	4443
859.13	4493
859.263	4478
859.396	4565
859.529	4516
859.662	4512
859.795	4497
859.928	4550
860.061	4706
860.194	4721
860.327	4740
860.46	4611
860.592	4744
860.725	4698
860.858	4763
860.99	4691
861.123	4660
861.256	4710
861.388	4774
861.521	5220
861.653	4710
861.786	4664
861.918	4752
862.05	4740
862.183	4812
862.315	4892
862.447	4839
862.58	4927
862.712	4816
862.844	4812
862.976	4831
863.108	4870
863.24	5197
863.372	4774
863.504	4919
863.636	4858
863.768	4968
863.9	4976
864.032	4946
864.164	4923
864.296	5048
864.428	5083
864.559	5083
864.691	5064
864.823	5140
864.954	5090
865.086	5147
865.217	5102
865.349	5090
865.48	5155
865.612	5151
865.743	5265
865.875	5170
866.006	5208
866.137	5235
866.269	5223
866.4	5292
866.531	5208
866.662	5242
866.793	5261
866.924	5269
867.055	5368
867.186	5376
867.317	5330
867.448	5315
867.579	5387
867.71	5326
867.841	5353
867.972	5425
868.103	5444
868.233	5497
868.364	5509
868.495	5570
868.625	5691
868.756	5760
868.886	5668
869.017	5741
869.147	5824
869.278	5805
869.408	5863
869.539	5859
869.669	5939
869.799	5874
869.929	5984
870.06	6003
870.19	6163
870.32	6178
870.45	6239
870.58	6311
870.71	6410
870.84	6452
870.97	6380
871.1	6418
871.23	6597
871.36	6627
871.489	6620
871.619	6707
871.749	6783
871.879	6859
872.008	6977
872.138	6970
872.267	6882
872.397	6989
872.526	7027
872.656	7141
872.785	7194
872.915	7377
873.044	7441
873.173	7506
873.303	7723
873.432	7704
873.561	7868
873.69	7826
873.819	8005
873.948	8176
874.077	8229
874.206	8324
874.335	8450
874.464	8632
874.593	8880
874.722	8937
874.851	9032
874.979	9195
875.108	9355
875.237	9473
875.365	9553
875.494	9652
875.623	9835
875.751	9755
875.88	10006
876.008	10131
876.136	10291
876.265	10394
876.393	10714
876.521	10691
876.65	10786
876.778	10873
876.906	10892
877.034	10961
877.162	11048
877.29	11147
877.418	11201
877.546	11364
877.674	11364
877.802	11478
877.93	11558
878.058	11653
878.185	11551
878.313	11619
878.441	11752
878.568	11627
878.696	11798
878.824	11889
878.951	11874
879.079	11999
879.206	12133
879.333	12007
879.461	11904
879.588	12102
879.715	12095
879.842	12205
879.97	12144
880.097	11809
880.224	11863
880.351	11840
880.478	11817
880.605	11802
880.732	11939
880.859	11992
880.986	11897
881.112	11790
881.239	11653
881.366	11649
881.493	11608
881.619	11490
881.746	11524
881.872	11535
881.999	11471
882.125	11421
882.252	11535
882.378	11467
882.505	11573
882.631	11387
882.757	11231
882.883	11417
883.01	11227
883.136	11136
883.262	11056
883.388	11086
883.514	11155
883.64	11132
883.766	11064
883.892	11041
884.018	11037
884.143	10995
884.269	11094
884.395	10809
884.52	10721
884.646	10767
884.772	10694
884.897	10736
885.023	10664
885.148	10736
885.274	10748
885.399	10660
885.524	10630
885.65	10603
885.775	10577
885.9	10512
886.025	10569
886.15	10474
886.275	10474
886.4	10356
886.525	10348
886.65	10382
886.775	10341
886.9	10455
887.025	10519
887.149	10375
887.274	10242
887.399	10150
887.523	10143
887.648	10120
887.773	10097
887.897	10219
888.021	10249
888.146	10139
888.27	10185
888.395	10135
888.519	10139
888.643	10128
888.767	10196
888.891	10059
889.015	10048
889.139	10040
889.263	9975
889.387	9994
889.511	10055
889.635	9956
889.759	10010
889.883	9968
890.006	9918
890.13	10040
890.254	10006
890.377	9975
890.501	9835
890.624	9892
890.748	9903
890.871	9819
890.995	9724
891.118	9728
891.241	9728
891.364	9690
891.488	9808
891.611	9785
891.734	9755
891.857	9819
891.98	9694
892.103	9740
892.226	9682
892.349	9671
892.471	9485
892.594	9603
892.717	9610
892.839	9519
892.962	9618
893.085	9694
893.207	9542
893.33	9473
893.452	9515
893.575	9587
893.697	9504
893.819	9675
893.941	9614
894.064	9610
894.186	9367
894.308	9420
894.43	9466
894.552	9580
894.674	9515
894.796	9359
894.918	9431
895.04	9313
895.161	9367
895.283	9287
895.405	9283
895.526	9264
895.648	9294
895.769	9256
895.891	9264
896.012	9237
896.134	9226
896.255	9214
896.376	9138
896.498	9154
896.619	9077
896.74	9066
896.861	9032
896.982	9207
897.103	9283
897.224	9150
897.345	9043
897.466	9028
897.587	8979
897.708	9165
897.828	9001
897.949	8986
898.07	8811
898.19	8868
898.311	8998
898.431	8880
898.552	8861
898.672	8933
898.792	8902
898.913	8918
899.033	8853
899.153	8739
899.273	8659
899.393	8739
899.513	8739
899.633	8731
899.753	8792
899.873	8693
899.993	8686
900.113	8689
900.232	8693
900.352	8648
900.472	8545
900.591	8571
900.711	8590
900.83	8648
900.95	8667
901.069	8697
901.189	8492
901.308	8438
901.427	8412
901.546	8358
901.665	8492
901.784	8434
901.904	8347
902.023	8366
902.141	8229
902.26	8218
902.379	8210
902.498	8134
902.617	8180
902.735	8298
902.854	8252
902.973	8210
903.091	8096
903.21	8046
903.328	8176
903.446	8100
903.565	8073
903.683	8035
903.801	7963
903.919	8153
904.038	8172
904.156	8031
904.274	8050
904.392	8126
904.51	7986
904.627	8031
904.745	8016
904.863	8092
904.981	7936
905.098	7830
905.216	7883
905.334	7811
905.451	7879
905.569	7860
905.686	7875
905.803	7860
905.921	7795
906.038	7772
906.155	7765
906.272	7712
906.389	7696
906.506	7662
906.623	7586
906.74	7540
906.857	7559
906.974	7521
907.091	7651
907.208	7696
907.324	7647
907.441	7510
907.557	7346
907.674	7441
907.79	7331
907.907	7396
908.023	7430
908.139	7472
908.256	7343
908.372	7377
908.488	7324
908.604	7308
908.72	7240
908.836	7255
908.952	7251
909.068	7240
909.184	7308
909.3	7259
909.415	7251
909.531	7297
909.647	7114
909.762	7084
909.878	7061
909.993	7156
910.108	7107
910.224	7072
910.339	7069
910.454	6993
910.57	6977
910.685	6932
910.8	7053
910.915	7126
911.03	6973
911.145	6901
911.259	6844
911.374	6894
911.489	6863
911.604	6776
911.718	6650
911.833	6677
911.947	6639
912.062	6574
912.176	6696
912.291	6681
912.405	6696
912.519	6833
912.633	6890
912.748	6719
912.862	6673
912.976	6574
913.09	6521
913.204	6540
913.318	6604
913.431	6681
913.545	6631
913.659	6703
913.772	6639
913.886	6555
914	6582
914.113	6585
914.226	6601
914.34	6597
914.453	6464
914.566	6604
914.68	6506
914.793	6494
914.906	6418
915.019	6350
915.132	6384
915.245	6361
915.358	6388
915.47	6483
915.583	6471
915.696	6464
915.809	6509
915.921	6494
916.034	6410
916.146	6384
916.259	6334
916.371	6460
916.483	6437
916.595	6376
916.708	6460
916.82	6365
916.932	6353
917.044	6372
917.156	6369
917.268	6285
917.38	6315
917.491	6262
917.603	6334
917.715	6384
917.826	6376
917.938	6289
918.049	6239
918.161	6334
918.272	6422
918.384	6433
918.495	6285
918.606	6258
918.717	6152
918.828	6247
918.939	6285
919.05	6186
919.161	6266
919.272	6106
919.383	6182
919.494	6220
919.604	6426
919.715	6311
919.826	6182
919.936	6258
920.047	6327
920.157	6331
920.267	6426
920.378	6296
920.488	6232
920.598	6445
920.708	6555
920.818	6452
920.928	6452
921.038	6551
921.148	6555
921.258	6376
921.368	6311
921.477	6159
921.587	6205
921.697	6060
921.806	6133
921.916	6072
922.025	5939
922.134	5973
922.244	5908
922.353	5882
922.462	5844
922.571	5836
922.68	5653
922.789	5737
922.898	5661
923.007	5627
923.116	5634
923.224	5676
923.333	5665
923.442	5649
923.55	5539
923.659	5596
923.767	5642
923.876	5471
923.984	5558
924.092	5490
924.201	5528
924.309	5535
924.417	5547
924.525	5497
924.633	5463
924.741	6273
924.849	5376
924.956	5440
925.064	5334
925.172	5303
925.279	5269
925.387	5337
925.494	5322
925.602	5433
925.709	5406
925.816	5239
925.924	5261
926.031	5372
926.138	5318
926.245	5277
926.352	5212
926.459	5269
926.566	5269
926.673	5143
926.779	5094
926.886	5109
926.993	4980
927.099	4991
927.206	4968
927.312	5014
927.419	5022
927.525	4919
927.631	4972
927.737	4934
927.843	4812
927.95	4736
928.056	4774
928.162	4790
928.267	4790
928.373	5330
928.479	4881
928.585	4672
928.69	4755
928.796	4740
928.901	4694
929.007	4538
929.112	4660
929.218	4626
929.323	4592
929.428	4565
929.533	4694
929.638	4527
929.743	4497
929.848	4573
929.953	4500
930.058	4424
930.163	4329
930.267	4337
930.372	4337
930.477	4295
930.581	4489
930.685	4333
930.79	4223
930.894	4299
930.998	4249
931.103	4421
931.207	4105
931.311	4074
931.415	4025
931.519	3922
931.623	3922
