Data from glass_V78500241_2413.txt Node
Date: Wed Sep 01 19:31:13 CST 2021
User: usil
Spectrometer: V785-0024
Trigger mode: 0
Integration Time (sec): 4.000000E-1
Scans to average: 1
Nonlinearity correction enabled: false
Boxcar width: 0
Storing dark spectrum: false
XAxis mode: Wavelengths
Number of Pixels in Spectrum: 1024
>>>>>Begin Spectral Data<<<<<
801.071	3728
801.214	3793
801.356	3736
801.499	3713
801.641	3755
801.783	3728
801.926	3854
802.068	3823
802.211	3804
802.353	3873
802.496	3816
802.638	3861
802.78	3918
802.923	3926
803.065	3915
803.208	3842
803.35	3857
803.492	3899
803.635	3934
803.777	3785
803.919	3903
804.061	4112
804.204	3953
804.346	3960
804.488	3934
804.63	4048
804.773	3968
804.915	4025
805.057	4150
805.199	3987
805.341	4067
805.483	4131
805.626	4071
805.768	4093
805.91	4192
806.052	4207
806.194	4211
806.336	4318
806.478	4227
806.62	4188
806.762	4181
806.904	4261
807.046	4299
807.188	4215
807.33	4150
807.472	4242
807.614	4169
807.756	4223
807.898	4211
808.04	4211
808.182	4295
808.324	4303
808.465	4386
808.607	4451
808.749	4424
808.891	4474
809.033	4504
809.174	4371
809.316	4291
809.458	4261
809.6	4101
809.741	4131
809.883	4120
810.025	4207
810.166	4219
810.308	4207
810.45	4257
810.591	4219
810.733	4356
810.875	4508
811.016	4801
811.158	5090
811.299	5220
811.441	5269
811.582	5079
811.724	4656
811.865	4489
812.007	4459
812.148	4462
812.29	4405
812.431	4398
812.573	4363
812.714	4379
812.855	4428
812.997	4371
813.138	4455
813.279	4356
813.421	4348
813.562	4402
813.703	4314
813.845	4314
813.986	4238
814.127	4196
814.268	4265
814.41	4265
814.551	4261
814.692	4329
814.833	4265
814.974	4284
815.115	4253
815.256	4257
815.397	4261
815.539	4246
815.68	4227
815.821	4234
815.962	4318
816.103	4261
816.244	4181
816.385	4238
816.526	4284
816.666	4242
816.807	4074
816.948	4169
817.089	4177
817.23	4109
817.371	4059
817.512	4078
817.653	4063
817.793	4067
817.934	4006
818.075	4063
818.216	4086
818.356	4055
818.497	4017
818.638	3899
818.778	3892
818.919	3884
819.06	3861
819.2	3937
819.341	3861
819.481	3835
819.622	3926
819.762	3968
819.903	3979
820.043	3850
820.184	3861
820.324	3823
820.465	3865
820.605	3876
820.746	3854
820.886	3808
821.026	3918
821.167	3880
821.307	3972
821.447	3903
821.588	3945
821.728	3941
821.868	3930
822.008	3835
822.149	3857
822.289	3953
822.429	3774
822.569	3759
822.709	3774
822.849	3713
822.99	3686
823.13	3751
823.27	3755
823.41	3717
823.55	3751
823.69	3709
823.83	3713
823.97	3671
824.11	3591
824.25	3580
824.389	3663
824.529	3698
824.669	3610
824.809	3705
824.949	3766
825.089	3774
825.228	3705
825.368	3538
825.508	3564
825.648	3553
825.787	3587
825.927	3614
826.067	3599
826.206	3641
826.346	3778
826.485	3850
826.625	3861
826.765	3907
826.904	3831
827.044	3591
827.183	3507
827.323	3439
827.462	3485
827.601	3431
827.741	3447
827.88	3420
828.02	3401
828.159	3469
828.298	3469
828.437	3523
828.577	3473
828.716	3595
828.855	3466
828.994	3363
829.134	3344
829.273	3382
829.412	3340
829.551	3298
829.69	3332
829.829	3393
829.968	3496
830.107	3481
830.246	3454
830.385	3367
830.524	3317
830.663	3310
830.802	3260
830.941	3207
831.08	3165
831.219	3272
831.357	3260
831.496	3412
831.635	3264
831.774	3184
831.913	3180
832.051	3108
832.19	3142
832.329	3203
832.467	3112
832.606	3116
832.744	3154
832.883	3180
833.022	3211
833.16	3230
833.299	3306
833.437	3389
833.576	3355
833.714	3405
833.852	3473
833.991	3389
834.129	3454
834.267	3454
834.406	3389
834.544	3447
834.682	3405
834.821	3382
834.959	3538
835.097	3424
835.235	3523
835.373	3477
835.511	3485
835.65	3473
835.788	3481
835.926	3389
836.064	3351
836.202	3397
836.34	3587
836.478	3633
836.615	3534
836.753	3591
836.891	3595
837.029	3564
837.167	3576
837.305	3530
837.443	3576
837.58	3481
837.718	3591
837.856	3538
837.993	3530
838.131	3595
838.269	3595
838.406	3580
838.544	3557
838.681	3450
838.819	3431
838.956	3355
839.094	3374
839.231	3450
839.369	3519
839.506	3698
839.643	3584
839.781	3481
839.918	3458
840.055	3485
840.193	3519
840.33	3496
840.467	3580
840.604	3587
840.742	3789
840.879	3526
841.016	3545
841.153	3584
841.29	3770
841.427	3682
841.564	3720
841.701	3728
841.838	3698
841.975	3667
842.112	3713
842.249	3629
842.385	3603
842.522	3766
842.659	3686
842.796	3667
842.933	3717
843.069	3660
843.206	3694
843.343	3797
843.479	3747
843.616	3838
843.752	3679
843.889	3679
844.025	3835
844.162	3709
844.298	3896
844.435	3797
844.571	3785
844.708	3896
844.844	3964
844.98	4059
845.117	3949
845.253	3907
845.389	3896
845.525	3968
845.661	3934
845.798	3888
845.934	3983
846.07	3945
846.206	4063
846.342	4147
846.478	4078
846.614	3991
846.75	3880
846.886	3915
847.022	4051
847.158	3949
847.294	3979
847.429	4017
847.565	3937
847.701	4249
847.837	3880
847.972	3835
848.108	4017
848.244	3926
848.379	3876
848.515	3838
848.65	3778
848.786	3831
848.921	3880
849.057	3956
849.192	3911
849.328	3876
849.463	3907
849.598	3831
849.734	3854
849.869	3823
850.004	3759
850.14	3800
850.275	3751
850.41	3747
850.545	3720
850.68	3789
850.815	3800
850.95	3762
851.085	3896
851.22	3880
851.355	3838
851.49	3743
851.625	3785
851.76	3751
851.895	3698
852.03	3705
852.165	3732
852.299	3846
852.434	3888
852.569	3835
852.703	3873
852.838	3930
852.973	3983
853.107	3987
853.242	3926
853.376	3857
853.511	3759
853.645	3842
853.78	3945
853.914	3907
854.048	3899
854.183	3899
854.317	3915
854.451	4120
854.585	3930
854.72	3964
854.854	4055
854.988	3960
855.122	4002
855.256	3884
855.39	4002
855.524	4051
855.658	4074
855.792	4112
855.926	4166
856.06	4177
856.194	4188
856.327	4124
856.461	4105
856.595	4139
856.729	4162
856.862	4238
856.996	4211
857.13	4253
857.263	4295
857.397	4360
857.53	4291
857.664	4367
857.797	4341
857.931	4356
858.064	4417
858.197	4447
858.331	4390
858.464	4405
858.597	4322
858.731	4394
858.864	4459
858.997	4459
859.13	4500
859.263	4512
859.396	4596
859.529	4535
859.662	4519
859.795	4523
859.928	4565
860.061	4702
860.194	4706
860.327	4611
860.46	4618
860.592	4683
860.725	4774
860.858	4763
860.99	4691
861.123	4721
861.256	4641
861.388	4771
861.521	5532
861.653	4710
861.786	4721
861.918	4748
862.05	4809
862.183	4809
862.315	4877
862.447	4961
862.58	4904
862.712	4767
862.844	4729
862.976	4850
863.108	4862
863.24	5189
863.372	4805
863.504	4904
863.636	4930
863.768	4923
863.9	4915
864.032	4908
864.164	4957
864.296	5006
864.428	5060
864.559	5086
864.691	5136
864.823	5102
864.954	5143
865.086	5132
865.217	5079
865.349	5098
865.48	5151
865.612	5162
865.743	5269
865.875	5197
866.006	5166
866.137	5227
866.269	5178
866.4	5197
866.531	5261
866.662	5220
866.793	5242
866.924	5296
867.055	5280
867.186	5345
867.317	5330
867.448	5322
867.579	5357
867.71	5364
867.841	5326
867.972	5440
868.103	5482
868.233	5471
868.364	5543
868.495	5604
868.625	5634
868.756	5729
868.886	5737
869.017	5676
869.147	5874
869.278	5836
869.408	5798
869.539	5844
869.669	5882
869.799	5878
869.929	6053
870.06	5958
870.19	6197
870.32	6171
870.45	6285
870.58	6346
870.71	6445
870.84	6452
870.97	6448
871.1	6422
871.23	6589
871.36	6707
871.489	6608
871.619	6730
871.749	6795
871.879	6882
872.008	6985
872.138	6947
872.267	6935
872.397	6939
872.526	7053
872.656	7069
872.785	7133
872.915	7354
873.044	7533
873.173	7518
873.303	7632
873.432	7753
873.561	7826
873.69	7902
873.819	8001
873.948	8183
874.077	8248
874.206	8374
874.335	8362
874.464	8659
874.593	8830
874.722	8895
874.851	9173
874.979	9291
875.108	9370
875.237	9458
875.365	9439
875.494	9656
875.623	9846
875.751	9819
875.88	10029
876.008	10158
876.136	10242
876.265	10493
876.393	10615
876.521	10748
876.65	10889
876.778	10835
876.906	10908
877.034	10995
877.162	11083
877.29	11121
877.418	11261
877.546	11311
877.674	11429
877.802	11474
877.93	11490
878.058	11505
878.185	11512
878.313	11688
878.441	11843
878.568	11611
878.696	11767
878.824	11802
878.951	12026
879.079	12030
879.206	12110
879.333	12098
879.461	11992
879.588	12003
879.715	12064
879.842	12194
879.97	12053
880.097	11847
880.224	11767
880.351	11897
880.478	11980
880.605	11843
880.732	11748
880.859	11961
880.986	11821
881.112	11840
881.239	11786
881.366	11726
881.493	11585
881.619	11512
881.746	11573
881.872	11505
881.999	11444
882.125	11417
882.252	11516
882.378	11493
882.505	11573
882.631	11452
882.757	11239
882.883	11341
883.01	11258
883.136	11235
883.262	11136
883.388	11045
883.514	11231
883.64	11216
883.766	11064
883.892	10976
884.018	11025
884.143	11098
884.269	11033
884.395	10752
884.52	10790
884.646	10797
884.772	10786
884.897	10710
885.023	10668
885.148	10729
885.274	10847
885.399	10660
885.524	10649
885.65	10634
885.775	10550
885.9	10558
886.025	10618
886.15	10546
886.275	10417
886.4	10344
886.525	10436
886.65	10322
886.775	10352
886.9	10466
887.025	10565
887.149	10322
887.274	10219
887.399	10223
887.523	10173
887.648	10158
887.773	10150
887.897	10207
888.021	10234
888.146	10112
888.27	10246
888.395	10196
888.519	10158
888.643	10162
888.767	10192
888.891	10078
889.015	10055
889.139	10025
889.263	9865
889.387	10048
889.511	10139
889.635	10029
889.759	9983
889.883	9975
890.006	10017
890.13	10097
890.254	9930
890.377	9953
890.501	9854
890.624	9873
890.748	9968
890.871	9789
890.995	9774
891.118	9720
891.241	9724
891.364	9740
891.488	9876
891.611	9762
891.734	9698
891.857	9781
891.98	9663
892.103	9823
892.226	9698
892.349	9629
892.471	9534
892.594	9606
892.717	9561
892.839	9564
892.962	9557
893.085	9641
893.207	9580
893.33	9530
893.452	9469
893.575	9511
893.697	9553
893.819	9599
893.941	9580
894.064	9545
894.186	9519
894.308	9473
894.43	9534
894.552	9606
894.674	9492
894.796	9401
894.918	9367
895.04	9367
895.161	9321
895.283	9363
895.405	9355
895.526	9222
895.648	9230
895.769	9180
895.891	9218
896.012	9237
896.134	9245
896.255	9157
896.376	9070
896.498	9138
896.619	9116
896.74	9058
896.861	9017
896.982	9241
897.103	9313
897.224	9188
897.345	9039
897.466	9020
897.587	9036
897.708	9066
897.828	9020
897.949	8933
898.07	8872
898.19	8796
898.311	8994
898.431	8872
898.552	8925
898.672	8929
898.792	8948
898.913	8906
899.033	8773
899.153	8743
899.273	8693
899.393	8659
899.513	8712
899.633	8785
899.753	8682
899.873	8693
899.993	8727
900.113	8689
900.232	8689
900.352	8667
900.472	8598
900.591	8522
900.711	8556
900.83	8556
900.95	8636
901.069	8663
901.189	8564
901.308	8450
901.427	8396
901.546	8347
901.665	8476
901.784	8480
901.904	8423
902.023	8309
902.141	8229
902.26	8172
902.379	8256
902.498	8187
902.617	8206
902.735	8229
902.854	8328
902.973	8259
903.091	8138
903.21	8096
903.328	8172
903.446	8161
903.565	8039
903.683	8039
903.801	8024
903.919	8100
904.038	8164
904.156	8008
904.274	8039
904.392	7940
904.51	8046
904.627	7970
904.745	8081
904.863	8180
904.981	7906
905.098	7871
905.216	7841
905.334	7841
905.451	7871
905.569	7803
905.686	7890
905.803	7833
905.921	7765
906.038	7947
906.155	7837
906.272	7727
906.389	7719
906.506	7719
906.623	7639
906.74	7533
906.857	7476
906.974	7552
907.091	7643
907.208	7719
907.324	7632
907.441	7575
907.557	7411
907.674	7457
907.79	7445
907.907	7381
908.023	7480
908.139	7392
908.256	7358
908.372	7289
908.488	7346
908.604	7213
908.72	7175
908.836	7305
908.952	7259
909.068	7244
909.184	7320
909.3	7179
909.415	7297
909.531	7308
909.647	7027
909.762	7072
909.878	7069
909.993	7088
910.108	7107
910.224	7080
910.339	7122
910.454	7069
910.57	6962
910.685	6916
910.8	7175
910.915	7023
911.03	7000
911.145	6916
911.259	6920
911.374	6863
911.489	6810
911.604	6772
911.718	6696
911.833	6776
911.947	6627
912.062	6627
912.176	6650
912.291	6711
912.405	6681
912.519	6764
912.633	6867
912.748	6673
912.862	6692
912.976	6608
913.09	6509
913.204	6604
913.318	6593
913.431	6642
913.545	6631
913.659	6681
913.772	6604
913.886	6555
914	6582
914.113	6570
914.226	6620
914.34	6620
914.453	6494
914.566	6631
914.68	6509
914.793	6483
914.906	6422
915.019	6414
915.132	6395
915.245	6418
915.358	6452
915.47	6422
915.583	6445
915.696	6403
915.809	6574
915.921	6544
916.034	6464
916.146	6380
916.259	6338
916.371	6479
916.483	6467
916.595	6391
916.708	6403
916.82	6350
916.932	6331
917.044	6403
917.156	6437
917.268	6285
917.38	6319
917.491	6353
917.603	6353
917.715	6388
917.826	6388
917.938	6342
918.049	6254
918.161	6384
918.272	6448
918.384	6429
918.495	6315
918.606	6175
918.717	6125
918.828	6205
918.939	6292
919.05	6148
919.161	6216
919.272	6102
919.383	6182
919.494	6304
919.604	6426
919.715	6277
919.826	6254
919.936	6247
920.047	6357
920.157	6216
920.267	6502
920.378	6334
920.488	6292
920.598	6418
920.708	6429
920.818	6399
920.928	6506
921.038	6578
921.148	6566
921.258	6334
921.368	6266
921.477	6224
921.587	6163
921.697	6057
921.806	6178
921.916	5977
922.025	5889
922.134	5904
922.244	5882
922.353	5901
922.462	5802
922.571	5786
922.68	5729
922.789	5672
922.898	5684
923.007	5600
923.116	5649
923.224	5623
923.333	5642
923.442	5585
923.55	5516
923.659	5562
923.767	5649
923.876	5471
923.984	5592
924.092	5573
924.201	5570
924.309	5547
924.417	5547
924.525	5516
924.633	5509
924.741	6228
924.849	5334
924.956	5436
925.064	5372
925.172	5296
925.279	5318
925.387	5330
925.494	5398
925.602	5414
925.709	5357
925.816	5318
925.924	5288
926.031	5349
926.138	5299
926.245	5284
926.352	5242
926.459	5277
926.566	5307
926.673	5155
926.779	5147
926.886	5121
926.993	5037
927.099	5010
927.206	4995
927.312	4908
927.419	5006
927.525	4953
927.631	4919
927.737	4896
927.843	4854
927.95	4767
928.056	4831
928.162	4786
928.267	4854
928.373	5299
928.479	4847
928.585	4683
928.69	4748
928.796	4793
928.901	4683
929.007	4565
929.112	4672
929.218	4634
929.323	4607
929.428	4565
929.533	4626
929.638	4542
929.743	4497
929.848	4538
929.953	4489
930.058	4443
930.163	4310
930.267	4360
930.372	4436
930.477	4329
930.581	4493
930.685	4322
930.79	4249
930.894	4287
930.998	4261
931.103	4344
931.207	4116
931.311	4093
931.415	4040
931.519	3937
931.623	3857
