Data from glass_V78500241_113.txt Node
Date: Wed Sep 01 19:15:16 CST 2021
User: usil
Spectrometer: V785-0024
Trigger mode: 0
Integration Time (sec): 4.000000E-1
Scans to average: 1
Nonlinearity correction enabled: false
Boxcar width: 0
Storing dark spectrum: false
XAxis mode: Wavelengths
Number of Pixels in Spectrum: 1024
>>>>>Begin Spectral Data<<<<<
801.071	3728
801.214	3732
801.356	3713
801.499	3804
801.641	3755
801.783	3823
801.926	3850
802.068	3842
802.211	3873
802.353	3846
802.496	3808
802.638	3892
802.78	3922
802.923	3915
803.065	3915
803.208	3812
803.35	3899
803.492	3880
803.635	3934
803.777	3831
803.919	3884
804.061	4166
804.204	3975
804.346	3994
804.488	3949
804.63	4032
804.773	4017
804.915	4029
805.057	4105
805.199	4029
805.341	4109
805.483	4135
805.626	4139
805.768	4116
805.91	4207
806.052	4322
806.194	4215
806.336	4379
806.478	4185
806.62	4211
806.762	4173
806.904	4318
807.046	4299
807.188	4238
807.33	4185
807.472	4272
807.614	4200
807.756	4246
807.898	4219
808.04	4230
808.182	4325
808.324	4344
808.465	4356
808.607	4428
808.749	4489
808.891	4512
809.033	4519
809.174	4424
809.316	4253
809.458	4257
809.6	4143
809.741	4166
809.883	4143
810.025	4215
810.166	4276
810.308	4211
810.45	4215
810.591	4238
810.733	4333
810.875	4508
811.016	4831
811.158	5105
811.299	5303
811.441	5315
811.582	5075
811.724	4706
811.865	4500
812.007	4478
812.148	4436
812.29	4417
812.431	4421
812.573	4417
812.714	4409
812.855	4424
812.997	4428
813.138	4504
813.279	4485
813.421	4413
813.562	4398
813.703	4356
813.845	4322
813.986	4303
814.127	4268
814.268	4272
814.41	4375
814.551	4246
814.692	4344
814.833	4325
814.974	4280
815.115	4367
815.256	4284
815.397	4230
815.539	4223
815.68	4192
815.821	4246
815.962	4329
816.103	4325
816.244	4234
816.385	4246
816.526	4291
816.666	4257
816.807	4120
816.948	4265
817.089	4211
817.23	4150
817.371	4097
817.512	4063
817.653	4093
817.793	4044
817.934	4036
818.075	4116
818.216	4112
818.356	4105
818.497	3979
818.638	3953
818.778	3888
818.919	3884
819.06	3869
819.2	3903
819.341	3869
819.481	3857
819.622	3937
819.762	4040
819.903	3953
820.043	3865
820.184	3819
820.324	3835
820.465	3907
820.605	3854
820.746	3907
820.886	3827
821.026	3964
821.167	3964
821.307	4021
821.447	3998
821.588	3964
821.728	3998
821.868	3915
822.008	3884
822.149	3876
822.289	3945
822.429	3819
822.569	3808
822.709	3819
822.849	3694
822.99	3701
823.13	3785
823.27	3812
823.41	3785
823.55	3728
823.69	3694
823.83	3717
823.97	3671
824.11	3606
824.25	3595
824.389	3629
824.529	3694
824.669	3671
824.809	3740
824.949	3743
825.089	3732
825.228	3717
825.368	3610
825.508	3587
825.648	3576
825.787	3591
825.927	3663
826.067	3671
826.206	3679
826.346	3778
826.485	3865
826.625	3876
826.765	3987
826.904	3850
827.044	3667
827.183	3530
827.323	3477
827.462	3488
827.601	3416
827.741	3447
827.88	3477
828.02	3397
828.159	3450
828.298	3496
828.437	3507
828.577	3485
828.716	3618
828.855	3504
828.994	3439
829.134	3389
829.273	3447
829.412	3374
829.551	3382
829.69	3363
829.829	3431
829.968	3534
830.107	3488
830.246	3454
830.385	3378
830.524	3355
830.663	3325
830.802	3249
830.941	3211
831.08	3226
831.219	3260
831.357	3275
831.496	3431
831.635	3275
831.774	3241
831.913	3233
832.051	3150
832.19	3180
832.329	3233
832.467	3169
832.606	3104
832.744	3184
832.883	3161
833.022	3230
833.16	3283
833.299	3317
833.437	3382
833.576	3412
833.714	3443
833.852	3397
833.991	3428
834.129	3473
834.267	3450
834.406	3431
834.544	3435
834.682	3431
834.821	3435
834.959	3561
835.097	3447
835.235	3545
835.373	3473
835.511	3511
835.65	3462
835.788	3492
835.926	3386
836.064	3405
836.202	3439
836.34	3606
836.478	3656
836.615	3576
836.753	3595
836.891	3694
837.029	3652
837.167	3576
837.305	3564
837.443	3557
837.58	3538
837.718	3667
837.856	3580
837.993	3507
838.131	3625
838.269	3564
838.406	3622
838.544	3584
838.681	3538
838.819	3500
838.956	3401
839.094	3393
839.231	3458
839.369	3507
839.506	3751
839.643	3682
839.781	3496
839.918	3477
840.055	3595
840.193	3599
840.33	3519
840.467	3584
840.604	3610
840.742	3800
840.879	3561
841.016	3606
841.153	3591
841.29	3770
841.427	3740
841.564	3732
841.701	3789
841.838	3732
841.975	3728
842.112	3720
842.249	3660
842.385	3641
842.522	3873
842.659	3690
842.796	3686
842.933	3713
843.069	3698
843.206	3747
843.343	3800
843.479	3838
843.616	3804
843.752	3690
843.889	3728
844.025	3861
844.162	3675
844.298	3854
844.435	3762
844.571	3812
844.708	3915
844.844	4036
844.98	4006
845.117	4025
845.253	3941
845.389	3934
845.525	3937
845.661	3979
845.798	3937
845.934	4032
846.07	3930
846.206	4074
846.342	4074
846.478	4063
846.614	3998
846.75	3949
846.886	3915
847.022	3994
847.158	3987
847.294	4025
847.429	3991
847.565	3991
847.701	4295
847.837	3934
847.972	3907
848.108	3922
848.244	3987
848.379	3876
848.515	3797
848.65	3800
848.786	3850
848.921	3854
849.057	3937
849.192	3953
849.328	3930
849.463	3930
849.598	3915
849.734	3911
849.869	3804
850.004	3804
850.14	3838
850.275	3808
850.41	3778
850.545	3793
850.68	3774
850.815	3785
850.95	3842
851.085	3934
851.22	3903
851.355	3800
851.49	3804
851.625	3816
851.76	3831
851.895	3747
852.03	3770
852.165	3804
852.299	3869
852.434	3880
852.569	3846
852.703	3892
852.838	3983
852.973	3991
853.107	4006
853.242	3896
853.376	3819
853.511	3823
853.645	3835
853.78	3941
853.914	3918
854.048	3918
854.183	3922
854.317	3937
854.451	4074
854.585	3945
854.72	3964
854.854	4055
854.988	3998
855.122	4010
855.256	3915
855.39	4010
855.524	4063
855.658	4116
855.792	4120
855.926	4162
856.06	4200
856.194	4253
856.327	4162
856.461	4109
856.595	4116
856.729	4227
856.862	4318
856.996	4272
857.13	4329
857.263	4325
857.397	4356
857.53	4322
857.664	4394
857.797	4371
857.931	4432
858.064	4443
858.197	4432
858.331	4409
858.464	4398
858.597	4337
858.731	4459
858.864	4474
858.997	4512
859.13	4489
859.263	4573
859.396	4592
859.529	4558
859.662	4538
859.795	4531
859.928	4637
860.061	4740
860.194	4744
860.327	4687
860.46	4641
860.592	4729
860.725	4778
860.858	4759
860.99	4706
861.123	4710
861.256	4755
861.388	4805
861.521	5554
861.653	4706
861.786	4729
861.918	4721
862.05	4790
862.183	4797
862.315	4930
862.447	4961
862.58	4843
862.712	4847
862.844	4778
862.976	4873
863.108	4858
863.24	5250
863.372	4850
863.504	4919
863.636	4873
863.768	4976
863.9	4991
864.032	5006
864.164	4938
864.296	5037
864.428	5105
864.559	5094
864.691	5124
864.823	5124
864.954	5162
865.086	5113
865.217	5121
865.349	5140
865.48	5170
865.612	5193
865.743	5311
865.875	5250
866.006	5189
866.137	5231
866.269	5185
866.4	5258
866.531	5242
866.662	5212
866.793	5280
866.924	5318
867.055	5318
867.186	5345
867.317	5330
867.448	5334
867.579	5398
867.71	5353
867.841	5368
867.972	5501
868.103	5497
868.233	5459
868.364	5520
868.495	5581
868.625	5703
868.756	5802
868.886	5653
869.017	5691
869.147	5840
869.278	5863
869.408	5832
869.539	5866
869.669	5920
869.799	5969
869.929	5935
870.06	5988
870.19	6224
870.32	6159
870.45	6224
870.58	6315
870.71	6437
870.84	6464
870.97	6426
871.1	6464
871.23	6620
871.36	6738
871.489	6669
871.619	6818
871.749	6867
871.879	6924
872.008	7015
872.138	6993
872.267	6993
872.397	6951
872.526	7015
872.656	7091
872.785	7183
872.915	7411
873.044	7529
873.173	7582
873.303	7666
873.432	7765
873.561	7928
873.69	7902
873.819	7925
873.948	8191
874.077	8256
874.206	8328
874.335	8465
874.464	8670
874.593	8811
874.722	8982
874.851	9116
874.979	9245
875.108	9363
875.237	9439
875.365	9500
875.494	9595
875.623	9873
875.751	9934
875.88	9987
876.008	10177
876.136	10215
876.265	10512
876.393	10672
876.521	10759
876.65	10900
876.778	10866
876.906	10854
877.034	11022
877.162	11109
877.29	11117
877.418	11280
877.546	11299
877.674	11474
877.802	11566
877.93	11570
878.058	11676
878.185	11615
878.313	11630
878.441	11790
878.568	11627
878.696	11710
878.824	11813
878.951	12041
879.079	12057
879.206	12224
879.333	12114
879.461	12076
879.588	12095
879.715	12091
879.842	12194
879.97	12133
880.097	11954
880.224	11916
880.351	11920
880.478	11950
880.605	11889
880.732	11828
880.859	11961
880.986	11863
881.112	11874
881.239	11710
881.366	11646
881.493	11665
881.619	11509
881.746	11573
881.872	11516
881.999	11566
882.125	11512
882.252	11524
882.378	11463
882.505	11509
882.631	11383
882.757	11349
882.883	11402
883.01	11277
883.136	11147
883.262	11166
883.388	11151
883.514	11246
883.64	11147
883.766	11083
883.892	11083
884.018	11037
884.143	11052
884.269	11109
884.395	10862
884.52	10725
884.646	10892
884.772	10729
884.897	10691
885.023	10687
885.148	10771
885.274	10725
885.399	10694
885.524	10531
885.65	10584
885.775	10607
885.9	10596
886.025	10668
886.15	10550
886.275	10478
886.4	10363
886.525	10421
886.65	10417
886.775	10333
886.9	10447
887.025	10478
887.149	10333
887.274	10303
887.399	10253
887.523	10223
887.648	10181
887.773	10112
887.897	10188
888.021	10230
888.146	10162
888.27	10287
888.395	10219
888.519	10139
888.643	10268
888.767	10188
888.891	10105
889.015	10010
889.139	10109
889.263	9983
889.387	10109
889.511	10188
889.635	10017
889.759	9987
889.883	10029
890.006	9983
890.13	10135
890.254	9956
890.377	9998
890.501	9869
890.624	9899
890.748	9873
890.871	9842
890.995	9759
891.118	9713
891.241	9842
891.364	9755
891.488	9869
891.611	9698
891.734	9751
891.857	9717
891.98	9720
892.103	9736
892.226	9755
892.349	9724
892.471	9526
892.594	9603
892.717	9561
892.839	9648
892.962	9599
893.085	9701
893.207	9656
893.33	9515
893.452	9542
893.575	9568
893.697	9534
893.819	9618
893.941	9671
894.064	9606
894.186	9511
894.308	9367
894.43	9519
894.552	9595
894.674	9557
894.796	9359
894.918	9405
895.04	9408
895.161	9408
895.283	9443
895.405	9313
895.526	9249
895.648	9275
895.769	9226
895.891	9325
896.012	9298
896.134	9260
896.255	9256
896.376	9161
896.498	9195
896.619	9138
896.74	9097
896.861	9116
896.982	9287
897.103	9268
897.224	9123
897.345	9104
897.466	8963
897.587	9017
897.708	9112
897.828	8998
897.949	8956
898.07	8868
898.19	8929
898.311	9032
898.431	8868
898.552	8910
898.672	8979
898.792	8975
898.913	8914
899.033	8807
899.153	8716
899.273	8651
899.393	8686
899.513	8845
899.633	8762
899.753	8777
899.873	8731
899.993	8823
900.113	8777
900.232	8678
900.352	8720
900.472	8537
900.591	8526
900.711	8613
900.83	8533
900.95	8629
901.069	8727
901.189	8552
901.308	8400
901.427	8438
901.546	8473
901.665	8492
901.784	8606
901.904	8457
902.023	8442
902.141	8191
902.26	8199
902.379	8290
902.498	8248
902.617	8153
902.735	8339
902.854	8252
902.973	8309
903.091	8134
903.21	8145
903.328	8176
903.446	8172
903.565	8126
903.683	8088
903.801	8012
903.919	8183
904.038	8123
904.156	8039
904.274	8138
904.392	8001
904.51	8092
904.627	8096
904.745	8100
904.863	8134
904.981	7974
905.098	7830
905.216	7856
905.334	7921
905.451	7890
905.569	7875
905.686	7986
905.803	7951
905.921	7803
906.038	7871
906.155	7742
906.272	7670
906.389	7708
906.506	7658
906.623	7685
906.74	7609
906.857	7556
906.974	7567
907.091	7712
907.208	7666
907.324	7556
907.441	7563
907.557	7434
907.674	7480
907.79	7350
907.907	7453
908.023	7438
908.139	7434
908.256	7384
908.372	7373
908.488	7339
908.604	7278
908.72	7221
908.836	7316
908.952	7247
909.068	7251
909.184	7335
909.3	7274
909.415	7297
909.531	7308
909.647	7164
909.762	7152
909.878	7118
909.993	7095
910.108	7023
910.224	7118
910.339	7168
910.454	7057
910.57	7042
910.685	7031
910.8	7164
910.915	7129
911.03	7038
911.145	6958
911.259	6951
911.374	6924
911.489	6924
911.604	6779
911.718	6715
911.833	6779
911.947	6646
912.062	6642
912.176	6722
912.291	6734
912.405	6681
912.519	6848
912.633	6840
912.748	6688
912.862	6711
912.976	6589
913.09	6479
913.204	6570
913.318	6654
913.431	6703
913.545	6734
913.659	6711
913.772	6658
913.886	6616
914	6517
914.113	6673
914.226	6631
914.34	6631
914.453	6517
914.566	6608
914.68	6574
914.793	6566
914.906	6418
915.019	6357
915.132	6376
915.245	6475
915.358	6456
915.47	6494
915.583	6399
915.696	6547
915.809	6498
915.921	6566
916.034	6418
916.146	6407
916.259	6391
916.371	6498
916.483	6475
916.595	6403
916.708	6460
916.82	6422
916.932	6418
917.044	6429
917.156	6418
917.268	6270
917.38	6342
917.491	6308
917.603	6365
917.715	6403
917.826	6422
917.938	6361
918.049	6273
918.161	6338
918.272	6513
918.384	6429
918.495	6342
918.606	6281
918.717	6243
918.828	6285
918.939	6277
919.05	6205
919.161	6270
919.272	6136
919.383	6194
919.494	6350
919.604	6395
919.715	6338
919.826	6216
919.936	6281
920.047	6353
920.157	6262
920.267	6437
920.378	6331
920.488	6254
920.598	6502
920.708	6631
920.818	6483
920.928	6540
921.038	6627
921.148	6623
921.258	6391
921.368	6308
921.477	6277
921.587	6190
921.697	6125
921.806	6201
921.916	6140
922.025	5958
922.134	5965
922.244	5878
922.353	5969
922.462	5866
922.571	5817
922.68	5733
922.789	5714
922.898	5756
923.007	5691
923.116	5691
923.224	5684
923.333	5680
923.442	5657
923.55	5581
923.659	5649
923.767	5577
923.876	5543
923.984	5646
924.092	5497
924.201	5581
924.309	5638
924.417	5509
924.525	5512
924.633	5493
924.741	6163
924.849	5341
924.956	5516
925.064	5345
925.172	5318
925.279	5330
925.387	5368
925.494	5406
925.602	5433
925.709	5383
925.816	5280
925.924	5315
926.031	5421
926.138	5296
926.245	5330
926.352	5254
926.459	5299
926.566	5341
926.673	5208
926.779	5147
926.886	5147
926.993	5018
927.099	5033
927.206	4995
927.312	4965
927.419	5033
927.525	4999
927.631	5003
927.737	4908
927.843	4892
927.95	4805
928.056	4809
928.162	4828
928.267	4892
928.373	5345
928.479	4881
928.585	4748
928.69	4828
928.796	4812
928.901	4694
929.007	4630
929.112	4714
929.218	4607
929.323	4622
929.428	4577
929.533	4687
929.638	4535
929.743	4527
929.848	4584
929.953	4516
930.058	4440
930.163	4348
930.267	4333
930.372	4413
930.477	4310
930.581	4447
930.685	4383
930.79	4265
930.894	4299
930.998	4299
931.103	4398
931.207	4093
931.311	4109
931.415	4071
931.519	3991
931.623	3972
