Data from glass_V78500241_2449.txt Node
Date: Wed Sep 01 19:31:28 CST 2021
User: usil
Spectrometer: V785-0024
Trigger mode: 0
Integration Time (sec): 4.000000E-1
Scans to average: 1
Nonlinearity correction enabled: false
Boxcar width: 0
Storing dark spectrum: false
XAxis mode: Wavelengths
Number of Pixels in Spectrum: 1024
>>>>>Begin Spectral Data<<<<<
801.071	3690
801.214	3755
801.356	3690
801.499	3724
801.641	3720
801.783	3789
801.926	3865
802.068	3816
802.211	3854
802.353	3899
802.496	3812
802.638	3880
802.78	3911
802.923	3930
803.065	3861
803.208	3838
803.35	3865
803.492	3876
803.635	3903
803.777	3816
803.919	3880
804.061	4139
804.204	3926
804.346	3941
804.488	3922
804.63	4051
804.773	3918
804.915	4021
805.057	4105
805.199	4032
805.341	4071
805.483	4131
805.626	4105
805.768	4090
805.91	4223
806.052	4223
806.194	4200
806.336	4318
806.478	4211
806.62	4150
806.762	4173
806.904	4219
807.046	4398
807.188	4204
807.33	4185
807.472	4227
807.614	4211
807.756	4291
807.898	4207
808.04	4249
808.182	4329
808.324	4318
808.465	4367
808.607	4443
808.749	4443
808.891	4409
809.033	4531
809.174	4409
809.316	4268
809.458	4188
809.6	4181
809.741	4143
809.883	4124
810.025	4219
810.166	4200
810.308	4238
810.45	4219
810.591	4257
810.733	4257
810.875	4504
811.016	4835
811.158	5064
811.299	5288
811.441	5216
811.582	5075
811.724	4706
811.865	4462
812.007	4474
812.148	4398
812.29	4371
812.431	4394
812.573	4367
812.714	4360
812.855	4443
812.997	4443
813.138	4432
813.279	4424
813.421	4375
813.562	4371
813.703	4333
813.845	4352
813.986	4234
814.127	4211
814.268	4230
814.41	4215
814.551	4219
814.692	4280
814.833	4219
814.974	4268
815.115	4310
815.256	4303
815.397	4196
815.539	4204
815.68	4173
815.821	4188
815.962	4341
816.103	4280
816.244	4177
816.385	4207
816.526	4253
816.666	4238
816.807	4090
816.948	4154
817.089	4185
817.23	4147
817.371	4006
817.512	4059
817.653	4051
817.793	4048
817.934	4017
818.075	4093
818.216	4074
818.356	4090
818.497	3972
818.638	3934
818.778	3945
818.919	3903
819.06	3831
819.2	3899
819.341	3876
819.481	3846
819.622	3876
819.762	4017
819.903	3949
820.043	3857
820.184	3812
820.324	3781
820.465	3907
820.605	3865
820.746	3865
820.886	3823
821.026	3937
821.167	3915
821.307	3972
821.447	3968
821.588	3915
821.728	3945
821.868	3941
822.008	3869
822.149	3907
822.289	3896
822.429	3747
822.569	3705
822.709	3759
822.849	3682
822.99	3740
823.13	3755
823.27	3740
823.41	3701
823.55	3732
823.69	3671
823.83	3785
823.97	3686
824.11	3606
824.25	3538
824.389	3606
824.529	3675
824.669	3633
824.809	3690
824.949	3736
825.089	3717
825.228	3709
825.368	3553
825.508	3564
825.648	3564
825.787	3625
825.927	3637
826.067	3584
826.206	3633
826.346	3747
826.485	3808
826.625	3865
826.765	3937
826.904	3816
827.044	3629
827.183	3515
827.323	3435
827.462	3492
827.601	3416
827.741	3397
827.88	3473
828.02	3389
828.159	3466
828.298	3450
828.437	3538
828.577	3466
828.716	3534
828.855	3458
828.994	3363
829.134	3359
829.273	3367
829.412	3310
829.551	3283
829.69	3382
829.829	3416
829.968	3515
830.107	3458
830.246	3454
830.385	3405
830.524	3351
830.663	3287
830.802	3199
830.941	3169
831.08	3176
831.219	3237
831.357	3230
831.496	3397
831.635	3237
831.774	3184
831.913	3176
832.051	3123
832.19	3161
832.329	3211
832.467	3135
832.606	3093
832.744	3207
832.883	3173
833.022	3184
833.16	3207
833.299	3275
833.437	3336
833.576	3329
833.714	3401
833.852	3439
833.991	3443
834.129	3416
834.267	3389
834.406	3389
834.544	3439
834.682	3416
834.821	3397
834.959	3568
835.097	3386
835.235	3542
835.373	3462
835.511	3496
835.65	3450
835.788	3462
835.926	3374
836.064	3359
836.202	3393
836.34	3599
836.478	3584
836.615	3534
836.753	3553
836.891	3656
837.029	3610
837.167	3580
837.305	3545
837.443	3523
837.58	3488
837.718	3568
837.856	3564
837.993	3564
838.131	3625
838.269	3545
838.406	3572
838.544	3587
838.681	3466
838.819	3485
838.956	3370
839.094	3382
839.231	3469
839.369	3500
839.506	3717
839.643	3614
839.781	3481
839.918	3469
840.055	3534
840.193	3515
840.33	3504
840.467	3572
840.604	3591
840.742	3835
840.879	3587
841.016	3564
841.153	3576
841.29	3736
841.427	3690
841.564	3709
841.701	3686
841.838	3690
841.975	3671
842.112	3671
842.249	3606
842.385	3614
842.522	3800
842.659	3690
842.796	3644
842.933	3690
843.069	3690
843.206	3690
843.343	3808
843.479	3770
843.616	3823
843.752	3675
843.889	3667
844.025	3816
844.162	3717
844.298	3804
844.435	3797
844.571	3774
844.708	3953
844.844	3953
844.98	3991
845.117	3968
845.253	3896
845.389	3884
845.525	3956
845.661	3934
845.798	3899
845.934	3987
846.07	3968
846.206	4044
846.342	4116
846.478	4055
846.614	3968
846.75	3937
846.886	3926
847.022	4021
847.158	3991
847.294	3987
847.429	4032
847.565	3949
847.701	4249
847.837	3861
847.972	3831
848.108	3956
848.244	3930
848.379	3835
848.515	3781
848.65	3819
848.786	3903
848.921	3865
849.057	3911
849.192	3968
849.328	3926
849.463	3903
849.598	3907
849.734	3892
849.869	3804
850.004	3789
850.14	3800
850.275	3766
850.41	3713
850.545	3736
850.68	3778
850.815	3823
850.95	3755
851.085	3896
851.22	3865
851.355	3797
851.49	3762
851.625	3789
851.76	3759
851.895	3713
852.03	3717
852.165	3819
852.299	3823
852.434	3888
852.569	3846
852.703	3850
852.838	3937
852.973	3918
853.107	3994
853.242	3880
853.376	3846
853.511	3720
853.645	3819
853.78	3926
853.914	3861
854.048	3896
854.183	3888
854.317	3968
854.451	4090
854.585	3953
854.72	3934
854.854	4036
854.988	3926
855.122	4040
855.256	3892
855.39	4032
855.524	4067
855.658	4044
855.792	4082
855.926	4131
856.06	4158
856.194	4223
856.327	4120
856.461	4105
856.595	4128
856.729	4173
856.862	4261
856.996	4238
857.13	4265
857.263	4287
857.397	4329
857.53	4268
857.664	4337
857.797	4379
857.931	4409
858.064	4405
858.197	4371
858.331	4356
858.464	4409
858.597	4329
858.731	4409
858.864	4466
858.997	4375
859.13	4485
859.263	4504
859.396	4569
859.529	4485
859.662	4565
859.795	4504
859.928	4630
860.061	4714
860.194	4702
860.327	4618
860.46	4672
860.592	4702
860.725	4725
860.858	4786
860.99	4649
861.123	4710
861.256	4687
861.388	4759
861.521	5471
861.653	4725
861.786	4641
861.918	4725
862.05	4801
862.183	4843
862.315	4896
862.447	4934
862.58	4873
862.712	4805
862.844	4725
862.976	4885
863.108	4908
863.24	5242
863.372	4786
863.504	4866
863.636	4900
863.768	4919
863.9	4953
864.032	4915
864.164	4930
864.296	5060
864.428	5071
864.559	5075
864.691	5155
864.823	5075
864.954	5102
865.086	5128
865.217	5098
865.349	5083
865.48	5086
865.612	5162
865.743	5231
865.875	5193
866.006	5166
866.137	5231
866.269	5201
866.4	5235
866.531	5280
866.662	5208
866.793	5242
866.924	5265
867.055	5357
867.186	5322
867.317	5345
867.448	5265
867.579	5391
867.71	5337
867.841	5379
867.972	5448
868.103	5474
868.233	5486
868.364	5566
868.495	5532
868.625	5627
868.756	5775
868.886	5676
869.017	5756
869.147	5863
869.278	5866
869.408	5794
869.539	5783
869.669	5874
869.799	5904
869.929	5954
870.06	6019
870.19	6148
870.32	6175
870.45	6209
870.58	6338
870.71	6422
870.84	6433
870.97	6342
871.1	6426
871.23	6620
871.36	6711
871.489	6673
871.619	6722
871.749	6829
871.879	6886
872.008	6958
872.138	6962
872.267	6989
872.397	6981
872.526	7031
872.656	7061
872.785	7187
872.915	7346
873.044	7468
873.173	7476
873.303	7647
873.432	7731
873.561	7837
873.69	7871
873.819	7978
873.948	8199
874.077	8191
874.206	8366
874.335	8396
874.464	8648
874.593	8933
874.722	8834
874.851	9100
874.979	9260
875.108	9443
875.237	9405
875.365	9515
875.494	9606
875.623	9819
875.751	9819
875.88	10025
876.008	10162
876.136	10272
876.265	10546
876.393	10679
876.521	10694
876.65	10839
876.778	10797
876.906	10934
877.034	10980
877.162	11064
877.29	11239
877.418	11311
877.546	11356
877.674	11368
877.802	11474
877.93	11581
878.058	11516
878.185	11562
878.313	11608
878.441	11779
878.568	11737
878.696	11851
878.824	11893
878.951	11866
879.079	11969
879.206	12102
879.333	12083
879.461	11977
879.588	12083
879.715	12064
879.842	12251
879.97	12022
880.097	11817
880.224	11824
880.351	11912
880.478	11855
880.605	11779
880.732	11843
880.859	11927
880.986	11809
881.112	11901
881.239	11733
881.366	11676
881.493	11604
881.619	11581
881.746	11543
881.872	11528
881.999	11535
882.125	11436
882.252	11619
882.378	11558
882.505	11505
882.631	11349
882.757	11288
882.883	11299
883.01	11197
883.136	11254
883.262	11128
883.388	11083
883.514	11204
883.64	11140
883.766	11143
883.892	10965
884.018	10957
884.143	11056
884.269	11006
884.395	10839
884.52	10691
884.646	10683
884.772	10736
884.897	10641
885.023	10683
885.148	10634
885.274	10733
885.399	10702
885.524	10538
885.65	10523
885.775	10611
885.9	10580
886.025	10588
886.15	10538
886.275	10402
886.4	10344
886.525	10367
886.65	10348
886.775	10333
886.9	10424
887.025	10523
887.149	10367
887.274	10169
887.399	10120
887.523	10204
887.648	10124
887.773	10109
887.897	10215
888.021	10234
888.146	10139
888.27	10242
888.395	10131
888.519	10177
888.643	10166
888.767	10166
888.891	10093
889.015	9998
889.139	10063
889.263	9991
889.387	10051
889.511	10082
889.635	10040
889.759	9956
889.883	9945
890.006	9953
890.13	10109
890.254	9937
890.377	9876
890.501	9930
890.624	9842
890.748	9831
890.871	9755
890.995	9747
891.118	9755
891.241	9717
891.364	9755
891.488	9854
891.611	9732
891.734	9816
891.857	9740
891.98	9717
892.103	9736
892.226	9675
892.349	9622
892.471	9496
892.594	9511
892.717	9663
892.839	9564
892.962	9553
893.085	9679
893.207	9549
893.33	9549
893.452	9599
893.575	9572
893.697	9538
893.819	9610
893.941	9641
894.064	9591
894.186	9397
894.308	9428
894.43	9564
894.552	9580
894.674	9511
894.796	9367
894.918	9408
895.04	9348
895.161	9382
895.283	9355
895.405	9302
895.526	9241
895.648	9180
895.769	9222
895.891	9256
896.012	9218
896.134	9173
896.255	9169
896.376	9195
896.498	9104
896.619	9093
896.74	9085
896.861	9127
896.982	9241
897.103	9275
897.224	9169
897.345	9009
897.466	8963
897.587	9013
897.708	9112
897.828	9001
897.949	8975
898.07	8887
898.19	8891
898.311	8986
898.431	8887
898.552	8937
898.672	8929
898.792	8857
898.913	8971
899.033	8834
899.153	8716
899.273	8678
899.393	8701
899.513	8750
899.633	8735
899.753	8739
899.873	8682
899.993	8773
900.113	8720
900.232	8693
900.352	8606
900.472	8606
900.591	8590
900.711	8617
900.83	8552
900.95	8644
901.069	8678
901.189	8625
901.308	8423
901.427	8484
901.546	8480
901.665	8408
901.784	8480
901.904	8427
902.023	8309
902.141	8252
902.26	8187
902.379	8298
902.498	8176
902.617	8199
902.735	8248
902.854	8256
902.973	8252
903.091	8115
903.21	8088
903.328	8115
903.446	8126
903.565	8088
903.683	8084
903.801	8062
903.919	8062
904.038	8092
904.156	8024
904.274	8050
904.392	8058
904.51	8035
904.627	7986
904.745	8130
904.863	8065
904.981	7955
905.098	7841
905.216	7822
905.334	7826
905.451	7856
905.569	7883
905.686	7917
905.803	7868
905.921	7784
906.038	7887
906.155	7807
906.272	7757
906.389	7753
906.506	7643
906.623	7693
906.74	7597
906.857	7518
906.974	7616
907.091	7670
907.208	7681
907.324	7685
907.441	7582
907.557	7491
907.674	7499
907.79	7369
907.907	7358
908.023	7411
908.139	7464
908.256	7346
908.372	7362
908.488	7369
908.604	7236
908.72	7228
908.836	7320
908.952	7297
909.068	7259
909.184	7301
909.3	7240
909.415	7255
909.531	7217
909.647	7042
909.762	7141
909.878	7046
909.993	7118
910.108	7050
910.224	7084
910.339	7034
910.454	6985
910.57	7027
910.685	6916
910.8	7160
910.915	7110
911.03	7065
911.145	6916
911.259	6916
911.374	6901
911.489	6867
911.604	6837
911.718	6684
911.833	6783
911.947	6673
912.062	6623
912.176	6692
912.291	6703
912.405	6669
912.519	6764
912.633	6833
912.748	6711
912.862	6684
912.976	6703
913.09	6544
913.204	6601
913.318	6616
913.431	6673
913.545	6631
913.659	6703
913.772	6627
913.886	6585
914	6506
914.113	6604
914.226	6635
914.34	6582
914.453	6536
914.566	6582
914.68	6551
914.793	6536
914.906	6494
915.019	6410
915.132	6380
915.245	6437
915.358	6536
915.47	6460
915.583	6494
915.696	6448
915.809	6509
915.921	6566
916.034	6418
916.146	6403
916.259	6380
916.371	6502
916.483	6467
916.595	6388
916.708	6395
916.82	6384
916.932	6391
917.044	6365
917.156	6365
917.268	6308
917.38	6323
917.491	6308
917.603	6292
917.715	6365
917.826	6407
917.938	6331
918.049	6232
918.161	6304
918.272	6422
918.384	6410
918.495	6300
918.606	6205
918.717	6190
918.828	6247
918.939	6277
919.05	6235
919.161	6239
919.272	6152
919.383	6175
919.494	6239
919.604	6452
919.715	6258
919.826	6182
919.936	6239
920.047	6376
920.157	6277
920.267	6433
920.378	6285
920.488	6266
920.598	6513
920.708	6536
920.818	6426
920.928	6437
921.038	6635
921.148	6471
921.258	6342
921.368	6239
921.477	6285
921.587	6125
921.697	6011
921.806	6155
921.916	6079
922.025	5931
922.134	5904
922.244	5847
922.353	5939
922.462	5885
922.571	5783
922.68	5691
922.789	5665
922.898	5703
923.007	5619
923.116	5691
923.224	5649
923.333	5589
923.442	5566
923.55	5581
923.659	5592
923.767	5524
923.876	5539
923.984	5570
924.092	5482
924.201	5535
924.309	5516
924.417	5570
924.525	5478
924.633	5490
924.741	6262
924.849	5395
924.956	5486
925.064	5376
925.172	5280
925.279	5387
925.387	5391
925.494	5280
925.602	5425
925.709	5379
925.816	5277
925.924	5326
926.031	5307
926.138	5258
926.245	5296
926.352	5231
926.459	5296
926.566	5292
926.673	5254
926.779	5124
926.886	5128
926.993	5048
927.099	5041
927.206	4984
927.312	4919
927.419	4930
927.525	4995
927.631	4919
927.737	4877
927.843	4877
927.95	4740
928.056	4790
928.162	4786
928.267	4843
928.373	5261
928.479	4828
928.585	4691
928.69	4744
928.796	4733
928.901	4660
929.007	4637
929.112	4649
929.218	4630
929.323	4615
929.428	4538
929.533	4668
929.638	4485
929.743	4535
929.848	4558
929.953	4504
930.058	4466
930.163	4371
930.267	4363
930.372	4402
930.477	4234
930.581	4447
930.685	4314
930.79	4299
930.894	4318
930.998	4287
931.103	4367
931.207	4128
931.311	4048
931.415	4021
931.519	3918
931.623	3930
