Data from glass_V78500241_1219.txt Node
Date: Wed Sep 01 19:22:57 CST 2021
User: usil
Spectrometer: V785-0024
Trigger mode: 0
Integration Time (sec): 4.000000E-1
Scans to average: 1
Nonlinearity correction enabled: false
Boxcar width: 0
Storing dark spectrum: false
XAxis mode: Wavelengths
Number of Pixels in Spectrum: 1024
>>>>>Begin Spectral Data<<<<<
801.071	3732
801.214	3743
801.356	3686
801.499	3720
801.641	3770
801.783	3793
801.926	3857
802.068	3842
802.211	3857
802.353	3892
802.496	3827
802.638	3911
802.78	3892
802.923	3964
803.065	3838
803.208	3857
803.35	3922
803.492	3884
803.635	3937
803.777	3842
803.919	3903
804.061	4135
804.204	3953
804.346	3994
804.488	3945
804.63	4082
804.773	3987
804.915	4040
805.057	4169
805.199	4067
805.341	4044
805.483	4150
805.626	4139
805.768	4128
805.91	4185
806.052	4227
806.194	4257
806.336	4360
806.478	4242
806.62	4158
806.762	4173
806.904	4322
807.046	4322
807.188	4249
807.33	4185
807.472	4268
807.614	4238
807.756	4219
807.898	4261
808.04	4257
808.182	4303
808.324	4314
808.465	4394
808.607	4421
808.749	4447
808.891	4485
809.033	4558
809.174	4421
809.316	4291
809.458	4295
809.6	4169
809.741	4177
809.883	4166
810.025	4147
810.166	4227
810.308	4238
810.45	4230
810.591	4257
810.733	4268
810.875	4531
811.016	4824
811.158	5121
811.299	5299
811.441	5284
811.582	5102
811.724	4702
811.865	4500
812.007	4466
812.148	4436
812.29	4462
812.431	4417
812.573	4421
812.714	4390
812.855	4402
812.997	4405
813.138	4485
813.279	4409
813.421	4428
813.562	4394
813.703	4375
813.845	4352
813.986	4265
814.127	4234
814.268	4303
814.41	4299
814.551	4249
814.692	4337
814.833	4287
814.974	4306
815.115	4333
815.256	4242
815.397	4322
815.539	4230
815.68	4242
815.821	4246
815.962	4299
816.103	4284
816.244	4265
816.385	4211
816.526	4314
816.666	4238
816.807	4097
816.948	4188
817.089	4211
817.23	4090
817.371	4032
817.512	4021
817.653	4086
817.793	4013
817.934	4067
818.075	4059
818.216	4078
818.356	4093
818.497	4006
818.638	3911
818.778	3873
818.919	3892
819.06	3884
819.2	3975
819.341	3865
819.481	3831
819.622	3937
819.762	4029
819.903	3941
820.043	3873
820.184	3842
820.324	3865
820.465	3892
820.605	3911
820.746	3869
820.886	3800
821.026	3949
821.167	3941
821.307	3953
821.447	3987
821.588	3979
821.728	3975
821.868	3934
822.008	3861
822.149	3937
822.289	3972
822.429	3812
822.569	3781
822.709	3797
822.849	3724
822.99	3709
823.13	3789
823.27	3827
823.41	3720
823.55	3728
823.69	3709
823.83	3747
823.97	3698
824.11	3603
824.25	3603
824.389	3648
824.529	3701
824.669	3633
824.809	3743
824.949	3747
825.089	3732
825.228	3740
825.368	3614
825.508	3564
825.648	3606
825.787	3622
825.927	3717
826.067	3671
826.206	3675
826.346	3819
826.485	3857
826.625	3884
826.765	3934
826.904	3842
827.044	3625
827.183	3542
827.323	3420
827.462	3481
827.601	3462
827.741	3443
827.88	3469
828.02	3389
828.159	3469
828.298	3485
828.437	3538
828.577	3447
828.716	3595
828.855	3519
828.994	3378
829.134	3389
829.273	3401
829.412	3329
829.551	3329
829.69	3378
829.829	3439
829.968	3500
830.107	3454
830.246	3447
830.385	3424
830.524	3409
830.663	3329
830.802	3241
830.941	3188
831.08	3199
831.219	3260
831.357	3272
831.496	3378
831.635	3260
831.774	3214
831.913	3218
832.051	3100
832.19	3173
832.329	3226
832.467	3116
832.606	3100
832.744	3169
832.883	3176
833.022	3203
833.16	3260
833.299	3310
833.437	3344
833.576	3386
833.714	3428
833.852	3420
833.991	3466
834.129	3450
834.267	3458
834.406	3439
834.544	3431
834.682	3409
834.821	3409
834.959	3557
835.097	3431
835.235	3572
835.373	3477
835.511	3492
835.65	3447
835.788	3485
835.926	3378
836.064	3405
836.202	3416
836.34	3568
836.478	3667
836.615	3523
836.753	3614
836.891	3656
837.029	3599
837.167	3564
837.305	3557
837.443	3507
837.58	3500
837.718	3618
837.856	3568
837.993	3572
838.131	3633
838.269	3557
838.406	3603
838.544	3595
838.681	3507
838.819	3466
838.956	3374
839.094	3378
839.231	3454
839.369	3504
839.506	3785
839.643	3637
839.781	3526
839.918	3462
840.055	3507
840.193	3530
840.33	3530
840.467	3576
840.604	3595
840.742	3785
840.879	3572
841.016	3523
841.153	3625
841.29	3797
841.427	3717
841.564	3690
841.701	3743
841.838	3709
841.975	3720
842.112	3743
842.249	3641
842.385	3660
842.522	3823
842.659	3694
842.796	3686
842.933	3755
843.069	3686
843.206	3740
843.343	3854
843.479	3785
843.616	3816
843.752	3690
843.889	3663
844.025	3838
844.162	3728
844.298	3854
844.435	3812
844.571	3823
844.708	3930
844.844	4002
844.98	4010
845.117	3987
845.253	3945
845.389	3915
845.525	4010
845.661	3956
845.798	3937
845.934	4010
846.07	4006
846.206	4071
846.342	4124
846.478	4097
846.614	3983
846.75	3960
846.886	3892
847.022	4051
847.158	3960
847.294	3968
847.429	4002
847.565	3956
847.701	4249
847.837	3865
847.972	3888
848.108	3979
848.244	3983
848.379	3831
848.515	3869
848.65	3846
848.786	3873
848.921	3896
849.057	3922
849.192	3930
849.328	3922
849.463	3907
849.598	3865
849.734	3869
849.869	3854
850.004	3797
850.14	3823
850.275	3827
850.41	3709
850.545	3755
850.68	3823
850.815	3823
850.95	3816
851.085	3949
851.22	3869
851.355	3831
851.49	3778
851.625	3819
851.76	3766
851.895	3682
852.03	3740
852.165	3819
852.299	3816
852.434	3949
852.569	3892
852.703	3865
852.838	3911
852.973	4017
853.107	3998
853.242	3892
853.376	3835
853.511	3785
853.645	3850
853.78	4013
853.914	3941
854.048	3903
854.183	3922
854.317	3930
854.451	4086
854.585	3934
854.72	3949
854.854	4063
854.988	3941
855.122	4032
855.256	3941
855.39	4017
855.524	4128
855.658	4063
855.792	4128
855.926	4128
856.06	4169
856.194	4196
856.327	4154
856.461	4082
856.595	4150
856.729	4204
856.862	4261
856.996	4261
857.13	4272
857.263	4325
857.397	4363
857.53	4268
857.664	4360
857.797	4421
857.931	4462
858.064	4371
858.197	4436
858.331	4405
858.464	4360
858.597	4348
858.731	4466
858.864	4462
858.997	4497
859.13	4531
859.263	4538
859.396	4577
859.529	4508
859.662	4478
859.795	4531
859.928	4645
860.061	4698
860.194	4675
860.327	4672
860.46	4637
860.592	4733
860.725	4805
860.858	4748
860.99	4740
861.123	4653
861.256	4744
861.388	4774
861.521	5212
861.653	4714
861.786	4679
861.918	4736
862.05	4866
862.183	4858
862.315	4877
862.447	4976
862.58	4908
862.712	4812
862.844	4809
862.976	4885
863.108	4889
863.24	5197
863.372	4828
863.504	4934
863.636	4908
863.768	4934
863.9	4968
864.032	4911
864.164	4957
864.296	5037
864.428	5105
864.559	5105
864.691	5147
864.823	5212
864.954	5181
865.086	5102
865.217	5159
865.349	5151
865.48	5166
865.612	5223
865.743	5330
865.875	5201
866.006	5170
866.137	5288
866.269	5231
866.4	5273
866.531	5227
866.662	5246
866.793	5303
866.924	5277
867.055	5322
867.186	5318
867.317	5315
867.448	5337
867.579	5372
867.71	5368
867.841	5406
867.972	5444
868.103	5455
868.233	5493
868.364	5551
868.495	5543
868.625	5691
868.756	5771
868.886	5665
869.017	5745
869.147	5828
869.278	5882
869.408	5885
869.539	5859
869.669	6007
869.799	5901
869.929	5931
870.06	6022
870.19	6220
870.32	6205
870.45	6296
870.58	6365
870.71	6399
870.84	6513
870.97	6448
871.1	6433
871.23	6707
871.36	6681
871.489	6669
871.619	6700
871.749	6730
871.879	6890
872.008	7023
872.138	6993
872.267	7000
872.397	7031
872.526	7072
872.656	7137
872.785	7217
872.915	7403
873.044	7502
873.173	7540
873.303	7605
873.432	7727
873.561	7849
873.69	7890
873.819	7997
873.948	8153
874.077	8256
874.206	8309
874.335	8427
874.464	8640
874.593	8925
874.722	8937
874.851	9154
874.979	9253
875.108	9378
875.237	9424
875.365	9534
875.494	9751
875.623	9907
875.751	9873
875.88	10036
876.008	10120
876.136	10265
876.265	10504
876.393	10752
876.521	10725
876.65	10733
876.778	10862
876.906	10915
877.034	10999
877.162	11094
877.29	11220
877.418	11292
877.546	11402
877.674	11440
877.802	11463
877.93	11520
878.058	11471
878.185	11566
878.313	11745
878.441	11718
878.568	11695
878.696	11878
878.824	11904
878.951	11920
879.079	12034
879.206	12072
879.333	12064
879.461	12038
879.588	11958
879.715	12102
879.842	12258
879.97	12015
880.097	11916
880.224	11942
880.351	11885
880.478	11942
880.605	11851
880.732	11836
880.859	12038
880.986	11779
881.112	11775
881.239	11703
881.366	11707
881.493	11627
881.619	11493
881.746	11566
881.872	11528
881.999	11551
882.125	11512
882.252	11596
882.378	11493
882.505	11543
882.631	11318
882.757	11258
882.883	11345
883.01	11334
883.136	11269
883.262	11121
883.388	11102
883.514	11204
883.64	11166
883.766	11083
883.892	11006
884.018	11056
884.143	11159
884.269	11212
884.395	10850
884.52	10752
884.646	10820
884.772	10729
884.897	10687
885.023	10611
885.148	10660
885.274	10782
885.399	10660
885.524	10668
885.65	10561
885.775	10599
885.9	10584
886.025	10664
886.15	10546
886.275	10447
886.4	10356
886.525	10409
886.65	10443
886.775	10382
886.9	10497
887.025	10531
887.149	10341
887.274	10265
887.399	10192
887.523	10272
887.648	10215
887.773	10150
887.897	10265
888.021	10265
888.146	10120
888.27	10169
888.395	10257
888.519	10227
888.643	10238
888.767	10234
888.891	10101
889.015	9987
889.139	10025
889.263	10067
889.387	10116
889.511	10124
889.635	10082
889.759	9949
889.883	10021
890.006	10025
890.13	10112
890.254	9956
890.377	9949
890.501	9861
890.624	9899
890.748	9895
890.871	9880
890.995	9850
891.118	9743
891.241	9766
891.364	9728
891.488	9880
891.611	9743
891.734	9759
891.857	9808
891.98	9724
892.103	9774
892.226	9785
892.349	9603
892.471	9526
892.594	9534
892.717	9637
892.839	9610
892.962	9625
893.085	9694
893.207	9526
893.33	9625
893.452	9473
893.575	9614
893.697	9568
893.819	9629
893.941	9690
894.064	9515
894.186	9431
894.308	9363
894.43	9504
894.552	9515
894.674	9492
894.796	9378
894.918	9424
895.04	9374
895.161	9420
895.283	9393
895.405	9207
895.526	9283
895.648	9180
895.769	9211
895.891	9275
896.012	9287
896.134	9256
896.255	9203
896.376	9100
896.498	9157
896.619	9085
896.74	9081
896.861	9127
896.982	9241
897.103	9287
897.224	9146
897.345	9039
897.466	9058
897.587	8967
897.708	9108
897.828	9043
897.949	8963
898.07	8853
898.19	8914
898.311	8986
898.431	8941
898.552	8925
898.672	8944
898.792	8971
898.913	8899
899.033	8746
899.153	8815
899.273	8667
899.393	8640
899.513	8826
899.633	8769
899.753	8746
899.873	8777
899.993	8792
900.113	8655
900.232	8758
900.352	8648
900.472	8610
900.591	8636
900.711	8564
900.83	8556
900.95	8697
901.069	8731
901.189	8583
901.308	8412
901.427	8381
901.546	8450
901.665	8533
901.784	8503
901.904	8362
902.023	8347
902.141	8248
902.26	8191
902.379	8294
902.498	8206
902.617	8248
902.735	8309
902.854	8328
902.973	8301
903.091	8130
903.21	8206
903.328	8168
903.446	8176
903.565	8100
903.683	8119
903.801	8027
903.919	8130
904.038	8168
904.156	8062
904.274	8142
904.392	7997
904.51	8046
904.627	8088
904.745	8081
904.863	8145
904.981	7940
905.098	7902
905.216	7868
905.334	7940
905.451	7917
905.569	7887
905.686	7913
905.803	7963
905.921	7803
906.038	7917
906.155	7780
906.272	7719
906.389	7795
906.506	7696
906.623	7643
906.74	7590
906.857	7578
906.974	7605
907.091	7647
907.208	7689
907.324	7632
907.441	7636
907.557	7430
907.674	7453
907.79	7419
907.907	7426
908.023	7426
908.139	7476
908.256	7396
908.372	7381
908.488	7358
908.604	7266
908.72	7190
908.836	7228
908.952	7282
909.068	7278
909.184	7331
909.3	7266
909.415	7266
909.531	7308
909.647	7156
909.762	7152
909.878	7099
909.993	7129
910.108	7129
910.224	7137
910.339	7103
910.454	7088
910.57	6996
910.685	6970
910.8	7110
910.915	7168
911.03	7015
911.145	6882
911.259	6867
911.374	6916
911.489	6814
911.604	6802
911.718	6688
911.833	6688
911.947	6696
912.062	6578
912.176	6700
912.291	6707
912.405	6719
912.519	6844
912.633	6856
912.748	6692
912.862	6726
912.976	6681
913.09	6631
913.204	6593
913.318	6616
913.431	6650
913.545	6700
913.659	6722
913.772	6654
913.886	6566
914	6566
914.113	6665
914.226	6616
914.34	6604
914.453	6521
914.566	6631
914.68	6574
914.793	6574
914.906	6426
915.019	6448
915.132	6380
915.245	6418
915.358	6490
915.47	6483
915.583	6452
915.696	6486
915.809	6563
915.921	6547
916.034	6433
916.146	6433
916.259	6391
916.371	6498
916.483	6502
916.595	6433
916.708	6395
916.82	6441
916.932	6350
917.044	6410
917.156	6422
917.268	6353
917.38	6346
917.491	6251
917.603	6327
917.715	6399
917.826	6395
917.938	6338
918.049	6247
918.161	6319
918.272	6388
918.384	6471
918.495	6285
918.606	6270
918.717	6220
918.828	6338
918.939	6327
919.05	6197
919.161	6243
919.272	6175
919.383	6083
919.494	6300
919.604	6483
919.715	6239
919.826	6216
919.936	6251
920.047	6353
920.157	6292
920.267	6399
920.378	6292
920.488	6270
920.598	6471
920.708	6608
920.818	6506
920.928	6547
921.038	6593
921.148	6601
921.258	6391
921.368	6311
921.477	6213
921.587	6186
921.697	6121
921.806	6167
921.916	6114
922.025	5969
922.134	5885
922.244	5893
922.353	5965
922.462	5855
922.571	5832
922.68	5688
922.789	5745
922.898	5760
923.007	5592
923.116	5722
923.224	5684
923.333	5718
923.442	5634
923.55	5570
923.659	5539
923.767	5619
923.876	5573
923.984	5638
924.092	5493
924.201	5604
924.309	5535
924.417	5615
924.525	5478
924.633	5482
924.741	6296
924.849	5402
924.956	5459
925.064	5376
925.172	5322
925.279	5311
925.387	5353
925.494	5337
925.602	5391
925.709	5398
925.816	5254
925.924	5326
926.031	5376
926.138	5288
926.245	5341
926.352	5189
926.459	5318
926.566	5280
926.673	5235
926.779	5147
926.886	5193
926.993	4980
927.099	5022
927.206	5003
927.312	4946
927.419	5022
927.525	4946
927.631	4995
927.737	4961
927.843	4858
927.95	4755
928.056	4866
928.162	4816
928.267	4843
928.373	5353
928.479	4854
928.585	4691
928.69	4790
928.796	4782
928.901	4710
929.007	4622
929.112	4672
929.218	4653
929.323	4599
929.428	4588
929.533	4698
929.638	4497
929.743	4596
929.848	4542
929.953	4519
930.058	4402
930.163	4337
930.267	4352
930.372	4413
930.477	4306
930.581	4527
930.685	4337
930.79	4299
930.894	4306
930.998	4303
931.103	4394
931.207	4135
931.311	4124
931.415	4055
931.519	3922
931.623	3941
