Data from glass_V78500241_944.txt Node
Date: Wed Sep 01 19:21:02 CST 2021
User: usil
Spectrometer: V785-0024
Trigger mode: 0
Integration Time (sec): 4.000000E-1
Scans to average: 1
Nonlinearity correction enabled: false
Boxcar width: 0
Storing dark spectrum: false
XAxis mode: Wavelengths
Number of Pixels in Spectrum: 1024
>>>>>Begin Spectral Data<<<<<
801.071	3732
801.214	3701
801.356	3724
801.499	3785
801.641	3762
801.783	3747
801.926	3880
802.068	3804
802.211	3842
802.353	3888
802.496	3873
802.638	3880
802.78	3930
802.923	3930
803.065	3850
803.208	3827
803.35	3842
803.492	3903
803.635	3903
803.777	3831
803.919	3899
804.061	4166
804.204	3998
804.346	3930
804.488	3937
804.63	4017
804.773	3968
804.915	4063
805.057	4147
805.199	4067
805.341	4147
805.483	4143
805.626	4162
805.768	4139
805.91	4200
806.052	4215
806.194	4211
806.336	4360
806.478	4261
806.62	4162
806.762	4238
806.904	4261
807.046	4306
807.188	4207
807.33	4200
807.472	4268
807.614	4265
807.756	4310
807.898	4230
808.04	4280
808.182	4322
808.324	4322
808.465	4318
808.607	4489
808.749	4474
808.891	4478
809.033	4569
809.174	4421
809.316	4272
809.458	4284
809.6	4139
809.741	4177
809.883	4128
810.025	4162
810.166	4223
810.308	4192
810.45	4246
810.591	4257
810.733	4299
810.875	4558
811.016	4816
811.158	5197
811.299	5280
811.441	5303
811.582	5083
811.724	4683
811.865	4462
812.007	4451
812.148	4451
812.29	4402
812.431	4383
812.573	4440
812.714	4398
812.855	4455
812.997	4466
813.138	4508
813.279	4402
813.421	4409
813.562	4432
813.703	4348
813.845	4356
813.986	4280
814.127	4230
814.268	4268
814.41	4318
814.551	4299
814.692	4356
814.833	4242
814.974	4295
815.115	4352
815.256	4287
815.397	4227
815.539	4287
815.68	4200
815.821	4257
815.962	4333
816.103	4314
816.244	4265
816.385	4192
816.526	4284
816.666	4173
816.807	4097
816.948	4234
817.089	4185
817.23	4139
817.371	4044
817.512	4086
817.653	4032
817.793	4025
817.934	4040
818.075	4124
818.216	4116
818.356	4051
818.497	4017
818.638	3949
818.778	3880
818.919	3937
819.06	3876
819.2	3926
819.341	3800
819.481	3861
819.622	3899
819.762	4013
819.903	3956
820.043	3892
820.184	3819
820.324	3857
820.465	3880
820.605	3915
820.746	3892
820.886	3800
821.026	3983
821.167	3960
821.307	3998
821.447	3972
821.588	3964
821.728	3983
821.868	3930
822.008	3903
822.149	3896
822.289	3934
822.429	3793
822.569	3751
822.709	3789
822.849	3690
822.99	3690
823.13	3789
823.27	3804
823.41	3759
823.55	3781
823.69	3732
823.83	3728
823.97	3709
824.11	3606
824.25	3580
824.389	3625
824.529	3698
824.669	3625
824.809	3698
824.949	3770
825.089	3747
825.228	3762
825.368	3625
825.508	3587
825.648	3603
825.787	3633
825.927	3660
826.067	3641
826.206	3667
826.346	3812
826.485	3857
826.625	3861
826.765	3975
826.904	3827
827.044	3648
827.183	3526
827.323	3458
827.462	3492
827.601	3466
827.741	3435
827.88	3435
828.02	3382
828.159	3477
828.298	3481
828.437	3534
828.577	3477
828.716	3610
828.855	3504
828.994	3374
829.134	3389
829.273	3393
829.412	3386
829.551	3382
829.69	3389
829.829	3439
829.968	3504
830.107	3412
830.246	3469
830.385	3397
830.524	3340
830.663	3306
830.802	3272
830.941	3237
831.08	3237
831.219	3226
831.357	3294
831.496	3401
831.635	3203
831.774	3211
831.913	3256
832.051	3161
832.19	3173
832.329	3211
832.467	3104
832.606	3123
832.744	3180
832.883	3154
833.022	3214
833.16	3264
833.299	3253
833.437	3370
833.576	3401
833.714	3443
833.852	3443
833.991	3420
834.129	3507
834.267	3416
834.406	3382
834.544	3386
834.682	3469
834.821	3382
834.959	3595
835.097	3420
835.235	3523
835.373	3462
835.511	3545
835.65	3435
835.788	3492
835.926	3393
836.064	3389
836.202	3416
836.34	3591
836.478	3606
836.615	3542
836.753	3614
836.891	3667
837.029	3599
837.167	3603
837.305	3629
837.443	3553
837.58	3500
837.718	3633
837.856	3568
837.993	3553
838.131	3603
838.269	3591
838.406	3591
838.544	3618
838.681	3481
838.819	3435
838.956	3401
839.094	3363
839.231	3435
839.369	3507
839.506	3759
839.643	3663
839.781	3538
839.918	3477
840.055	3538
840.193	3523
840.33	3576
840.467	3538
840.604	3587
840.742	3785
840.879	3595
841.016	3606
841.153	3599
841.29	3751
841.427	3698
841.564	3705
841.701	3743
841.838	3656
841.975	3682
842.112	3720
842.249	3663
842.385	3633
842.522	3827
842.659	3701
842.796	3675
842.933	3732
843.069	3694
843.206	3720
843.343	3831
843.479	3800
843.616	3838
843.752	3682
843.889	3686
844.025	3869
844.162	3736
844.298	3873
844.435	3800
844.571	3819
844.708	3934
844.844	4002
844.98	4059
845.117	4032
845.253	3937
845.389	3926
845.525	3991
845.661	3964
845.798	3884
845.934	4063
846.07	3994
846.206	4097
846.342	4143
846.478	4078
846.614	3956
846.75	3949
846.886	3937
847.022	4040
847.158	3964
847.294	4044
847.429	4036
847.565	4048
847.701	4230
847.837	3922
847.972	3915
848.108	4002
848.244	3979
848.379	3888
848.515	3835
848.65	3808
848.786	3819
848.921	3854
849.057	3945
849.192	3968
849.328	3975
849.463	3926
849.598	3915
849.734	3888
849.869	3842
850.004	3804
850.14	3819
850.275	3751
850.41	3740
850.545	3781
850.68	3785
850.815	3854
850.95	3785
851.085	3896
851.22	3892
851.355	3873
851.49	3774
851.625	3793
851.76	3804
851.895	3724
852.03	3724
852.165	3789
852.299	3831
852.434	3918
852.569	3907
852.703	3888
852.838	3945
852.973	3998
853.107	4029
853.242	3911
853.376	3823
853.511	3835
853.645	3835
853.78	3979
853.914	3911
854.048	3911
854.183	3941
854.317	3960
854.451	4120
854.585	3972
854.72	3934
854.854	4082
854.988	3934
855.122	4074
855.256	3941
855.39	4017
855.524	4135
855.658	4112
855.792	4139
855.926	4169
856.06	4204
856.194	4227
856.327	4109
856.461	4150
856.595	4143
856.729	4211
856.862	4303
856.996	4257
857.13	4272
857.263	4363
857.397	4344
857.53	4318
857.664	4363
857.797	4432
857.931	4405
858.064	4402
858.197	4459
858.331	4409
858.464	4424
858.597	4356
858.731	4405
858.864	4466
858.997	4481
859.13	4569
859.263	4516
859.396	4546
859.529	4508
859.662	4580
859.795	4561
859.928	4615
860.061	4710
860.194	4755
860.327	4721
860.46	4592
860.592	4729
860.725	4812
860.858	4786
860.99	4717
861.123	4714
861.256	4672
861.388	4790
861.521	5497
861.653	4729
861.786	4721
861.918	4740
862.05	4816
862.183	4828
862.315	4927
862.447	4972
862.58	4858
862.712	4774
862.844	4786
862.976	4915
863.108	4847
863.24	5162
863.372	4835
863.504	4896
863.636	4881
863.768	4984
863.9	4961
864.032	4930
864.164	4957
864.296	5071
864.428	5109
864.559	5102
864.691	5197
864.823	5117
864.954	5117
865.086	5159
865.217	5124
865.349	5136
865.48	5189
865.612	5185
865.743	5288
865.875	5208
866.006	5212
866.137	5239
866.269	5258
866.4	5303
866.531	5292
866.662	5185
866.793	5250
866.924	5254
867.055	5360
867.186	5349
867.317	5372
867.448	5307
867.579	5341
867.71	5383
867.841	5436
867.972	5459
868.103	5444
868.233	5512
868.364	5497
868.495	5585
868.625	5672
868.756	5764
868.886	5771
869.017	5752
869.147	5859
869.278	5863
869.408	5844
869.539	5817
869.669	5889
869.799	5961
869.929	5946
870.06	6019
870.19	6140
870.32	6247
870.45	6273
870.58	6331
870.71	6395
870.84	6471
870.97	6452
871.1	6479
871.23	6582
871.36	6673
871.489	6654
871.619	6722
871.749	6852
871.879	6821
872.008	7015
872.138	6973
872.267	7004
872.397	7012
872.526	7031
872.656	7137
872.785	7232
872.915	7453
873.044	7468
873.173	7571
873.303	7624
873.432	7753
873.561	7887
873.69	7925
873.819	8016
873.948	8115
874.077	8233
874.206	8355
874.335	8431
874.464	8670
874.593	8902
874.722	8937
874.851	9169
874.979	9237
875.108	9401
875.237	9412
875.365	9504
875.494	9629
875.623	9892
875.751	9835
875.88	9983
876.008	10147
876.136	10303
876.265	10466
876.393	10698
876.521	10755
876.65	10809
876.778	10843
876.906	10953
877.034	10984
877.162	11147
877.29	11208
877.418	11345
877.546	11326
877.674	11505
877.802	11516
877.93	11547
878.058	11532
878.185	11611
878.313	11688
878.441	11756
878.568	11649
878.696	11802
878.824	11832
878.951	11996
879.079	12026
879.206	12159
879.333	12060
879.461	11961
879.588	12083
879.715	12262
879.842	12201
879.97	12091
880.097	11988
880.224	11866
880.351	11863
880.478	11942
880.605	11889
880.732	11828
880.859	12102
880.986	11843
881.112	11809
881.239	11714
881.366	11676
881.493	11649
881.619	11535
881.746	11558
881.872	11611
881.999	11524
882.125	11478
882.252	11596
882.378	11379
882.505	11482
882.631	11360
882.757	11337
882.883	11322
883.01	11258
883.136	11178
883.262	11113
883.388	11147
883.514	11143
883.64	11220
883.766	11109
883.892	10991
884.018	10972
884.143	11098
884.269	11128
884.395	10885
884.52	10763
884.646	10793
884.772	10771
884.897	10641
885.023	10740
885.148	10687
885.274	10767
885.399	10733
885.524	10573
885.65	10550
885.775	10558
885.9	10550
886.025	10588
886.15	10596
886.275	10542
886.4	10447
886.525	10417
886.65	10440
886.775	10409
886.9	10493
887.025	10569
887.149	10371
887.274	10291
887.399	10234
887.523	10109
887.648	10135
887.773	10147
887.897	10268
888.021	10204
888.146	10188
888.27	10306
888.395	10215
888.519	10249
888.643	10287
888.767	10253
888.891	10051
889.015	10093
889.139	10059
889.263	9918
889.387	10036
889.511	10090
889.635	10029
889.759	9926
889.883	9998
890.006	9972
890.13	10105
890.254	10025
890.377	9953
890.501	9873
890.624	9861
890.748	9964
890.871	9808
890.995	9686
891.118	9774
891.241	9781
891.364	9816
891.488	9804
891.611	9774
891.734	9690
891.857	9827
891.98	9698
892.103	9797
892.226	9690
892.349	9671
892.471	9553
892.594	9591
892.717	9641
892.839	9606
892.962	9584
893.085	9663
893.207	9580
893.33	9549
893.452	9511
893.575	9568
893.697	9473
893.819	9675
893.941	9599
894.064	9568
894.186	9401
894.308	9378
894.43	9580
894.552	9549
894.674	9580
894.796	9332
894.918	9428
895.04	9386
895.161	9378
895.283	9367
895.405	9233
895.526	9279
895.648	9207
895.769	9237
895.891	9283
896.012	9253
896.134	9230
896.255	9135
896.376	9157
896.498	9112
896.619	9047
896.74	9058
896.861	9070
896.982	9302
897.103	9287
897.224	9138
897.345	9062
897.466	8994
897.587	9001
897.708	9123
897.828	9017
897.949	8948
898.07	8910
898.19	8925
898.311	9112
898.431	8952
898.552	8921
898.672	9005
898.792	8979
898.913	8872
899.033	8766
899.153	8727
899.273	8667
899.393	8750
899.513	8781
899.633	8750
899.753	8815
899.873	8689
899.993	8766
900.113	8739
900.232	8693
900.352	8613
900.472	8625
900.591	8648
900.711	8663
900.83	8556
900.95	8712
901.069	8689
901.189	8556
901.308	8423
901.427	8404
901.546	8446
901.665	8480
901.784	8473
901.904	8450
902.023	8339
902.141	8244
902.26	8294
902.379	8263
902.498	8233
902.617	8183
902.735	8362
902.854	8381
902.973	8343
903.091	8100
903.21	8176
903.328	8161
903.446	8100
903.565	8058
903.683	8119
903.801	8073
903.919	8206
904.038	8088
904.156	8035
904.274	8096
904.392	8008
904.51	8027
904.627	8024
904.745	8145
904.863	8077
904.981	7925
905.098	7830
905.216	7940
905.334	7982
905.451	7936
905.569	7864
905.686	7932
905.803	7887
905.921	7776
906.038	7868
906.155	7788
906.272	7700
906.389	7700
906.506	7655
906.623	7651
906.74	7601
906.857	7544
906.974	7590
907.091	7712
907.208	7731
907.324	7647
907.441	7628
907.557	7430
907.674	7502
907.79	7419
907.907	7388
908.023	7506
908.139	7426
908.256	7381
908.372	7377
908.488	7316
908.604	7343
908.72	7263
908.836	7301
908.952	7274
909.068	7346
909.184	7335
909.3	7266
909.415	7312
909.531	7301
909.647	7168
909.762	7091
909.878	7004
909.993	7107
910.108	7107
910.224	7088
910.339	7118
910.454	6993
910.57	7000
910.685	6947
910.8	7194
910.915	7118
911.03	7076
911.145	6920
911.259	6882
911.374	6901
911.489	6856
911.604	6825
911.718	6707
911.833	6730
911.947	6665
912.062	6635
912.176	6730
912.291	6703
912.405	6711
912.519	6783
912.633	6806
912.748	6715
912.862	6715
912.976	6623
913.09	6536
913.204	6612
913.318	6620
913.431	6677
913.545	6684
913.659	6745
913.772	6601
913.886	6566
914	6589
914.113	6677
914.226	6631
914.34	6597
914.453	6506
914.566	6612
914.68	6570
914.793	6521
914.906	6414
915.019	6399
915.132	6365
915.245	6391
915.358	6437
915.47	6433
915.583	6456
915.696	6513
915.809	6536
915.921	6532
916.034	6445
916.146	6403
916.259	6399
916.371	6521
916.483	6525
916.595	6448
916.708	6418
916.82	6369
916.932	6388
917.044	6391
917.156	6410
917.268	6357
917.38	6338
917.491	6266
917.603	6353
917.715	6369
917.826	6456
917.938	6395
918.049	6300
918.161	6296
918.272	6426
918.384	6407
918.495	6399
918.606	6311
918.717	6258
918.828	6228
918.939	6296
919.05	6194
919.161	6220
919.272	6136
919.383	6110
919.494	6327
919.604	6403
919.715	6281
919.826	6209
919.936	6247
920.047	6327
920.157	6296
920.267	6494
920.378	6281
920.488	6353
920.598	6410
920.708	6566
920.818	6513
920.928	6456
921.038	6623
921.148	6547
921.258	6353
921.368	6281
921.477	6243
921.587	6186
921.697	6072
921.806	6167
921.916	6057
922.025	6007
922.134	5923
922.244	5866
922.353	5996
922.462	5893
922.571	5802
922.68	5786
922.789	5703
922.898	5703
923.007	5672
923.116	5760
923.224	5745
923.333	5661
923.442	5608
923.55	5604
923.659	5611
923.767	5604
923.876	5539
923.984	5642
924.092	5539
924.201	5570
924.309	5520
924.417	5554
924.525	5486
924.633	5493
924.741	6121
924.849	5372
924.956	5467
925.064	5318
925.172	5296
925.279	5349
925.387	5379
925.494	5357
925.602	5414
925.709	5376
925.816	5299
925.924	5345
926.031	5395
926.138	5315
926.245	5337
926.352	5223
926.459	5296
926.566	5360
926.673	5212
926.779	5136
926.886	5132
926.993	5045
927.099	4957
927.206	4991
927.312	4980
927.419	5056
927.525	5010
927.631	5010
927.737	4908
927.843	4862
927.95	4820
928.056	4877
928.162	4812
928.267	4927
928.373	5360
928.479	4900
928.585	4725
928.69	4759
928.796	4812
928.901	4683
929.007	4569
929.112	4717
929.218	4641
929.323	4592
929.428	4558
929.533	4641
929.638	4485
929.743	4592
929.848	4630
929.953	4523
930.058	4428
930.163	4341
930.267	4348
930.372	4462
930.477	4325
930.581	4440
930.685	4379
930.79	4280
930.894	4341
930.998	4207
931.103	4398
931.207	4120
931.311	4063
931.415	4063
931.519	3892
931.623	3956
