Data from glass_V78500241_2806.txt Node
Date: Wed Sep 01 19:33:57 CST 2021
User: usil
Spectrometer: V785-0024
Trigger mode: 0
Integration Time (sec): 4.000000E-1
Scans to average: 1
Nonlinearity correction enabled: false
Boxcar width: 0
Storing dark spectrum: false
XAxis mode: Wavelengths
Number of Pixels in Spectrum: 1024
>>>>>Begin Spectral Data<<<<<
801.071	3713
801.214	3743
801.356	3686
801.499	3713
801.641	3751
801.783	3793
801.926	3823
802.068	3808
802.211	3808
802.353	3857
802.496	3785
802.638	3861
802.78	3892
802.923	3876
803.065	3896
803.208	3842
803.35	3861
803.492	3873
803.635	3854
803.777	3793
803.919	3903
804.061	4120
804.204	3918
804.346	3911
804.488	3884
804.63	4006
804.773	3945
804.915	3945
805.057	4082
805.199	4013
805.341	4059
805.483	4074
805.626	4154
805.768	4128
805.91	4185
806.052	4192
806.194	4169
806.336	4390
806.478	4200
806.62	4166
806.762	4200
806.904	4249
807.046	4268
807.188	4200
807.33	4169
807.472	4246
807.614	4188
807.756	4306
807.898	4173
808.04	4215
808.182	4341
808.324	4265
808.465	4318
808.607	4443
808.749	4436
808.891	4447
809.033	4489
809.174	4421
809.316	4249
809.458	4234
809.6	4105
809.741	4101
809.883	4128
810.025	4166
810.166	4196
810.308	4166
810.45	4204
810.591	4238
810.733	4265
810.875	4485
811.016	4786
811.158	5109
811.299	5231
811.441	5212
811.582	5098
811.724	4679
811.865	4447
812.007	4462
812.148	4405
812.29	4398
812.431	4409
812.573	4367
812.714	4325
812.855	4394
812.997	4379
813.138	4489
813.279	4379
813.421	4344
813.562	4386
813.703	4291
813.845	4318
813.986	4276
814.127	4219
814.268	4253
814.41	4287
814.551	4246
814.692	4310
814.833	4249
814.974	4287
815.115	4344
815.256	4238
815.397	4196
815.539	4177
815.68	4238
815.821	4166
815.962	4363
816.103	4249
816.244	4211
816.385	4196
816.526	4207
816.666	4158
816.807	4082
816.948	4196
817.089	4158
817.23	4097
817.371	4025
817.512	4017
817.653	4059
817.793	4059
817.934	4021
818.075	4067
818.216	4074
818.356	4105
818.497	3972
818.638	3884
818.778	3896
818.919	3869
819.06	3838
819.2	3857
819.341	3831
819.481	3827
819.622	3892
819.762	4006
819.903	3960
820.043	3850
820.184	3854
820.324	3808
820.465	3842
820.605	3850
820.746	3880
820.886	3759
821.026	3884
821.167	3880
821.307	3926
821.447	3937
821.588	3907
821.728	3907
821.868	3953
822.008	3876
822.149	3941
822.289	3903
822.429	3793
822.569	3755
822.709	3781
822.849	3682
822.99	3728
823.13	3732
823.27	3781
823.41	3705
823.55	3709
823.69	3724
823.83	3728
823.97	3713
824.11	3595
824.25	3584
824.389	3610
824.529	3671
824.669	3610
824.809	3717
824.949	3751
825.089	3686
825.228	3686
825.368	3580
825.508	3580
825.648	3595
825.787	3591
825.927	3622
826.067	3652
826.206	3629
826.346	3755
826.485	3816
826.625	3846
826.765	3926
826.904	3827
827.044	3610
827.183	3526
827.323	3401
827.462	3481
827.601	3454
827.741	3416
827.88	3447
828.02	3355
828.159	3405
828.298	3458
828.437	3507
828.577	3447
828.716	3576
828.855	3481
828.994	3382
829.134	3302
829.273	3374
829.412	3340
829.551	3332
829.69	3351
829.829	3412
829.968	3507
830.107	3405
830.246	3431
830.385	3351
830.524	3310
830.663	3306
830.802	3260
830.941	3188
831.08	3154
831.219	3226
831.357	3268
831.496	3420
831.635	3214
831.774	3161
831.913	3169
832.051	3142
832.19	3138
832.329	3195
832.467	3127
832.606	3093
832.744	3127
832.883	3180
833.022	3199
833.16	3237
833.299	3306
833.437	3321
833.576	3351
833.714	3359
833.852	3428
833.991	3420
834.129	3443
834.267	3428
834.406	3355
834.544	3424
834.682	3420
834.821	3416
834.959	3568
835.097	3416
835.235	3557
835.373	3473
835.511	3477
835.65	3420
835.788	3504
835.926	3382
836.064	3325
836.202	3393
836.34	3557
836.478	3603
836.615	3534
836.753	3557
836.891	3599
837.029	3603
837.167	3545
837.305	3538
837.443	3515
837.58	3466
837.718	3572
837.856	3507
837.993	3561
838.131	3599
838.269	3584
838.406	3595
838.544	3591
838.681	3443
838.819	3439
838.956	3363
839.094	3405
839.231	3428
839.369	3519
839.506	3713
839.643	3618
839.781	3488
839.918	3466
840.055	3534
840.193	3534
840.33	3507
840.467	3568
840.604	3545
840.742	3800
840.879	3591
841.016	3580
841.153	3557
841.29	3717
841.427	3667
841.564	3724
841.701	3743
841.838	3652
841.975	3610
842.112	3728
842.249	3584
842.385	3671
842.522	3831
842.659	3667
842.796	3679
842.933	3652
843.069	3690
843.206	3694
843.343	3808
843.479	3789
843.616	3812
843.752	3629
843.889	3656
844.025	3823
844.162	3720
844.298	3869
844.435	3770
844.571	3747
844.708	3892
844.844	3987
844.98	4010
845.117	4013
845.253	3869
845.389	3857
845.525	3956
845.661	3899
845.798	3892
845.934	3994
846.07	4017
846.206	4071
846.342	4078
846.478	4032
846.614	3975
846.75	3937
846.886	3911
847.022	3949
847.158	3964
847.294	4010
847.429	3991
847.565	3972
847.701	4257
847.837	3865
847.972	3823
848.108	3983
848.244	3937
848.379	3819
848.515	3770
848.65	3789
848.786	3835
848.921	3850
849.057	3903
849.192	3968
849.328	3915
849.463	3888
849.598	3857
849.734	3800
849.869	3808
850.004	3759
850.14	3778
850.275	3755
850.41	3705
850.545	3732
850.68	3740
850.815	3812
850.95	3759
851.085	3941
851.22	3838
851.355	3823
851.49	3797
851.625	3774
851.76	3720
851.895	3709
852.03	3755
852.165	3762
852.299	3854
852.434	3850
852.569	3854
852.703	3899
852.838	3896
852.973	3953
853.107	3972
853.242	3869
853.376	3827
853.511	3755
853.645	3827
853.78	3956
853.914	3896
854.048	3857
854.183	3842
854.317	3899
854.451	4036
854.585	3949
854.72	3979
854.854	4090
854.988	3918
855.122	3979
855.256	3865
855.39	4021
855.524	4048
855.658	4097
855.792	4131
855.926	4124
856.06	4128
856.194	4173
856.327	4116
856.461	4093
856.595	4124
856.729	4143
856.862	4207
856.996	4257
857.13	4299
857.263	4272
857.397	4329
857.53	4280
857.664	4352
857.797	4371
857.931	4360
858.064	4356
858.197	4409
858.331	4356
858.464	4390
858.597	4333
858.731	4394
858.864	4409
858.997	4424
859.13	4523
859.263	4546
859.396	4546
859.529	4497
859.662	4504
859.795	4538
859.928	4592
860.061	4702
860.194	4634
860.327	4637
860.46	4645
860.592	4702
860.725	4710
860.858	4752
860.99	4717
861.123	4660
861.256	4626
861.388	4744
861.521	5269
861.653	4679
861.786	4717
861.918	4759
862.05	4752
862.183	4824
862.315	4885
862.447	4919
862.58	4881
862.712	4755
862.844	4759
862.976	4847
863.108	4858
863.24	5159
863.372	4839
863.504	4892
863.636	4858
863.768	4980
863.9	4953
864.032	4896
864.164	4938
864.296	4972
864.428	5025
864.559	5067
864.691	5109
864.823	5128
864.954	5071
865.086	5109
865.217	5121
865.349	5113
865.48	5159
865.612	5166
865.743	5292
865.875	5193
866.006	5181
866.137	5189
866.269	5235
866.4	5242
866.531	5189
866.662	5212
866.793	5223
866.924	5246
867.055	5345
867.186	5296
867.317	5292
867.448	5269
867.579	5337
867.71	5372
867.841	5395
867.972	5402
868.103	5406
868.233	5467
868.364	5486
868.495	5535
868.625	5642
868.756	5775
868.886	5600
869.017	5718
869.147	5809
869.278	5874
869.408	5802
869.539	5809
869.669	5939
869.799	5878
869.929	6011
870.06	6011
870.19	6152
870.32	6152
870.45	6277
870.58	6289
870.71	6418
870.84	6391
870.97	6403
871.1	6399
871.23	6635
871.36	6681
871.489	6658
871.619	6711
871.749	6798
871.879	6798
872.008	6970
872.138	6913
872.267	6966
872.397	6996
872.526	7057
872.656	7061
872.785	7168
872.915	7331
873.044	7464
873.173	7521
873.303	7662
873.432	7708
873.561	7818
873.69	7841
873.819	8024
873.948	8142
874.077	8202
874.206	8362
874.335	8431
874.464	8735
874.593	8868
874.722	8891
874.851	9173
874.979	9192
875.108	9382
875.237	9447
875.365	9443
875.494	9663
875.623	9751
875.751	9819
875.88	10010
876.008	10105
876.136	10223
876.265	10405
876.393	10660
876.521	10687
876.65	10801
876.778	10839
876.906	10873
877.034	10968
877.162	11041
877.29	11079
877.418	11326
877.546	11383
877.674	11417
877.802	11425
877.93	11520
878.058	11509
878.185	11600
878.313	11722
878.441	11790
878.568	11642
878.696	11726
878.824	11817
878.951	11904
879.079	11980
879.206	12019
879.333	12030
879.461	11931
879.588	11969
879.715	12026
879.842	12224
879.97	12064
880.097	11836
880.224	11851
880.351	11847
880.478	11893
880.605	11840
880.732	11809
880.859	11901
880.986	11840
881.112	11813
881.239	11786
881.366	11672
881.493	11554
881.619	11528
881.746	11554
881.872	11535
881.999	11444
882.125	11395
882.252	11459
882.378	11433
882.505	11528
882.631	11376
882.757	11322
882.883	11376
883.01	11197
883.136	11258
883.262	11140
883.388	11086
883.514	11231
883.64	11189
883.766	11052
883.892	10987
884.018	11025
884.143	11064
884.269	11083
884.395	10820
884.52	10736
884.646	10767
884.772	10694
884.897	10653
885.023	10694
885.148	10812
885.274	10675
885.399	10668
885.524	10580
885.65	10565
885.775	10554
885.9	10584
886.025	10607
886.15	10535
886.275	10459
886.4	10344
886.525	10318
886.65	10352
886.775	10295
886.9	10500
887.025	10485
887.149	10280
887.274	10261
887.399	10268
887.523	10158
887.648	10177
887.773	10112
887.897	10215
888.021	10234
888.146	10074
888.27	10215
888.395	10230
888.519	10116
888.643	10158
888.767	10139
888.891	10124
889.015	9994
889.139	10101
889.263	10006
889.387	10105
889.511	10082
889.635	10025
889.759	9915
889.883	10010
890.006	9975
890.13	10059
890.254	9964
890.377	9922
890.501	9888
890.624	9827
890.748	9880
890.871	9743
890.995	9736
891.118	9694
891.241	9774
891.364	9740
891.488	9778
891.611	9778
891.734	9740
891.857	9819
891.98	9656
892.103	9785
892.226	9720
892.349	9679
892.471	9576
892.594	9595
892.717	9625
892.839	9526
892.962	9648
893.085	9648
893.207	9534
893.33	9473
893.452	9500
893.575	9625
893.697	9435
893.819	9568
893.941	9568
894.064	9576
894.186	9420
894.308	9397
894.43	9473
894.552	9473
894.674	9545
894.796	9405
894.918	9412
895.04	9306
895.161	9348
895.283	9355
895.405	9199
895.526	9173
895.648	9233
895.769	9211
895.891	9249
896.012	9253
896.134	9214
896.255	9157
896.376	9081
896.498	9119
896.619	9135
896.74	9036
896.861	9043
896.982	9268
897.103	9302
897.224	9074
897.345	9047
897.466	9013
897.587	9001
897.708	9093
897.828	9017
897.949	8967
898.07	8834
898.19	8838
898.311	8933
898.431	8849
898.552	8910
898.672	8880
898.792	8956
898.913	8853
899.033	8807
899.153	8724
899.273	8720
899.393	8766
899.513	8735
899.633	8743
899.753	8667
899.873	8632
899.993	8708
900.113	8727
900.232	8670
900.352	8629
900.472	8594
900.591	8575
900.711	8629
900.83	8495
900.95	8590
901.069	8670
901.189	8625
901.308	8473
901.427	8343
901.546	8450
901.665	8377
901.784	8473
901.904	8400
902.023	8271
902.141	8172
902.26	8138
902.379	8248
902.498	8191
902.617	8210
902.735	8218
902.854	8240
902.973	8248
903.091	8077
903.21	8077
903.328	8153
903.446	8107
903.565	8096
903.683	8065
903.801	7986
903.919	8119
904.038	8088
904.156	7944
904.274	8100
904.392	7982
904.51	8020
904.627	8043
904.745	8077
904.863	8027
904.981	7947
905.098	7830
905.216	7784
905.334	7890
905.451	7856
905.569	7940
905.686	7925
905.803	7856
905.921	7746
906.038	7807
906.155	7750
906.272	7734
906.389	7693
906.506	7571
906.623	7628
906.74	7578
906.857	7491
906.974	7544
907.091	7662
907.208	7696
907.324	7632
907.441	7525
907.557	7491
907.674	7438
907.79	7381
907.907	7373
908.023	7476
908.139	7419
908.256	7388
908.372	7343
908.488	7308
908.604	7206
908.72	7289
908.836	7247
908.952	7236
909.068	7194
909.184	7301
909.3	7270
909.415	7305
909.531	7259
909.647	7095
909.762	7065
909.878	7042
909.993	7103
910.108	7065
910.224	7046
910.339	7061
910.454	7012
910.57	6970
910.685	6875
910.8	7076
910.915	7129
911.03	6947
911.145	6905
911.259	6837
911.374	6806
911.489	6856
911.604	6779
911.718	6734
911.833	6772
911.947	6658
912.062	6582
912.176	6673
912.291	6654
912.405	6631
912.519	6806
912.633	6825
912.748	6711
912.862	6677
912.976	6665
913.09	6471
913.204	6513
913.318	6578
913.431	6654
913.545	6734
913.659	6703
913.772	6642
913.886	6540
914	6555
914.113	6616
914.226	6593
914.34	6635
914.453	6464
914.566	6574
914.68	6528
914.793	6540
914.906	6403
915.019	6395
915.132	6319
915.245	6407
915.358	6441
915.47	6414
915.583	6494
915.696	6441
915.809	6475
915.921	6486
916.034	6426
916.146	6414
916.259	6353
916.371	6448
916.483	6403
916.595	6353
916.708	6426
916.82	6353
916.932	6353
917.044	6391
917.156	6422
917.268	6346
917.38	6319
917.491	6327
917.603	6304
917.715	6369
917.826	6414
917.938	6289
918.049	6281
918.161	6292
918.272	6403
918.384	6346
918.495	6353
918.606	6201
918.717	6213
918.828	6251
918.939	6289
919.05	6155
919.161	6201
919.272	6106
919.383	6083
919.494	6232
919.604	6391
919.715	6232
919.826	6228
919.936	6239
920.047	6273
920.157	6251
920.267	6437
920.378	6258
920.488	6243
920.598	6410
920.708	6502
920.818	6410
920.928	6429
921.038	6494
921.148	6559
921.258	6323
921.368	6285
921.477	6201
921.587	6171
921.697	6114
921.806	6201
921.916	6011
922.025	5859
922.134	5889
922.244	5844
922.353	5885
922.462	5847
922.571	5764
922.68	5672
922.789	5684
922.898	5680
923.007	5570
923.116	5676
923.224	5630
923.333	5600
923.442	5532
923.55	5589
923.659	5585
923.767	5581
923.876	5493
923.984	5566
924.092	5478
924.201	5528
924.309	5520
924.417	5524
924.525	5467
924.633	5467
924.741	6273
924.849	5330
924.956	5436
925.064	5299
925.172	5250
925.279	5284
925.387	5311
925.494	5303
925.602	5391
925.709	5368
925.816	5261
925.924	5326
926.031	5360
926.138	5299
926.245	5296
926.352	5201
926.459	5307
926.566	5334
926.673	5223
926.779	5121
926.886	5140
926.993	5045
927.099	5018
927.206	4976
927.312	4949
927.419	4961
927.525	4957
927.631	4995
927.737	4881
927.843	4900
927.95	4736
928.056	4752
928.162	4828
928.267	4854
928.373	5307
928.479	4843
928.585	4645
928.69	4774
928.796	4767
928.901	4656
929.007	4611
929.112	4626
929.218	4622
929.323	4542
929.428	4561
929.533	4679
929.638	4497
929.743	4527
929.848	4512
929.953	4474
930.058	4424
930.163	4303
930.267	4318
930.372	4409
930.477	4314
930.581	4424
930.685	4383
930.79	4253
930.894	4306
930.998	4268
931.103	4360
931.207	4120
931.311	4048
931.415	4036
931.519	3873
931.623	3930
