Data from glass_V78500241_2427.txt Node
Date: Wed Sep 01 19:31:19 CST 2021
User: usil
Spectrometer: V785-0024
Trigger mode: 0
Integration Time (sec): 4.000000E-1
Scans to average: 1
Nonlinearity correction enabled: false
Boxcar width: 0
Storing dark spectrum: false
XAxis mode: Wavelengths
Number of Pixels in Spectrum: 1024
>>>>>Begin Spectral Data<<<<<
801.071	3705
801.214	3736
801.356	3675
801.499	3717
801.641	3743
801.783	3759
801.926	3865
802.068	3838
802.211	3812
802.353	3888
802.496	3812
802.638	3899
802.78	3892
802.923	3953
803.065	3850
803.208	3884
803.35	3884
803.492	3888
803.635	3937
803.777	3785
803.919	3884
804.061	4131
804.204	3926
804.346	3941
804.488	3873
804.63	3994
804.773	3983
804.915	4017
805.057	4147
805.199	3994
805.341	4063
805.483	4169
805.626	4101
805.768	4112
805.91	4227
806.052	4230
806.194	4135
806.336	4367
806.478	4204
806.62	4207
806.762	4196
806.904	4249
807.046	4276
807.188	4196
807.33	4188
807.472	4253
807.614	4204
807.756	4276
807.898	4154
808.04	4173
808.182	4303
808.324	4329
808.465	4375
808.607	4470
808.749	4432
808.891	4478
809.033	4466
809.174	4383
809.316	4268
809.458	4211
809.6	4181
809.741	4124
809.883	4162
810.025	4185
810.166	4204
810.308	4192
810.45	4242
810.591	4249
810.733	4295
810.875	4512
811.016	4816
811.158	5113
811.299	5292
811.441	5269
811.582	5014
811.724	4668
811.865	4432
812.007	4485
812.148	4466
812.29	4398
812.431	4413
812.573	4413
812.714	4375
812.855	4424
812.997	4413
813.138	4481
813.279	4409
813.421	4394
813.562	4363
813.703	4310
813.845	4325
813.986	4272
814.127	4249
814.268	4276
814.41	4265
814.551	4253
814.692	4306
814.833	4230
814.974	4291
815.115	4337
815.256	4207
815.397	4246
815.539	4249
815.68	4196
815.821	4227
815.962	4265
816.103	4249
816.244	4223
816.385	4223
816.526	4173
816.666	4230
816.807	4097
816.948	4150
817.089	4196
817.23	4105
817.371	4063
817.512	4067
817.653	4097
817.793	4006
817.934	4044
818.075	4071
818.216	4040
818.356	4059
818.497	3979
818.638	3926
818.778	3915
818.919	3876
819.06	3827
819.2	3941
819.341	3819
819.481	3827
819.622	3899
819.762	4017
819.903	3956
820.043	3831
820.184	3816
820.324	3800
820.465	3873
820.605	3808
820.746	3876
820.886	3778
821.026	3915
821.167	3922
821.307	3953
821.447	3972
821.588	3907
821.728	3960
821.868	3896
822.008	3869
822.149	3857
822.289	3907
822.429	3793
822.569	3740
822.709	3785
822.849	3671
822.99	3682
823.13	3759
823.27	3743
823.41	3660
823.55	3732
823.69	3663
823.83	3755
823.97	3675
824.11	3622
824.25	3606
824.389	3576
824.529	3671
824.669	3614
824.809	3690
824.949	3755
825.089	3740
825.228	3671
825.368	3553
825.508	3545
825.648	3591
825.787	3564
825.927	3595
826.067	3587
826.206	3641
826.346	3755
826.485	3812
826.625	3842
826.765	3960
826.904	3865
827.044	3610
827.183	3511
827.323	3424
827.462	3526
827.601	3424
827.741	3416
827.88	3447
828.02	3374
828.159	3435
828.298	3469
828.437	3538
828.577	3450
828.716	3599
828.855	3462
828.994	3355
829.134	3370
829.273	3393
829.412	3329
829.551	3321
829.69	3332
829.829	3443
829.968	3530
830.107	3447
830.246	3412
830.385	3370
830.524	3409
830.663	3283
830.802	3253
830.941	3199
831.08	3207
831.219	3275
831.357	3283
831.496	3370
831.635	3230
831.774	3165
831.913	3169
832.051	3138
832.19	3123
832.329	3226
832.467	3131
832.606	3093
832.744	3157
832.883	3169
833.022	3192
833.16	3272
833.299	3310
833.437	3340
833.576	3336
833.714	3374
833.852	3405
833.991	3431
834.129	3466
834.267	3420
834.406	3359
834.544	3450
834.682	3386
834.821	3405
834.959	3591
835.097	3424
835.235	3496
835.373	3469
835.511	3504
835.65	3443
835.788	3477
835.926	3378
836.064	3370
836.202	3389
836.34	3542
836.478	3606
836.615	3526
836.753	3568
836.891	3618
837.029	3584
837.167	3553
837.305	3492
837.443	3530
837.58	3477
837.718	3603
837.856	3496
837.993	3538
838.131	3564
838.269	3553
838.406	3545
838.544	3538
838.681	3454
838.819	3466
838.956	3382
839.094	3378
839.231	3405
839.369	3523
839.506	3717
839.643	3618
839.781	3492
839.918	3435
840.055	3507
840.193	3511
840.33	3500
840.467	3591
840.604	3625
840.742	3812
840.879	3568
841.016	3564
841.153	3572
841.29	3759
841.427	3732
841.564	3694
841.701	3762
841.838	3709
841.975	3656
842.112	3698
842.249	3663
842.385	3667
842.522	3800
842.659	3656
842.796	3656
842.933	3667
843.069	3667
843.206	3728
843.343	3842
843.479	3755
843.616	3789
843.752	3682
843.889	3690
844.025	3857
844.162	3701
844.298	3797
844.435	3759
844.571	3770
844.708	3857
844.844	3991
844.98	4036
845.117	4017
845.253	3941
845.389	3930
845.525	3934
845.661	4006
845.798	3926
845.934	3983
846.07	3983
846.206	4051
846.342	4139
846.478	4082
846.614	3945
846.75	3926
846.886	3899
847.022	4025
847.158	4010
847.294	3979
847.429	4036
847.565	3991
847.701	4215
847.837	3892
847.972	3846
848.108	3983
848.244	3983
848.379	3876
848.515	3816
848.65	3804
848.786	3774
848.921	3835
849.057	3922
849.192	3911
849.328	3907
849.463	3884
849.598	3850
849.734	3804
849.869	3827
850.004	3835
850.14	3816
850.275	3751
850.41	3705
850.545	3759
850.68	3778
850.815	3766
850.95	3755
851.085	3896
851.22	3850
851.355	3819
851.49	3785
851.625	3762
851.76	3766
851.895	3701
852.03	3709
852.165	3778
852.299	3804
852.434	3953
852.569	3850
852.703	3865
852.838	3922
852.973	3979
853.107	4029
853.242	3838
853.376	3861
853.511	3751
853.645	3842
853.78	3922
853.914	3880
854.048	3888
854.183	3892
854.317	3991
854.451	4029
854.585	3937
854.72	3934
854.854	4074
854.988	3968
855.122	4002
855.256	3937
855.39	4002
855.524	4105
855.658	4071
855.792	4067
855.926	4135
856.06	4196
856.194	4192
856.327	4124
856.461	4120
856.595	4124
856.729	4166
856.862	4341
856.996	4219
857.13	4322
857.263	4284
857.397	4322
857.53	4287
857.664	4337
857.797	4398
857.931	4424
858.064	4371
858.197	4455
858.331	4383
858.464	4386
858.597	4356
858.731	4402
858.864	4470
858.997	4447
859.13	4489
859.263	4554
859.396	4546
859.529	4542
859.662	4542
859.795	4508
859.928	4603
860.061	4706
860.194	4736
860.327	4626
860.46	4668
860.592	4698
860.725	4771
860.858	4752
860.99	4683
861.123	4664
861.256	4717
861.388	4782
861.521	5520
861.653	4691
861.786	4710
861.918	4790
862.05	4725
862.183	4809
862.315	4877
862.447	4938
862.58	4900
862.712	4809
862.844	4767
862.976	4870
863.108	4816
863.24	5132
863.372	4809
863.504	4946
863.636	4896
863.768	4927
863.9	4968
864.032	4858
864.164	4885
864.296	4991
864.428	5029
864.559	5086
864.691	5060
864.823	5124
864.954	5151
865.086	5117
865.217	5083
865.349	5132
865.48	5166
865.612	5155
865.743	5307
865.875	5193
866.006	5174
866.137	5201
866.269	5231
866.4	5220
866.531	5246
866.662	5227
866.793	5246
866.924	5315
867.055	5303
867.186	5353
867.317	5315
867.448	5296
867.579	5337
867.71	5360
867.841	5345
867.972	5429
868.103	5455
868.233	5452
868.364	5467
868.495	5535
868.625	5718
868.756	5733
868.886	5634
869.017	5688
869.147	5859
869.278	5851
869.408	5802
869.539	5817
869.669	5920
869.799	5950
869.929	5977
870.06	6076
870.19	6163
870.32	6163
870.45	6228
870.58	6331
870.71	6414
870.84	6410
870.97	6429
871.1	6391
871.23	6635
871.36	6662
871.489	6730
871.619	6703
871.749	6806
871.879	6871
872.008	6954
872.138	6928
872.267	7012
872.397	6932
872.526	7031
872.656	7171
872.785	7209
872.915	7419
873.044	7472
873.173	7529
873.303	7632
873.432	7685
873.561	7849
873.69	7849
873.819	8050
873.948	8103
874.077	8168
874.206	8339
874.335	8431
874.464	8587
874.593	8762
874.722	8906
874.851	9077
874.979	9218
875.108	9344
875.237	9355
875.365	9454
875.494	9606
875.623	9785
875.751	9846
875.88	9979
876.008	10204
876.136	10291
876.265	10519
876.393	10771
876.521	10668
876.65	10809
876.778	10835
876.906	10869
877.034	10999
877.162	11060
877.29	11105
877.418	11311
877.546	11349
877.674	11467
877.802	11547
877.93	11619
878.058	11589
878.185	11577
878.313	11672
878.441	11783
878.568	11649
878.696	11767
878.824	11847
878.951	11847
879.079	12022
879.206	12117
879.333	11984
879.461	11965
879.588	12015
879.715	12045
879.842	12110
879.97	12022
880.097	11866
880.224	11863
880.351	11824
880.478	11863
880.605	11824
880.732	11954
880.859	11980
880.986	11767
881.112	11916
881.239	11680
881.366	11672
881.493	11581
881.619	11512
881.746	11562
881.872	11448
881.999	11486
882.125	11493
882.252	11486
882.378	11528
882.505	11482
882.631	11368
882.757	11254
882.883	11337
883.01	11239
883.136	11109
883.262	11124
883.388	11064
883.514	11143
883.64	11140
883.766	11132
883.892	10984
884.018	10987
884.143	10987
884.269	11102
884.395	10892
884.52	10778
884.646	10828
884.772	10653
884.897	10599
885.023	10710
885.148	10729
885.274	10744
885.399	10630
885.524	10641
885.65	10565
885.775	10519
885.9	10584
886.025	10558
886.15	10535
886.275	10428
886.4	10348
886.525	10443
886.65	10333
886.775	10337
886.9	10485
887.025	10523
887.149	10443
887.274	10234
887.399	10181
887.523	10177
887.648	10116
887.773	10071
887.897	10177
888.021	10238
888.146	10105
888.27	10162
888.395	10227
888.519	10162
888.643	10150
888.767	10150
888.891	10059
889.015	10021
889.139	10021
889.263	9937
889.387	10071
889.511	10063
889.635	10051
889.759	9972
889.883	9941
890.006	9964
890.13	10074
890.254	9907
890.377	9907
890.501	9907
890.624	9907
890.748	9873
890.871	9842
890.995	9793
891.118	9698
891.241	9701
891.364	9728
891.488	9812
891.611	9800
891.734	9755
891.857	9709
891.98	9690
892.103	9705
892.226	9717
892.349	9603
892.471	9500
892.594	9538
892.717	9622
892.839	9584
892.962	9542
893.085	9667
893.207	9507
893.33	9507
893.452	9526
893.575	9591
893.697	9519
893.819	9549
893.941	9584
894.064	9595
894.186	9370
894.308	9367
894.43	9591
894.552	9584
894.674	9439
894.796	9306
894.918	9363
895.04	9359
895.161	9378
895.283	9294
895.405	9291
895.526	9230
895.648	9291
895.769	9180
895.891	9279
896.012	9188
896.134	9165
896.255	9131
896.376	9085
896.498	9169
896.619	9066
896.74	9066
896.861	9093
896.982	9283
897.103	9332
897.224	9180
897.345	9032
897.466	8956
897.587	9036
897.708	9150
897.828	8914
897.949	8902
898.07	8880
898.19	8887
898.311	8979
898.431	8891
898.552	8804
898.672	8952
898.792	8899
898.913	8864
899.033	8758
899.153	8727
899.273	8632
899.393	8701
899.513	8727
899.633	8766
899.753	8750
899.873	8697
899.993	8705
900.113	8712
900.232	8705
900.352	8632
900.472	8640
900.591	8556
900.711	8587
900.83	8541
900.95	8651
901.069	8697
901.189	8556
901.308	8393
901.427	8400
901.546	8446
901.665	8503
901.784	8530
901.904	8374
902.023	8267
902.141	8195
902.26	8221
902.379	8282
902.498	8244
902.617	8221
902.735	8271
902.854	8240
902.973	8279
903.091	8138
903.21	8088
903.328	8096
903.446	8111
903.565	8024
903.683	8100
903.801	8035
903.919	8145
904.038	8119
904.156	8046
904.274	8069
904.392	8012
904.51	7955
904.627	8054
904.745	8054
904.863	8092
904.981	7849
905.098	7811
905.216	7841
905.334	7902
905.451	7982
905.569	7906
905.686	7955
905.803	7921
905.921	7734
906.038	7826
906.155	7727
906.272	7712
906.389	7693
906.506	7662
906.623	7582
906.74	7578
906.857	7552
906.974	7639
907.091	7696
907.208	7772
907.324	7632
907.441	7506
907.557	7434
907.674	7460
907.79	7369
907.907	7441
908.023	7422
908.139	7430
908.256	7449
908.372	7381
908.488	7339
908.604	7289
908.72	7190
908.836	7244
908.952	7274
909.068	7244
909.184	7274
909.3	7285
909.415	7266
909.531	7263
909.647	7114
909.762	7038
909.878	7099
909.993	7072
910.108	7065
910.224	7095
910.339	7149
910.454	7019
910.57	7038
910.685	6989
910.8	7095
910.915	7160
911.03	7027
911.145	6924
911.259	6886
911.374	6856
911.489	6776
911.604	6818
911.718	6703
911.833	6654
911.947	6707
912.062	6559
912.176	6677
912.291	6707
912.405	6726
912.519	6757
912.633	6852
912.748	6616
912.862	6616
912.976	6585
913.09	6540
913.204	6555
913.318	6612
913.431	6623
913.545	6658
913.659	6741
913.772	6585
913.886	6528
914	6532
914.113	6612
914.226	6639
914.34	6525
914.453	6448
914.566	6589
914.68	6498
914.793	6486
914.906	6418
915.019	6357
915.132	6342
915.245	6441
915.358	6403
915.47	6372
915.583	6513
915.696	6452
915.809	6574
915.921	6574
916.034	6391
916.146	6426
916.259	6384
916.371	6452
916.483	6399
916.595	6365
916.708	6441
916.82	6334
916.932	6414
917.044	6391
917.156	6388
917.268	6350
917.38	6331
917.491	6304
917.603	6300
917.715	6365
917.826	6403
917.938	6266
918.049	6281
918.161	6311
918.272	6399
918.384	6407
918.495	6334
918.606	6235
918.717	6277
918.828	6232
918.939	6232
919.05	6144
919.161	6220
919.272	6117
919.383	6167
919.494	6266
919.604	6437
919.715	6254
919.826	6209
919.936	6216
920.047	6296
920.157	6216
920.267	6365
920.378	6285
920.488	6239
920.598	6437
920.708	6532
920.818	6460
920.928	6448
921.038	6574
921.148	6563
921.258	6357
921.368	6247
921.477	6216
921.587	6197
921.697	6106
921.806	6190
921.916	6079
922.025	5927
922.134	5889
922.244	5904
922.353	5939
922.462	5809
922.571	5790
922.68	5676
922.789	5726
922.898	5726
923.007	5653
923.116	5642
923.224	5608
923.333	5638
923.442	5604
923.55	5539
923.659	5604
923.767	5623
923.876	5547
923.984	5592
924.092	5463
924.201	5532
924.309	5520
924.417	5501
924.525	5478
924.633	5493
924.741	6285
924.849	5322
924.956	5406
925.064	5330
925.172	5280
925.279	5315
925.387	5368
925.494	5334
925.602	5433
925.709	5376
925.816	5284
925.924	5341
926.031	5322
926.138	5280
926.245	5360
926.352	5189
926.459	5318
926.566	5307
926.673	5258
926.779	5132
926.886	5136
926.993	5010
927.099	5006
927.206	4972
927.312	4965
927.419	5025
927.525	5022
927.631	4980
927.737	4870
927.843	4850
927.95	4729
928.056	4870
928.162	4831
928.267	4820
928.373	5208
928.479	4854
928.585	4725
928.69	4767
928.796	4752
928.901	4679
929.007	4599
929.112	4649
929.218	4618
929.323	4596
929.428	4615
929.533	4649
929.638	4489
929.743	4535
929.848	4565
929.953	4478
930.058	4466
930.163	4360
930.267	4375
930.372	4409
930.477	4261
930.581	4432
930.685	4356
930.79	4249
930.894	4284
930.998	4230
931.103	4379
931.207	4128
931.311	4063
931.415	4032
931.519	3888
931.623	3956
