Data from glass_V78500241_1500.txt Node
Date: Wed Sep 01 19:24:53 CST 2021
User: usil
Spectrometer: V785-0024
Trigger mode: 0
Integration Time (sec): 4.000000E-1
Scans to average: 1
Nonlinearity correction enabled: false
Boxcar width: 0
Storing dark spectrum: false
XAxis mode: Wavelengths
Number of Pixels in Spectrum: 1024
>>>>>Begin Spectral Data<<<<<
801.071	3747
801.214	3751
801.356	3698
801.499	3751
801.641	3717
801.783	3781
801.926	3888
802.068	3861
802.211	3850
802.353	3915
802.496	3812
802.638	3926
802.78	3873
802.923	3960
803.065	3899
803.208	3835
803.35	3854
803.492	3850
803.635	3937
803.777	3812
803.919	3880
804.061	4097
804.204	3945
804.346	3941
804.488	3892
804.63	4105
804.773	3960
804.915	4017
805.057	4139
805.199	4025
805.341	4067
805.483	4109
805.626	4147
805.768	4090
805.91	4204
806.052	4253
806.194	4219
806.336	4383
806.478	4219
806.62	4185
806.762	4162
806.904	4284
807.046	4367
807.188	4234
807.33	4204
807.472	4234
807.614	4177
807.756	4272
807.898	4185
808.04	4196
808.182	4261
808.324	4325
808.465	4409
808.607	4455
808.749	4459
808.891	4440
809.033	4481
809.174	4421
809.316	4265
809.458	4276
809.6	4116
809.741	4143
809.883	4128
810.025	4215
810.166	4207
810.308	4215
810.45	4238
810.591	4246
810.733	4284
810.875	4512
811.016	4790
811.158	5121
811.299	5307
811.441	5326
811.582	5037
811.724	4710
811.865	4459
812.007	4481
812.148	4432
812.29	4402
812.431	4421
812.573	4394
812.714	4394
812.855	4424
812.997	4405
813.138	4485
813.279	4390
813.421	4424
813.562	4402
813.703	4348
813.845	4337
813.986	4268
814.127	4234
814.268	4280
814.41	4261
814.551	4272
814.692	4333
814.833	4265
814.974	4257
815.115	4337
815.256	4227
815.397	4234
815.539	4253
815.68	4219
815.821	4238
815.962	4348
816.103	4291
816.244	4261
816.385	4177
816.526	4257
816.666	4234
816.807	4143
816.948	4188
817.089	4219
817.23	4158
817.371	4036
817.512	4082
817.653	4109
817.793	4036
817.934	4044
818.075	4112
818.216	4036
818.356	4112
818.497	3994
818.638	3896
818.778	3937
818.919	3899
819.06	3823
819.2	3926
819.341	3880
819.481	3838
819.622	3896
819.762	4025
819.903	3941
820.043	3857
820.184	3823
820.324	3827
820.465	3880
820.605	3888
820.746	3865
820.886	3770
821.026	3915
821.167	3907
821.307	3968
821.447	3956
821.588	3987
821.728	3960
821.868	3934
822.008	3865
822.149	3941
822.289	3934
822.429	3808
822.569	3736
822.709	3831
822.849	3705
822.99	3762
823.13	3740
823.27	3759
823.41	3698
823.55	3736
823.69	3724
823.83	3766
823.97	3667
824.11	3622
824.25	3614
824.389	3648
824.529	3690
824.669	3652
824.809	3679
824.949	3743
825.089	3740
825.228	3717
825.368	3603
825.508	3603
825.648	3557
825.787	3656
825.927	3614
826.067	3644
826.206	3682
826.346	3812
826.485	3850
826.625	3869
826.765	3949
826.904	3869
827.044	3614
827.183	3545
827.323	3458
827.462	3485
827.601	3458
827.741	3393
827.88	3435
828.02	3374
828.159	3469
828.298	3481
828.437	3504
828.577	3454
828.716	3595
828.855	3477
828.994	3363
829.134	3340
829.273	3374
829.412	3359
829.551	3325
829.69	3340
829.829	3374
829.968	3496
830.107	3435
830.246	3473
830.385	3355
830.524	3321
830.663	3302
830.802	3291
830.941	3226
831.08	3180
831.219	3222
831.357	3291
831.496	3382
831.635	3241
831.774	3184
831.913	3199
832.051	3161
832.19	3135
832.329	3207
832.467	3119
832.606	3116
832.744	3180
832.883	3184
833.022	3218
833.16	3260
833.299	3367
833.437	3332
833.576	3389
833.714	3367
833.852	3435
833.991	3443
834.129	3439
834.267	3435
834.406	3420
834.544	3443
834.682	3435
834.821	3382
834.959	3587
835.097	3374
835.235	3485
835.373	3504
835.511	3564
835.65	3462
835.788	3507
835.926	3386
836.064	3378
836.202	3393
836.34	3561
836.478	3629
836.615	3564
836.753	3625
836.891	3622
837.029	3610
837.167	3614
837.305	3534
837.443	3523
837.58	3504
837.718	3599
837.856	3557
837.993	3526
838.131	3595
838.269	3580
838.406	3595
838.544	3591
838.681	3450
838.819	3447
838.956	3374
839.094	3374
839.231	3420
839.369	3576
839.506	3736
839.643	3663
839.781	3450
839.918	3462
840.055	3545
840.193	3519
840.33	3545
840.467	3488
840.604	3644
840.742	3819
840.879	3542
841.016	3534
841.153	3625
841.29	3781
841.427	3720
841.564	3717
841.701	3759
841.838	3713
841.975	3698
842.112	3740
842.249	3690
842.385	3644
842.522	3842
842.659	3652
842.796	3625
842.933	3686
843.069	3713
843.206	3709
843.343	3823
843.479	3762
843.616	3797
843.752	3671
843.889	3660
844.025	3869
844.162	3762
844.298	3869
844.435	3755
844.571	3755
844.708	3896
844.844	3979
844.98	3991
845.117	4036
845.253	3964
845.389	3915
845.525	3964
845.661	3968
845.798	3907
845.934	4013
846.07	3934
846.206	4029
846.342	4135
846.478	4044
846.614	3941
846.75	3934
846.886	3934
847.022	4025
847.158	3972
847.294	3968
847.429	4032
847.565	3994
847.701	4211
847.837	3861
847.972	3865
848.108	3968
848.244	4002
848.379	3876
848.515	3804
848.65	3740
848.786	3846
848.921	3873
849.057	3892
849.192	3979
849.328	3930
849.463	3896
849.598	3865
849.734	3884
849.869	3827
850.004	3747
850.14	3797
850.275	3778
850.41	3732
850.545	3770
850.68	3831
850.815	3827
850.95	3835
851.085	3892
851.22	3892
851.355	3846
851.49	3800
851.625	3816
851.76	3759
851.895	3736
852.03	3720
852.165	3819
852.299	3823
852.434	3930
852.569	3812
852.703	3896
852.838	3899
852.973	3983
853.107	3979
853.242	3926
853.376	3888
853.511	3781
853.645	3823
853.78	3991
853.914	3873
854.048	3930
854.183	3926
854.317	3972
854.451	4055
854.585	3983
854.72	3869
854.854	4025
854.988	3926
855.122	4036
855.256	3953
855.39	4048
855.524	4112
855.658	4139
855.792	4086
855.926	4169
856.06	4131
856.194	4230
856.327	4120
856.461	4128
856.595	4196
856.729	4147
856.862	4287
856.996	4257
857.13	4325
857.263	4329
857.397	4402
857.53	4261
857.664	4371
857.797	4417
857.931	4428
858.064	4428
858.197	4481
858.331	4405
858.464	4402
858.597	4348
858.731	4428
858.864	4417
858.997	4402
859.13	4519
859.263	4565
859.396	4603
859.529	4516
859.662	4573
859.795	4508
859.928	4603
860.061	4691
860.194	4698
860.327	4641
860.46	4615
860.592	4721
860.725	4771
860.858	4782
860.99	4649
861.123	4694
861.256	4702
861.388	4763
861.521	5433
861.653	4774
861.786	4714
861.918	4725
862.05	4774
862.183	4850
862.315	4889
862.447	4908
862.58	4930
862.712	4752
862.844	4782
862.976	4858
863.108	4870
863.24	5239
863.372	4843
863.504	4953
863.636	4866
863.768	4938
863.9	5003
864.032	4949
864.164	4972
864.296	5003
864.428	5064
864.559	5075
864.691	5098
864.823	5105
864.954	5124
865.086	5170
865.217	5136
865.349	5102
865.48	5174
865.612	5162
865.743	5353
865.875	5227
866.006	5197
866.137	5258
866.269	5223
866.4	5254
866.531	5216
866.662	5239
866.793	5227
866.924	5288
867.055	5353
867.186	5353
867.317	5337
867.448	5299
867.579	5330
867.71	5406
867.841	5368
867.972	5425
868.103	5509
868.233	5471
868.364	5497
868.495	5520
868.625	5627
868.756	5805
868.886	5665
869.017	5756
869.147	5779
869.278	5882
869.408	5828
869.539	5790
869.669	5927
869.799	5859
869.929	5988
870.06	6011
870.19	6194
870.32	6213
870.45	6277
870.58	6365
870.71	6403
870.84	6441
870.97	6395
871.1	6467
871.23	6642
871.36	6726
871.489	6623
871.619	6734
871.749	6825
871.879	6852
872.008	6981
872.138	6993
872.267	7023
872.397	7042
872.526	7031
872.656	7084
872.785	7168
872.915	7358
873.044	7537
873.173	7540
873.303	7605
873.432	7765
873.561	7898
873.69	7906
873.819	7997
873.948	8168
874.077	8286
874.206	8298
874.335	8415
874.464	8750
874.593	8849
874.722	8910
874.851	9154
874.979	9161
875.108	9367
875.237	9408
875.365	9515
875.494	9599
875.623	9869
875.751	9857
875.88	9960
876.008	10109
876.136	10242
876.265	10550
876.393	10725
876.521	10664
876.65	10858
876.778	10915
876.906	10976
877.034	11064
877.162	11105
877.29	11181
877.418	11303
877.546	11429
877.674	11471
877.802	11444
877.93	11463
878.058	11452
878.185	11592
878.313	11676
878.441	11718
878.568	11718
878.696	11855
878.824	11817
878.951	11954
879.079	12064
879.206	12076
879.333	12019
879.461	12007
879.588	12155
879.715	12087
879.842	12285
879.97	12019
880.097	11813
880.224	11882
880.351	11863
880.478	11904
880.605	11870
880.732	11908
880.859	12034
880.986	11870
881.112	11760
881.239	11699
881.366	11661
881.493	11532
881.619	11581
881.746	11600
881.872	11573
881.999	11433
882.125	11497
882.252	11573
882.378	11558
882.505	11585
882.631	11379
882.757	11360
882.883	11288
883.01	11246
883.136	11193
883.262	11132
883.388	11064
883.514	11223
883.64	11155
883.766	11075
883.892	10953
884.018	10942
884.143	11155
884.269	11121
884.395	10869
884.52	10786
884.646	10752
884.772	10687
884.897	10653
885.023	10653
885.148	10774
885.274	10850
885.399	10717
885.524	10641
885.65	10493
885.775	10672
885.9	10516
886.025	10626
886.15	10531
886.275	10470
886.4	10436
886.525	10440
886.65	10382
886.775	10363
886.9	10516
887.025	10531
887.149	10314
887.274	10147
887.399	10227
887.523	10204
887.648	10078
887.773	10131
887.897	10249
888.021	10219
888.146	10177
888.27	10181
888.395	10188
888.519	10196
888.643	10143
888.767	10234
888.891	10048
889.015	10013
889.139	10101
889.263	10002
889.387	10086
889.511	10124
889.635	10086
889.759	10051
889.883	9960
890.006	9941
890.13	10090
890.254	9968
890.377	10029
890.501	9854
890.624	9869
890.748	9857
890.871	9797
890.995	9778
891.118	9740
891.241	9797
891.364	9709
891.488	9846
891.611	9717
891.734	9755
891.857	9694
891.98	9690
892.103	9648
892.226	9770
892.349	9709
892.471	9568
892.594	9599
892.717	9599
892.839	9564
892.962	9603
893.085	9663
893.207	9545
893.33	9545
893.452	9481
893.575	9614
893.697	9519
893.819	9603
893.941	9625
894.064	9622
894.186	9355
894.308	9412
894.43	9572
894.552	9625
894.674	9473
894.796	9389
894.918	9386
895.04	9397
895.161	9363
895.283	9332
895.405	9249
895.526	9275
895.648	9237
895.769	9192
895.891	9332
896.012	9382
896.134	9313
896.255	9180
896.376	9055
896.498	9112
896.619	9154
896.74	9085
896.861	9100
896.982	9211
897.103	9351
897.224	9192
897.345	9062
897.466	9039
897.587	9070
897.708	9123
897.828	8994
897.949	8925
898.07	8887
898.19	8902
898.311	8986
898.431	8971
898.552	8998
898.672	8925
898.792	8986
898.913	8891
899.033	8804
899.153	8773
899.273	8670
899.393	8705
899.513	8682
899.633	8746
899.753	8796
899.873	8636
899.993	8773
900.113	8727
900.232	8682
900.352	8610
900.472	8590
900.591	8503
900.711	8549
900.83	8537
900.95	8655
901.069	8644
901.189	8617
901.308	8484
901.427	8336
901.546	8492
901.665	8431
901.784	8495
901.904	8374
902.023	8290
902.141	8183
902.26	8237
902.379	8320
902.498	8210
902.617	8290
902.735	8301
902.854	8294
902.973	8206
903.091	8111
903.21	8111
903.328	8130
903.446	8092
903.565	8016
903.683	8115
903.801	8065
903.919	8111
904.038	8168
904.156	8012
904.274	8043
904.392	8027
904.51	8016
904.627	8065
904.745	8062
904.863	8084
904.981	7940
905.098	7917
905.216	7875
905.334	7906
905.451	7890
905.569	7925
905.686	7993
905.803	7959
905.921	7841
906.038	7898
906.155	7788
906.272	7704
906.389	7704
906.506	7670
906.623	7582
906.74	7628
906.857	7499
906.974	7571
907.091	7658
907.208	7715
907.324	7616
907.441	7563
907.557	7476
907.674	7460
907.79	7362
907.907	7434
908.023	7464
908.139	7384
908.256	7350
908.372	7388
908.488	7293
908.604	7240
908.72	7263
908.836	7320
908.952	7228
909.068	7217
909.184	7289
909.3	7312
909.415	7247
909.531	7240
909.647	7088
909.762	7110
909.878	7053
909.993	7126
910.108	7076
910.224	7057
910.339	7149
910.454	7050
910.57	7042
910.685	6916
910.8	7202
910.915	7069
911.03	6977
911.145	6909
911.259	6901
911.374	6875
911.489	6837
911.604	6810
911.718	6684
911.833	6757
911.947	6688
912.062	6627
912.176	6741
912.291	6776
912.405	6715
912.519	6856
912.633	6825
912.748	6711
912.862	6722
912.976	6597
913.09	6509
913.204	6574
913.318	6692
913.431	6700
913.545	6688
913.659	6726
913.772	6642
913.886	6563
914	6574
914.113	6616
914.226	6650
914.34	6597
914.453	6475
914.566	6593
914.68	6509
914.793	6471
914.906	6384
915.019	6338
915.132	6456
915.245	6414
915.358	6445
915.47	6517
915.583	6483
915.696	6460
915.809	6506
915.921	6593
916.034	6391
916.146	6391
916.259	6414
916.371	6414
916.483	6494
916.595	6361
916.708	6380
916.82	6361
916.932	6369
917.044	6467
917.156	6471
917.268	6327
917.38	6380
917.491	6357
917.603	6350
917.715	6403
917.826	6448
917.938	6319
918.049	6266
918.161	6334
918.272	6471
918.384	6414
918.495	6380
918.606	6258
918.717	6194
918.828	6251
918.939	6292
919.05	6235
919.161	6304
919.272	6110
919.383	6133
919.494	6270
919.604	6448
919.715	6277
919.826	6262
919.936	6300
920.047	6388
920.157	6300
920.267	6456
920.378	6372
920.488	6285
920.598	6486
920.708	6559
920.818	6456
920.928	6494
921.038	6566
921.148	6574
921.258	6338
921.368	6277
921.477	6182
921.587	6197
921.697	6125
921.806	6209
921.916	6110
922.025	5942
922.134	5950
922.244	5885
922.353	5950
922.462	5882
922.571	5821
922.68	5699
922.789	5695
922.898	5699
923.007	5630
923.116	5737
923.224	5707
923.333	5680
923.442	5615
923.55	5573
923.659	5596
923.767	5657
923.876	5543
923.984	5611
924.092	5573
924.201	5562
924.309	5577
924.417	5562
924.525	5459
924.633	5512
924.741	6114
924.849	5372
924.956	5512
925.064	5357
925.172	5322
925.279	5311
925.387	5341
925.494	5372
925.602	5402
925.709	5330
925.816	5292
925.924	5326
926.031	5357
926.138	5364
926.245	5280
926.352	5155
926.459	5311
926.566	5322
926.673	5201
926.779	5166
926.886	5079
926.993	5067
927.099	5075
927.206	4984
927.312	4968
927.419	5029
927.525	5014
927.631	4938
927.737	4900
927.843	4908
927.95	4793
928.056	4816
928.162	4816
928.267	4858
928.373	5246
928.479	4854
928.585	4694
928.69	4748
928.796	4767
928.901	4736
929.007	4550
929.112	4656
929.218	4611
929.323	4622
929.428	4550
929.533	4683
929.638	4535
929.743	4531
929.848	4542
929.953	4527
930.058	4428
930.163	4363
930.267	4390
930.372	4443
930.477	4329
930.581	4497
930.685	4375
930.79	4265
930.894	4253
930.998	4284
931.103	4432
931.207	4139
931.311	4093
931.415	4063
931.519	3930
931.623	3949
