Data from glass_V78500241_2827.txt Node
Date: Wed Sep 01 19:34:05 CST 2021
User: usil
Spectrometer: V785-0024
Trigger mode: 0
Integration Time (sec): 4.000000E-1
Scans to average: 1
Nonlinearity correction enabled: false
Boxcar width: 0
Storing dark spectrum: false
XAxis mode: Wavelengths
Number of Pixels in Spectrum: 1024
>>>>>Begin Spectral Data<<<<<
801.071	3720
801.214	3713
801.356	3675
801.499	3778
801.641	3743
801.783	3709
801.926	3838
802.068	3808
802.211	3857
802.353	3854
802.496	3781
802.638	3896
802.78	3892
802.923	3918
803.065	3896
803.208	3861
803.35	3896
803.492	3861
803.635	3876
803.777	3747
803.919	3869
804.061	4147
804.204	3945
804.346	3949
804.488	3922
804.63	3987
804.773	3956
804.915	4006
805.057	4131
805.199	4044
805.341	4078
805.483	4105
805.626	4071
805.768	4135
805.91	4215
806.052	4227
806.194	4223
806.336	4310
806.478	4223
806.62	4143
806.762	4143
806.904	4219
807.046	4268
807.188	4238
807.33	4128
807.472	4211
807.614	4112
807.756	4230
807.898	4177
808.04	4207
808.182	4215
808.324	4337
808.465	4398
808.607	4432
808.749	4462
808.891	4432
809.033	4470
809.174	4367
809.316	4261
809.458	4207
809.6	4166
809.741	4131
809.883	4131
810.025	4181
810.166	4234
810.308	4219
810.45	4234
810.591	4234
810.733	4284
810.875	4527
811.016	4782
811.158	5102
811.299	5231
811.441	5265
811.582	5018
811.724	4714
811.865	4459
812.007	4481
812.148	4360
812.29	4344
812.431	4424
812.573	4371
812.714	4348
812.855	4390
812.997	4379
813.138	4508
813.279	4436
813.421	4341
813.562	4371
813.703	4299
813.845	4276
813.986	4181
814.127	4192
814.268	4227
814.41	4303
814.551	4200
814.692	4318
814.833	4253
814.974	4291
815.115	4299
815.256	4242
815.397	4192
815.539	4200
815.68	4196
815.821	4200
815.962	4268
816.103	4272
816.244	4227
816.385	4268
816.526	4276
816.666	4215
816.807	4074
816.948	4143
817.089	4162
817.23	4082
817.371	4063
817.512	4055
817.653	4055
817.793	4017
817.934	4021
818.075	4120
818.216	4063
818.356	4074
818.497	4002
818.638	3934
818.778	3922
818.919	3873
819.06	3838
819.2	3930
819.341	3838
819.481	3842
819.622	3842
819.762	3968
819.903	3949
820.043	3873
820.184	3827
820.324	3804
820.465	3865
820.605	3823
820.746	3880
820.886	3747
821.026	3922
821.167	3892
821.307	3953
821.447	3983
821.588	3899
821.728	4010
821.868	3911
822.008	3816
822.149	3876
822.289	3915
822.429	3778
822.569	3717
822.709	3774
822.849	3652
822.99	3705
823.13	3755
823.27	3759
823.41	3713
823.55	3732
823.69	3701
823.83	3736
823.97	3652
824.11	3591
824.25	3568
824.389	3599
824.529	3671
824.669	3591
824.809	3671
824.949	3740
825.089	3686
825.228	3694
825.368	3599
825.508	3584
825.648	3557
825.787	3549
825.927	3625
826.067	3629
826.206	3679
826.346	3781
826.485	3812
826.625	3827
826.765	3945
826.904	3800
827.044	3576
827.183	3515
827.323	3424
827.462	3492
827.601	3397
827.741	3405
827.88	3424
828.02	3359
828.159	3424
828.298	3500
828.437	3538
828.577	3397
828.716	3606
828.855	3500
828.994	3397
829.134	3332
829.273	3378
829.412	3355
829.551	3359
829.69	3321
829.829	3370
829.968	3450
830.107	3416
830.246	3386
830.385	3359
830.524	3313
830.663	3268
830.802	3264
830.941	3173
831.08	3188
831.219	3256
831.357	3256
831.496	3370
831.635	3211
831.774	3176
831.913	3207
832.051	3100
832.19	3131
832.329	3180
832.467	3100
832.606	3100
832.744	3135
832.883	3157
833.022	3184
833.16	3260
833.299	3268
833.437	3329
833.576	3332
833.714	3412
833.852	3359
833.991	3473
834.129	3492
834.267	3443
834.406	3382
834.544	3393
834.682	3393
834.821	3393
834.959	3542
835.097	3412
835.235	3545
835.373	3431
835.511	3473
835.65	3447
835.788	3466
835.926	3382
836.064	3359
836.202	3386
836.34	3561
836.478	3591
836.615	3515
836.753	3587
836.891	3610
837.029	3599
837.167	3561
837.305	3542
837.443	3545
837.58	3507
837.718	3549
837.856	3538
837.993	3564
838.131	3595
838.269	3557
838.406	3534
838.544	3568
838.681	3462
838.819	3447
838.956	3412
839.094	3416
839.231	3424
839.369	3473
839.506	3736
839.643	3641
839.781	3447
839.918	3473
840.055	3492
840.193	3519
840.33	3492
840.467	3549
840.604	3584
840.742	3793
840.879	3561
841.016	3526
841.153	3564
841.29	3755
841.427	3698
841.564	3709
841.701	3709
841.838	3690
841.975	3671
842.112	3732
842.249	3614
842.385	3614
842.522	3823
842.659	3641
842.796	3633
842.933	3682
843.069	3652
843.206	3686
843.343	3797
843.479	3770
843.616	3804
843.752	3648
843.889	3625
844.025	3861
844.162	3690
844.298	3835
844.435	3759
844.571	3720
844.708	3892
844.844	4006
844.98	3987
845.117	3994
845.253	3899
845.389	3903
845.525	3964
845.661	3953
845.798	3880
845.934	3998
846.07	3949
846.206	3991
846.342	4086
846.478	4036
846.614	3956
846.75	3907
846.886	3903
847.022	4025
847.158	3934
847.294	3956
847.429	3968
847.565	3979
847.701	4204
847.837	3857
847.972	3850
848.108	3937
848.244	3956
848.379	3800
848.515	3778
848.65	3797
848.786	3823
848.921	3850
849.057	3861
849.192	3953
849.328	3869
849.463	3865
849.598	3896
849.734	3831
849.869	3842
850.004	3751
850.14	3797
850.275	3740
850.41	3732
850.545	3720
850.68	3785
850.815	3766
850.95	3728
851.085	3896
851.22	3827
851.355	3804
851.49	3804
851.625	3785
851.76	3785
851.895	3736
852.03	3713
852.165	3778
852.299	3797
852.434	3850
852.569	3838
852.703	3865
852.838	3903
852.973	3968
853.107	3968
853.242	3861
853.376	3869
853.511	3747
853.645	3823
853.78	3945
853.914	3838
854.048	3835
854.183	3880
854.317	3918
854.451	4055
854.585	3949
854.72	3930
854.854	4029
854.988	3899
855.122	3975
855.256	3918
855.39	4025
855.524	4093
855.658	4055
855.792	4067
855.926	4131
856.06	4150
856.194	4177
856.327	4120
856.461	4120
856.595	4169
856.729	4154
856.862	4261
856.996	4207
857.13	4310
857.263	4303
857.397	4310
857.53	4238
857.664	4344
857.797	4375
857.931	4367
858.064	4344
858.197	4447
858.331	4341
858.464	4348
858.597	4341
858.731	4352
858.864	4436
858.997	4413
859.13	4470
859.263	4554
859.396	4592
859.529	4554
859.662	4462
859.795	4493
859.928	4554
860.061	4668
860.194	4691
860.327	4653
860.46	4584
860.592	4698
860.725	4729
860.858	4755
860.99	4672
861.123	4611
861.256	4660
861.388	4733
861.521	5254
861.653	4679
861.786	4660
861.918	4725
862.05	4782
862.183	4831
862.315	4911
862.447	4911
862.58	4866
862.712	4805
862.844	4740
862.976	4797
863.108	4847
863.24	5162
863.372	4812
863.504	4843
863.636	4908
863.768	4919
863.9	4968
864.032	4866
864.164	4968
864.296	4968
864.428	5113
864.559	5071
864.691	5090
864.823	5124
864.954	5105
865.086	5159
865.217	5124
865.349	5064
865.48	5109
865.612	5223
865.743	5254
865.875	5212
866.006	5143
866.137	5216
866.269	5155
866.4	5208
866.531	5235
866.662	5201
866.793	5273
866.924	5254
867.055	5292
867.186	5299
867.317	5318
867.448	5318
867.579	5330
867.71	5376
867.841	5349
867.972	5368
868.103	5478
868.233	5440
868.364	5520
868.495	5516
868.625	5653
868.756	5771
868.886	5672
869.017	5741
869.147	5813
869.278	5821
869.408	5851
869.539	5813
869.669	5882
869.799	5916
869.929	5950
870.06	5958
870.19	6102
870.32	6186
870.45	6235
870.58	6270
870.71	6407
870.84	6426
870.97	6410
871.1	6486
871.23	6635
871.36	6665
871.489	6635
871.619	6696
871.749	6829
871.879	6829
872.008	6973
872.138	6916
872.267	7015
872.397	6932
872.526	7023
872.656	7122
872.785	7228
872.915	7331
873.044	7476
873.173	7529
873.303	7624
873.432	7757
873.561	7849
873.69	7925
873.819	7944
873.948	8123
874.077	8210
874.206	8332
874.335	8469
874.464	8610
874.593	8807
874.722	8918
874.851	9070
874.979	9184
875.108	9359
875.237	9386
875.365	9458
875.494	9686
875.623	9808
875.751	9865
875.88	9960
876.008	10143
876.136	10272
876.265	10489
876.393	10611
876.521	10721
876.65	10828
876.778	10801
876.906	10850
877.034	10972
877.162	11174
877.29	11197
877.418	11322
877.546	11349
877.674	11395
877.802	11417
877.93	11471
878.058	11524
878.185	11524
878.313	11672
878.441	11718
878.568	11627
878.696	11805
878.824	11783
878.951	11939
879.079	12026
879.206	12159
879.333	12015
879.461	12022
879.588	12011
879.715	12133
879.842	12125
879.97	12194
880.097	11882
880.224	11828
880.351	11863
880.478	11927
880.605	11813
880.732	11843
880.859	11988
880.986	11840
881.112	11863
881.239	11718
881.366	11676
881.493	11608
881.619	11570
881.746	11520
881.872	11478
881.999	11455
882.125	11440
882.252	11547
882.378	11520
882.505	11566
882.631	11280
882.757	11360
882.883	11322
883.01	11265
883.136	11185
883.262	11140
883.388	11075
883.514	11189
883.64	11178
883.766	11090
883.892	10942
884.018	10995
884.143	10991
884.269	11102
884.395	10786
884.52	10714
884.646	10729
884.772	10698
884.897	10611
885.023	10687
885.148	10744
885.274	10736
885.399	10714
885.524	10691
885.65	10611
885.775	10599
885.9	10447
886.025	10588
886.15	10497
886.275	10424
886.4	10382
886.525	10382
886.65	10348
886.775	10337
886.9	10481
887.025	10535
887.149	10352
887.274	10181
887.399	10192
887.523	10177
887.648	10128
887.773	10071
887.897	10211
888.021	10215
888.146	10101
888.27	10181
888.395	10154
888.519	10154
888.643	10143
888.767	10173
888.891	10135
889.015	9998
889.139	10086
889.263	9934
889.387	10044
889.511	10150
889.635	10051
889.759	9968
889.883	9949
890.006	9907
890.13	10128
890.254	9915
890.377	9945
890.501	9880
890.624	9899
890.748	9865
890.871	9819
890.995	9766
891.118	9644
891.241	9774
891.364	9720
891.488	9800
891.611	9671
891.734	9747
891.857	9766
891.98	9690
892.103	9804
892.226	9652
892.349	9644
892.471	9614
892.594	9542
892.717	9572
892.839	9557
892.962	9580
893.085	9572
893.207	9564
893.33	9603
893.452	9462
893.575	9572
893.697	9526
893.819	9580
893.941	9603
894.064	9614
894.186	9359
894.308	9298
894.43	9519
894.552	9568
894.674	9462
894.796	9359
894.918	9321
895.04	9313
895.161	9397
895.283	9321
895.405	9310
895.526	9302
895.648	9275
895.769	9264
895.891	9218
896.012	9233
896.134	9211
896.255	9112
896.376	9131
896.498	9150
896.619	9218
896.74	9097
896.861	9119
896.982	9237
897.103	9325
897.224	9199
897.345	9081
897.466	8899
897.587	8975
897.708	9116
897.828	8971
897.949	8982
898.07	8914
898.19	8910
898.311	8982
898.431	8906
898.552	8849
898.672	8986
898.792	8872
898.913	8906
899.033	8815
899.153	8716
899.273	8678
899.393	8636
899.513	8708
899.633	8674
899.753	8762
899.873	8754
899.993	8785
900.113	8629
900.232	8720
900.352	8667
900.472	8564
900.591	8507
900.711	8549
900.83	8492
900.95	8594
901.069	8678
901.189	8606
901.308	8381
901.427	8423
901.546	8419
901.665	8423
901.784	8465
901.904	8370
902.023	8400
902.141	8263
902.26	8138
902.379	8202
902.498	8142
902.617	8164
902.735	8336
902.854	8332
902.973	8271
903.091	8111
903.21	8107
903.328	8153
903.446	8210
903.565	8062
903.683	8069
903.801	8081
903.919	8024
904.038	8172
904.156	7974
904.274	8130
904.392	8012
904.51	8020
904.627	8046
904.745	8073
904.863	8073
904.981	7951
905.098	7807
905.216	7860
905.334	7894
905.451	7871
905.569	7906
905.686	7887
905.803	7837
905.921	7738
906.038	7887
906.155	7792
906.272	7776
906.389	7696
906.506	7613
906.623	7594
906.74	7578
906.857	7582
906.974	7601
907.091	7628
907.208	7693
907.324	7540
907.441	7559
907.557	7438
907.674	7502
907.79	7369
907.907	7419
908.023	7430
908.139	7426
908.256	7388
908.372	7388
908.488	7365
908.604	7274
908.72	7206
908.836	7251
908.952	7213
909.068	7221
909.184	7335
909.3	7198
909.415	7293
909.531	7324
909.647	7103
909.762	7122
909.878	7053
909.993	7034
910.108	7034
910.224	7080
910.339	7091
910.454	6981
910.57	6973
910.685	6901
910.8	7141
910.915	7031
911.03	7012
911.145	6878
911.259	6829
911.374	6882
911.489	6798
911.604	6833
911.718	6692
911.833	6734
911.947	6612
912.062	6620
912.176	6745
912.291	6669
912.405	6650
912.519	6764
912.633	6795
912.748	6734
912.862	6684
912.976	6620
913.09	6525
913.204	6498
913.318	6589
913.431	6639
913.545	6726
913.659	6673
913.772	6608
913.886	6528
914	6547
914.113	6608
914.226	6639
914.34	6555
914.453	6490
914.566	6578
914.68	6486
914.793	6528
914.906	6353
915.019	6395
915.132	6338
915.245	6422
915.358	6418
915.47	6452
915.583	6384
915.696	6456
915.809	6547
915.921	6506
916.034	6376
916.146	6380
916.259	6369
916.371	6471
916.483	6445
916.595	6346
916.708	6369
916.82	6369
916.932	6323
917.044	6281
917.156	6376
917.268	6331
917.38	6346
917.491	6289
917.603	6323
917.715	6331
917.826	6418
917.938	6304
918.049	6277
918.161	6327
918.272	6361
918.384	6380
918.495	6361
918.606	6254
918.717	6213
918.828	6254
918.939	6300
919.05	6171
919.161	6209
919.272	6121
919.383	6148
919.494	6281
919.604	6460
919.715	6266
919.826	6194
919.936	6232
920.047	6289
920.157	6254
920.267	6414
920.378	6334
920.488	6281
920.598	6448
920.708	6433
920.818	6464
920.928	6460
921.038	6555
921.148	6589
921.258	6342
921.368	6300
921.477	6121
921.587	6114
921.697	6022
921.806	6072
921.916	6022
922.025	6011
922.134	5878
922.244	5893
922.353	5958
922.462	5855
922.571	5756
922.68	5699
922.789	5627
922.898	5680
923.007	5596
923.116	5657
923.224	5699
923.333	5600
923.442	5604
923.55	5535
923.659	5551
923.767	5634
923.876	5486
923.984	5543
924.092	5505
924.201	5558
924.309	5501
924.417	5528
924.525	5474
924.633	5486
924.741	6300
924.849	5353
924.956	5459
925.064	5372
925.172	5395
925.279	5341
925.387	5318
925.494	5383
925.602	5417
925.709	5318
925.816	5269
925.924	5292
926.031	5383
926.138	5242
926.245	5322
926.352	5197
926.459	5322
926.566	5318
926.673	5239
926.779	5136
926.886	5128
926.993	5052
927.099	4972
927.206	4976
927.312	4881
927.419	5010
927.525	4946
927.631	4968
927.737	4885
927.843	4850
927.95	4740
928.056	4782
928.162	4801
928.267	4854
928.373	5265
928.479	4816
928.585	4634
928.69	4710
928.796	4725
928.901	4653
929.007	4569
929.112	4645
929.218	4641
929.323	4580
929.428	4531
929.533	4599
929.638	4512
929.743	4538
929.848	4542
929.953	4481
930.058	4413
930.163	4303
930.267	4325
930.372	4398
930.477	4261
930.581	4459
930.685	4352
930.79	4257
930.894	4257
930.998	4272
931.103	4390
931.207	4086
931.311	4032
931.415	4036
931.519	3907
931.623	3918
