Data from glass_V78500241_2776.txt Node
Date: Wed Sep 01 19:33:44 CST 2021
User: usil
Spectrometer: V785-0024
Trigger mode: 0
Integration Time (sec): 4.000000E-1
Scans to average: 1
Nonlinearity correction enabled: false
Boxcar width: 0
Storing dark spectrum: false
XAxis mode: Wavelengths
Number of Pixels in Spectrum: 1024
>>>>>Begin Spectral Data<<<<<
801.071	3701
801.214	3743
801.356	3671
801.499	3717
801.641	3705
801.783	3755
801.926	3842
802.068	3793
802.211	3838
802.353	3873
802.496	3789
802.638	3838
802.78	3922
802.923	3838
803.065	3876
803.208	3812
803.35	3876
803.492	3899
803.635	3892
803.777	3774
803.919	3869
804.061	4154
804.204	3949
804.346	3934
804.488	3907
804.63	3994
804.773	3960
804.915	3979
805.057	4131
805.199	4013
805.341	4105
805.483	4105
805.626	4097
805.768	4124
805.91	4207
806.052	4177
806.194	4204
806.336	4303
806.478	4200
806.62	4139
806.762	4177
806.904	4219
807.046	4291
807.188	4162
807.33	4177
807.472	4196
807.614	4177
807.756	4242
807.898	4230
808.04	4192
808.182	4257
808.324	4333
808.465	4341
808.607	4485
808.749	4417
808.891	4474
809.033	4459
809.174	4371
809.316	4265
809.458	4227
809.6	4173
809.741	4101
809.883	4166
810.025	4227
810.166	4139
810.308	4196
810.45	4204
810.591	4227
810.733	4287
810.875	4500
811.016	4774
811.158	5033
811.299	5261
811.441	5284
811.582	5048
811.724	4637
811.865	4504
812.007	4466
812.148	4424
812.29	4436
812.431	4318
812.573	4356
812.714	4386
812.855	4405
812.997	4356
813.138	4489
813.279	4375
813.421	4386
813.562	4356
813.703	4276
813.845	4341
813.986	4234
814.127	4268
814.268	4230
814.41	4284
814.551	4242
814.692	4341
814.833	4268
814.974	4299
815.115	4287
815.256	4276
815.397	4219
815.539	4249
815.68	4192
815.821	4185
815.962	4257
816.103	4276
816.244	4185
816.385	4207
816.526	4242
816.666	4215
816.807	4078
816.948	4192
817.089	4188
817.23	4116
817.371	4040
817.512	4017
817.653	4040
817.793	4063
817.934	3983
818.075	4040
818.216	4044
818.356	4082
818.497	3983
818.638	3873
818.778	3838
818.919	3850
819.06	3884
819.2	3876
819.341	3869
819.481	3819
819.622	3892
819.762	3960
819.903	3888
820.043	3854
820.184	3854
820.324	3808
820.465	3869
820.605	3842
820.746	3827
820.886	3793
821.026	3903
821.167	3884
821.307	4029
821.447	3994
821.588	3918
821.728	3930
821.868	3922
822.008	3827
822.149	3911
822.289	3903
822.429	3751
822.569	3743
822.709	3797
822.849	3694
822.99	3679
823.13	3709
823.27	3785
823.41	3717
823.55	3751
823.69	3728
823.83	3694
823.97	3663
824.11	3564
824.25	3580
824.389	3606
824.529	3637
824.669	3603
824.809	3679
824.949	3694
825.089	3728
825.228	3671
825.368	3530
825.508	3538
825.648	3545
825.787	3595
825.927	3629
826.067	3606
826.206	3614
826.346	3774
826.485	3800
826.625	3876
826.765	3873
826.904	3804
827.044	3603
827.183	3466
827.323	3428
827.462	3447
827.601	3424
827.741	3424
827.88	3450
828.02	3370
828.159	3401
828.298	3439
828.437	3462
828.577	3458
828.716	3572
828.855	3481
828.994	3397
829.134	3359
829.273	3332
829.412	3340
829.551	3325
829.69	3382
829.829	3367
829.968	3454
830.107	3439
830.246	3420
830.385	3355
830.524	3367
830.663	3317
830.802	3233
830.941	3207
831.08	3218
831.219	3230
831.357	3283
831.496	3359
831.635	3211
831.774	3154
831.913	3195
832.051	3138
832.19	3142
832.329	3192
832.467	3131
832.606	3104
832.744	3157
832.883	3180
833.022	3176
833.16	3241
833.299	3332
833.437	3317
833.576	3351
833.714	3420
833.852	3435
833.991	3401
834.129	3450
834.267	3439
834.406	3393
834.544	3401
834.682	3409
834.821	3424
834.959	3572
835.097	3405
835.235	3511
835.373	3462
835.511	3477
835.65	3431
835.788	3481
835.926	3382
836.064	3321
836.202	3412
836.34	3523
836.478	3606
836.615	3534
836.753	3587
836.891	3663
837.029	3606
837.167	3584
837.305	3485
837.443	3511
837.58	3488
837.718	3545
837.856	3542
837.993	3530
838.131	3587
838.269	3542
838.406	3568
838.544	3526
838.681	3405
838.819	3473
838.956	3378
839.094	3378
839.231	3473
839.369	3530
839.506	3694
839.643	3606
839.781	3466
839.918	3458
840.055	3500
840.193	3519
840.33	3504
840.467	3542
840.604	3553
840.742	3778
840.879	3534
841.016	3534
841.153	3641
841.29	3759
841.427	3701
841.564	3705
841.701	3717
841.838	3675
841.975	3644
842.112	3701
842.249	3599
842.385	3622
842.522	3827
842.659	3656
842.796	3652
842.933	3713
843.069	3675
843.206	3701
843.343	3793
843.479	3778
843.616	3778
843.752	3682
843.889	3694
844.025	3804
844.162	3728
844.298	3816
844.435	3747
844.571	3785
844.708	3869
844.844	3994
844.98	3983
845.117	3964
845.253	3983
845.389	3907
845.525	3945
845.661	3987
845.798	3922
845.934	3945
846.07	3911
846.206	4017
846.342	4120
846.478	4082
846.614	3926
846.75	3926
846.886	3884
847.022	3994
847.158	3945
847.294	3956
847.429	3972
847.565	3991
847.701	4234
847.837	3812
847.972	3865
848.108	3975
848.244	3903
848.379	3816
848.515	3793
848.65	3781
848.786	3808
848.921	3850
849.057	3949
849.192	3945
849.328	3865
849.463	3896
849.598	3827
849.734	3842
849.869	3835
850.004	3774
850.14	3812
850.275	3762
850.41	3793
850.545	3736
850.68	3740
850.815	3789
850.95	3827
851.085	3880
851.22	3842
851.355	3842
851.49	3785
851.625	3812
851.76	3766
851.895	3743
852.03	3728
852.165	3823
852.299	3823
852.434	3865
852.569	3854
852.703	3854
852.838	3907
852.973	3964
853.107	3998
853.242	3880
853.376	3846
853.511	3816
853.645	3800
853.78	3998
853.914	3861
854.048	3884
854.183	3861
854.317	3918
854.451	4059
854.585	3945
854.72	3960
854.854	4067
854.988	3918
855.122	3983
855.256	3899
855.39	4010
855.524	4082
855.658	4071
855.792	4131
855.926	4090
856.06	4158
856.194	4196
856.327	4131
856.461	4124
856.595	4105
856.729	4147
856.862	4246
856.996	4204
857.13	4314
857.263	4291
857.397	4337
857.53	4299
857.664	4337
857.797	4371
857.931	4398
858.064	4375
858.197	4447
858.331	4325
858.464	4379
858.597	4344
858.731	4417
858.864	4402
858.997	4424
859.13	4474
859.263	4523
859.396	4546
859.529	4599
859.662	4489
859.795	4519
859.928	4615
860.061	4645
860.194	4698
860.327	4615
860.46	4660
860.592	4740
860.725	4759
860.858	4759
860.99	4702
861.123	4622
861.256	4649
861.388	4763
861.521	5246
861.653	4729
861.786	4672
861.918	4714
862.05	4763
862.183	4793
862.315	4889
862.447	4896
862.58	4881
862.712	4797
862.844	4763
862.976	4870
863.108	4911
863.24	5239
863.372	4793
863.504	4831
863.636	4896
863.768	4976
863.9	4927
864.032	4885
864.164	4946
864.296	5003
864.428	5056
864.559	5052
864.691	5064
864.823	5045
864.954	5105
865.086	5147
865.217	5079
865.349	5079
865.48	5140
865.612	5121
865.743	5269
865.875	5155
866.006	5181
866.137	5174
866.269	5208
866.4	5204
866.531	5254
866.662	5258
866.793	5193
866.924	5250
867.055	5303
867.186	5318
867.317	5337
867.448	5280
867.579	5368
867.71	5364
867.841	5345
867.972	5429
868.103	5455
868.233	5452
868.364	5509
868.495	5562
868.625	5688
868.756	5737
868.886	5646
869.017	5745
869.147	5855
869.278	5851
869.408	5790
869.539	5813
869.669	5893
869.799	5889
869.929	5954
870.06	5961
870.19	6194
870.32	6201
870.45	6266
870.58	6308
870.71	6369
870.84	6433
870.97	6418
871.1	6429
871.23	6620
871.36	6658
871.489	6669
871.619	6741
871.749	6760
871.879	6859
872.008	6996
872.138	7008
872.267	6985
872.397	6962
872.526	7012
872.656	7080
872.785	7175
872.915	7335
873.044	7468
873.173	7521
873.303	7613
873.432	7685
873.561	7868
873.69	7837
873.819	8001
873.948	8119
874.077	8130
874.206	8328
874.335	8419
874.464	8575
874.593	8788
874.722	8944
874.851	9108
874.979	9207
875.108	9370
875.237	9397
875.365	9397
875.494	9663
875.623	9827
875.751	9842
875.88	9998
876.008	10067
876.136	10310
876.265	10512
876.393	10675
876.521	10637
876.65	10740
876.778	10896
876.906	10923
877.034	10949
877.162	11018
877.29	11166
877.418	11307
877.546	11322
877.674	11372
877.802	11444
877.93	11505
878.058	11471
878.185	11562
878.313	11646
878.441	11733
878.568	11676
878.696	11843
878.824	11866
878.951	11863
879.079	12064
879.206	12026
879.333	11992
879.461	11973
879.588	12030
879.715	11973
879.842	12292
879.97	12121
880.097	11893
880.224	11840
880.351	11832
880.478	11939
880.605	11824
880.732	11817
880.859	12015
880.986	11840
881.112	11870
881.239	11714
881.366	11653
881.493	11638
881.619	11535
881.746	11543
881.872	11478
881.999	11512
882.125	11440
882.252	11562
882.378	11501
882.505	11619
882.631	11425
882.757	11280
882.883	11364
883.01	11322
883.136	11181
883.262	11048
883.388	11094
883.514	11235
883.64	11170
883.766	11083
883.892	10949
884.018	10934
884.143	11037
884.269	11216
884.395	10854
884.52	10771
884.646	10714
884.772	10668
884.897	10653
885.023	10710
885.148	10767
885.274	10767
885.399	10698
885.524	10588
885.65	10588
885.775	10550
885.9	10565
886.025	10573
886.15	10519
886.275	10466
886.4	10421
886.525	10409
886.65	10348
886.775	10329
886.9	10405
887.025	10516
887.149	10375
887.274	10166
887.399	10204
887.523	10166
887.648	10192
887.773	10078
887.897	10166
888.021	10234
888.146	10147
888.27	10188
888.395	10246
888.519	10158
888.643	10128
888.767	10128
888.891	10040
889.015	10029
889.139	10048
889.263	9991
889.387	10074
889.511	10078
889.635	10006
889.759	9998
889.883	9979
890.006	9895
890.13	10169
890.254	9915
890.377	9873
890.501	9876
890.624	9884
890.748	9884
890.871	9778
890.995	9736
891.118	9717
891.241	9694
891.364	9778
891.488	9838
891.611	9663
891.734	9720
891.857	9793
891.98	9671
892.103	9785
892.226	9709
892.349	9633
892.471	9584
892.594	9538
892.717	9622
892.839	9614
892.962	9526
893.085	9618
893.207	9622
893.33	9477
893.452	9530
893.575	9564
893.697	9511
893.819	9629
893.941	9648
894.064	9622
894.186	9439
894.308	9367
894.43	9530
894.552	9606
894.674	9458
894.796	9370
894.918	9386
895.04	9321
895.161	9332
895.283	9283
895.405	9142
895.526	9218
895.648	9253
895.769	9294
895.891	9199
896.012	9302
896.134	9218
896.255	9173
896.376	9070
896.498	9214
896.619	9119
896.74	9024
896.861	9036
896.982	9214
897.103	9302
897.224	9119
897.345	9043
897.466	9009
897.587	9013
897.708	9017
897.828	8986
897.949	8944
898.07	8925
898.19	8914
898.311	8994
898.431	8918
898.552	8921
898.672	8887
898.792	8941
898.913	8899
899.033	8804
899.153	8746
899.273	8708
899.393	8659
899.513	8712
899.633	8678
899.753	8708
899.873	8758
899.993	8743
900.113	8651
900.232	8674
900.352	8708
900.472	8598
900.591	8549
900.711	8514
900.83	8533
900.95	8590
901.069	8617
901.189	8549
901.308	8385
901.427	8408
901.546	8431
901.665	8461
901.784	8457
901.904	8400
902.023	8343
902.141	8199
902.26	8149
902.379	8229
902.498	8187
902.617	8172
902.735	8267
902.854	8294
902.973	8309
903.091	8134
903.21	8065
903.328	8176
903.446	8050
903.565	8138
903.683	8081
903.801	8035
903.919	8062
904.038	8149
904.156	7993
904.274	8046
904.392	8027
904.51	8027
904.627	8084
904.745	8012
904.863	8039
904.981	7940
905.098	7856
905.216	7917
905.334	7830
905.451	7875
905.569	7928
905.686	7909
905.803	7879
905.921	7788
906.038	7883
906.155	7792
906.272	7723
906.389	7693
906.506	7613
906.623	7647
906.74	7620
906.857	7597
906.974	7506
907.091	7632
907.208	7685
907.324	7636
907.441	7548
907.557	7430
907.674	7533
907.79	7350
907.907	7358
908.023	7441
908.139	7438
908.256	7343
908.372	7365
908.488	7339
908.604	7301
908.72	7190
908.836	7278
908.952	7171
909.068	7251
909.184	7278
909.3	7209
909.415	7228
909.531	7266
909.647	7103
909.762	7019
909.878	7095
909.993	7107
910.108	7065
910.224	7065
910.339	7107
910.454	7069
910.57	6932
910.685	6894
910.8	7217
910.915	7038
911.03	7072
911.145	6947
911.259	6882
911.374	6810
911.489	6760
911.604	6798
911.718	6662
911.833	6734
911.947	6639
912.062	6604
912.176	6738
912.291	6646
912.405	6684
912.519	6795
912.633	6837
912.748	6719
912.862	6669
912.976	6650
913.09	6498
913.204	6566
913.318	6559
913.431	6665
913.545	6620
913.659	6734
913.772	6597
913.886	6509
914	6494
914.113	6570
914.226	6608
914.34	6620
914.453	6490
914.566	6528
914.68	6502
914.793	6494
914.906	6460
915.019	6376
915.132	6357
915.245	6426
915.358	6437
915.47	6471
915.583	6433
915.696	6418
915.809	6456
915.921	6513
916.034	6418
916.146	6350
916.259	6346
916.371	6433
916.483	6433
916.595	6372
916.708	6384
916.82	6342
916.932	6338
917.044	6372
917.156	6384
917.268	6285
917.38	6304
917.491	6296
917.603	6338
917.715	6338
917.826	6372
917.938	6254
918.049	6296
918.161	6319
918.272	6384
918.384	6418
918.495	6384
918.606	6258
918.717	6224
918.828	6289
918.939	6262
919.05	6152
919.161	6239
919.272	6095
919.383	6152
919.494	6289
919.604	6369
919.715	6273
919.826	6277
919.936	6186
920.047	6331
920.157	6171
920.267	6422
920.378	6292
920.488	6277
920.598	6452
920.708	6509
920.818	6399
920.928	6414
921.038	6555
921.148	6593
921.258	6319
921.368	6277
921.477	6201
921.587	6136
921.697	6095
921.806	6155
921.916	6034
922.025	5855
922.134	5923
922.244	5889
922.353	5958
922.462	5878
922.571	5802
922.68	5653
922.789	5646
922.898	5680
923.007	5589
923.116	5627
923.224	5570
923.333	5634
923.442	5600
923.55	5551
923.659	5573
923.767	5630
923.876	5573
923.984	5570
924.092	5482
924.201	5524
924.309	5532
924.417	5551
924.525	5524
924.633	5512
924.741	6304
924.849	5360
924.956	5414
925.064	5376
925.172	5315
925.279	5315
925.387	5322
925.494	5296
925.602	5425
925.709	5357
925.816	5254
925.924	5280
926.031	5277
926.138	5280
926.245	5326
926.352	5197
926.459	5372
926.566	5311
926.673	5178
926.779	5132
926.886	5143
926.993	5079
927.099	4987
927.206	4999
927.312	4889
927.419	4976
927.525	4949
927.631	4957
927.737	4919
927.843	4831
927.95	4740
928.056	4847
928.162	4831
928.267	4850
928.373	5345
928.479	4866
928.585	4656
928.69	4736
928.796	4809
928.901	4694
929.007	4573
929.112	4672
929.218	4645
929.323	4558
929.428	4535
929.533	4649
929.638	4546
929.743	4546
929.848	4493
929.953	4519
930.058	4413
930.163	4310
930.267	4291
930.372	4398
930.477	4291
930.581	4462
930.685	4367
930.79	4230
930.894	4242
930.998	4249
931.103	4402
931.207	4101
931.311	4055
931.415	4010
931.519	3972
931.623	3960
