Data from glass_V78500241_1339.txt Node
Date: Wed Sep 01 19:23:46 CST 2021
User: usil
Spectrometer: V785-0024
Trigger mode: 0
Integration Time (sec): 4.000000E-1
Scans to average: 1
Nonlinearity correction enabled: false
Boxcar width: 0
Storing dark spectrum: false
XAxis mode: Wavelengths
Number of Pixels in Spectrum: 1024
>>>>>Begin Spectral Data<<<<<
801.071	3762
801.214	3800
801.356	3728
801.499	3705
801.641	3732
801.783	3774
801.926	3884
802.068	3816
802.211	3823
802.353	3892
802.496	3850
802.638	3903
802.78	3888
802.923	3922
803.065	3934
803.208	3842
803.35	3876
803.492	3880
803.635	3915
803.777	3774
803.919	3949
804.061	4143
804.204	3991
804.346	3991
804.488	3941
804.63	4040
804.773	3987
804.915	4074
805.057	4135
805.199	4074
805.341	4074
805.483	4147
805.626	4143
805.768	4135
805.91	4173
806.052	4284
806.194	4196
806.336	4383
806.478	4230
806.62	4177
806.762	4177
806.904	4211
807.046	4318
807.188	4230
807.33	4166
807.472	4200
807.614	4246
807.756	4276
807.898	4219
808.04	4192
808.182	4257
808.324	4306
808.465	4383
808.607	4432
808.749	4451
808.891	4519
809.033	4508
809.174	4428
809.316	4276
809.458	4227
809.6	4169
809.741	4154
809.883	4120
810.025	4219
810.166	4185
810.308	4257
810.45	4242
810.591	4261
810.733	4268
810.875	4523
811.016	4831
811.158	5121
811.299	5261
811.441	5303
811.582	5090
811.724	4717
811.865	4493
812.007	4455
812.148	4428
812.29	4440
812.431	4413
812.573	4405
812.714	4344
812.855	4405
812.997	4390
813.138	4462
813.279	4417
813.421	4341
813.562	4375
813.703	4348
813.845	4322
813.986	4242
814.127	4238
814.268	4249
814.41	4318
814.551	4295
814.692	4310
814.833	4329
814.974	4249
815.115	4352
815.256	4280
815.397	4223
815.539	4268
815.68	4249
815.821	4204
815.962	4265
816.103	4306
816.244	4196
816.385	4185
816.526	4295
816.666	4192
816.807	4116
816.948	4200
817.089	4196
817.23	4154
817.371	4040
817.512	4067
817.653	4120
817.793	4051
817.934	4051
818.075	4124
818.216	4116
818.356	4105
818.497	4017
818.638	3941
818.778	3907
818.919	3941
819.06	3892
819.2	3892
819.341	3854
819.481	3857
819.622	3907
819.762	4010
819.903	3945
820.043	3865
820.184	3835
820.324	3850
820.465	3884
820.605	3884
820.746	3869
820.886	3823
821.026	3918
821.167	3926
821.307	3941
821.447	3972
821.588	3945
821.728	3975
821.868	3983
822.008	3850
822.149	3907
822.289	3911
822.429	3797
822.569	3755
822.709	3808
822.849	3698
822.99	3732
823.13	3747
823.27	3808
823.41	3709
823.55	3682
823.69	3740
823.83	3713
823.97	3720
824.11	3614
824.25	3595
824.389	3660
824.529	3644
824.669	3625
824.809	3736
824.949	3743
825.089	3747
825.228	3679
825.368	3572
825.508	3526
825.648	3587
825.787	3648
825.927	3656
826.067	3618
826.206	3709
826.346	3797
826.485	3819
826.625	3869
826.765	3937
826.904	3800
827.044	3614
827.183	3534
827.323	3462
827.462	3488
827.601	3424
827.741	3401
827.88	3488
828.02	3363
828.159	3447
828.298	3469
828.437	3538
828.577	3454
828.716	3610
828.855	3492
828.994	3351
829.134	3359
829.273	3374
829.412	3351
829.551	3325
829.69	3386
829.829	3393
829.968	3496
830.107	3443
830.246	3420
830.385	3325
830.524	3367
830.663	3283
830.802	3249
830.941	3214
831.08	3226
831.219	3279
831.357	3256
831.496	3405
831.635	3192
831.774	3123
831.913	3230
832.051	3131
832.19	3154
832.329	3207
832.467	3146
832.606	3104
832.744	3135
832.883	3203
833.022	3211
833.16	3264
833.299	3306
833.437	3367
833.576	3374
833.714	3435
833.852	3454
833.991	3450
834.129	3435
834.267	3443
834.406	3424
834.544	3378
834.682	3431
834.821	3458
834.959	3576
835.097	3424
835.235	3568
835.373	3526
835.511	3496
835.65	3466
835.788	3481
835.926	3412
836.064	3409
836.202	3431
836.34	3572
836.478	3542
836.615	3530
836.753	3599
836.891	3663
837.029	3603
837.167	3584
837.305	3595
837.443	3542
837.58	3496
837.718	3561
837.856	3591
837.993	3557
838.131	3564
838.269	3576
838.406	3549
838.544	3553
838.681	3473
838.819	3496
838.956	3382
839.094	3382
839.231	3428
839.369	3500
839.506	3755
839.643	3660
839.781	3545
839.918	3473
840.055	3519
840.193	3515
840.33	3534
840.467	3576
840.604	3580
840.742	3797
840.879	3557
841.016	3580
841.153	3591
841.29	3755
841.427	3709
841.564	3694
841.701	3778
841.838	3717
841.975	3713
842.112	3709
842.249	3641
842.385	3610
842.522	3781
842.659	3694
842.796	3690
842.933	3682
843.069	3701
843.206	3709
843.343	3800
843.479	3816
843.616	3808
843.752	3686
843.889	3720
844.025	3838
844.162	3778
844.298	3861
844.435	3800
844.571	3781
844.708	3903
844.844	3945
844.98	4021
845.117	4013
845.253	3918
845.389	3892
845.525	3991
845.661	3964
845.798	3953
845.934	3975
846.07	3975
846.206	4044
846.342	4154
846.478	4097
846.614	3998
846.75	3930
846.886	3903
847.022	4048
847.158	3987
847.294	4040
847.429	4063
847.565	3998
847.701	4246
847.837	3869
847.972	3854
848.108	4002
848.244	4021
848.379	3873
848.515	3861
848.65	3770
848.786	3835
848.921	3842
849.057	3918
849.192	3960
849.328	3918
849.463	3915
849.598	3918
849.734	3861
849.869	3869
850.004	3808
850.14	3808
850.275	3793
850.41	3698
850.545	3747
850.68	3808
850.815	3838
850.95	3762
851.085	3903
851.22	3865
851.355	3804
851.49	3774
851.625	3770
851.76	3755
851.895	3705
852.03	3701
852.165	3793
852.299	3869
852.434	3930
852.569	3865
852.703	3915
852.838	3922
852.973	4006
853.107	3987
853.242	3873
853.376	3899
853.511	3759
853.645	3819
853.78	3960
853.914	3941
854.048	3922
854.183	3892
854.317	3930
854.451	4063
854.585	3918
854.72	3899
854.854	4063
854.988	3941
855.122	3994
855.256	3922
855.39	4017
855.524	4078
855.658	4116
855.792	4135
855.926	4135
856.06	4131
856.194	4219
856.327	4185
856.461	4139
856.595	4150
856.729	4169
856.862	4310
856.996	4249
857.13	4303
857.263	4352
857.397	4390
857.53	4325
857.664	4348
857.797	4367
857.931	4360
858.064	4405
858.197	4443
858.331	4466
858.464	4371
858.597	4379
858.731	4421
858.864	4478
858.997	4493
859.13	4512
859.263	4535
859.396	4577
859.529	4493
859.662	4523
859.795	4523
859.928	4634
860.061	4687
860.194	4740
860.327	4649
860.46	4668
860.592	4736
860.725	4778
860.858	4744
860.99	4691
861.123	4668
861.256	4706
861.388	4797
861.521	5493
861.653	4721
861.786	4672
861.918	4736
862.05	4843
862.183	4847
862.315	4938
862.447	4927
862.58	4873
862.712	4828
862.844	4793
862.976	4866
863.108	4904
863.24	5159
863.372	4862
863.504	4896
863.636	4866
863.768	5003
863.9	4946
864.032	4946
864.164	4968
864.296	5048
864.428	5124
864.559	5079
864.691	5155
864.823	5166
864.954	5102
865.086	5113
865.217	5166
865.349	5132
865.48	5170
865.612	5185
865.743	5265
865.875	5170
866.006	5201
866.137	5261
866.269	5242
866.4	5277
866.531	5258
866.662	5242
866.793	5261
866.924	5296
867.055	5318
867.186	5349
867.317	5326
867.448	5326
867.579	5349
867.71	5383
867.841	5364
867.972	5482
868.103	5471
868.233	5433
868.364	5482
868.495	5589
868.625	5623
868.756	5821
868.886	5649
869.017	5764
869.147	5904
869.278	5855
869.408	5813
869.539	5844
869.669	5885
869.799	5904
869.929	5969
870.06	6026
870.19	6167
870.32	6194
870.45	6254
870.58	6357
870.71	6403
870.84	6441
870.97	6380
871.1	6475
871.23	6627
871.36	6726
871.489	6654
871.619	6783
871.749	6829
871.879	6905
872.008	6993
872.138	6962
872.267	7008
872.397	7004
872.526	7053
872.656	7137
872.785	7198
872.915	7316
873.044	7540
873.173	7537
873.303	7628
873.432	7715
873.561	7898
873.69	7940
873.819	7989
873.948	8206
874.077	8210
874.206	8339
874.335	8484
874.464	8602
874.593	8819
874.722	8971
874.851	9074
874.979	9249
875.108	9382
875.237	9355
875.365	9500
875.494	9603
875.623	9873
875.751	9899
875.88	9983
876.008	10143
876.136	10306
876.265	10569
876.393	10717
876.521	10793
876.65	10885
876.778	10858
876.906	10961
877.034	10946
877.162	11079
877.29	11185
877.418	11315
877.546	11372
877.674	11406
877.802	11581
877.93	11524
878.058	11516
878.185	11589
878.313	11688
878.441	11786
878.568	11688
878.696	11771
878.824	11805
878.951	11935
879.079	12022
879.206	12205
879.333	12038
879.461	12022
879.588	12030
879.715	11999
879.842	12205
879.97	12015
880.097	11904
880.224	11874
880.351	11912
880.478	11866
880.605	11802
880.732	11863
880.859	12079
880.986	11874
881.112	11931
881.239	11779
881.366	11680
881.493	11638
881.619	11558
881.746	11558
881.872	11471
881.999	11528
882.125	11501
882.252	11539
882.378	11463
882.505	11520
882.631	11368
882.757	11368
882.883	11296
883.01	11250
883.136	11185
883.262	11083
883.388	11102
883.514	11231
883.64	11239
883.766	11185
883.892	10999
884.018	10976
884.143	11136
884.269	11128
884.395	10850
884.52	10793
884.646	10744
884.772	10721
884.897	10622
885.023	10653
885.148	10793
885.274	10755
885.399	10672
885.524	10626
885.65	10538
885.775	10577
885.9	10577
886.025	10634
886.15	10622
886.275	10363
886.4	10394
886.525	10356
886.65	10379
886.775	10287
886.9	10500
887.025	10478
887.149	10424
887.274	10215
887.399	10249
887.523	10150
887.648	10135
887.773	10086
887.897	10284
888.021	10154
888.146	10124
888.27	10265
888.395	10310
888.519	10181
888.643	10207
888.767	10147
888.891	10086
889.015	10090
889.139	10017
889.263	10017
889.387	10169
889.511	10135
889.635	10139
889.759	9945
889.883	10006
890.006	10086
890.13	10135
890.254	9934
890.377	9941
890.501	9797
890.624	9819
890.748	9888
890.871	9857
890.995	9720
891.118	9698
891.241	9751
891.364	9793
891.488	9865
891.611	9762
891.734	9819
891.857	9785
891.98	9759
892.103	9751
892.226	9682
892.349	9709
892.471	9507
892.594	9629
892.717	9622
892.839	9618
892.962	9595
893.085	9622
893.207	9618
893.33	9549
893.452	9564
893.575	9587
893.697	9526
893.819	9572
893.941	9660
894.064	9564
894.186	9424
894.308	9351
894.43	9496
894.552	9515
894.674	9553
894.796	9332
894.918	9389
895.04	9374
895.161	9382
895.283	9420
895.405	9249
895.526	9256
895.648	9260
895.769	9351
895.891	9272
896.012	9302
896.134	9192
896.255	9184
896.376	9157
896.498	9123
896.619	9142
896.74	9039
896.861	9135
896.982	9222
897.103	9306
897.224	9237
897.345	9097
897.466	9009
897.587	9081
897.708	9157
897.828	9043
897.949	8929
898.07	8872
898.19	8994
898.311	9062
898.431	8861
898.552	8986
898.672	8933
898.792	9024
898.913	8944
899.033	8804
899.153	8705
899.273	8670
899.393	8720
899.513	8754
899.633	8754
899.753	8693
899.873	8720
899.993	8758
900.113	8663
900.232	8674
900.352	8617
900.472	8644
900.591	8514
900.711	8655
900.83	8530
900.95	8716
901.069	8640
901.189	8537
901.308	8431
901.427	8366
901.546	8450
901.665	8412
901.784	8507
901.904	8438
902.023	8332
902.141	8191
902.26	8164
902.379	8218
902.498	8244
902.617	8248
902.735	8309
902.854	8343
902.973	8214
903.091	8138
903.21	8161
903.328	8210
903.446	8107
903.565	8168
903.683	8123
903.801	8035
903.919	8202
904.038	8119
904.156	8031
904.274	8153
904.392	8008
904.51	8073
904.627	8035
904.745	8054
904.863	8149
904.981	7871
905.098	7906
905.216	7890
905.334	7921
905.451	7940
905.569	7894
905.686	7902
905.803	7898
905.921	7734
906.038	7879
906.155	7830
906.272	7765
906.389	7719
906.506	7704
906.623	7620
906.74	7594
906.857	7540
906.974	7548
907.091	7693
907.208	7708
907.324	7681
907.441	7548
907.557	7441
907.674	7476
907.79	7415
907.907	7400
908.023	7430
908.139	7426
908.256	7434
908.372	7388
908.488	7320
908.604	7305
908.72	7244
908.836	7270
908.952	7285
909.068	7251
909.184	7365
909.3	7305
909.415	7247
909.531	7316
909.647	7088
909.762	7160
909.878	7080
909.993	7141
910.108	7118
910.224	7114
910.339	7190
910.454	7004
910.57	7012
910.685	6966
910.8	7107
910.915	7076
911.03	7027
911.145	6913
911.259	6897
911.374	6985
911.489	6806
911.604	6768
911.718	6715
911.833	6768
911.947	6604
912.062	6585
912.176	6757
912.291	6681
912.405	6688
912.519	6909
912.633	6810
912.748	6738
912.862	6722
912.976	6593
913.09	6471
913.204	6604
913.318	6608
913.431	6711
913.545	6658
913.659	6741
913.772	6623
913.886	6582
914	6540
914.113	6635
914.226	6662
914.34	6563
914.453	6498
914.566	6559
914.68	6525
914.793	6517
914.906	6475
915.019	6441
915.132	6380
915.245	6414
915.358	6414
915.47	6467
915.583	6426
915.696	6540
915.809	6532
915.921	6570
916.034	6380
916.146	6426
916.259	6388
916.371	6445
916.483	6452
916.595	6448
916.708	6414
916.82	6471
916.932	6353
917.044	6384
917.156	6391
917.268	6331
917.38	6323
917.491	6331
917.603	6369
917.715	6384
917.826	6391
917.938	6342
918.049	6277
918.161	6448
918.272	6479
918.384	6414
918.495	6391
918.606	6262
918.717	6155
918.828	6281
918.939	6262
919.05	6171
919.161	6289
919.272	6110
919.383	6178
919.494	6323
919.604	6403
919.715	6338
919.826	6254
919.936	6190
920.047	6391
920.157	6251
920.267	6426
920.378	6304
920.488	6281
920.598	6517
920.708	6563
920.818	6536
920.928	6464
921.038	6555
921.148	6585
921.258	6350
921.368	6270
921.477	6213
921.587	6213
921.697	6083
921.806	6201
921.916	6072
922.025	5939
922.134	5889
922.244	5920
922.353	5965
922.462	5901
922.571	5798
922.68	5729
922.789	5703
922.898	5722
923.007	5672
923.116	5733
923.224	5665
923.333	5646
923.442	5627
923.55	5642
923.659	5547
923.767	5642
923.876	5566
923.984	5543
924.092	5486
924.201	5570
924.309	5543
924.417	5551
924.525	5433
924.633	5520
924.741	6266
924.849	5387
924.956	5505
925.064	5330
925.172	5318
925.279	5334
925.387	5334
925.494	5288
925.602	5436
925.709	5372
925.816	5292
925.924	5258
926.031	5398
926.138	5315
926.245	5341
926.352	5223
926.459	5288
926.566	5364
926.673	5235
926.779	5113
926.886	5170
926.993	5025
927.099	5029
927.206	4961
927.312	4942
927.419	5071
927.525	5014
927.631	4976
927.737	4908
927.843	4919
927.95	4828
928.056	4828
928.162	4892
928.267	4877
928.373	5334
928.479	4812
928.585	4664
928.69	4782
928.796	4744
928.901	4683
929.007	4622
929.112	4702
929.218	4668
929.323	4656
929.428	4546
929.533	4714
929.638	4485
929.743	4565
929.848	4516
929.953	4550
930.058	4485
930.163	4337
930.267	4386
930.372	4417
930.477	4310
930.581	4440
930.685	4341
930.79	4253
930.894	4257
930.998	4287
931.103	4436
931.207	4109
931.311	4105
931.415	4044
931.519	3926
931.623	3983
