Data from glass_V78500241_1213.txt Node
Date: Wed Sep 01 19:22:54 CST 2021
User: usil
Spectrometer: V785-0024
Trigger mode: 0
Integration Time (sec): 4.000000E-1
Scans to average: 1
Nonlinearity correction enabled: false
Boxcar width: 0
Storing dark spectrum: false
XAxis mode: Wavelengths
Number of Pixels in Spectrum: 1024
>>>>>Begin Spectral Data<<<<<
801.071	3766
801.214	3808
801.356	3679
801.499	3762
801.641	3732
801.783	3751
801.926	3869
802.068	3812
802.211	3854
802.353	3934
802.496	3842
802.638	3854
802.78	3953
802.923	3975
803.065	3873
803.208	3842
803.35	3869
803.492	3960
803.635	3934
803.777	3835
803.919	3926
804.061	4147
804.204	3998
804.346	3934
804.488	3915
804.63	4059
804.773	3934
804.915	4036
805.057	4139
805.199	4036
805.341	4082
805.483	4158
805.626	4158
805.768	4109
805.91	4227
806.052	4322
806.194	4234
806.336	4310
806.478	4253
806.62	4131
806.762	4223
806.904	4287
807.046	4363
807.188	4230
807.33	4192
807.472	4268
807.614	4223
807.756	4257
807.898	4185
808.04	4268
808.182	4268
808.324	4356
808.465	4405
808.607	4466
808.749	4478
808.891	4459
809.033	4527
809.174	4383
809.316	4295
809.458	4257
809.6	4158
809.741	4139
809.883	4169
810.025	4181
810.166	4177
810.308	4204
810.45	4207
810.591	4284
810.733	4295
810.875	4523
811.016	4835
811.158	5121
811.299	5326
811.441	5303
811.582	5136
811.724	4710
811.865	4504
812.007	4474
812.148	4436
812.29	4436
812.431	4447
812.573	4413
812.714	4417
812.855	4459
812.997	4405
813.138	4535
813.279	4470
813.421	4363
813.562	4383
813.703	4329
813.845	4329
813.986	4272
814.127	4234
814.268	4299
814.41	4337
814.551	4253
814.692	4280
814.833	4265
814.974	4291
815.115	4329
815.256	4280
815.397	4257
815.539	4257
815.68	4200
815.821	4169
815.962	4318
816.103	4257
816.244	4215
816.385	4234
816.526	4268
816.666	4211
816.807	4078
816.948	4188
817.089	4192
817.23	4109
817.371	4063
817.512	4082
817.653	4010
817.793	4029
817.934	3987
818.075	4082
818.216	4078
818.356	4116
818.497	4010
818.638	3949
818.778	3937
818.919	3876
819.06	3846
819.2	3953
819.341	3876
819.481	3873
819.622	3918
819.762	4025
819.903	3953
820.043	3911
820.184	3823
820.324	3827
820.465	3907
820.605	3857
820.746	3907
820.886	3781
821.026	3949
821.167	3911
821.307	3972
821.447	3945
821.588	3960
821.728	3896
821.868	3941
822.008	3899
822.149	3918
822.289	3945
822.429	3808
822.569	3751
822.709	3797
822.849	3728
822.99	3713
823.13	3797
823.27	3781
823.41	3709
823.55	3759
823.69	3679
823.83	3728
823.97	3667
824.11	3644
824.25	3614
824.389	3648
824.529	3705
824.669	3629
824.809	3709
824.949	3766
825.089	3740
825.228	3720
825.368	3595
825.508	3549
825.648	3572
825.787	3614
825.927	3644
826.067	3622
826.206	3652
826.346	3781
826.485	3819
826.625	3918
826.765	3953
826.904	3846
827.044	3641
827.183	3526
827.323	3443
827.462	3473
827.601	3454
827.741	3447
827.88	3439
828.02	3405
828.159	3477
828.298	3534
828.437	3587
828.577	3469
828.716	3625
828.855	3504
828.994	3374
829.134	3393
829.273	3382
829.412	3367
829.551	3363
829.69	3405
829.829	3435
829.968	3530
830.107	3450
830.246	3412
830.385	3409
830.524	3355
830.663	3313
830.802	3313
830.941	3176
831.08	3222
831.219	3291
831.357	3294
831.496	3382
831.635	3233
831.774	3222
831.913	3218
832.051	3138
832.19	3142
832.329	3192
832.467	3150
832.606	3131
832.744	3150
832.883	3218
833.022	3199
833.16	3272
833.299	3291
833.437	3344
833.576	3336
833.714	3420
833.852	3458
833.991	3473
834.129	3542
834.267	3431
834.406	3431
834.544	3393
834.682	3409
834.821	3416
834.959	3557
835.097	3409
835.235	3504
835.373	3557
835.511	3477
835.65	3523
835.788	3500
835.926	3409
836.064	3378
836.202	3428
836.34	3587
836.478	3606
836.615	3568
836.753	3629
836.891	3679
837.029	3648
837.167	3595
837.305	3572
837.443	3515
837.58	3500
837.718	3614
837.856	3587
837.993	3530
838.131	3587
838.269	3618
838.406	3591
838.544	3606
838.681	3507
838.819	3462
838.956	3359
839.094	3412
839.231	3435
839.369	3511
839.506	3720
839.643	3629
839.781	3507
839.918	3504
840.055	3542
840.193	3549
840.33	3504
840.467	3580
840.604	3633
840.742	3804
840.879	3515
841.016	3584
841.153	3572
841.29	3789
841.427	3728
841.564	3686
841.701	3770
841.838	3709
841.975	3679
842.112	3736
842.249	3656
842.385	3660
842.522	3823
842.659	3736
842.796	3728
842.933	3698
843.069	3694
843.206	3656
843.343	3823
843.479	3831
843.616	3808
843.752	3675
843.889	3698
844.025	3876
844.162	3728
844.298	3861
844.435	3797
844.571	3785
844.708	3896
844.844	3998
844.98	4051
845.117	4032
845.253	3918
845.389	3922
845.525	3964
845.661	3998
845.798	3926
845.934	4006
846.07	3979
846.206	4078
846.342	4090
846.478	4063
846.614	3983
846.75	3972
846.886	3941
847.022	4082
847.158	3987
847.294	4017
847.429	4010
847.565	4006
847.701	4272
847.837	3903
847.972	3865
848.108	3968
848.244	3979
848.379	3922
848.515	3793
848.65	3865
848.786	3857
848.921	3896
849.057	3911
849.192	3937
849.328	3926
849.463	3926
849.598	3884
849.734	3850
849.869	3899
850.004	3778
850.14	3808
850.275	3793
850.41	3713
850.545	3755
850.68	3823
850.815	3823
850.95	3823
851.085	3972
851.22	3873
851.355	3854
851.49	3823
851.625	3800
851.76	3789
851.895	3743
852.03	3732
852.165	3793
852.299	3896
852.434	3861
852.569	3934
852.703	3918
852.838	3937
852.973	3956
853.107	4055
853.242	3907
853.376	3842
853.511	3778
853.645	3857
853.78	3945
853.914	3911
854.048	3911
854.183	3884
854.317	3930
854.451	4067
854.585	3983
854.72	3926
854.854	4040
854.988	3949
855.122	4021
855.256	3972
855.39	4002
855.524	4128
855.658	4067
855.792	4120
855.926	4192
856.06	4169
856.194	4234
856.327	4124
856.461	4139
856.595	4223
856.729	4200
856.862	4287
856.996	4223
857.13	4329
857.263	4344
857.397	4367
857.53	4318
857.664	4379
857.797	4413
857.931	4413
858.064	4390
858.197	4440
858.331	4409
858.464	4344
858.597	4329
858.731	4447
858.864	4432
858.997	4451
859.13	4493
859.263	4508
859.396	4588
859.529	4508
859.662	4527
859.795	4519
859.928	4607
860.061	4736
860.194	4771
860.327	4668
860.46	4656
860.592	4763
860.725	4786
860.858	4763
860.99	4664
861.123	4702
861.256	4687
861.388	4805
861.521	5315
861.653	4710
861.786	4683
861.918	4721
862.05	4797
862.183	4854
862.315	4892
862.447	4923
862.58	4934
862.712	4828
862.844	4801
862.976	4927
863.108	4896
863.24	5185
863.372	4843
863.504	4881
863.636	4892
863.768	4976
863.9	4987
864.032	4972
864.164	4953
864.296	5037
864.428	5079
864.559	5140
864.691	5155
864.823	5189
864.954	5121
865.086	5121
865.217	5105
865.349	5128
865.48	5174
865.612	5201
865.743	5311
865.875	5220
866.006	5189
866.137	5254
866.269	5220
866.4	5231
866.531	5269
866.662	5254
866.793	5292
866.924	5280
867.055	5303
867.186	5341
867.317	5315
867.448	5330
867.579	5372
867.71	5387
867.841	5379
867.972	5463
868.103	5448
868.233	5482
868.364	5509
868.495	5493
868.625	5638
868.756	5790
868.886	5634
869.017	5775
869.147	5870
869.278	5866
869.408	5817
869.539	5870
869.669	5946
869.799	5897
869.929	5958
870.06	6064
870.19	6209
870.32	6285
870.45	6311
870.58	6342
870.71	6388
870.84	6506
870.97	6464
871.1	6452
871.23	6608
871.36	6669
871.489	6662
871.619	6715
871.749	6760
871.879	6856
872.008	6993
872.138	6958
872.267	7061
872.397	6935
872.526	7015
872.656	7175
872.785	7175
872.915	7403
873.044	7506
873.173	7537
873.303	7674
873.432	7685
873.561	7917
873.69	7909
873.819	8012
873.948	8191
874.077	8267
874.206	8339
874.335	8537
874.464	8697
874.593	8876
874.722	8963
874.851	9146
874.979	9256
875.108	9336
875.237	9462
875.365	9473
875.494	9603
875.623	9953
875.751	9816
875.88	10036
876.008	10139
876.136	10310
876.265	10558
876.393	10630
876.521	10721
876.65	10797
876.778	10797
876.906	10915
877.034	11067
877.162	11094
877.29	11147
877.418	11356
877.546	11334
877.674	11467
877.802	11467
877.93	11570
878.058	11532
878.185	11592
878.313	11748
878.441	11710
878.568	11684
878.696	11847
878.824	11855
878.951	12022
879.079	11931
879.206	12121
879.333	12106
879.461	12041
879.588	12155
879.715	12079
879.842	12235
879.97	12133
880.097	11920
880.224	11893
880.351	11836
880.478	11931
880.605	11882
880.732	11836
880.859	12110
880.986	11874
881.112	11897
881.239	11802
881.366	11695
881.493	11680
881.619	11539
881.746	11585
881.872	11646
881.999	11554
882.125	11421
882.252	11600
882.378	11562
882.505	11554
882.631	11406
882.757	11250
882.883	11299
883.01	11299
883.136	11143
883.262	11109
883.388	11064
883.514	11185
883.64	11193
883.766	11185
883.892	11006
884.018	10999
884.143	11075
884.269	11094
884.395	10850
884.52	10786
884.646	10786
884.772	10687
884.897	10569
885.023	10694
885.148	10672
885.274	10744
885.399	10763
885.524	10645
885.65	10592
885.775	10592
885.9	10546
886.025	10637
886.15	10519
886.275	10470
886.4	10344
886.525	10371
886.65	10352
886.775	10360
886.9	10443
887.025	10531
887.149	10405
887.274	10223
887.399	10158
887.523	10181
887.648	10204
887.773	10143
887.897	10329
888.021	10207
888.146	10120
888.27	10219
888.395	10219
888.519	10188
888.643	10196
888.767	10166
888.891	10059
889.015	9960
889.139	10002
889.263	9998
889.387	10078
889.511	10135
889.635	10074
889.759	9987
889.883	10002
890.006	9979
890.13	10135
890.254	9964
890.377	9945
890.501	9819
890.624	9842
890.748	9903
890.871	9827
890.995	9762
891.118	9819
891.241	9804
891.364	9698
891.488	9850
891.611	9720
891.734	9755
891.857	9823
891.98	9709
892.103	9736
892.226	9740
892.349	9724
892.471	9545
892.594	9648
892.717	9682
892.839	9557
892.962	9660
893.085	9648
893.207	9622
893.33	9397
893.452	9587
893.575	9603
893.697	9477
893.819	9603
893.941	9542
894.064	9545
894.186	9481
894.308	9416
894.43	9572
894.552	9526
894.674	9557
894.796	9393
894.918	9431
895.04	9321
895.161	9412
895.283	9382
895.405	9298
895.526	9298
895.648	9298
895.769	9256
895.891	9291
896.012	9359
896.134	9184
896.255	9222
896.376	9062
896.498	9218
896.619	9108
896.74	9077
896.861	9154
896.982	9283
897.103	9332
897.224	9245
897.345	9077
897.466	9036
897.587	9070
897.708	9157
897.828	8994
897.949	8963
898.07	8876
898.19	8990
898.311	9066
898.431	8895
898.552	9005
898.672	9020
898.792	8990
898.913	8906
899.033	8872
899.153	8762
899.273	8693
899.393	8670
899.513	8693
899.633	8724
899.753	8705
899.873	8746
899.993	8724
900.113	8705
900.232	8663
900.352	8724
900.472	8678
900.591	8568
900.711	8598
900.83	8552
900.95	8724
901.069	8663
901.189	8526
901.308	8446
901.427	8431
901.546	8446
901.665	8454
901.784	8507
901.904	8412
902.023	8328
902.141	8317
902.26	8248
902.379	8248
902.498	8218
902.617	8279
902.735	8328
902.854	8301
902.973	8286
903.091	8119
903.21	8225
903.328	8161
903.446	8119
903.565	8119
903.683	8065
903.801	8096
903.919	8202
904.038	8092
904.156	7955
904.274	8065
904.392	8058
904.51	8107
904.627	8081
904.745	7997
904.863	8142
904.981	7959
905.098	7917
905.216	7928
905.334	7928
905.451	7890
905.569	7887
905.686	7909
905.803	7890
905.921	7780
906.038	7959
906.155	7833
906.272	7761
906.389	7704
906.506	7674
906.623	7594
906.74	7620
906.857	7578
906.974	7544
907.091	7727
907.208	7746
907.324	7643
907.441	7609
907.557	7464
907.674	7369
907.79	7415
907.907	7407
908.023	7438
908.139	7453
908.256	7411
908.372	7305
908.488	7335
908.604	7327
908.72	7247
908.836	7236
908.952	7274
909.068	7255
909.184	7350
909.3	7213
909.415	7274
909.531	7274
909.647	7091
909.762	7110
909.878	7095
909.993	7091
910.108	7091
910.224	7099
910.339	7126
910.454	7057
910.57	6958
910.685	6951
910.8	7114
910.915	7118
911.03	6981
911.145	6935
911.259	6920
911.374	6821
911.489	6890
911.604	6856
911.718	6753
911.833	6684
911.947	6684
912.062	6631
912.176	6684
912.291	6730
912.405	6726
912.519	6818
912.633	6825
912.748	6768
912.862	6730
912.976	6585
913.09	6479
913.204	6574
913.318	6582
913.431	6616
913.545	6650
913.659	6734
913.772	6681
913.886	6563
914	6582
914.113	6642
914.226	6654
914.34	6589
914.453	6532
914.566	6597
914.68	6566
914.793	6566
914.906	6426
915.019	6437
915.132	6452
915.245	6426
915.358	6483
915.47	6532
915.583	6414
915.696	6483
915.809	6570
915.921	6547
916.034	6445
916.146	6437
916.259	6388
916.371	6399
916.483	6460
916.595	6346
916.708	6391
916.82	6452
916.932	6338
917.044	6422
917.156	6399
917.268	6308
917.38	6391
917.491	6304
917.603	6361
917.715	6372
917.826	6414
917.938	6315
918.049	6235
918.161	6372
918.272	6448
918.384	6437
918.495	6380
918.606	6251
918.717	6239
918.828	6285
918.939	6300
919.05	6205
919.161	6289
919.272	6148
919.383	6155
919.494	6372
919.604	6456
919.715	6304
919.826	6216
919.936	6232
920.047	6380
920.157	6331
920.267	6467
920.378	6327
920.488	6311
920.598	6429
920.708	6582
920.818	6429
920.928	6544
921.038	6639
921.148	6589
921.258	6399
921.368	6315
921.477	6232
921.587	6209
921.697	6038
921.806	6167
921.916	6079
922.025	5954
922.134	5912
922.244	5969
922.353	5977
922.462	5847
922.571	5752
922.68	5710
922.789	5760
922.898	5688
923.007	5646
923.116	5691
923.224	5710
923.333	5710
923.442	5585
923.55	5573
923.659	5623
923.767	5619
923.876	5562
923.984	5585
924.092	5535
924.201	5570
924.309	5512
924.417	5547
924.525	5497
924.633	5516
924.741	6277
924.849	5376
924.956	5486
925.064	5364
925.172	5292
925.279	5330
925.387	5341
925.494	5372
925.602	5425
925.709	5391
925.816	5296
925.924	5318
926.031	5379
926.138	5311
926.245	5337
926.352	5261
926.459	5337
926.566	5337
926.673	5235
926.779	5086
926.886	5121
926.993	5079
927.099	5029
927.206	5041
927.312	4923
927.419	5094
927.525	4946
927.631	4984
927.737	4885
927.843	4889
927.95	4812
928.056	4835
928.162	4809
928.267	4877
928.373	5360
928.479	4843
928.585	4698
928.69	4797
928.796	4771
928.901	4668
929.007	4615
929.112	4679
929.218	4675
929.323	4615
929.428	4565
929.533	4660
929.638	4485
929.743	4550
929.848	4546
929.953	4535
930.058	4405
930.163	4299
930.267	4352
930.372	4455
930.477	4322
930.581	4451
930.685	4363
930.79	4272
930.894	4284
930.998	4207
931.103	4386
931.207	4128
931.311	4112
931.415	4044
931.519	3949
931.623	3922
