Data from glass_V78500241_1354.txt Node
Date: Wed Sep 01 19:23:53 CST 2021
User: usil
Spectrometer: V785-0024
Trigger mode: 0
Integration Time (sec): 4.000000E-1
Scans to average: 1
Nonlinearity correction enabled: false
Boxcar width: 0
Storing dark spectrum: false
XAxis mode: Wavelengths
Number of Pixels in Spectrum: 1024
>>>>>Begin Spectral Data<<<<<
801.071	3713
801.214	3736
801.356	3705
801.499	3785
801.641	3713
801.783	3759
801.926	3876
802.068	3838
802.211	3850
802.353	3888
802.496	3800
802.638	3880
802.78	3934
802.923	3945
803.065	3884
803.208	3865
803.35	3896
803.492	3930
803.635	3945
803.777	3759
803.919	3865
804.061	4150
804.204	3975
804.346	3979
804.488	3903
804.63	4044
804.773	3998
804.915	4059
805.057	4177
805.199	4040
805.341	4090
805.483	4116
805.626	4143
805.768	4074
805.91	4227
806.052	4211
806.194	4211
806.336	4356
806.478	4188
806.62	4211
806.762	4181
806.904	4268
807.046	4322
807.188	4185
807.33	4211
807.472	4238
807.614	4211
807.756	4291
807.898	4253
808.04	4268
808.182	4325
808.324	4333
808.465	4363
808.607	4462
808.749	4417
808.891	4432
809.033	4478
809.174	4383
809.316	4265
809.458	4223
809.6	4158
809.741	4101
809.883	4112
810.025	4204
810.166	4196
810.308	4261
810.45	4253
810.591	4249
810.733	4265
810.875	4500
811.016	4881
811.158	5140
811.299	5261
811.441	5296
811.582	5079
811.724	4752
811.865	4443
812.007	4455
812.148	4485
812.29	4428
812.431	4405
812.573	4432
812.714	4390
812.855	4470
812.997	4455
813.138	4447
813.279	4402
813.421	4333
813.562	4371
813.703	4333
813.845	4333
813.986	4253
814.127	4223
814.268	4261
814.41	4318
814.551	4306
814.692	4348
814.833	4261
814.974	4352
815.115	4360
815.256	4261
815.397	4219
815.539	4234
815.68	4234
815.821	4257
815.962	4322
816.103	4291
816.244	4246
816.385	4207
816.526	4284
816.666	4230
816.807	4097
816.948	4166
817.089	4204
817.23	4173
817.371	4093
817.512	4067
817.653	4109
817.793	4025
817.934	4082
818.075	4051
818.216	4063
818.356	4074
818.497	3998
818.638	3926
818.778	3934
818.919	3880
819.06	3884
819.2	3915
819.341	3880
819.481	3861
819.622	3896
819.762	4032
819.903	3949
820.043	3873
820.184	3808
820.324	3892
820.465	3865
820.605	3865
820.746	3888
820.886	3793
821.026	3953
821.167	3922
821.307	3991
821.447	4013
821.588	3968
821.728	3945
821.868	3949
822.008	3854
822.149	3911
822.289	3949
822.429	3774
822.569	3717
822.709	3804
822.849	3675
822.99	3743
823.13	3778
823.27	3770
823.41	3770
823.55	3709
823.69	3698
823.83	3713
823.97	3679
824.11	3606
824.25	3606
824.389	3701
824.529	3644
824.669	3709
824.809	3747
824.949	3713
825.089	3743
825.228	3743
825.368	3576
825.508	3553
825.648	3580
825.787	3622
825.927	3633
826.067	3591
826.206	3652
826.346	3804
826.485	3846
826.625	3918
826.765	3945
826.904	3797
827.044	3671
827.183	3561
827.323	3462
827.462	3492
827.601	3401
827.741	3367
827.88	3492
828.02	3367
828.159	3454
828.298	3481
828.437	3553
828.577	3492
828.716	3614
828.855	3488
828.994	3431
829.134	3374
829.273	3409
829.412	3336
829.551	3332
829.69	3409
829.829	3397
829.968	3511
830.107	3450
830.246	3443
830.385	3420
830.524	3344
830.663	3260
830.802	3279
830.941	3214
831.08	3161
831.219	3256
831.357	3287
831.496	3389
831.635	3214
831.774	3211
831.913	3195
832.051	3135
832.19	3154
832.329	3211
832.467	3112
832.606	3104
832.744	3180
832.883	3165
833.022	3195
833.16	3237
833.299	3310
833.437	3359
833.576	3355
833.714	3378
833.852	3431
833.991	3416
834.129	3469
834.267	3458
834.406	3412
834.544	3412
834.682	3454
834.821	3424
834.959	3530
835.097	3416
835.235	3523
835.373	3504
835.511	3507
835.65	3492
835.788	3458
835.926	3386
836.064	3363
836.202	3374
836.34	3564
836.478	3610
836.615	3606
836.753	3610
836.891	3644
837.029	3584
837.167	3580
837.305	3587
837.443	3507
837.58	3526
837.718	3606
837.856	3534
837.993	3519
838.131	3644
838.269	3595
838.406	3603
838.544	3584
838.681	3458
838.819	3488
838.956	3370
839.094	3412
839.231	3485
839.369	3500
839.506	3736
839.643	3644
839.781	3511
839.918	3458
840.055	3561
840.193	3519
840.33	3538
840.467	3545
840.604	3633
840.742	3774
840.879	3534
841.016	3584
841.153	3591
841.29	3751
841.427	3690
841.564	3743
841.701	3751
841.838	3690
841.975	3690
842.112	3686
842.249	3603
842.385	3599
842.522	3819
842.659	3705
842.796	3652
842.933	3698
843.069	3728
843.206	3709
843.343	3819
843.479	3797
843.616	3793
843.752	3679
843.889	3732
844.025	3880
844.162	3751
844.298	3861
844.435	3804
844.571	3831
844.708	3907
844.844	4017
844.98	4036
845.117	3987
845.253	3915
845.389	3945
845.525	3953
845.661	3964
845.798	3907
845.934	3979
846.07	3922
846.206	4090
846.342	4093
846.478	4090
846.614	3994
846.75	3918
846.886	3934
847.022	4048
847.158	3945
847.294	3979
847.429	4032
847.565	3987
847.701	4227
847.837	3835
847.972	3880
848.108	3949
848.244	3945
848.379	3846
848.515	3793
848.65	3835
848.786	3854
848.921	3915
849.057	3945
849.192	3964
849.328	3934
849.463	3907
849.598	3888
849.734	3865
849.869	3804
850.004	3778
850.14	3850
850.275	3785
850.41	3728
850.545	3823
850.68	3785
850.815	3816
850.95	3808
851.085	3979
851.22	3873
851.355	3842
851.49	3774
851.625	3770
851.76	3812
851.895	3720
852.03	3766
852.165	3838
852.299	3823
852.434	3888
852.569	3854
852.703	3911
852.838	3876
852.973	4010
853.107	4021
853.242	3884
853.376	3876
853.511	3819
853.645	3835
853.78	3975
853.914	3922
854.048	3892
854.183	3892
854.317	3994
854.451	4109
854.585	3945
854.72	3953
854.854	4055
854.988	3956
855.122	4036
855.256	3934
855.39	4017
855.524	4082
855.658	4120
855.792	4051
855.926	4109
856.06	4238
856.194	4230
856.327	4116
856.461	4158
856.595	4147
856.729	4200
856.862	4284
856.996	4268
857.13	4299
857.263	4356
857.397	4337
857.53	4295
857.664	4318
857.797	4436
857.931	4402
858.064	4394
858.197	4455
858.331	4386
858.464	4383
858.597	4371
858.731	4436
858.864	4519
858.997	4443
859.13	4500
859.263	4535
859.396	4580
859.529	4493
859.662	4554
859.795	4500
859.928	4599
860.061	4733
860.194	4782
860.327	4649
860.46	4630
860.592	4763
860.725	4744
860.858	4793
860.99	4733
861.123	4641
861.256	4668
861.388	4828
861.521	5528
861.653	4752
861.786	4744
861.918	4759
862.05	4786
862.183	4820
862.315	4911
862.447	4938
862.58	4862
862.712	4782
862.844	4763
862.976	4908
863.108	4896
863.24	5220
863.372	4835
863.504	4915
863.636	4896
863.768	5010
863.9	4949
864.032	4991
864.164	4953
864.296	5067
864.428	5056
864.559	5090
864.691	5094
864.823	5094
864.954	5117
865.086	5113
865.217	5124
865.349	5109
865.48	5102
865.612	5174
865.743	5307
865.875	5212
866.006	5193
866.137	5235
866.269	5273
866.4	5189
866.531	5269
866.662	5265
866.793	5322
866.924	5254
867.055	5315
867.186	5318
867.317	5334
867.448	5330
867.579	5398
867.71	5357
867.841	5398
867.972	5467
868.103	5478
868.233	5532
868.364	5505
868.495	5551
868.625	5646
868.756	5798
868.886	5665
869.017	5718
869.147	5844
869.278	5889
869.408	5805
869.539	5832
869.669	5859
869.799	5851
869.929	5984
870.06	6003
870.19	6216
870.32	6235
870.45	6220
870.58	6357
870.71	6433
870.84	6460
870.97	6475
871.1	6502
871.23	6612
871.36	6665
871.489	6646
871.619	6715
871.749	6776
871.879	6882
872.008	7000
872.138	7004
872.267	7031
872.397	6985
872.526	6977
872.656	7091
872.785	7244
872.915	7369
873.044	7499
873.173	7563
873.303	7601
873.432	7761
873.561	7890
873.69	7967
873.819	8012
873.948	8195
874.077	8267
874.206	8339
874.335	8484
874.464	8701
874.593	8868
874.722	8857
874.851	9066
874.979	9233
875.108	9310
875.237	9447
875.365	9401
875.494	9656
875.623	9823
875.751	9842
875.88	10048
876.008	10131
876.136	10337
876.265	10470
876.393	10672
876.521	10755
876.65	10831
876.778	10850
876.906	10816
877.034	10980
877.162	11075
877.29	11102
877.418	11330
877.546	11364
877.674	11433
877.802	11509
877.93	11490
878.058	11493
878.185	11528
878.313	11642
878.441	11767
878.568	11691
878.696	11790
878.824	11828
878.951	11980
879.079	12095
879.206	12114
879.333	11965
879.461	11973
879.588	12045
879.715	12083
879.842	12121
879.97	12095
880.097	11897
880.224	11851
880.351	11870
880.478	11859
880.605	11843
880.732	11790
880.859	12053
880.986	11779
881.112	11866
881.239	11748
881.366	11615
881.493	11661
881.619	11532
881.746	11611
881.872	11554
881.999	11482
882.125	11490
882.252	11532
882.378	11592
882.505	11520
882.631	11395
882.757	11235
882.883	11330
883.01	11269
883.136	11136
883.262	11140
883.388	11014
883.514	11143
883.64	11159
883.766	11109
883.892	10991
884.018	11052
884.143	11071
884.269	11041
884.395	10809
884.52	10809
884.646	10729
884.772	10717
884.897	10755
885.023	10725
885.148	10634
885.274	10778
885.399	10717
885.524	10569
885.65	10596
885.775	10653
885.9	10546
886.025	10679
886.15	10611
886.275	10485
886.4	10375
886.525	10436
886.65	10436
886.775	10421
886.9	10512
887.025	10527
887.149	10291
887.274	10280
887.399	10219
887.523	10215
887.648	10162
887.773	10044
887.897	10246
888.021	10169
888.146	10154
888.27	10295
888.395	10154
888.519	10230
888.643	10128
888.767	10139
888.891	10150
889.015	10017
889.139	10116
889.263	10002
889.387	10067
889.511	10097
889.635	10025
889.759	9983
889.883	10006
890.006	10006
890.13	10120
890.254	9983
890.377	9968
890.501	9823
890.624	9968
890.748	9888
890.871	9831
890.995	9835
891.118	9755
891.241	9770
891.364	9838
891.488	9812
891.611	9732
891.734	9747
891.857	9736
891.98	9698
892.103	9762
892.226	9679
892.349	9713
892.471	9568
892.594	9633
892.717	9584
892.839	9572
892.962	9625
893.085	9603
893.207	9587
893.33	9488
893.452	9561
893.575	9568
893.697	9545
893.819	9561
893.941	9633
894.064	9599
894.186	9439
894.308	9507
894.43	9545
894.552	9656
894.674	9530
894.796	9428
894.918	9408
895.04	9294
895.161	9359
895.283	9336
895.405	9207
895.526	9264
895.648	9188
895.769	9195
895.891	9275
896.012	9325
896.134	9233
896.255	9207
896.376	9116
896.498	9142
896.619	9119
896.74	9070
896.861	9138
896.982	9279
897.103	9230
897.224	9188
897.345	9112
897.466	9009
897.587	9001
897.708	9001
897.828	8986
897.949	8967
898.07	8952
898.19	8921
898.311	9017
898.431	8960
898.552	8963
898.672	9005
898.792	8963
898.913	8861
899.033	8807
899.153	8800
899.273	8632
899.393	8815
899.513	8689
899.633	8743
899.753	8758
899.873	8705
899.993	8758
900.113	8689
900.232	8762
900.352	8648
900.472	8648
900.591	8488
900.711	8632
900.83	8495
900.95	8670
901.069	8716
901.189	8575
901.308	8404
901.427	8457
901.546	8438
901.665	8446
901.784	8492
901.904	8400
902.023	8320
902.141	8248
902.26	8195
902.379	8252
902.498	8202
902.617	8237
902.735	8290
902.854	8324
902.973	8332
903.091	8100
903.21	8138
903.328	8134
903.446	8065
903.565	8062
903.683	8157
903.801	8058
903.919	8115
904.038	8134
904.156	8027
904.274	8046
904.392	8043
904.51	8123
904.627	8016
904.745	8119
904.863	8126
904.981	7993
905.098	7868
905.216	7879
905.334	7925
905.451	7894
905.569	7947
905.686	7909
905.803	7909
905.921	7780
906.038	7830
906.155	7826
906.272	7719
906.389	7674
906.506	7670
906.623	7571
906.74	7613
906.857	7537
906.974	7552
907.091	7670
907.208	7727
907.324	7628
907.441	7643
907.557	7468
907.674	7464
907.79	7327
907.907	7419
908.023	7441
908.139	7354
908.256	7362
908.372	7369
908.488	7377
908.604	7247
908.72	7221
908.836	7274
908.952	7297
909.068	7183
909.184	7346
909.3	7236
909.415	7259
909.531	7301
909.647	7095
909.762	7088
909.878	7133
909.993	7069
910.108	7065
910.224	7027
910.339	7057
910.454	7107
910.57	7046
910.685	7000
910.8	7149
910.915	7107
911.03	7027
911.145	6924
911.259	6871
911.374	6920
911.489	6810
911.604	6818
911.718	6741
911.833	6757
911.947	6650
912.062	6582
912.176	6757
912.291	6665
912.405	6719
912.519	6795
912.633	6821
912.748	6760
912.862	6681
912.976	6631
913.09	6532
913.204	6601
913.318	6525
913.431	6688
913.545	6665
913.659	6696
913.772	6681
913.886	6563
914	6540
914.113	6631
914.226	6631
914.34	6646
914.453	6471
914.566	6570
914.68	6525
914.793	6589
914.906	6464
915.019	6361
915.132	6372
915.245	6418
915.358	6418
915.47	6414
915.583	6433
915.696	6498
915.809	6483
915.921	6551
916.034	6414
916.146	6380
916.259	6414
916.371	6483
916.483	6433
916.595	6334
916.708	6342
916.82	6445
916.932	6399
917.044	6376
917.156	6365
917.268	6350
917.38	6331
917.491	6323
917.603	6353
917.715	6361
917.826	6429
917.938	6270
918.049	6262
918.161	6357
918.272	6384
918.384	6456
918.495	6403
918.606	6277
918.717	6220
918.828	6258
918.939	6319
919.05	6114
919.161	6251
919.272	6152
919.383	6182
919.494	6323
919.604	6410
919.715	6361
919.826	6243
919.936	6281
920.047	6319
920.157	6251
920.267	6467
920.378	6350
920.488	6327
920.598	6448
920.708	6525
920.818	6521
920.928	6456
921.038	6566
921.148	6582
921.258	6334
921.368	6376
921.477	6140
921.587	6216
921.697	6110
921.806	6159
921.916	6095
922.025	5927
922.134	5954
922.244	5870
922.353	5961
922.462	5870
922.571	5756
922.68	5695
922.789	5615
922.898	5752
923.007	5608
923.116	5672
923.224	5630
923.333	5691
923.442	5600
923.55	5596
923.659	5577
923.767	5600
923.876	5516
923.984	5611
924.092	5547
924.201	5558
924.309	5535
924.417	5627
924.525	5467
924.633	5467
924.741	6270
924.849	5379
924.956	5516
925.064	5322
925.172	5292
925.279	5337
925.387	5387
925.494	5330
925.602	5433
925.709	5353
925.816	5315
925.924	5318
926.031	5372
926.138	5318
926.245	5353
926.352	5197
926.459	5299
926.566	5303
926.673	5181
926.779	5185
926.886	5143
926.993	5003
927.099	4980
927.206	4984
927.312	4972
927.419	4999
927.525	4987
927.631	4972
927.737	4942
927.843	4881
927.95	4763
928.056	4820
928.162	4858
928.267	4873
928.373	5322
928.479	4881
928.585	4660
928.69	4778
928.796	4782
928.901	4694
929.007	4615
929.112	4653
929.218	4656
929.323	4607
929.428	4573
929.533	4664
929.638	4523
929.743	4592
929.848	4527
929.953	4493
930.058	4409
930.163	4344
930.267	4306
930.372	4462
930.477	4276
930.581	4470
930.685	4390
930.79	4242
930.894	4265
930.998	4276
931.103	4352
931.207	4128
931.311	4086
931.415	4078
931.519	3934
931.623	3907
