Data from glass_V78500241_1399.txt Node
Date: Wed Sep 01 19:24:11 CST 2021
User: usil
Spectrometer: V785-0024
Trigger mode: 0
Integration Time (sec): 4.000000E-1
Scans to average: 1
Nonlinearity correction enabled: false
Boxcar width: 0
Storing dark spectrum: false
XAxis mode: Wavelengths
Number of Pixels in Spectrum: 1024
>>>>>Begin Spectral Data<<<<<
801.071	3762
801.214	3747
801.356	3705
801.499	3743
801.641	3732
801.783	3804
801.926	3838
802.068	3838
802.211	3876
802.353	3918
802.496	3857
802.638	3884
802.78	3854
802.923	3964
803.065	3903
803.208	3842
803.35	3903
803.492	3880
803.635	3911
803.777	3831
803.919	3907
804.061	4131
804.204	3949
804.346	3918
804.488	3941
804.63	4029
804.773	3953
804.915	4063
805.057	4139
805.199	4055
805.341	4093
805.483	4086
805.626	4147
805.768	4131
805.91	4196
806.052	4284
806.194	4207
806.336	4344
806.478	4257
806.62	4169
806.762	4181
806.904	4242
807.046	4375
807.188	4204
807.33	4204
807.472	4227
807.614	4196
807.756	4246
807.898	4230
808.04	4249
808.182	4344
808.324	4314
808.465	4447
808.607	4481
808.749	4470
808.891	4432
809.033	4478
809.174	4375
809.316	4306
809.458	4261
809.6	4147
809.741	4139
809.883	4128
810.025	4204
810.166	4215
810.308	4246
810.45	4287
810.591	4238
810.733	4291
810.875	4493
811.016	4858
811.158	5136
811.299	5254
811.441	5311
811.582	5109
811.724	4782
811.865	4466
812.007	4481
812.148	4466
812.29	4432
812.431	4470
812.573	4421
812.714	4348
812.855	4386
812.997	4428
813.138	4504
813.279	4398
813.421	4398
813.562	4371
813.703	4295
813.845	4356
813.986	4280
814.127	4246
814.268	4310
814.41	4322
814.551	4242
814.692	4303
814.833	4268
814.974	4325
815.115	4318
815.256	4230
815.397	4253
815.539	4257
815.68	4207
815.821	4196
815.962	4287
816.103	4306
816.244	4234
816.385	4234
816.526	4268
816.666	4211
816.807	4109
816.948	4204
817.089	4135
817.23	4116
817.371	4105
817.512	4063
817.653	4063
817.793	4071
817.934	4021
818.075	4116
818.216	4074
818.356	4078
818.497	3994
818.638	3911
818.778	3930
818.919	3865
819.06	3873
819.2	3903
819.341	3880
819.481	3892
819.622	3915
819.762	4002
819.903	3979
820.043	3873
820.184	3854
820.324	3778
820.465	3857
820.605	3861
820.746	3884
820.886	3770
821.026	3930
821.167	3918
821.307	3956
821.447	4006
821.588	3956
821.728	3915
821.868	3930
822.008	3876
822.149	3918
822.289	3892
822.429	3781
822.569	3789
822.709	3812
822.849	3720
822.99	3713
823.13	3778
823.27	3747
823.41	3686
823.55	3751
823.69	3740
823.83	3736
823.97	3698
824.11	3633
824.25	3610
824.389	3606
824.529	3686
824.669	3656
824.809	3728
824.949	3766
825.089	3736
825.228	3686
825.368	3633
825.508	3561
825.648	3587
825.787	3587
825.927	3633
826.067	3633
826.206	3675
826.346	3812
826.485	3854
826.625	3880
826.765	3930
826.904	3892
827.044	3633
827.183	3515
827.323	3466
827.462	3485
827.601	3431
827.741	3409
827.88	3477
828.02	3412
828.159	3412
828.298	3488
828.437	3511
828.577	3477
828.716	3603
828.855	3477
828.994	3401
829.134	3355
829.273	3450
829.412	3363
829.551	3344
829.69	3389
829.829	3424
829.968	3530
830.107	3466
830.246	3435
830.385	3336
830.524	3378
830.663	3294
830.802	3256
830.941	3169
831.08	3222
831.219	3275
831.357	3264
831.496	3389
831.635	3241
831.774	3188
831.913	3188
832.051	3176
832.19	3176
832.329	3199
832.467	3123
832.606	3127
832.744	3203
832.883	3173
833.022	3154
833.16	3249
833.299	3306
833.437	3340
833.576	3359
833.714	3409
833.852	3435
833.991	3431
834.129	3466
834.267	3469
834.406	3382
834.544	3458
834.682	3420
834.821	3428
834.959	3564
835.097	3420
835.235	3481
835.373	3504
835.511	3485
835.65	3450
835.788	3466
835.926	3393
836.064	3340
836.202	3374
836.34	3576
836.478	3625
836.615	3549
836.753	3625
836.891	3694
837.029	3606
837.167	3595
837.305	3545
837.443	3526
837.58	3534
837.718	3618
837.856	3576
837.993	3530
838.131	3572
838.269	3595
838.406	3568
838.544	3561
838.681	3500
838.819	3500
838.956	3374
839.094	3428
839.231	3454
839.369	3504
839.506	3740
839.643	3637
839.781	3523
839.918	3488
840.055	3500
840.193	3549
840.33	3564
840.467	3553
840.604	3595
840.742	3804
840.879	3534
841.016	3568
841.153	3629
841.29	3755
841.427	3717
841.564	3705
841.701	3755
841.838	3709
841.975	3686
842.112	3755
842.249	3709
842.385	3595
842.522	3861
842.659	3690
842.796	3709
842.933	3720
843.069	3682
843.206	3740
843.343	3812
843.479	3800
843.616	3800
843.752	3698
843.889	3679
844.025	3892
844.162	3740
844.298	3838
844.435	3808
844.571	3797
844.708	3899
844.844	4006
844.98	4025
845.117	4032
845.253	3911
845.389	3945
845.525	4032
845.661	3968
845.798	3949
845.934	4002
846.07	3968
846.206	4021
846.342	4112
846.478	4090
846.614	4036
846.75	3918
846.886	3949
847.022	4071
847.158	3975
847.294	3964
847.429	4006
847.565	3964
847.701	4211
847.837	3930
847.972	3854
848.108	3983
848.244	3968
848.379	3884
848.515	3831
848.65	3831
848.786	3873
848.921	3861
849.057	3941
849.192	3956
849.328	3949
849.463	3964
849.598	3838
849.734	3907
849.869	3808
850.004	3781
850.14	3812
850.275	3816
850.41	3713
850.545	3755
850.68	3808
850.815	3797
850.95	3804
851.085	3934
851.22	3873
851.355	3823
851.49	3804
851.625	3804
851.76	3797
851.895	3732
852.03	3736
852.165	3804
852.299	3854
852.434	3941
852.569	3865
852.703	3892
852.838	3899
852.973	3983
853.107	3953
853.242	3911
853.376	3842
853.511	3812
853.645	3865
853.78	3949
853.914	3907
854.048	3899
854.183	3907
854.317	3953
854.451	4086
854.585	3934
854.72	3994
854.854	4002
854.988	3972
855.122	4013
855.256	3975
855.39	4002
855.524	4067
855.658	4059
855.792	4063
855.926	4135
856.06	4162
856.194	4242
856.327	4116
856.461	4116
856.595	4147
856.729	4158
856.862	4265
856.996	4238
857.13	4299
857.263	4344
857.397	4333
857.53	4207
857.664	4371
857.797	4360
857.931	4424
858.064	4409
858.197	4455
858.331	4363
858.464	4367
858.597	4363
858.731	4447
858.864	4466
858.997	4478
859.13	4531
859.263	4596
859.396	4573
859.529	4512
859.662	4485
859.795	4497
859.928	4565
860.061	4675
860.194	4717
860.327	4641
860.46	4645
860.592	4759
860.725	4748
860.858	4744
860.99	4660
861.123	4672
861.256	4698
861.388	4725
861.521	5315
861.653	4744
861.786	4733
861.918	4778
862.05	4801
862.183	4850
862.315	4866
862.447	4934
862.58	4908
862.712	4843
862.844	4782
862.976	4839
863.108	4877
863.24	5140
863.372	4843
863.504	4885
863.636	4892
863.768	4957
863.9	4976
864.032	4961
864.164	4953
864.296	5060
864.428	5090
864.559	5124
864.691	5132
864.823	5140
864.954	5094
865.086	5170
865.217	5117
865.349	5109
865.48	5185
865.612	5143
865.743	5318
865.875	5246
866.006	5204
866.137	5254
866.269	5220
866.4	5208
866.531	5231
866.662	5254
866.793	5235
866.924	5258
867.055	5372
867.186	5337
867.317	5349
867.448	5311
867.579	5337
867.71	5372
867.841	5421
867.972	5410
868.103	5433
868.233	5509
868.364	5532
868.495	5471
868.625	5649
868.756	5779
868.886	5657
869.017	5771
869.147	5809
869.278	5874
869.408	5805
869.539	5847
869.669	5874
869.799	5927
869.929	6026
870.06	5984
870.19	6194
870.32	6216
870.45	6273
870.58	6323
870.71	6403
870.84	6479
870.97	6399
871.1	6433
871.23	6654
871.36	6703
871.489	6631
871.619	6776
871.749	6840
871.879	6825
872.008	6973
872.138	6981
872.267	6996
872.397	7008
872.526	7038
872.656	7107
872.785	7209
872.915	7373
873.044	7548
873.173	7495
873.303	7674
873.432	7792
873.561	7860
873.69	7913
873.819	8039
873.948	8187
874.077	8298
874.206	8309
874.335	8492
874.464	8697
874.593	8842
874.722	8941
874.851	9135
874.979	9207
875.108	9291
875.237	9443
875.365	9469
875.494	9595
875.623	9907
875.751	9743
875.88	10040
876.008	10169
876.136	10325
876.265	10466
876.393	10721
876.521	10687
876.65	10809
876.778	10812
876.906	10911
877.034	10934
877.162	11117
877.29	11155
877.418	11303
877.546	11326
877.674	11356
877.802	11455
877.93	11509
878.058	11516
878.185	11528
878.313	11657
878.441	11760
878.568	11642
878.696	11843
878.824	11885
878.951	11946
879.079	12022
879.206	12121
879.333	11988
879.461	12003
879.588	12053
879.715	12057
879.842	12304
879.97	12083
880.097	11874
880.224	11840
880.351	11870
880.478	11828
880.605	11866
880.732	11901
880.859	11999
880.986	11817
881.112	11863
881.239	11707
881.366	11615
881.493	11619
881.619	11501
881.746	11589
881.872	11520
881.999	11554
882.125	11524
882.252	11501
882.378	11474
882.505	11543
882.631	11372
882.757	11341
882.883	11398
883.01	11246
883.136	11227
883.262	11086
883.388	11105
883.514	11170
883.64	11242
883.766	11128
883.892	10953
884.018	10965
884.143	11045
884.269	11121
884.395	10889
884.52	10778
884.646	10729
884.772	10725
884.897	10653
885.023	10710
885.148	10675
885.274	10740
885.399	10706
885.524	10630
885.65	10588
885.775	10592
885.9	10577
886.025	10546
886.15	10592
886.275	10394
886.4	10436
886.525	10455
886.65	10360
886.775	10337
886.9	10504
887.025	10584
887.149	10344
887.274	10188
887.399	10200
887.523	10162
887.648	10181
887.773	10059
887.897	10246
888.021	10211
888.146	10124
888.27	10215
888.395	10196
888.519	10188
888.643	10143
888.767	10120
888.891	10105
889.015	10063
889.139	10109
889.263	9987
889.387	10074
889.511	10162
889.635	10013
889.759	9915
889.883	9956
890.006	10006
890.13	10109
890.254	9991
890.377	10002
890.501	9884
890.624	9930
890.748	9926
890.871	9808
890.995	9736
891.118	9785
891.241	9682
891.364	9705
891.488	9854
891.611	9789
891.734	9778
891.857	9800
891.98	9682
892.103	9751
892.226	9785
892.349	9633
892.471	9545
892.594	9568
892.717	9568
892.839	9591
892.962	9599
893.085	9641
893.207	9625
893.33	9530
893.452	9545
893.575	9618
893.697	9450
893.819	9610
893.941	9629
894.064	9561
894.186	9424
894.308	9443
894.43	9511
894.552	9523
894.674	9557
894.796	9359
894.918	9416
895.04	9310
895.161	9374
895.283	9283
895.405	9256
895.526	9218
895.648	9340
895.769	9245
895.891	9306
896.012	9367
896.134	9237
896.255	9180
896.376	9142
896.498	9116
896.619	9100
896.74	9093
896.861	9138
896.982	9218
897.103	9351
897.224	9211
897.345	9028
897.466	9058
897.587	9085
897.708	9047
897.828	9024
897.949	8902
898.07	8861
898.19	8921
898.311	8982
898.431	8891
898.552	8891
898.672	8956
898.792	8937
898.913	8929
899.033	8800
899.153	8743
899.273	8701
899.393	8746
899.513	8746
899.633	8743
899.753	8731
899.873	8670
899.993	8731
900.113	8663
900.232	8758
900.352	8636
900.472	8629
900.591	8610
900.711	8541
900.83	8522
900.95	8739
901.069	8720
901.189	8564
901.308	8412
901.427	8385
901.546	8488
901.665	8438
901.784	8476
901.904	8434
902.023	8339
902.141	8290
902.26	8202
902.379	8263
902.498	8240
902.617	8191
902.735	8221
902.854	8301
902.973	8244
903.091	8077
903.21	8126
903.328	8161
903.446	8164
903.565	8069
903.683	8119
903.801	8103
903.919	8088
904.038	8126
904.156	8027
904.274	8134
904.392	8084
904.51	8096
904.627	8024
904.745	8126
904.863	8054
904.981	7951
905.098	7841
905.216	7845
905.334	7921
905.451	7909
905.569	7921
905.686	7974
905.803	7917
905.921	7799
906.038	7860
906.155	7879
906.272	7765
906.389	7738
906.506	7632
906.623	7601
906.74	7609
906.857	7476
906.974	7590
907.091	7670
907.208	7719
907.324	7624
907.441	7639
907.557	7449
907.674	7426
907.79	7392
907.907	7415
908.023	7453
908.139	7438
908.256	7354
908.372	7331
908.488	7331
908.604	7247
908.72	7171
908.836	7266
908.952	7244
909.068	7190
909.184	7312
909.3	7232
909.415	7327
909.531	7285
909.647	7103
909.762	7164
909.878	7122
909.993	7156
910.108	7076
910.224	7099
910.339	7080
910.454	6989
910.57	7034
910.685	6935
910.8	7171
910.915	7122
911.03	6985
911.145	6882
911.259	6951
911.374	6916
911.489	6867
911.604	6787
911.718	6726
911.833	6730
911.947	6669
912.062	6597
912.176	6665
912.291	6684
912.405	6711
912.519	6821
912.633	6875
912.748	6753
912.862	6669
912.976	6635
913.09	6528
913.204	6566
913.318	6616
913.431	6669
913.545	6642
913.659	6726
913.772	6601
913.886	6563
914	6521
914.113	6642
914.226	6635
914.34	6601
914.453	6555
914.566	6578
914.68	6498
914.793	6521
914.906	6426
915.019	6353
915.132	6372
915.245	6475
915.358	6471
915.47	6426
915.583	6471
915.696	6479
915.809	6536
915.921	6566
916.034	6414
916.146	6426
916.259	6338
916.371	6525
916.483	6448
916.595	6388
916.708	6456
916.82	6350
916.932	6456
917.044	6445
917.156	6407
917.268	6433
917.38	6334
917.491	6304
917.603	6315
917.715	6418
917.826	6384
917.938	6296
918.049	6251
918.161	6380
918.272	6521
918.384	6388
918.495	6323
918.606	6243
918.717	6251
918.828	6266
918.939	6266
919.05	6235
919.161	6262
919.272	6140
919.383	6144
919.494	6292
919.604	6426
919.715	6300
919.826	6155
919.936	6216
920.047	6300
920.157	6213
920.267	6441
920.378	6308
920.488	6319
920.598	6483
920.708	6498
920.818	6475
920.928	6490
921.038	6612
921.148	6601
921.258	6361
921.368	6300
921.477	6220
921.587	6171
921.697	6106
921.806	6136
921.916	6098
922.025	5904
922.134	5950
922.244	5863
922.353	6026
922.462	5855
922.571	5805
922.68	5668
922.789	5726
922.898	5672
923.007	5657
923.116	5726
923.224	5684
923.333	5680
923.442	5630
923.55	5589
923.659	5592
923.767	5657
923.876	5562
923.984	5596
924.092	5482
924.201	5520
924.309	5604
924.417	5558
924.525	5417
924.633	5520
924.741	6281
924.849	5349
924.956	5471
925.064	5433
925.172	5277
925.279	5364
925.387	5368
925.494	5376
925.602	5417
925.709	5387
925.816	5269
925.924	5307
926.031	5364
926.138	5337
926.245	5345
926.352	5239
926.459	5280
926.566	5330
926.673	5151
926.779	5128
926.886	5113
926.993	5060
927.099	4968
927.206	4995
927.312	4949
927.419	5025
927.525	4972
927.631	4995
927.737	4866
927.843	4930
927.95	4759
928.056	4824
928.162	4835
928.267	4847
928.373	5288
928.479	4862
928.585	4675
928.69	4790
928.796	4828
928.901	4721
929.007	4584
929.112	4668
929.218	4668
929.323	4615
929.428	4569
929.533	4668
929.638	4493
929.743	4569
929.848	4565
929.953	4508
930.058	4409
930.163	4383
930.267	4341
930.372	4451
930.477	4310
930.581	4470
930.685	4417
930.79	4234
930.894	4261
930.998	4276
931.103	4390
931.207	4135
931.311	4105
931.415	4025
931.519	3934
931.623	3983
