Data from glass_V78500241_642.txt Node
Date: Wed Sep 01 19:18:57 CST 2021
User: usil
Spectrometer: V785-0024
Trigger mode: 0
Integration Time (sec): 4.000000E-1
Scans to average: 1
Nonlinearity correction enabled: false
Boxcar width: 0
Storing dark spectrum: false
XAxis mode: Wavelengths
Number of Pixels in Spectrum: 1024
>>>>>Begin Spectral Data<<<<<
801.071	3759
801.214	3755
801.356	3690
801.499	3759
801.641	3793
801.783	3770
801.926	3865
802.068	3884
802.211	3861
802.353	3918
802.496	3850
802.638	3861
802.78	3911
802.923	3968
803.065	3899
803.208	3831
803.35	3888
803.492	3884
803.635	3915
803.777	3823
803.919	3903
804.061	4154
804.204	3987
804.346	3972
804.488	3899
804.63	4032
804.773	4002
804.915	4067
805.057	4139
805.199	4044
805.341	4093
805.483	4211
805.626	4135
805.768	4143
805.91	4257
806.052	4257
806.194	4211
806.336	4363
806.478	4223
806.62	4204
806.762	4185
806.904	4249
807.046	4348
807.188	4219
807.33	4147
807.472	4284
807.614	4177
807.756	4276
807.898	4238
808.04	4238
808.182	4265
808.324	4348
808.465	4341
808.607	4519
808.749	4504
808.891	4462
809.033	4527
809.174	4466
809.316	4265
809.458	4219
809.6	4150
809.741	4139
809.883	4173
810.025	4230
810.166	4238
810.308	4242
810.45	4238
810.591	4280
810.733	4325
810.875	4481
811.016	4870
811.158	5136
811.299	5296
811.441	5307
811.582	5086
811.724	4714
811.865	4493
812.007	4489
812.148	4485
812.29	4447
812.431	4447
812.573	4413
812.714	4371
812.855	4424
812.997	4462
813.138	4497
813.279	4375
813.421	4413
813.562	4394
813.703	4352
813.845	4303
813.986	4272
814.127	4227
814.268	4337
814.41	4306
814.551	4303
814.692	4367
814.833	4284
814.974	4360
815.115	4367
815.256	4314
815.397	4284
815.539	4261
815.68	4257
815.821	4230
815.962	4314
816.103	4318
816.244	4268
816.385	4227
816.526	4310
816.666	4192
816.807	4112
816.948	4150
817.089	4234
817.23	4131
817.371	4067
817.512	4059
817.653	4135
817.793	4078
817.934	4040
818.075	4109
818.216	4101
818.356	4082
818.497	4025
818.638	3911
818.778	3915
818.919	3911
819.06	3892
819.2	3922
819.341	3865
819.481	3865
819.622	3926
819.762	4021
819.903	4002
820.043	3873
820.184	3835
820.324	3819
820.465	3857
820.605	3869
820.746	3876
820.886	3880
821.026	3930
821.167	3903
821.307	3968
821.447	3956
821.588	3972
821.728	3975
821.868	3937
822.008	3930
822.149	3968
822.289	3937
822.429	3838
822.569	3793
822.709	3835
822.849	3759
822.99	3686
823.13	3762
823.27	3778
823.41	3778
823.55	3755
823.69	3720
823.83	3774
823.97	3717
824.11	3637
824.25	3618
824.389	3656
824.529	3686
824.669	3637
824.809	3728
824.949	3781
825.089	3762
825.228	3717
825.368	3610
825.508	3564
825.648	3568
825.787	3652
825.927	3667
826.067	3671
826.206	3690
826.346	3812
826.485	3835
826.625	3842
826.765	3956
826.904	3884
827.044	3599
827.183	3504
827.323	3431
827.462	3500
827.601	3447
827.741	3447
827.88	3469
828.02	3397
828.159	3458
828.298	3488
828.437	3504
828.577	3504
828.716	3591
828.855	3488
828.994	3412
829.134	3401
829.273	3389
829.412	3344
829.551	3344
829.69	3348
829.829	3401
829.968	3504
830.107	3492
830.246	3447
830.385	3378
830.524	3359
830.663	3283
830.802	3264
830.941	3222
831.08	3226
831.219	3253
831.357	3245
831.496	3420
831.635	3241
831.774	3207
831.913	3214
832.051	3123
832.19	3154
832.329	3214
832.467	3135
832.606	3165
832.744	3157
832.883	3165
833.022	3245
833.16	3245
833.299	3306
833.437	3355
833.576	3412
833.714	3416
833.852	3439
833.991	3469
834.129	3473
834.267	3462
834.406	3458
834.544	3450
834.682	3450
834.821	3447
834.959	3576
835.097	3458
835.235	3549
835.373	3469
835.511	3523
835.65	3496
835.788	3477
835.926	3363
836.064	3374
836.202	3386
836.34	3606
836.478	3625
836.615	3587
836.753	3591
836.891	3705
837.029	3629
837.167	3610
837.305	3580
837.443	3545
837.58	3545
837.718	3606
837.856	3545
837.993	3580
838.131	3603
838.269	3561
838.406	3618
838.544	3526
838.681	3504
838.819	3469
838.956	3370
839.094	3363
839.231	3469
839.369	3576
839.506	3690
839.643	3656
839.781	3511
839.918	3450
840.055	3584
840.193	3523
840.33	3568
840.467	3564
840.604	3637
840.742	3827
840.879	3564
841.016	3587
841.153	3564
841.29	3785
841.427	3705
841.564	3690
841.701	3751
841.838	3724
841.975	3682
842.112	3720
842.249	3694
842.385	3610
842.522	3823
842.659	3690
842.796	3709
842.933	3732
843.069	3728
843.206	3755
843.343	3865
843.479	3823
843.616	3861
843.752	3713
843.889	3698
844.025	3915
844.162	3717
844.298	3873
844.435	3800
844.571	3816
844.708	3888
844.844	3983
844.98	4082
845.117	4048
845.253	3880
845.389	3888
845.525	3972
845.661	3983
845.798	3972
845.934	4036
846.07	3987
846.206	4097
846.342	4139
846.478	4093
846.614	3960
846.75	3941
846.886	3934
847.022	4048
847.158	3994
847.294	4021
847.429	4021
847.565	4002
847.701	4287
847.837	3896
847.972	3838
848.108	3956
848.244	3975
848.379	3869
848.515	3808
848.65	3842
848.786	3850
848.921	3861
849.057	3899
849.192	3956
849.328	3968
849.463	3945
849.598	3907
849.734	3876
849.869	3808
850.004	3766
850.14	3781
850.275	3781
850.41	3751
850.545	3781
850.68	3713
850.815	3819
850.95	3793
851.085	3972
851.22	3915
851.355	3846
851.49	3816
851.625	3804
851.76	3770
851.895	3717
852.03	3766
852.165	3770
852.299	3861
852.434	3888
852.569	3861
852.703	3896
852.838	3983
852.973	3975
853.107	4013
853.242	3941
853.376	3873
853.511	3789
853.645	3835
853.78	3972
853.914	3930
854.048	3915
854.183	3892
854.317	3975
854.451	4032
854.585	3964
854.72	3949
854.854	4025
854.988	3979
855.122	3968
855.256	3918
855.39	4051
855.524	4150
855.658	4162
855.792	4112
855.926	4124
856.06	4139
856.194	4246
856.327	4139
856.461	4147
856.595	4128
856.729	4219
856.862	4303
856.996	4223
857.13	4310
857.263	4318
857.397	4356
857.53	4322
857.664	4344
857.797	4405
857.931	4383
858.064	4451
858.197	4432
858.331	4455
858.464	4405
858.597	4291
858.731	4424
858.864	4489
858.997	4462
859.13	4493
859.263	4531
859.396	4584
859.529	4512
859.662	4542
859.795	4550
859.928	4626
860.061	4683
860.194	4763
860.327	4668
860.46	4668
860.592	4782
860.725	4744
860.858	4774
860.99	4687
861.123	4687
861.256	4694
861.388	4752
861.521	5318
861.653	4752
861.786	4702
861.918	4710
862.05	4797
862.183	4870
862.315	4854
862.447	4938
862.58	4862
862.712	4801
862.844	4820
862.976	4934
863.108	4911
863.24	5220
863.372	4816
863.504	4961
863.636	4930
863.768	4984
863.9	5006
864.032	4919
864.164	4995
864.296	4957
864.428	5143
864.559	5098
864.691	5121
864.823	5132
864.954	5128
865.086	5166
865.217	5117
865.349	5105
865.48	5178
865.612	5220
865.743	5318
865.875	5185
866.006	5174
866.137	5261
866.269	5250
866.4	5242
866.531	5254
866.662	5239
866.793	5280
866.924	5292
867.055	5368
867.186	5337
867.317	5330
867.448	5341
867.579	5368
867.71	5360
867.841	5452
867.972	5455
868.103	5482
868.233	5493
868.364	5501
868.495	5539
868.625	5691
868.756	5802
868.886	5748
869.017	5729
869.147	5885
869.278	5866
869.408	5840
869.539	5813
869.669	5961
869.799	5942
869.929	6011
870.06	6015
870.19	6235
870.32	6197
870.45	6304
870.58	6319
870.71	6467
870.84	6467
870.97	6388
871.1	6490
871.23	6673
871.36	6642
871.489	6681
871.619	6821
871.749	6802
871.879	6871
872.008	7110
872.138	6966
872.267	7023
872.397	7091
872.526	6989
872.656	7110
872.785	7217
872.915	7381
873.044	7521
873.173	7537
873.303	7651
873.432	7776
873.561	7902
873.69	7921
873.819	7978
873.948	8210
874.077	8279
874.206	8419
874.335	8461
874.464	8617
874.593	8910
874.722	8960
874.851	9161
874.979	9253
875.108	9332
875.237	9412
875.365	9408
875.494	9667
875.623	9865
875.751	9865
875.88	10013
876.008	10090
876.136	10314
876.265	10569
876.393	10691
876.521	10812
876.65	10885
876.778	10942
876.906	10949
877.034	10961
877.162	11124
877.29	11174
877.418	11364
877.546	11414
877.674	11532
877.802	11516
877.93	11592
878.058	11528
878.185	11535
878.313	11684
878.441	11771
878.568	11577
878.696	11847
878.824	11821
878.951	11923
879.079	12030
879.206	12083
879.333	12007
879.461	12007
879.588	12106
879.715	12144
879.842	12247
879.97	12068
880.097	11904
880.224	11878
880.351	11866
880.478	11920
880.605	11923
880.732	11840
880.859	12125
880.986	11843
881.112	11866
881.239	11726
881.366	11623
881.493	11611
881.619	11589
881.746	11608
881.872	11608
881.999	11520
882.125	11448
882.252	11615
882.378	11516
882.505	11573
882.631	11368
882.757	11269
882.883	11360
883.01	11284
883.136	11136
883.262	11079
883.388	11105
883.514	11273
883.64	11143
883.766	11170
883.892	11003
884.018	10984
884.143	11079
884.269	11121
884.395	10828
884.52	10755
884.646	10725
884.772	10691
884.897	10778
885.023	10584
885.148	10702
885.274	10774
885.399	10710
885.524	10687
885.65	10622
885.775	10599
885.9	10599
886.025	10584
886.15	10588
886.275	10367
886.4	10398
886.525	10455
886.65	10394
886.775	10390
886.9	10508
887.025	10504
887.149	10402
887.274	10192
887.399	10177
887.523	10131
887.648	10158
887.773	10192
887.897	10265
888.021	10192
888.146	10120
888.27	10230
888.395	10249
888.519	10215
888.643	10223
888.767	10169
888.891	10074
889.015	9994
889.139	9998
889.263	10059
889.387	9979
889.511	10120
889.635	10048
889.759	9865
889.883	10021
890.006	10025
890.13	10150
890.254	9949
890.377	10063
890.501	9846
890.624	9915
890.748	9899
890.871	9850
890.995	9724
891.118	9724
891.241	9762
891.364	9823
891.488	9827
891.611	9720
891.734	9698
891.857	9755
891.98	9728
892.103	9762
892.226	9774
892.349	9652
892.471	9515
892.594	9572
892.717	9564
892.839	9652
892.962	9652
893.085	9675
893.207	9591
893.33	9549
893.452	9504
893.575	9564
893.697	9526
893.819	9698
893.941	9713
894.064	9660
894.186	9492
894.308	9462
894.43	9564
894.552	9564
894.674	9572
894.796	9458
894.918	9348
895.04	9389
895.161	9458
895.283	9370
895.405	9253
895.526	9332
895.648	9245
895.769	9222
895.891	9249
896.012	9336
896.134	9272
896.255	9131
896.376	9150
896.498	9119
896.619	9161
896.74	9138
896.861	9119
896.982	9302
897.103	9351
897.224	9150
897.345	9097
897.466	9020
897.587	9024
897.708	9108
897.828	9017
897.949	8967
898.07	8868
898.19	8937
898.311	9062
898.431	8891
898.552	8906
898.672	9017
898.792	9001
898.913	8868
899.033	8830
899.153	8781
899.273	8701
899.393	8792
899.513	8773
899.633	8773
899.753	8705
899.873	8716
899.993	8819
900.113	8743
900.232	8686
900.352	8743
900.472	8602
900.591	8583
900.711	8617
900.83	8644
900.95	8663
901.069	8724
901.189	8526
901.308	8438
901.427	8434
901.546	8404
901.665	8434
901.784	8446
901.904	8434
902.023	8301
902.141	8180
902.26	8191
902.379	8259
902.498	8301
902.617	8244
902.735	8332
902.854	8313
902.973	8279
903.091	8145
903.21	8111
903.328	8142
903.446	8107
903.565	8115
903.683	8092
903.801	8111
903.919	8115
904.038	8183
904.156	8031
904.274	8138
904.392	8027
904.51	8081
904.627	8035
904.745	8130
904.863	8046
904.981	7936
905.098	7921
905.216	7852
905.334	7917
905.451	7890
905.569	7871
905.686	7906
905.803	7898
905.921	7696
906.038	7849
906.155	7772
906.272	7761
906.389	7750
906.506	7666
906.623	7586
906.74	7639
906.857	7571
906.974	7636
907.091	7693
907.208	7639
907.324	7647
907.441	7651
907.557	7407
907.674	7453
907.79	7346
907.907	7438
908.023	7468
908.139	7472
908.256	7457
908.372	7350
908.488	7331
908.604	7247
908.72	7247
908.836	7305
908.952	7369
909.068	7225
909.184	7343
909.3	7168
909.415	7266
909.531	7297
909.647	7122
909.762	7069
909.878	7122
909.993	7213
910.108	7114
910.224	7046
910.339	7171
910.454	7080
910.57	7046
910.685	6947
910.8	7194
910.915	7080
911.03	7012
911.145	6901
911.259	6875
911.374	6935
911.489	6878
911.604	6798
911.718	6738
911.833	6749
911.947	6646
912.062	6696
912.176	6726
912.291	6707
912.405	6719
912.519	6829
912.633	6867
912.748	6730
912.862	6730
912.976	6597
913.09	6559
913.204	6578
913.318	6688
913.431	6703
913.545	6681
913.659	6749
913.772	6673
913.886	6570
914	6585
914.113	6589
914.226	6662
914.34	6612
914.453	6559
914.566	6654
914.68	6521
914.793	6544
914.906	6467
915.019	6376
915.132	6391
915.245	6399
915.358	6517
915.47	6464
915.583	6464
915.696	6429
915.809	6566
915.921	6521
916.034	6464
916.146	6403
916.259	6353
916.371	6494
916.483	6506
916.595	6365
916.708	6395
916.82	6460
916.932	6391
917.044	6441
917.156	6361
917.268	6319
917.38	6365
917.491	6292
917.603	6399
917.715	6464
917.826	6418
917.938	6369
918.049	6323
918.161	6338
918.272	6403
918.384	6414
918.495	6342
918.606	6266
918.717	6190
918.828	6281
918.939	6277
919.05	6194
919.161	6289
919.272	6175
919.383	6159
919.494	6292
919.604	6437
919.715	6331
919.826	6285
919.936	6239
920.047	6418
920.157	6331
920.267	6445
920.378	6353
920.488	6353
920.598	6498
920.708	6498
920.818	6399
920.928	6483
921.038	6646
921.148	6612
921.258	6315
921.368	6292
921.477	6247
921.587	6190
921.697	6095
921.806	6228
921.916	6083
922.025	5942
922.134	5946
922.244	5904
922.353	6003
922.462	5885
922.571	5779
922.68	5699
922.789	5703
922.898	5688
923.007	5630
923.116	5691
923.224	5676
923.333	5745
923.442	5634
923.55	5547
923.659	5581
923.767	5619
923.876	5596
923.984	5589
924.092	5524
924.201	5543
924.309	5562
924.417	5501
924.525	5509
924.633	5482
924.741	6262
924.849	5349
924.956	5383
925.064	5277
925.172	5334
925.279	5353
925.387	5410
925.494	5326
925.602	5474
925.709	5414
925.816	5254
925.924	5288
926.031	5311
926.138	5326
926.245	5322
926.352	5235
926.459	5402
926.566	5303
926.673	5250
926.779	5185
926.886	5140
926.993	5060
927.099	5010
927.206	5010
927.312	4991
927.419	5029
927.525	4972
927.631	5003
927.737	4873
927.843	4866
927.95	4778
928.056	4889
928.162	4881
928.267	4839
928.373	5349
928.479	4816
928.585	4649
928.69	4774
928.796	4782
928.901	4668
929.007	4607
929.112	4702
929.218	4672
929.323	4641
929.428	4565
929.533	4679
929.638	4561
929.743	4538
929.848	4588
929.953	4500
930.058	4485
930.163	4299
930.267	4352
930.372	4440
930.477	4348
930.581	4493
930.685	4379
930.79	4230
930.894	4303
930.998	4268
931.103	4417
931.207	4124
931.311	4124
931.415	4105
931.519	3937
931.623	3956
