Data from glass_V78500241_2858.txt Node
Date: Wed Sep 01 19:34:18 CST 2021
User: usil
Spectrometer: V785-0024
Trigger mode: 0
Integration Time (sec): 4.000000E-1
Scans to average: 1
Nonlinearity correction enabled: false
Boxcar width: 0
Storing dark spectrum: false
XAxis mode: Wavelengths
Number of Pixels in Spectrum: 1024
>>>>>Begin Spectral Data<<<<<
801.071	3709
801.214	3720
801.356	3698
801.499	3762
801.641	3698
801.783	3789
801.926	3808
802.068	3800
802.211	3816
802.353	3857
802.496	3854
802.638	3857
802.78	3873
802.923	3899
803.065	3892
803.208	3831
803.35	3861
803.492	3915
803.635	3884
803.777	3766
803.919	3865
804.061	4188
804.204	3926
804.346	3975
804.488	3937
804.63	4059
804.773	3968
804.915	3979
805.057	4093
805.199	4067
805.341	4063
805.483	4101
805.626	4086
805.768	4090
805.91	4207
806.052	4192
806.194	4204
806.336	4318
806.478	4192
806.62	4147
806.762	4139
806.904	4230
807.046	4280
807.188	4177
807.33	4139
807.472	4223
807.614	4166
807.756	4230
807.898	4150
808.04	4154
808.182	4238
808.324	4310
808.465	4337
808.607	4447
808.749	4447
808.891	4440
809.033	4489
809.174	4352
809.316	4268
809.458	4249
809.6	4173
809.741	4109
809.883	4147
810.025	4181
810.166	4211
810.308	4173
810.45	4204
810.591	4223
810.733	4284
810.875	4504
811.016	4835
811.158	5113
811.299	5326
811.441	5296
811.582	5006
811.724	4694
811.865	4474
812.007	4478
812.148	4428
812.29	4413
812.431	4421
812.573	4405
812.714	4394
812.855	4375
812.997	4402
813.138	4447
813.279	4394
813.421	4348
813.562	4375
813.703	4329
813.845	4291
813.986	4234
814.127	4211
814.268	4265
814.41	4242
814.551	4215
814.692	4257
814.833	4310
814.974	4329
815.115	4291
815.256	4234
815.397	4261
815.539	4196
815.68	4196
815.821	4200
815.962	4322
816.103	4257
816.244	4192
816.385	4173
816.526	4261
816.666	4207
816.807	4074
816.948	4154
817.089	4192
817.23	4040
817.371	4048
817.512	4059
817.653	4036
817.793	4063
817.934	4021
818.075	4093
818.216	4055
818.356	4071
818.497	3941
818.638	3865
818.778	3899
818.919	3899
819.06	3842
819.2	3930
819.341	3842
819.481	3823
819.622	3876
819.762	4017
819.903	3956
820.043	3865
820.184	3838
820.324	3800
820.465	3865
820.605	3861
820.746	3827
820.886	3736
821.026	3903
821.167	3884
821.307	3949
821.447	3915
821.588	3892
821.728	3960
821.868	3911
822.008	3808
822.149	3865
822.289	3896
822.429	3778
822.569	3762
822.709	3774
822.849	3705
822.99	3679
823.13	3774
823.27	3789
823.41	3675
823.55	3713
823.69	3675
823.83	3705
823.97	3675
824.11	3576
824.25	3564
824.389	3572
824.529	3644
824.669	3603
824.809	3755
824.949	3732
825.089	3709
825.228	3648
825.368	3568
825.508	3568
825.648	3568
825.787	3561
825.927	3584
826.067	3591
826.206	3663
826.346	3785
826.485	3865
826.625	3842
826.765	3884
826.904	3778
827.044	3591
827.183	3526
827.323	3420
827.462	3492
827.601	3374
827.741	3431
827.88	3431
828.02	3367
828.159	3405
828.298	3416
828.437	3500
828.577	3458
828.716	3603
828.855	3492
828.994	3359
829.134	3367
829.273	3359
829.412	3321
829.551	3336
829.69	3317
829.829	3370
829.968	3466
830.107	3405
830.246	3439
830.385	3351
830.524	3344
830.663	3279
830.802	3207
830.941	3192
831.08	3154
831.219	3245
831.357	3256
831.496	3389
831.635	3222
831.774	3207
831.913	3165
832.051	3146
832.19	3138
832.329	3176
832.467	3119
832.606	3097
832.744	3131
832.883	3135
833.022	3184
833.16	3211
833.299	3298
833.437	3344
833.576	3355
833.714	3389
833.852	3397
833.991	3450
834.129	3416
834.267	3409
834.406	3393
834.544	3405
834.682	3389
834.821	3405
834.959	3564
835.097	3397
835.235	3488
835.373	3469
835.511	3458
835.65	3435
835.788	3454
835.926	3401
836.064	3340
836.202	3382
836.34	3538
836.478	3595
836.615	3530
836.753	3603
836.891	3603
837.029	3587
837.167	3584
837.305	3504
837.443	3507
837.58	3462
837.718	3584
837.856	3545
837.993	3515
838.131	3587
838.269	3576
838.406	3572
838.544	3564
838.681	3412
838.819	3439
838.956	3374
839.094	3378
839.231	3412
839.369	3477
839.506	3694
839.643	3606
839.781	3435
839.918	3458
840.055	3488
840.193	3488
840.33	3542
840.467	3504
840.604	3572
840.742	3759
840.879	3526
841.016	3526
841.153	3603
841.29	3755
841.427	3694
841.564	3679
841.701	3743
841.838	3686
841.975	3663
842.112	3686
842.249	3637
842.385	3614
842.522	3781
842.659	3667
842.796	3682
842.933	3724
843.069	3724
843.206	3720
843.343	3751
843.479	3747
843.616	3827
843.752	3663
843.889	3663
844.025	3827
844.162	3648
844.298	3804
844.435	3747
844.571	3728
844.708	3899
844.844	3975
844.98	4017
845.117	3975
845.253	3907
845.389	3922
845.525	3934
845.661	3934
845.798	3922
845.934	3964
846.07	3934
846.206	4048
846.342	4105
846.478	4082
846.614	3953
846.75	3888
846.886	3903
847.022	4010
847.158	3975
847.294	3983
847.429	4010
847.565	3964
847.701	4196
847.837	3869
847.972	3827
848.108	3960
848.244	3850
848.379	3884
848.515	3781
848.65	3819
848.786	3838
848.921	3857
849.057	3934
849.192	3892
849.328	3842
849.463	3918
849.598	3865
849.734	3838
849.869	3808
850.004	3762
850.14	3846
850.275	3755
850.41	3709
850.545	3736
850.68	3766
850.815	3789
850.95	3793
851.085	3899
851.22	3857
851.355	3816
851.49	3751
851.625	3778
851.76	3793
851.895	3724
852.03	3732
852.165	3774
852.299	3793
852.434	3896
852.569	3880
852.703	3846
852.838	3884
852.973	3968
853.107	3987
853.242	3838
853.376	3816
853.511	3743
853.645	3800
853.78	3972
853.914	3953
854.048	3865
854.183	3869
854.317	3926
854.451	4101
854.585	3922
854.72	3918
854.854	4040
854.988	3915
855.122	4029
855.256	3880
855.39	3998
855.524	4135
855.658	4078
855.792	4067
855.926	4128
856.06	4124
856.194	4181
856.327	4101
856.461	4086
856.595	4131
856.729	4124
856.862	4287
856.996	4238
857.13	4268
857.263	4322
857.397	4318
857.53	4272
857.664	4310
857.797	4375
857.931	4402
858.064	4390
858.197	4367
858.331	4424
858.464	4402
858.597	4333
858.731	4409
858.864	4466
858.997	4436
859.13	4462
859.263	4485
859.396	4573
859.529	4481
859.662	4554
859.795	4504
859.928	4580
860.061	4618
860.194	4694
860.327	4668
860.46	4607
860.592	4710
860.725	4767
860.858	4729
860.99	4675
861.123	4660
861.256	4637
861.388	4752
861.521	5387
861.653	4702
861.786	4698
861.918	4698
862.05	4763
862.183	4870
862.315	4877
862.447	4927
862.58	4885
862.712	4824
862.844	4782
862.976	4812
863.108	4847
863.24	5181
863.372	4828
863.504	4854
863.636	4896
863.768	4961
863.9	4949
864.032	4881
864.164	4957
864.296	4968
864.428	5075
864.559	5079
864.691	5109
864.823	5174
864.954	5033
865.086	5079
865.217	5086
865.349	5102
865.48	5174
865.612	5197
865.743	5307
865.875	5105
866.006	5201
866.137	5201
866.269	5216
866.4	5216
866.531	5162
866.662	5166
866.793	5242
866.924	5288
867.055	5349
867.186	5307
867.317	5284
867.448	5326
867.579	5345
867.71	5349
867.841	5368
867.972	5455
868.103	5402
868.233	5421
868.364	5493
868.495	5585
868.625	5684
868.756	5809
868.886	5676
869.017	5745
869.147	5840
869.278	5840
869.408	5767
869.539	5840
869.669	5870
869.799	5912
869.929	5931
870.06	5958
870.19	6243
870.32	6117
870.45	6224
870.58	6285
870.71	6475
870.84	6388
870.97	6365
871.1	6433
871.23	6616
871.36	6707
871.489	6635
871.619	6722
871.749	6821
871.879	6875
872.008	6989
872.138	6962
872.267	6970
872.397	6985
872.526	7061
872.656	7031
872.785	7175
872.915	7369
873.044	7495
873.173	7495
873.303	7575
873.432	7685
873.561	7871
873.69	7830
873.819	7967
873.948	8214
874.077	8286
874.206	8210
874.335	8427
874.464	8712
874.593	8861
874.722	8883
874.851	9047
874.979	9161
875.108	9317
875.237	9408
875.365	9401
875.494	9682
875.623	9854
875.751	9838
875.88	10002
876.008	10090
876.136	10306
876.265	10459
876.393	10660
876.521	10603
876.65	10744
876.778	10843
876.906	10828
877.034	10965
877.162	11128
877.29	11060
877.418	11269
877.546	11345
877.674	11433
877.802	11463
877.93	11520
878.058	11474
878.185	11630
878.313	11604
878.441	11775
878.568	11691
878.696	11783
878.824	11824
878.951	11901
879.079	12022
879.206	12095
879.333	12007
879.461	11878
879.588	12045
879.715	12057
879.842	12175
879.97	12121
880.097	11893
880.224	11836
880.351	11893
880.478	11977
880.605	11767
880.732	11771
880.859	11969
880.986	11767
881.112	11901
881.239	11661
881.366	11611
881.493	11566
881.619	11482
881.746	11474
881.872	11520
881.999	11524
882.125	11391
882.252	11478
882.378	11497
882.505	11535
882.631	11334
882.757	11261
882.883	11258
883.01	11235
883.136	11083
883.262	11155
883.388	11071
883.514	11136
883.64	11075
883.766	11204
883.892	11003
884.018	11025
884.143	11041
884.269	10987
884.395	10755
884.52	10831
884.646	10797
884.772	10645
884.897	10637
885.023	10717
885.148	10649
885.274	10759
885.399	10653
885.524	10626
885.65	10573
885.775	10538
885.9	10550
886.025	10675
886.15	10504
886.275	10447
886.4	10367
886.525	10432
886.65	10360
886.775	10344
886.9	10489
887.025	10504
887.149	10329
887.274	10219
887.399	10181
887.523	10112
887.648	10097
887.773	10063
887.897	10227
888.021	10207
888.146	10101
888.27	10173
888.395	10162
888.519	10211
888.643	10162
888.767	10162
888.891	10055
889.015	9972
889.139	10040
889.263	10002
889.387	10067
889.511	10093
889.635	9975
889.759	9949
889.883	10010
890.006	10010
890.13	10017
890.254	9983
890.377	9968
890.501	9774
890.624	9846
890.748	9819
890.871	9800
890.995	9766
891.118	9747
891.241	9770
891.364	9755
891.488	9736
891.611	9717
891.734	9724
891.857	9713
891.98	9698
892.103	9717
892.226	9671
892.349	9595
892.471	9534
892.594	9641
892.717	9568
892.839	9584
892.962	9557
893.085	9625
893.207	9572
893.33	9496
893.452	9477
893.575	9545
893.697	9477
893.819	9648
893.941	9584
894.064	9557
894.186	9431
894.308	9405
894.43	9534
894.552	9542
894.674	9481
894.796	9382
894.918	9374
895.04	9317
895.161	9317
895.283	9340
895.405	9192
895.526	9264
895.648	9260
895.769	9272
895.891	9245
896.012	9253
896.134	9180
896.255	9135
896.376	9154
896.498	9222
896.619	9131
896.74	9051
896.861	9157
896.982	9272
897.103	9233
897.224	9108
897.345	9127
897.466	9100
897.587	8982
897.708	9093
897.828	8998
897.949	8956
898.07	8857
898.19	8845
898.311	8994
898.431	8929
898.552	8967
898.672	8937
898.792	8937
898.913	8906
899.033	8773
899.153	8682
899.273	8701
899.393	8777
899.513	8727
899.633	8712
899.753	8716
899.873	8659
899.993	8705
900.113	8693
900.232	8632
900.352	8583
900.472	8598
900.591	8499
900.711	8621
900.83	8556
900.95	8663
901.069	8613
901.189	8606
901.308	8343
901.427	8351
901.546	8400
901.665	8473
901.784	8434
901.904	8339
902.023	8309
902.141	8362
902.26	8229
902.379	8286
902.498	8172
902.617	8214
902.735	8309
902.854	8259
902.973	8263
903.091	8157
903.21	8092
903.328	8149
903.446	8077
903.565	8115
903.683	8069
903.801	8043
903.919	8092
904.038	8107
904.156	8016
904.274	8043
904.392	8024
904.51	7967
904.627	8016
904.745	8062
904.863	8005
904.981	7898
905.098	7894
905.216	7822
905.334	7852
905.451	7890
905.569	7826
905.686	7864
905.803	7909
905.921	7811
906.038	7776
906.155	7795
906.272	7708
906.389	7746
906.506	7609
906.623	7674
906.74	7556
906.857	7457
906.974	7499
907.091	7632
907.208	7757
907.324	7567
907.441	7552
907.557	7400
907.674	7392
907.79	7346
907.907	7411
908.023	7369
908.139	7415
908.256	7335
908.372	7365
908.488	7278
908.604	7312
908.72	7240
908.836	7251
908.952	7240
909.068	7209
909.184	7274
909.3	7228
909.415	7225
909.531	7251
909.647	7110
909.762	7080
909.878	7038
909.993	7149
910.108	7084
910.224	7065
910.339	7133
910.454	6996
910.57	6993
910.685	6928
910.8	7160
910.915	7122
911.03	6996
911.145	6913
911.259	6859
911.374	6875
911.489	6779
911.604	6772
911.718	6715
911.833	6696
911.947	6623
912.062	6582
912.176	6715
912.291	6719
912.405	6650
912.519	6776
912.633	6818
912.748	6734
912.862	6669
912.976	6589
913.09	6521
913.204	6547
913.318	6566
913.431	6673
913.545	6597
913.659	6654
913.772	6559
913.886	6574
914	6490
914.113	6536
914.226	6646
914.34	6593
914.453	6464
914.566	6574
914.68	6498
914.793	6506
914.906	6403
915.019	6384
915.132	6380
915.245	6407
915.358	6422
915.47	6483
915.583	6486
915.696	6464
915.809	6483
915.921	6532
916.034	6433
916.146	6365
916.259	6353
916.371	6456
916.483	6437
916.595	6369
916.708	6422
916.82	6388
916.932	6369
917.044	6319
917.156	6357
917.268	6304
917.38	6331
917.491	6300
917.603	6388
917.715	6331
917.826	6365
917.938	6327
918.049	6213
918.161	6350
918.272	6315
918.384	6471
918.495	6346
918.606	6228
918.717	6228
918.828	6273
918.939	6251
919.05	6239
919.161	6228
919.272	6125
919.383	6098
919.494	6350
919.604	6361
919.715	6273
919.826	6209
919.936	6247
920.047	6338
920.157	6258
920.267	6380
920.378	6334
920.488	6292
920.598	6437
920.708	6559
920.818	6414
920.928	6448
921.038	6616
921.148	6604
921.258	6338
921.368	6292
921.477	6239
921.587	6159
921.697	6098
921.806	6144
921.916	6019
922.025	5935
922.134	5893
922.244	5939
922.353	5946
922.462	5824
922.571	5786
922.68	5722
922.789	5676
922.898	5691
923.007	5611
923.116	5718
923.224	5657
923.333	5619
923.442	5570
923.55	5532
923.659	5604
923.767	5577
923.876	5543
923.984	5653
924.092	5509
924.201	5547
924.309	5490
924.417	5493
924.525	5482
924.633	5467
924.741	6106
924.849	5353
924.956	5520
925.064	5311
925.172	5311
925.279	5284
925.387	5326
925.494	5341
925.602	5376
925.709	5383
925.816	5216
925.924	5330
926.031	5292
926.138	5223
926.245	5273
926.352	5227
926.459	5303
926.566	5265
926.673	5181
926.779	5083
926.886	5086
926.993	4995
927.099	5025
927.206	4972
927.312	4908
927.419	5003
927.525	4987
927.631	4946
927.737	4866
927.843	4816
927.95	4717
928.056	4835
928.162	4805
928.267	4831
928.373	5220
928.479	4858
928.585	4664
928.69	4752
928.796	4767
928.901	4668
929.007	4596
929.112	4694
929.218	4634
929.323	4577
929.428	4580
929.533	4645
929.638	4512
929.743	4508
929.848	4527
929.953	4512
930.058	4394
930.163	4322
930.267	4329
930.372	4398
930.477	4257
930.581	4409
930.685	4356
930.79	4261
930.894	4280
930.998	4249
931.103	4303
931.207	4162
931.311	4082
931.415	3998
931.519	3896
931.623	3979
