Data from glass_V78500241_1520.txt Node
Date: Wed Sep 01 19:25:02 CST 2021
User: usil
Spectrometer: V785-0024
Trigger mode: 0
Integration Time (sec): 4.000000E-1
Scans to average: 1
Nonlinearity correction enabled: false
Boxcar width: 0
Storing dark spectrum: false
XAxis mode: Wavelengths
Number of Pixels in Spectrum: 1024
>>>>>Begin Spectral Data<<<<<
801.071	3705
801.214	3755
801.356	3724
801.499	3789
801.641	3724
801.783	3823
801.926	3865
802.068	3823
802.211	3884
802.353	3876
802.496	3846
802.638	3892
802.78	3865
802.923	3964
803.065	3915
803.208	3842
803.35	3854
803.492	3888
803.635	3930
803.777	3808
803.919	3911
804.061	4150
804.204	3949
804.346	3956
804.488	3941
804.63	4044
804.773	3964
804.915	3994
805.057	4166
805.199	4078
805.341	4078
805.483	4131
805.626	4169
805.768	4116
805.91	4200
806.052	4227
806.194	4223
806.336	4360
806.478	4253
806.62	4204
806.762	4215
806.904	4303
807.046	4360
807.188	4169
807.33	4181
807.472	4242
807.614	4234
807.756	4249
807.898	4215
808.04	4211
808.182	4322
808.324	4333
808.465	4394
808.607	4470
808.749	4432
808.891	4455
809.033	4500
809.174	4383
809.316	4242
809.458	4253
809.6	4109
809.741	4177
809.883	4150
810.025	4227
810.166	4211
810.308	4246
810.45	4276
810.591	4242
810.733	4265
810.875	4504
811.016	4805
811.158	5151
811.299	5277
811.441	5284
811.582	5079
811.724	4637
811.865	4451
812.007	4459
812.148	4447
812.29	4405
812.431	4379
812.573	4375
812.714	4356
812.855	4379
812.997	4402
813.138	4470
813.279	4394
813.421	4314
813.562	4375
813.703	4329
813.845	4356
813.986	4265
814.127	4211
814.268	4261
814.41	4291
814.551	4253
814.692	4371
814.833	4322
814.974	4284
815.115	4341
815.256	4268
815.397	4223
815.539	4249
815.68	4204
815.821	4249
815.962	4280
816.103	4299
816.244	4234
816.385	4211
816.526	4314
816.666	4185
816.807	4051
816.948	4166
817.089	4188
817.23	4128
817.371	3960
817.512	4082
817.653	4101
817.793	4010
817.934	4029
818.075	4078
818.216	4067
818.356	4059
818.497	4025
818.638	3945
818.778	3937
818.919	3857
819.06	3888
819.2	3915
819.341	3876
819.481	3831
819.622	3915
819.762	3994
819.903	3945
820.043	3884
820.184	3854
820.324	3827
820.465	3869
820.605	3861
820.746	3865
820.886	3819
821.026	3903
821.167	3915
821.307	3926
821.447	3979
821.588	3922
821.728	3930
821.868	3915
822.008	3922
822.149	3907
822.289	3926
822.429	3800
822.569	3781
822.709	3831
822.849	3682
822.99	3705
823.13	3755
823.27	3781
823.41	3736
823.55	3736
823.69	3652
823.83	3774
823.97	3679
824.11	3644
824.25	3606
824.389	3652
824.529	3667
824.669	3606
824.809	3705
824.949	3740
825.089	3728
825.228	3679
825.368	3545
825.508	3561
825.648	3561
825.787	3576
825.927	3625
826.067	3633
826.206	3675
826.346	3789
826.485	3819
826.625	3869
826.765	3956
826.904	3797
827.044	3622
827.183	3511
827.323	3420
827.462	3443
827.601	3435
827.741	3431
827.88	3450
828.02	3382
828.159	3443
828.298	3496
828.437	3553
828.577	3466
828.716	3606
828.855	3450
828.994	3443
829.134	3382
829.273	3389
829.412	3370
829.551	3370
829.69	3325
829.829	3431
829.968	3519
830.107	3473
830.246	3435
830.385	3382
830.524	3332
830.663	3325
830.802	3279
830.941	3188
831.08	3199
831.219	3253
831.357	3287
831.496	3397
831.635	3226
831.774	3211
831.913	3192
832.051	3097
832.19	3138
832.329	3218
832.467	3135
832.606	3104
832.744	3173
832.883	3199
833.022	3165
833.16	3294
833.299	3306
833.437	3317
833.576	3363
833.714	3389
833.852	3416
833.991	3466
834.129	3431
834.267	3469
834.406	3409
834.544	3435
834.682	3401
834.821	3412
834.959	3542
835.097	3462
835.235	3526
835.373	3481
835.511	3500
835.65	3466
835.788	3511
835.926	3420
836.064	3344
836.202	3367
836.34	3595
836.478	3625
836.615	3519
836.753	3633
836.891	3644
837.029	3568
837.167	3572
837.305	3496
837.443	3557
837.58	3477
837.718	3614
837.856	3542
837.993	3564
838.131	3625
838.269	3553
838.406	3599
838.544	3542
838.681	3450
838.819	3447
838.956	3431
839.094	3401
839.231	3473
839.369	3488
839.506	3732
839.643	3675
839.781	3519
839.918	3496
840.055	3576
840.193	3515
840.33	3492
840.467	3542
840.604	3622
840.742	3819
840.879	3538
841.016	3580
841.153	3587
841.29	3785
841.427	3728
841.564	3732
841.701	3743
841.838	3648
841.975	3698
842.112	3690
842.249	3629
842.385	3572
842.522	3816
842.659	3686
842.796	3663
842.933	3717
843.069	3671
843.206	3663
843.343	3766
843.479	3778
843.616	3827
843.752	3610
843.889	3717
844.025	3846
844.162	3720
844.298	3835
844.435	3747
844.571	3774
844.708	3915
844.844	3991
844.98	4021
845.117	4002
845.253	3922
845.389	3899
845.525	3960
845.661	3991
845.798	3975
845.934	4032
846.07	4010
846.206	4051
846.342	4093
846.478	4048
846.614	3945
846.75	3907
846.886	3918
847.022	4002
847.158	3991
847.294	3987
847.429	3994
847.565	4051
847.701	4272
847.837	3892
847.972	3850
848.108	3975
848.244	3949
848.379	3838
848.515	3804
848.65	3797
848.786	3812
848.921	3850
849.057	3945
849.192	3930
849.328	3934
849.463	3934
849.598	3907
849.734	3880
849.869	3816
850.004	3842
850.14	3842
850.275	3816
850.41	3743
850.545	3751
850.68	3774
850.815	3812
850.95	3816
851.085	3972
851.22	3884
851.355	3835
851.49	3732
851.625	3781
851.76	3800
851.895	3751
852.03	3682
852.165	3816
852.299	3842
852.434	3899
852.569	3846
852.703	3861
852.838	3975
852.973	4006
853.107	4013
853.242	3922
853.376	3846
853.511	3781
853.645	3899
853.78	3991
853.914	3880
854.048	3903
854.183	3884
854.317	3949
854.451	4105
854.585	3960
854.72	3918
854.854	4025
854.988	3972
855.122	4025
855.256	3899
855.39	4063
855.524	4101
855.658	4120
855.792	4128
855.926	4120
856.06	4154
856.194	4211
856.327	4150
856.461	4150
856.595	4158
856.729	4166
856.862	4253
856.996	4257
857.13	4329
857.263	4306
857.397	4352
857.53	4303
857.664	4352
857.797	4402
857.931	4402
858.064	4402
858.197	4455
858.331	4367
858.464	4402
858.597	4367
858.731	4451
858.864	4417
858.997	4462
859.13	4546
859.263	4519
859.396	4558
859.529	4478
859.662	4535
859.795	4531
859.928	4626
860.061	4744
860.194	4733
860.327	4645
860.46	4630
860.592	4801
860.725	4706
860.858	4752
860.99	4698
861.123	4706
861.256	4675
861.388	4736
861.521	5566
861.653	4714
861.786	4748
861.918	4763
862.05	4763
862.183	4873
862.315	4881
862.447	4923
862.58	4965
862.712	4778
862.844	4748
862.976	4892
863.108	4873
863.24	5288
863.372	4881
863.504	4900
863.636	4889
863.768	4968
863.9	4938
864.032	4923
864.164	4953
864.296	5018
864.428	5117
864.559	5075
864.691	5197
864.823	5162
864.954	5083
865.086	5140
865.217	5124
865.349	5113
865.48	5128
865.612	5159
865.743	5231
865.875	5166
866.006	5170
866.137	5239
866.269	5235
866.4	5258
866.531	5220
866.662	5216
866.793	5235
866.924	5269
867.055	5322
867.186	5341
867.317	5307
867.448	5315
867.579	5398
867.71	5349
867.841	5379
867.972	5452
868.103	5433
868.233	5524
868.364	5512
868.495	5562
868.625	5611
868.756	5764
868.886	5718
869.017	5786
869.147	5836
869.278	5802
869.408	5813
869.539	5798
869.669	5927
869.799	5897
869.929	6007
870.06	6045
870.19	6205
870.32	6186
870.45	6258
870.58	6346
870.71	6445
870.84	6422
870.97	6395
871.1	6410
871.23	6654
871.36	6696
871.489	6669
871.619	6764
871.749	6856
871.879	6844
872.008	6985
872.138	7034
872.267	7046
872.397	7027
872.526	7023
872.656	7038
872.785	7152
872.915	7438
873.044	7514
873.173	7613
873.303	7605
873.432	7776
873.561	7951
873.69	8005
873.819	8031
873.948	8187
874.077	8279
874.206	8317
874.335	8419
874.464	8636
874.593	8876
874.722	8925
874.851	9028
874.979	9272
875.108	9382
875.237	9469
875.365	9469
875.494	9713
875.623	9797
875.751	9770
875.88	10010
876.008	10131
876.136	10341
876.265	10561
876.393	10672
876.521	10691
876.65	10835
876.778	10919
876.906	10946
877.034	11041
877.162	11136
877.29	11185
877.418	11231
877.546	11402
877.674	11379
877.802	11459
877.93	11486
878.058	11551
878.185	11528
878.313	11627
878.441	11779
878.568	11729
878.696	11813
878.824	11786
878.951	11992
879.079	12095
879.206	12076
879.333	12045
879.461	11961
879.588	12125
879.715	12186
879.842	12152
879.97	12057
880.097	11889
880.224	11870
880.351	11885
880.478	11920
880.605	11836
880.732	11821
880.859	12022
880.986	11863
881.112	11874
881.239	11771
881.366	11611
881.493	11611
881.619	11592
881.746	11714
881.872	11581
881.999	11539
882.125	11528
882.252	11463
882.378	11509
882.505	11512
882.631	11391
882.757	11284
882.883	11258
883.01	11261
883.136	11178
883.262	11132
883.388	11105
883.514	11208
883.64	11185
883.766	11102
883.892	11048
884.018	11014
884.143	11056
884.269	11170
884.395	10847
884.52	10805
884.646	10767
884.772	10702
884.897	10603
885.023	10691
885.148	10786
885.274	10736
885.399	10698
885.524	10649
885.65	10611
885.775	10611
885.9	10523
886.025	10599
886.15	10577
886.275	10489
886.4	10386
886.525	10352
886.65	10352
886.775	10299
886.9	10519
887.025	10421
887.149	10344
887.274	10261
887.399	10211
887.523	10139
887.648	10067
887.773	10109
887.897	10295
888.021	10215
888.146	10169
888.27	10253
888.395	10211
888.519	10204
888.643	10147
888.767	10253
888.891	10055
889.015	9983
889.139	10074
889.263	10013
889.387	10116
889.511	10112
889.635	10093
889.759	9968
889.883	10029
890.006	10032
890.13	10158
890.254	10006
890.377	9949
890.501	9937
890.624	9869
890.748	9857
890.871	9861
890.995	9781
891.118	9793
891.241	9724
891.364	9705
891.488	9804
891.611	9690
891.734	9778
891.857	9785
891.98	9751
892.103	9740
892.226	9804
892.349	9667
892.471	9568
892.594	9660
892.717	9530
892.839	9587
892.962	9606
893.085	9663
893.207	9580
893.33	9458
893.452	9485
893.575	9553
893.697	9538
893.819	9648
893.941	9606
894.064	9618
894.186	9462
894.308	9443
894.43	9572
894.552	9584
894.674	9485
894.796	9382
894.918	9431
895.04	9348
895.161	9412
895.283	9351
895.405	9237
895.526	9249
895.648	9306
895.769	9268
895.891	9245
896.012	9298
896.134	9199
896.255	9097
896.376	9112
896.498	9119
896.619	9214
896.74	9070
896.861	9119
896.982	9230
897.103	9268
897.224	9203
897.345	9123
897.466	9085
897.587	8994
897.708	9001
897.828	8990
897.949	8921
898.07	8845
898.19	8963
898.311	9024
898.431	8933
898.552	8952
898.672	8914
898.792	8975
898.913	8975
899.033	8834
899.153	8750
899.273	8674
899.393	8686
899.513	8735
899.633	8739
899.753	8708
899.873	8697
899.993	8708
900.113	8758
900.232	8727
900.352	8617
900.472	8621
900.591	8530
900.711	8602
900.83	8465
900.95	8720
901.069	8629
901.189	8495
901.308	8408
901.427	8412
901.546	8465
901.665	8511
901.784	8492
901.904	8389
902.023	8419
902.141	8275
902.26	8252
902.379	8290
902.498	8229
902.617	8168
902.735	8358
902.854	8320
902.973	8328
903.091	8081
903.21	8157
903.328	8183
903.446	8168
903.565	8077
903.683	8027
903.801	8054
903.919	8065
904.038	8073
904.156	8062
904.274	8123
904.392	8001
904.51	8035
904.627	8126
904.745	8084
904.863	8077
904.981	7898
905.098	7902
905.216	7928
905.334	7849
905.451	7894
905.569	7814
905.686	7928
905.803	7887
905.921	7723
906.038	7887
906.155	7772
906.272	7685
906.389	7860
906.506	7708
906.623	7655
906.74	7662
906.857	7491
906.974	7552
907.091	7658
907.208	7727
907.324	7605
907.441	7548
907.557	7506
907.674	7407
907.79	7362
907.907	7343
908.023	7438
908.139	7407
908.256	7426
908.372	7381
908.488	7388
908.604	7278
908.72	7270
908.836	7240
908.952	7221
909.068	7240
909.184	7346
909.3	7247
909.415	7255
909.531	7247
909.647	7156
909.762	7164
909.878	7149
909.993	7114
910.108	7057
910.224	7057
910.339	7069
910.454	6985
910.57	7004
910.685	6966
910.8	7149
910.915	7095
911.03	7046
911.145	6913
911.259	6844
911.374	6886
911.489	6806
911.604	6894
911.718	6764
911.833	6738
911.947	6707
912.062	6578
912.176	6730
912.291	6688
912.405	6639
912.519	6875
912.633	6798
912.748	6749
912.862	6627
912.976	6631
913.09	6574
913.204	6589
913.318	6635
913.431	6696
913.545	6654
913.659	6760
913.772	6639
913.886	6525
914	6528
914.113	6597
914.226	6654
914.34	6616
914.453	6479
914.566	6589
914.68	6525
914.793	6528
914.906	6433
915.019	6365
915.132	6350
915.245	6410
915.358	6376
915.47	6448
915.583	6418
915.696	6494
915.809	6521
915.921	6566
916.034	6414
916.146	6448
916.259	6403
916.371	6513
916.483	6448
916.595	6433
916.708	6331
916.82	6395
916.932	6350
917.044	6338
917.156	6395
917.268	6327
917.38	6350
917.491	6334
917.603	6346
917.715	6376
917.826	6426
917.938	6331
918.049	6235
918.161	6338
918.272	6452
918.384	6429
918.495	6346
918.606	6251
918.717	6216
918.828	6254
918.939	6285
919.05	6175
919.161	6228
919.272	6095
919.383	6133
919.494	6281
919.604	6418
919.715	6281
919.826	6228
919.936	6266
920.047	6380
920.157	6285
920.267	6471
920.378	6334
920.488	6315
920.598	6391
920.708	6536
920.818	6490
920.928	6525
921.038	6582
921.148	6540
921.258	6304
921.368	6350
921.477	6175
921.587	6125
921.697	6072
921.806	6213
921.916	6045
922.025	5954
922.134	5908
922.244	5855
922.353	5901
922.462	5821
922.571	5802
922.68	5733
922.789	5680
922.898	5748
923.007	5653
923.116	5733
923.224	5668
923.333	5661
923.442	5577
923.55	5653
923.659	5615
923.767	5638
923.876	5570
923.984	5634
924.092	5474
924.201	5600
924.309	5554
924.417	5501
924.525	5497
924.633	5467
924.741	6106
924.849	5372
924.956	5516
925.064	5425
925.172	5315
925.279	5284
925.387	5353
925.494	5299
925.602	5452
925.709	5440
925.816	5235
925.924	5337
926.031	5330
926.138	5330
926.245	5360
926.352	5212
926.459	5326
926.566	5303
926.673	5193
926.779	5151
926.886	5060
926.993	5025
927.099	4984
927.206	5006
927.312	4995
927.419	5041
927.525	4976
927.631	5010
927.737	4953
927.843	4866
927.95	4782
928.056	4835
928.162	4850
928.267	4847
928.373	5235
928.479	4854
928.585	4687
928.69	4782
928.796	4782
928.901	4687
929.007	4558
929.112	4714
929.218	4626
929.323	4535
929.428	4603
929.533	4679
929.638	4573
929.743	4573
929.848	4565
929.953	4508
930.058	4470
930.163	4299
930.267	4367
930.372	4436
930.477	4303
930.581	4470
930.685	4375
930.79	4257
930.894	4265
930.998	4257
931.103	4352
931.207	4135
931.311	4067
931.415	4006
931.519	3960
931.623	3934
