Data from glass_V78500241_1478.txt Node
Date: Wed Sep 01 19:24:44 CST 2021
User: usil
Spectrometer: V785-0024
Trigger mode: 0
Integration Time (sec): 4.000000E-1
Scans to average: 1
Nonlinearity correction enabled: false
Boxcar width: 0
Storing dark spectrum: false
XAxis mode: Wavelengths
Number of Pixels in Spectrum: 1024
>>>>>Begin Spectral Data<<<<<
801.071	3778
801.214	3736
801.356	3667
801.499	3759
801.641	3690
801.783	3842
801.926	3854
802.068	3842
802.211	3846
802.353	3884
802.496	3793
802.638	3857
802.78	3884
802.923	3964
803.065	3896
803.208	3876
803.35	3903
803.492	3880
803.635	3907
803.777	3812
803.919	3899
804.061	4154
804.204	3937
804.346	3922
804.488	3945
804.63	4017
804.773	3953
804.915	4067
805.057	4166
805.199	4067
805.341	4097
805.483	4105
805.626	4139
805.768	4105
805.91	4185
806.052	4211
806.194	4234
806.336	4348
806.478	4177
806.62	4181
806.762	4207
806.904	4261
807.046	4329
807.188	4211
807.33	4200
807.472	4219
807.614	4185
807.756	4265
807.898	4185
808.04	4200
808.182	4280
808.324	4295
808.465	4398
808.607	4440
808.749	4470
808.891	4455
809.033	4489
809.174	4432
809.316	4261
809.458	4268
809.6	4143
809.741	4143
809.883	4154
810.025	4207
810.166	4211
810.308	4257
810.45	4219
810.591	4246
810.733	4287
810.875	4527
811.016	4866
811.158	5124
811.299	5303
811.441	5322
811.582	5071
811.724	4694
811.865	4489
812.007	4459
812.148	4428
812.29	4436
812.431	4417
812.573	4375
812.714	4379
812.855	4356
812.997	4421
813.138	4462
813.279	4424
813.421	4390
813.562	4386
813.703	4322
813.845	4356
813.986	4238
814.127	4234
814.268	4253
814.41	4287
814.551	4246
814.692	4295
814.833	4257
814.974	4276
815.115	4363
815.256	4284
815.397	4234
815.539	4284
815.68	4181
815.821	4230
815.962	4333
816.103	4310
816.244	4230
816.385	4204
816.526	4272
816.666	4200
816.807	4120
816.948	4166
817.089	4200
817.23	4086
817.371	4048
817.512	4078
817.653	4067
817.793	4048
817.934	4032
818.075	4090
818.216	4055
818.356	4090
818.497	3968
818.638	3941
818.778	3896
818.919	3907
819.06	3869
819.2	3896
819.341	3861
819.481	3838
819.622	3880
819.762	4048
819.903	3915
820.043	3888
820.184	3823
820.324	3778
820.465	3903
820.605	3907
820.746	3911
820.886	3800
821.026	3945
821.167	3899
821.307	3994
821.447	3994
821.588	4013
821.728	3991
821.868	3915
822.008	3915
822.149	3937
822.289	3960
822.429	3804
822.569	3808
822.709	3812
822.849	3709
822.99	3724
823.13	3751
823.27	3793
823.41	3717
823.55	3713
823.69	3720
823.83	3808
823.97	3694
824.11	3648
824.25	3572
824.389	3701
824.529	3690
824.669	3648
824.809	3743
824.949	3751
825.089	3709
825.228	3671
825.368	3580
825.508	3603
825.648	3576
825.787	3633
825.927	3660
826.067	3682
826.206	3660
826.346	3778
826.485	3819
826.625	3873
826.765	3937
826.904	3835
827.044	3576
827.183	3557
827.323	3424
827.462	3511
827.601	3443
827.741	3412
827.88	3492
828.02	3405
828.159	3454
828.298	3488
828.437	3488
828.577	3439
828.716	3622
828.855	3500
828.994	3389
829.134	3386
829.273	3378
829.412	3348
829.551	3317
829.69	3370
829.829	3424
829.968	3530
830.107	3443
830.246	3447
830.385	3367
830.524	3367
830.663	3294
830.802	3279
830.941	3211
831.08	3184
831.219	3279
831.357	3272
831.496	3393
831.635	3230
831.774	3173
831.913	3226
832.051	3108
832.19	3150
832.329	3195
832.467	3116
832.606	3169
832.744	3146
832.883	3188
833.022	3226
833.16	3275
833.299	3279
833.437	3363
833.576	3378
833.714	3405
833.852	3405
833.991	3466
834.129	3477
834.267	3458
834.406	3386
834.544	3416
834.682	3435
834.821	3355
834.959	3576
835.097	3420
835.235	3500
835.373	3462
835.511	3507
835.65	3481
835.788	3477
835.926	3382
836.064	3420
836.202	3401
836.34	3564
836.478	3603
836.615	3538
836.753	3564
836.891	3644
837.029	3587
837.167	3599
837.305	3576
837.443	3545
837.58	3473
837.718	3591
837.856	3561
837.993	3553
838.131	3591
838.269	3564
838.406	3587
838.544	3534
838.681	3477
838.819	3439
838.956	3405
839.094	3382
839.231	3454
839.369	3538
839.506	3720
839.643	3622
839.781	3488
839.918	3504
840.055	3549
840.193	3561
840.33	3534
840.467	3545
840.604	3599
840.742	3793
840.879	3530
841.016	3549
841.153	3610
841.29	3728
841.427	3717
841.564	3701
841.701	3770
841.838	3686
841.975	3652
842.112	3713
842.249	3614
842.385	3622
842.522	3808
842.659	3686
842.796	3717
842.933	3694
843.069	3740
843.206	3686
843.343	3812
843.479	3762
843.616	3846
843.752	3686
843.889	3682
844.025	3831
844.162	3705
844.298	3831
844.435	3785
844.571	3797
844.708	3915
844.844	3964
844.98	4040
845.117	3987
845.253	3899
845.389	3926
845.525	3953
845.661	3964
845.798	3922
845.934	4013
846.07	3953
846.206	3994
846.342	4105
846.478	4044
846.614	3960
846.75	3941
846.886	3888
847.022	4071
847.158	4002
847.294	3956
847.429	4006
847.565	3991
847.701	4295
847.837	3857
847.972	3865
848.108	3998
848.244	3949
848.379	3827
848.515	3816
848.65	3857
848.786	3842
848.921	3846
849.057	3918
849.192	3896
849.328	3926
849.463	3960
849.598	3911
849.734	3907
849.869	3800
850.004	3789
850.14	3854
850.275	3838
850.41	3789
850.545	3762
850.68	3759
850.815	3823
850.95	3789
851.085	3968
851.22	3854
851.355	3823
851.49	3823
851.625	3823
851.76	3766
851.895	3743
852.03	3713
852.165	3797
852.299	3865
852.434	3922
852.569	3903
852.703	3873
852.838	3922
852.973	4006
853.107	4006
853.242	3861
853.376	3873
853.511	3781
853.645	3854
853.78	3941
853.914	3903
854.048	3918
854.183	3907
854.317	3937
854.451	4078
854.585	3922
854.72	3956
854.854	4063
854.988	3941
855.122	4010
855.256	3915
855.39	4017
855.524	4090
855.658	4082
855.792	4097
855.926	4109
856.06	4192
856.194	4181
856.327	4139
856.461	4154
856.595	4131
856.729	4181
856.862	4299
856.996	4223
857.13	4303
857.263	4390
857.397	4352
857.53	4329
857.664	4352
857.797	4398
857.931	4440
858.064	4371
858.197	4447
858.331	4386
858.464	4360
858.597	4344
858.731	4402
858.864	4500
858.997	4417
859.13	4451
859.263	4535
859.396	4577
859.529	4470
859.662	4527
859.795	4527
859.928	4584
860.061	4698
860.194	4755
860.327	4664
860.46	4694
860.592	4729
860.725	4763
860.858	4793
860.99	4668
861.123	4736
861.256	4668
861.388	4771
861.521	5311
861.653	4675
861.786	4683
861.918	4752
862.05	4831
862.183	4843
862.315	4835
862.447	4984
862.58	4892
862.712	4839
862.844	4793
862.976	4824
863.108	4862
863.24	5254
863.372	4812
863.504	4824
863.636	4896
863.768	4930
863.9	4946
864.032	4961
864.164	4908
864.296	4995
864.428	5086
864.559	5170
864.691	5094
864.823	5086
864.954	5113
865.086	5086
865.217	5124
865.349	5075
865.48	5166
865.612	5204
865.743	5265
865.875	5227
866.006	5208
866.137	5185
866.269	5185
866.4	5254
866.531	5242
866.662	5208
866.793	5326
866.924	5239
867.055	5357
867.186	5326
867.317	5315
867.448	5318
867.579	5398
867.71	5383
867.841	5406
867.972	5459
868.103	5474
868.233	5474
868.364	5528
868.495	5524
868.625	5570
868.756	5748
868.886	5653
869.017	5760
869.147	5889
869.278	5893
869.408	5794
869.539	5859
869.669	5927
869.799	5878
869.929	5977
870.06	5946
870.19	6186
870.32	6155
870.45	6243
870.58	6372
870.71	6391
870.84	6414
870.97	6369
871.1	6460
871.23	6646
871.36	6715
871.489	6650
871.619	6825
871.749	6795
871.879	6833
872.008	6947
872.138	6966
872.267	6993
872.397	6985
872.526	7042
872.656	7160
872.785	7225
872.915	7343
873.044	7506
873.173	7529
873.303	7624
873.432	7852
873.561	7868
873.69	7879
873.819	7986
873.948	8149
874.077	8298
874.206	8366
874.335	8393
874.464	8583
874.593	8792
874.722	8910
874.851	9169
874.979	9192
875.108	9397
875.237	9428
875.365	9519
875.494	9644
875.623	9831
875.751	9850
875.88	9956
876.008	10086
876.136	10272
876.265	10497
876.393	10710
876.521	10725
876.65	10877
876.778	10831
876.906	10881
877.034	10953
877.162	11113
877.29	11227
877.418	11345
877.546	11265
877.674	11425
877.802	11474
877.93	11520
878.058	11520
878.185	11596
878.313	11714
878.441	11836
878.568	11615
878.696	11779
878.824	11786
878.951	11923
879.079	12076
879.206	12110
879.333	12022
879.461	12068
879.588	12079
879.715	12163
879.842	12140
879.97	12106
880.097	11863
880.224	11813
880.351	11885
880.478	11893
880.605	11882
880.732	11855
880.859	11942
880.986	11802
881.112	11882
881.239	11718
881.366	11718
881.493	11551
881.619	11547
881.746	11520
881.872	11512
881.999	11444
882.125	11486
882.252	11520
882.378	11493
882.505	11570
882.631	11410
882.757	11299
882.883	11356
883.01	11223
883.136	11197
883.262	11124
883.388	11105
883.514	11239
883.64	11170
883.766	11075
883.892	10987
884.018	11083
884.143	10995
884.269	11086
884.395	10843
884.52	10812
884.646	10744
884.772	10771
884.897	10683
885.023	10763
885.148	10641
885.274	10672
885.399	10664
885.524	10660
885.65	10637
885.775	10588
885.9	10535
886.025	10599
886.15	10504
886.275	10413
886.4	10390
886.525	10428
886.65	10356
886.775	10325
886.9	10489
887.025	10538
887.149	10371
887.274	10272
887.399	10196
887.523	10196
887.648	10166
887.773	10040
887.897	10310
888.021	10215
888.146	10143
888.27	10238
888.395	10219
888.519	10192
888.643	10207
888.767	10223
888.891	10082
889.015	9994
889.139	10048
889.263	9960
889.387	10055
889.511	10063
889.635	10147
889.759	9972
889.883	9903
890.006	9991
890.13	10044
890.254	9964
890.377	10044
890.501	9819
890.624	9926
890.748	9892
890.871	9857
890.995	9797
891.118	9736
891.241	9857
891.364	9740
891.488	9835
891.611	9724
891.734	9747
891.857	9816
891.98	9774
892.103	9789
892.226	9759
892.349	9629
892.471	9504
892.594	9572
892.717	9584
892.839	9603
892.962	9606
893.085	9679
893.207	9534
893.33	9477
893.452	9538
893.575	9648
893.697	9496
893.819	9603
893.941	9644
894.064	9644
894.186	9496
894.308	9370
894.43	9515
894.552	9549
894.674	9496
894.796	9408
894.918	9397
895.04	9363
895.161	9340
895.283	9367
895.405	9253
895.526	9237
895.648	9272
895.769	9195
895.891	9241
896.012	9268
896.134	9211
896.255	9127
896.376	9169
896.498	9123
896.619	9100
896.74	9108
896.861	9085
896.982	9298
897.103	9279
897.224	9127
897.345	9093
897.466	9013
897.587	8998
897.708	9112
897.828	9108
897.949	8956
898.07	8861
898.19	8963
898.311	9039
898.431	8990
898.552	8872
898.672	8975
898.792	8975
898.913	8998
899.033	8796
899.153	8727
899.273	8632
899.393	8781
899.513	8720
899.633	8739
899.753	8731
899.873	8724
899.993	8705
900.113	8788
900.232	8651
900.352	8659
900.472	8648
900.591	8480
900.711	8537
900.83	8499
900.95	8644
901.069	8689
901.189	8537
901.308	8492
901.427	8404
901.546	8431
901.665	8495
901.784	8476
901.904	8480
902.023	8324
902.141	8191
902.26	8202
902.379	8332
902.498	8279
902.617	8229
902.735	8259
902.854	8237
902.973	8240
903.091	8119
903.21	8145
903.328	8206
903.446	8142
903.565	8088
903.683	8107
903.801	8096
903.919	8142
904.038	8103
904.156	7997
904.274	8100
904.392	8046
904.51	8005
904.627	8027
904.745	8123
904.863	8084
904.981	7986
905.098	7864
905.216	7871
905.334	7921
905.451	7883
905.569	7883
905.686	7875
905.803	7932
905.921	7818
906.038	7830
906.155	7765
906.272	7723
906.389	7761
906.506	7609
906.623	7636
906.74	7616
906.857	7499
906.974	7521
907.091	7639
907.208	7708
907.324	7605
907.441	7597
907.557	7464
907.674	7483
907.79	7392
907.907	7381
908.023	7495
908.139	7400
908.256	7335
908.372	7388
908.488	7343
908.604	7285
908.72	7206
908.836	7324
908.952	7232
909.068	7270
909.184	7327
909.3	7236
909.415	7247
909.531	7411
909.647	7095
909.762	7091
909.878	7099
909.993	7175
910.108	7118
910.224	7057
910.339	7107
910.454	7031
910.57	6989
910.685	6909
910.8	7232
910.915	7107
911.03	6970
911.145	6882
911.259	6939
911.374	6947
911.489	6878
911.604	6852
911.718	6757
911.833	6707
911.947	6635
912.062	6551
912.176	6722
912.291	6753
912.405	6707
912.519	6818
912.633	6825
912.748	6779
912.862	6673
912.976	6620
913.09	6475
913.204	6585
913.318	6612
913.431	6639
913.545	6696
913.659	6707
913.772	6642
913.886	6608
914	6532
914.113	6620
914.226	6631
914.34	6547
914.453	6517
914.566	6616
914.68	6513
914.793	6483
914.906	6467
915.019	6388
915.132	6380
915.245	6372
915.358	6456
915.47	6513
915.583	6494
915.696	6521
915.809	6532
915.921	6525
916.034	6410
916.146	6391
916.259	6353
916.371	6494
916.483	6380
916.595	6338
916.708	6433
916.82	6380
916.932	6350
917.044	6403
917.156	6422
917.268	6357
917.38	6410
917.491	6296
917.603	6331
917.715	6426
917.826	6384
917.938	6357
918.049	6243
918.161	6369
918.272	6445
918.384	6460
918.495	6380
918.606	6243
918.717	6205
918.828	6247
918.939	6270
919.05	6213
919.161	6361
919.272	6133
919.383	6167
919.494	6338
919.604	6399
919.715	6277
919.826	6209
919.936	6277
920.047	6357
920.157	6323
920.267	6441
920.378	6304
920.488	6232
920.598	6551
920.708	6540
920.818	6460
920.928	6456
921.038	6601
921.148	6540
921.258	6327
921.368	6281
921.477	6209
921.587	6136
921.697	6064
921.806	6178
921.916	6106
922.025	5984
922.134	5866
922.244	5859
922.353	5965
922.462	5878
922.571	5851
922.68	5741
922.789	5676
922.898	5748
923.007	5642
923.116	5657
923.224	5676
923.333	5688
923.442	5573
923.55	5585
923.659	5604
923.767	5596
923.876	5535
923.984	5672
924.092	5509
924.201	5619
924.309	5535
924.417	5532
924.525	5474
924.633	5509
924.741	6095
924.849	5341
924.956	5448
925.064	5345
925.172	5368
925.279	5334
925.387	5341
925.494	5334
925.602	5345
925.709	5345
925.816	5250
925.924	5307
926.031	5357
926.138	5311
926.245	5299
926.352	5239
926.459	5307
926.566	5299
926.673	5261
926.779	5159
926.886	5117
926.993	5060
927.099	4984
927.206	4946
927.312	4934
927.419	5033
927.525	4987
927.631	4968
927.737	4949
927.843	4885
927.95	4774
928.056	4820
928.162	4801
928.267	4877
928.373	5261
928.479	4858
928.585	4675
928.69	4782
928.796	4740
928.901	4710
929.007	4573
929.112	4702
929.218	4615
929.323	4607
929.428	4584
929.533	4653
929.638	4535
929.743	4546
929.848	4577
929.953	4512
930.058	4440
930.163	4310
930.267	4363
930.372	4402
930.477	4287
930.581	4440
930.685	4383
930.79	4261
930.894	4268
930.998	4265
931.103	4363
931.207	4139
931.311	4162
931.415	4036
931.519	3975
931.623	3953
