Data from glass_V78500241_123.txt Node
Date: Wed Sep 01 19:15:21 CST 2021
User: usil
Spectrometer: V785-0024
Trigger mode: 0
Integration Time (sec): 4.000000E-1
Scans to average: 1
Nonlinearity correction enabled: false
Boxcar width: 0
Storing dark spectrum: false
XAxis mode: Wavelengths
Number of Pixels in Spectrum: 1024
>>>>>Begin Spectral Data<<<<<
801.071	3724
801.214	3740
801.356	3720
801.499	3774
801.641	3705
801.783	3793
801.926	3896
802.068	3857
802.211	3831
802.353	3876
802.496	3854
802.638	3873
802.78	3983
802.923	3979
803.065	3876
803.208	3884
803.35	3873
803.492	3903
803.635	3956
803.777	3816
803.919	3907
804.061	4158
804.204	3934
804.346	3949
804.488	3964
804.63	4029
804.773	3979
804.915	4036
805.057	4188
805.199	4021
805.341	4078
805.483	4188
805.626	4154
805.768	4097
805.91	4219
806.052	4246
806.194	4268
806.336	4375
806.478	4211
806.62	4207
806.762	4192
806.904	4344
807.046	4394
807.188	4257
807.33	4219
807.472	4219
807.614	4227
807.756	4310
807.898	4234
808.04	4242
808.182	4299
808.324	4363
808.465	4379
808.607	4462
808.749	4447
808.891	4493
809.033	4516
809.174	4421
809.316	4265
809.458	4253
809.6	4196
809.741	4185
809.883	4150
810.025	4265
810.166	4158
810.308	4249
810.45	4238
810.591	4287
810.733	4306
810.875	4565
811.016	4850
811.158	5193
811.299	5303
811.441	5299
811.582	5086
811.724	4679
811.865	4516
812.007	4500
812.148	4424
812.29	4409
812.431	4394
812.573	4398
812.714	4390
812.855	4459
812.997	4413
813.138	4516
813.279	4424
813.421	4405
813.562	4402
813.703	4337
813.845	4344
813.986	4215
814.127	4234
814.268	4310
814.41	4284
814.551	4291
814.692	4356
814.833	4268
814.974	4295
815.115	4341
815.256	4246
815.397	4219
815.539	4291
815.68	4249
815.821	4196
815.962	4409
816.103	4257
816.244	4211
816.385	4238
816.526	4299
816.666	4246
816.807	4048
816.948	4181
817.089	4135
817.23	4154
817.371	4086
817.512	4040
817.653	4029
817.793	4048
817.934	4055
818.075	4139
818.216	4116
818.356	4112
818.497	3956
818.638	3953
818.778	3934
818.919	3937
819.06	3892
819.2	3896
819.341	3922
819.481	3835
819.622	3979
819.762	4040
819.903	3994
820.043	3865
820.184	3865
820.324	3869
820.465	3846
820.605	3880
820.746	3915
820.886	3793
821.026	3960
821.167	3918
821.307	3991
821.447	3994
821.588	3960
821.728	3968
821.868	3964
822.008	3865
822.149	3949
822.289	3930
822.429	3789
822.569	3793
822.709	3800
822.849	3724
822.99	3762
823.13	3781
823.27	3789
823.41	3713
823.55	3732
823.69	3789
823.83	3743
823.97	3705
824.11	3641
824.25	3629
824.389	3614
824.529	3671
824.669	3732
824.809	3686
824.949	3804
825.089	3747
825.228	3724
825.368	3545
825.508	3587
825.648	3614
825.787	3606
825.927	3671
826.067	3633
826.206	3667
826.346	3808
826.485	3804
826.625	3873
826.765	3953
826.904	3888
827.044	3675
827.183	3530
827.323	3473
827.462	3488
827.601	3420
827.741	3431
827.88	3488
828.02	3378
828.159	3454
828.298	3481
828.437	3530
828.577	3488
828.716	3595
828.855	3557
828.994	3443
829.134	3405
829.273	3431
829.412	3386
829.551	3367
829.69	3389
829.829	3466
829.968	3561
830.107	3447
830.246	3496
830.385	3420
830.524	3401
830.663	3340
830.802	3268
830.941	3207
831.08	3195
831.219	3260
831.357	3283
831.496	3443
831.635	3245
831.774	3199
831.913	3218
832.051	3131
832.19	3173
832.329	3199
832.467	3161
832.606	3123
832.744	3195
832.883	3226
833.022	3199
833.16	3253
833.299	3302
833.437	3389
833.576	3348
833.714	3447
833.852	3469
833.991	3481
834.129	3447
834.267	3454
834.406	3393
834.544	3435
834.682	3431
834.821	3447
834.959	3545
835.097	3447
835.235	3553
835.373	3447
835.511	3568
835.65	3466
835.788	3523
835.926	3401
836.064	3409
836.202	3450
836.34	3618
836.478	3633
836.615	3557
836.753	3606
836.891	3667
837.029	3603
837.167	3595
837.305	3561
837.443	3519
837.58	3545
837.718	3641
837.856	3572
837.993	3591
838.131	3595
838.269	3595
838.406	3625
838.544	3568
838.681	3496
838.819	3477
838.956	3401
839.094	3431
839.231	3473
839.369	3496
839.506	3789
839.643	3629
839.781	3530
839.918	3523
840.055	3564
840.193	3553
840.33	3542
840.467	3580
840.604	3625
840.742	3808
840.879	3549
841.016	3568
841.153	3641
841.29	3804
841.427	3709
841.564	3717
841.701	3751
841.838	3690
841.975	3709
842.112	3675
842.249	3667
842.385	3675
842.522	3857
842.659	3720
842.796	3701
842.933	3720
843.069	3671
843.206	3690
843.343	3827
843.479	3812
843.616	3831
843.752	3679
843.889	3728
844.025	3876
844.162	3720
844.298	3857
844.435	3797
844.571	3762
844.708	3960
844.844	4032
844.98	4048
845.117	4036
845.253	3960
845.389	3903
845.525	3934
845.661	3964
845.798	3930
845.934	4013
846.07	3972
846.206	4112
846.342	4185
846.478	4082
846.614	3972
846.75	3987
846.886	3930
847.022	4063
847.158	4010
847.294	4059
847.429	4074
847.565	3979
847.701	4234
847.837	3907
847.972	3888
848.108	3972
848.244	4006
848.379	3865
848.515	3865
848.65	3819
848.786	3854
848.921	3903
849.057	3991
849.192	3991
849.328	3884
849.463	3926
849.598	3911
849.734	3869
849.869	3857
850.004	3819
850.14	3823
850.275	3789
850.41	3705
850.545	3793
850.68	3781
850.815	3812
850.95	3800
851.085	3934
851.22	3926
851.355	3831
851.49	3804
851.625	3762
851.76	3800
851.895	3755
852.03	3781
852.165	3827
852.299	3819
852.434	3884
852.569	3846
852.703	3896
852.838	3956
852.973	4021
853.107	4044
853.242	3884
853.376	3869
853.511	3762
853.645	3846
853.78	4032
853.914	3911
854.048	3892
854.183	3903
854.317	3915
854.451	4078
854.585	4010
854.72	3941
854.854	4074
854.988	3960
855.122	4002
855.256	3926
855.39	4055
855.524	4093
855.658	4090
855.792	4158
855.926	4135
856.06	4185
856.194	4181
856.327	4143
856.461	4204
856.595	4192
856.729	4188
856.862	4337
856.996	4238
857.13	4306
857.263	4379
857.397	4398
857.53	4284
857.664	4405
857.797	4413
857.931	4394
858.064	4398
858.197	4451
858.331	4375
858.464	4413
858.597	4394
858.731	4462
858.864	4466
858.997	4485
859.13	4527
859.263	4550
859.396	4611
859.529	4500
859.662	4508
859.795	4573
859.928	4630
860.061	4729
860.194	4767
860.327	4691
860.46	4649
860.592	4759
860.725	4812
860.858	4828
860.99	4691
861.123	4683
861.256	4725
861.388	4805
861.521	5539
861.653	4752
861.786	4717
861.918	4721
862.05	4828
862.183	4850
862.315	4889
862.447	4972
862.58	4923
862.712	4782
862.844	4820
862.976	4908
863.108	4919
863.24	5212
863.372	4843
863.504	4896
863.636	4889
863.768	4957
863.9	4987
864.032	4904
864.164	4938
864.296	5052
864.428	5094
864.559	5102
864.691	5094
864.823	5113
864.954	5147
865.086	5128
865.217	5132
865.349	5140
865.48	5143
865.612	5250
865.743	5280
865.875	5227
866.006	5181
866.137	5246
866.269	5201
866.4	5269
866.531	5223
866.662	5239
866.793	5292
866.924	5280
867.055	5322
867.186	5364
867.317	5398
867.448	5265
867.579	5383
867.71	5395
867.841	5349
867.972	5490
868.103	5512
868.233	5520
868.364	5509
868.495	5509
868.625	5714
868.756	5817
868.886	5642
869.017	5805
869.147	5817
869.278	5859
869.408	5844
869.539	5840
869.669	5958
869.799	5939
869.929	6019
870.06	6064
870.19	6213
870.32	6232
870.45	6361
870.58	6391
870.71	6486
870.84	6490
870.97	6391
871.1	6437
871.23	6662
871.36	6711
871.489	6700
871.619	6738
871.749	6848
871.879	6905
872.008	7012
872.138	6939
872.267	7072
872.397	7015
872.526	7053
872.656	7118
872.785	7209
872.915	7308
873.044	7559
873.173	7594
873.303	7677
873.432	7780
873.561	7837
873.69	7898
873.819	7997
873.948	8134
874.077	8263
874.206	8305
874.335	8476
874.464	8648
874.593	8834
874.722	8941
874.851	9157
874.979	9245
875.108	9416
875.237	9428
875.365	9488
875.494	9663
875.623	9812
875.751	9808
875.88	9991
876.008	10219
876.136	10352
876.265	10478
876.393	10664
876.521	10786
876.65	10778
876.778	10900
876.906	10965
877.034	11006
877.162	11124
877.29	11189
877.418	11311
877.546	11429
877.674	11429
877.802	11501
877.93	11573
878.058	11532
878.185	11623
878.313	11668
878.441	11737
878.568	11729
878.696	11760
878.824	11878
878.951	11999
879.079	12041
879.206	12190
879.333	12038
879.461	11969
879.588	12117
879.715	12053
879.842	12266
879.97	12053
880.097	11920
880.224	11904
880.351	11901
880.478	11904
880.605	11882
880.732	11748
880.859	12007
880.986	11843
881.112	11809
881.239	11760
881.366	11653
881.493	11646
881.619	11535
881.746	11680
881.872	11570
881.999	11478
882.125	11551
882.252	11482
882.378	11501
882.505	11611
882.631	11280
882.757	11284
882.883	11406
883.01	11261
883.136	11162
883.262	11113
883.388	11098
883.514	11296
883.64	11174
883.766	11128
883.892	10999
884.018	10968
884.143	11052
884.269	11079
884.395	10835
884.52	10740
884.646	10721
884.772	10687
884.897	10717
885.023	10710
885.148	10729
885.274	10812
885.399	10656
885.524	10645
885.65	10752
885.775	10656
885.9	10519
886.025	10679
886.15	10588
886.275	10542
886.4	10360
886.525	10455
886.65	10390
886.775	10363
886.9	10440
887.025	10599
887.149	10398
887.274	10215
887.399	10158
887.523	10207
887.648	10169
887.773	10116
887.897	10147
888.021	10284
888.146	10192
888.27	10219
888.395	10196
888.519	10162
888.643	10162
888.767	10150
888.891	10082
889.015	10010
889.139	10040
889.263	9987
889.387	10090
889.511	10139
889.635	10051
889.759	10013
889.883	9975
890.006	9994
890.13	10082
890.254	9998
890.377	10044
890.501	9838
890.624	9884
890.748	9911
890.871	9766
890.995	9770
891.118	9720
891.241	9762
891.364	9736
891.488	9835
891.611	9808
891.734	9793
891.857	9861
891.98	9781
892.103	9717
892.226	9747
892.349	9660
892.471	9526
892.594	9595
892.717	9606
892.839	9641
892.962	9553
893.085	9671
893.207	9675
893.33	9542
893.452	9561
893.575	9690
893.697	9507
893.819	9587
893.941	9625
894.064	9572
894.186	9469
894.308	9428
894.43	9526
894.552	9576
894.674	9511
894.796	9389
894.918	9416
895.04	9389
895.161	9351
895.283	9325
895.405	9317
895.526	9279
895.648	9313
895.769	9310
895.891	9302
896.012	9336
896.134	9253
896.255	9218
896.376	9066
896.498	9135
896.619	9146
896.74	9112
896.861	9119
896.982	9237
897.103	9370
897.224	9150
897.345	9058
897.466	9085
897.587	9039
897.708	9070
897.828	9039
897.949	8982
898.07	8876
898.19	8944
898.311	9009
898.431	8986
898.552	8857
898.672	8960
898.792	8979
898.913	8944
899.033	8830
899.153	8720
899.273	8682
899.393	8766
899.513	8758
899.633	8815
899.753	8834
899.873	8769
899.993	8815
900.113	8693
900.232	8766
900.352	8648
900.472	8583
900.591	8629
900.711	8640
900.83	8530
900.95	8686
901.069	8663
901.189	8564
901.308	8495
901.427	8461
901.546	8412
901.665	8507
901.784	8522
901.904	8412
902.023	8412
902.141	8191
902.26	8240
902.379	8339
902.498	8259
902.617	8218
902.735	8317
902.854	8263
902.973	8248
903.091	8119
903.21	8195
903.328	8149
903.446	8149
903.565	8092
903.683	8134
903.801	8103
903.919	8172
904.038	8161
904.156	8058
904.274	8077
904.392	8016
904.51	8062
904.627	8054
904.745	8100
904.863	8149
904.981	7921
905.098	7963
905.216	7921
905.334	7879
905.451	7906
905.569	7860
905.686	7951
905.803	7913
905.921	7784
906.038	7841
906.155	7856
906.272	7723
906.389	7803
906.506	7624
906.623	7624
906.74	7590
906.857	7578
906.974	7544
907.091	7632
907.208	7715
907.324	7613
907.441	7575
907.557	7449
907.674	7426
907.79	7373
907.907	7396
908.023	7419
908.139	7411
908.256	7396
908.372	7362
908.488	7331
908.604	7259
908.72	7266
908.836	7324
908.952	7263
909.068	7324
909.184	7301
909.3	7255
909.415	7388
909.531	7259
909.647	7076
909.762	7095
909.878	7069
909.993	7118
910.108	7110
910.224	7103
910.339	7122
910.454	7046
910.57	6981
910.685	6981
910.8	7228
910.915	7061
911.03	7031
911.145	6924
911.259	6852
911.374	6829
911.489	6795
911.604	6814
911.718	6684
911.833	6768
911.947	6650
912.062	6681
912.176	6719
912.291	6741
912.405	6722
912.519	6798
912.633	6848
912.748	6757
912.862	6791
912.976	6681
913.09	6582
913.204	6582
913.318	6658
913.431	6692
913.545	6650
913.659	6707
913.772	6650
913.886	6631
914	6589
914.113	6612
914.226	6707
914.34	6631
914.453	6521
914.566	6642
914.68	6578
914.793	6570
914.906	6422
915.019	6353
915.132	6388
915.245	6460
915.358	6452
915.47	6494
915.583	6399
915.696	6448
915.809	6528
915.921	6551
916.034	6426
916.146	6414
916.259	6376
916.371	6460
916.483	6509
916.595	6509
916.708	6448
916.82	6479
916.932	6422
917.044	6369
917.156	6410
917.268	6353
917.38	6384
917.491	6369
917.603	6395
917.715	6460
917.826	6429
917.938	6331
918.049	6209
918.161	6376
918.272	6437
918.384	6486
918.495	6369
918.606	6315
918.717	6273
918.828	6308
918.939	6220
919.05	6182
919.161	6296
919.272	6106
919.383	6178
919.494	6331
919.604	6429
919.715	6308
919.826	6247
919.936	6243
920.047	6391
920.157	6277
920.267	6418
920.378	6350
920.488	6319
920.598	6506
920.708	6616
920.818	6486
920.928	6471
921.038	6620
921.148	6570
921.258	6334
921.368	6292
921.477	6228
921.587	6175
921.697	6087
921.806	6182
921.916	6091
922.025	5980
922.134	5939
922.244	5965
922.353	5965
922.462	5817
922.571	5855
922.68	5752
922.789	5688
922.898	5748
923.007	5627
923.116	5695
923.224	5684
923.333	5665
923.442	5627
923.55	5577
923.659	5608
923.767	5680
923.876	5535
923.984	5665
924.092	5509
924.201	5585
924.309	5543
924.417	5512
924.525	5490
924.633	5459
924.741	6098
924.849	5357
924.956	5509
925.064	5341
925.172	5299
925.279	5326
925.387	5391
925.494	5322
925.602	5398
925.709	5425
925.816	5265
925.924	5368
926.031	5353
926.138	5273
926.245	5368
926.352	5208
926.459	5322
926.566	5311
926.673	5197
926.779	5140
926.886	5162
926.993	5033
927.099	5025
927.206	5060
927.312	4953
927.419	5022
927.525	5006
927.631	4995
927.737	4915
927.843	4885
927.95	4793
928.056	4839
928.162	4824
928.267	4877
928.373	5357
928.479	4915
928.585	4706
928.69	4774
928.796	4835
928.901	4698
929.007	4577
929.112	4683
929.218	4653
929.323	4626
929.428	4588
929.533	4668
929.638	4489
929.743	4531
929.848	4550
929.953	4508
930.058	4432
930.163	4386
930.267	4333
930.372	4443
930.477	4333
930.581	4466
930.685	4360
930.79	4295
930.894	4276
930.998	4287
931.103	4394
931.207	4147
931.311	4071
931.415	4017
931.519	3911
931.623	3987
