Data from glass_V78500241_2132.txt Node
Date: Wed Sep 01 19:29:16 CST 2021
User: usil
Spectrometer: V785-0024
Trigger mode: 0
Integration Time (sec): 4.000000E-1
Scans to average: 1
Nonlinearity correction enabled: false
Boxcar width: 0
Storing dark spectrum: false
XAxis mode: Wavelengths
Number of Pixels in Spectrum: 1024
>>>>>Begin Spectral Data<<<<<
801.071	3732
801.214	3743
801.356	3720
801.499	3686
801.641	3720
801.783	3766
801.926	3857
802.068	3804
802.211	3857
802.353	3873
802.496	3816
802.638	3884
802.78	3884
802.923	3896
803.065	3892
803.208	3846
803.35	3842
803.492	3876
803.635	3854
803.777	3800
803.919	3880
804.061	4131
804.204	3949
804.346	3934
804.488	3907
804.63	4067
804.773	3975
804.915	4025
805.057	4105
805.199	4006
805.341	4082
805.483	4181
805.626	4078
805.768	4124
805.91	4188
806.052	4177
806.194	4211
806.336	4325
806.478	4200
806.62	4219
806.762	4188
806.904	4230
807.046	4318
807.188	4204
807.33	4166
807.472	4207
807.614	4177
807.756	4272
807.898	4272
808.04	4234
808.182	4318
808.324	4363
808.465	4371
808.607	4447
808.749	4436
808.891	4402
809.033	4504
809.174	4413
809.316	4196
809.458	4249
809.6	4078
809.741	4063
809.883	4131
810.025	4192
810.166	4230
810.308	4207
810.45	4246
810.591	4207
810.733	4291
810.875	4516
811.016	4820
811.158	5117
811.299	5273
811.441	5303
811.582	5067
811.724	4687
811.865	4462
812.007	4462
812.148	4470
812.29	4398
812.431	4398
812.573	4409
812.714	4356
812.855	4379
812.997	4398
813.138	4474
813.279	4352
813.421	4383
813.562	4386
813.703	4337
813.845	4329
813.986	4265
814.127	4238
814.268	4257
814.41	4249
814.551	4295
814.692	4276
814.833	4246
814.974	4268
815.115	4295
815.256	4246
815.397	4207
815.539	4249
815.68	4124
815.821	4246
815.962	4314
816.103	4272
816.244	4265
816.385	4230
816.526	4242
816.666	4230
816.807	4139
816.948	4154
817.089	4169
817.23	4181
817.371	4059
817.512	4067
817.653	4078
817.793	4090
817.934	4017
818.075	4067
818.216	4143
818.356	4063
818.497	3968
818.638	3907
818.778	3903
818.919	3876
819.06	3838
819.2	3941
819.341	3869
819.481	3846
819.622	3880
819.762	4021
819.903	3949
820.043	3800
820.184	3857
820.324	3831
820.465	3850
820.605	3831
820.746	3888
820.886	3785
821.026	3941
821.167	3949
821.307	3945
821.447	3998
821.588	3956
821.728	3880
821.868	3937
822.008	3838
822.149	3911
822.289	3922
822.429	3793
822.569	3759
822.709	3827
822.849	3663
822.99	3701
823.13	3759
823.27	3751
823.41	3724
823.55	3732
823.69	3728
823.83	3755
823.97	3656
824.11	3603
824.25	3603
824.389	3606
824.529	3667
824.669	3587
824.809	3705
824.949	3785
825.089	3724
825.228	3660
825.368	3568
825.508	3561
825.648	3545
825.787	3595
825.927	3584
826.067	3610
826.206	3682
826.346	3785
826.485	3797
826.625	3842
826.765	3922
826.904	3831
827.044	3603
827.183	3553
827.323	3443
827.462	3496
827.601	3439
827.741	3412
827.88	3469
828.02	3336
828.159	3424
828.298	3481
828.437	3534
828.577	3469
828.716	3572
828.855	3492
828.994	3374
829.134	3351
829.273	3397
829.412	3313
829.551	3351
829.69	3378
829.829	3428
829.968	3507
830.107	3389
830.246	3447
830.385	3420
830.524	3348
830.663	3317
830.802	3287
830.941	3218
831.08	3222
831.219	3230
831.357	3245
831.496	3370
831.635	3256
831.774	3184
831.913	3188
832.051	3127
832.19	3161
832.329	3169
832.467	3150
832.606	3112
832.744	3176
832.883	3165
833.022	3192
833.16	3226
833.299	3260
833.437	3351
833.576	3359
833.714	3397
833.852	3443
833.991	3439
834.129	3469
834.267	3431
834.406	3420
834.544	3424
834.682	3416
834.821	3439
834.959	3500
835.097	3412
835.235	3545
835.373	3450
835.511	3469
835.65	3454
835.788	3466
835.926	3386
836.064	3378
836.202	3412
836.34	3576
836.478	3610
836.615	3469
836.753	3595
836.891	3591
837.029	3568
837.167	3591
837.305	3606
837.443	3580
837.58	3504
837.718	3568
837.856	3568
837.993	3553
838.131	3644
838.269	3542
838.406	3606
838.544	3576
838.681	3488
838.819	3473
838.956	3344
839.094	3389
839.231	3382
839.369	3481
839.506	3694
839.643	3622
839.781	3488
839.918	3412
840.055	3526
840.193	3557
840.33	3492
840.467	3557
840.604	3633
840.742	3762
840.879	3564
841.016	3568
841.153	3584
841.29	3736
841.427	3709
841.564	3732
841.701	3705
841.838	3724
841.975	3675
842.112	3713
842.249	3618
842.385	3633
842.522	3812
842.659	3675
842.796	3641
842.933	3717
843.069	3717
843.206	3698
843.343	3804
843.479	3778
843.616	3812
843.752	3667
843.889	3698
844.025	3884
844.162	3705
844.298	3812
844.435	3789
844.571	3747
844.708	3857
844.844	3956
844.98	4025
845.117	4044
845.253	3922
845.389	3907
845.525	3934
845.661	3941
845.798	3937
845.934	4025
846.07	3960
846.206	4032
846.342	4105
846.478	4036
846.614	3964
846.75	3937
846.886	3915
847.022	4071
847.158	3979
847.294	3960
847.429	3991
847.565	4013
847.701	4230
847.837	3850
847.972	3850
848.108	3979
848.244	3949
848.379	3857
848.515	3819
848.65	3816
848.786	3846
848.921	3903
849.057	3915
849.192	3899
849.328	3835
849.463	3831
849.598	3899
849.734	3861
849.869	3854
850.004	3770
850.14	3827
850.275	3759
850.41	3762
850.545	3751
850.68	3751
850.815	3759
850.95	3778
851.085	3892
851.22	3869
851.355	3823
851.49	3797
851.625	3800
851.76	3762
851.895	3694
852.03	3732
852.165	3800
852.299	3835
852.434	3953
852.569	3865
852.703	3842
852.838	3964
852.973	4021
853.107	3972
853.242	3896
853.376	3838
853.511	3690
853.645	3850
853.78	3979
853.914	3880
854.048	3869
854.183	3808
854.317	3941
854.451	4040
854.585	3975
854.72	3899
854.854	4109
854.988	3911
855.122	3987
855.256	3907
855.39	4032
855.524	4112
855.658	4105
855.792	4063
855.926	4150
856.06	4177
856.194	4177
856.327	4109
856.461	4074
856.595	4192
856.729	4166
856.862	4272
856.996	4261
857.13	4295
857.263	4303
857.397	4348
857.53	4261
857.664	4356
857.797	4371
857.931	4390
858.064	4363
858.197	4417
858.331	4470
858.464	4405
858.597	4348
858.731	4428
858.864	4443
858.997	4474
859.13	4497
859.263	4489
859.396	4550
859.529	4470
859.662	4500
859.795	4550
859.928	4538
860.061	4694
860.194	4736
860.327	4679
860.46	4622
860.592	4702
860.725	4733
860.858	4771
860.99	4706
861.123	4691
861.256	4679
861.388	4767
861.521	5448
861.653	4702
861.786	4755
861.918	4771
862.05	4782
862.183	4793
862.315	4850
862.447	4949
862.58	4881
862.712	4793
862.844	4778
862.976	4858
863.108	4885
863.24	5223
863.372	4831
863.504	4900
863.636	4873
863.768	4968
863.9	4946
864.032	4881
864.164	4927
864.296	5029
864.428	5075
864.559	5056
864.691	5124
864.823	5128
864.954	5113
865.086	5105
865.217	5121
865.349	5083
865.48	5170
865.612	5140
865.743	5303
865.875	5185
866.006	5212
866.137	5242
866.269	5201
866.4	5220
866.531	5204
866.662	5242
866.793	5322
866.924	5296
867.055	5326
867.186	5349
867.317	5307
867.448	5303
867.579	5402
867.71	5387
867.841	5406
867.972	5425
868.103	5452
868.233	5490
868.364	5467
868.495	5547
868.625	5684
868.756	5779
868.886	5665
869.017	5756
869.147	5836
869.278	5817
869.408	5798
869.539	5786
869.669	5904
869.799	5977
869.929	5939
870.06	6057
870.19	6148
870.32	6213
870.45	6254
870.58	6342
870.71	6388
870.84	6448
870.97	6407
871.1	6414
871.23	6631
871.36	6692
871.489	6635
871.619	6772
871.749	6741
871.879	6802
872.008	6939
872.138	6985
872.267	6951
872.397	6894
872.526	7042
872.656	7084
872.785	7228
872.915	7369
873.044	7510
873.173	7563
873.303	7670
873.432	7799
873.561	7925
873.69	7860
873.819	7986
873.948	8054
874.077	8176
874.206	8374
874.335	8434
874.464	8659
874.593	8842
874.722	8876
874.851	9123
874.979	9260
875.108	9367
875.237	9454
875.365	9473
875.494	9614
875.623	9781
875.751	9819
875.88	9949
876.008	10196
876.136	10318
876.265	10451
876.393	10683
876.521	10759
876.65	10790
876.778	10854
876.906	10908
877.034	10934
877.162	11090
877.29	11075
877.418	11254
877.546	11356
877.674	11444
877.802	11414
877.93	11444
878.058	11509
878.185	11524
878.313	11615
878.441	11718
878.568	11688
878.696	11798
878.824	11809
878.951	11950
879.079	11958
879.206	12125
879.333	12117
879.461	11984
879.588	12060
879.715	12095
879.842	12239
879.97	12034
880.097	11885
880.224	11859
880.351	11851
880.478	11927
880.605	11741
880.732	11786
880.859	11992
880.986	11870
881.112	11828
881.239	11756
881.366	11661
881.493	11748
881.619	11520
881.746	11509
881.872	11509
881.999	11539
882.125	11558
882.252	11566
882.378	11577
882.505	11558
882.631	11315
882.757	11280
882.883	11261
883.01	11181
883.136	11296
883.262	11170
883.388	11010
883.514	11113
883.64	11185
883.766	11208
883.892	10968
884.018	10984
884.143	11025
884.269	11151
884.395	10869
884.52	10733
884.646	10801
884.772	10706
884.897	10668
885.023	10599
885.148	10797
885.274	10828
885.399	10759
885.524	10637
885.65	10531
885.775	10546
885.9	10550
886.025	10580
886.15	10478
886.275	10386
886.4	10390
886.525	10360
886.65	10371
886.775	10341
886.9	10504
887.025	10500
887.149	10367
887.274	10253
887.399	10173
887.523	10223
887.648	10124
887.773	10021
887.897	10284
888.021	10223
888.146	10086
888.27	10223
888.395	10169
888.519	10219
888.643	10128
888.767	10211
888.891	10101
889.015	9998
889.139	10048
889.263	9937
889.387	10185
889.511	10131
889.635	10017
889.759	10017
889.883	10032
890.006	10013
890.13	10055
890.254	9987
890.377	10017
890.501	9854
890.624	9797
890.748	9835
890.871	9835
890.995	9736
891.118	9724
891.241	9774
891.364	9770
891.488	9800
891.611	9728
891.734	9660
891.857	9759
891.98	9656
892.103	9717
892.226	9660
892.349	9679
892.471	9542
892.594	9542
892.717	9679
892.839	9561
892.962	9553
893.085	9622
893.207	9557
893.33	9530
893.452	9530
893.575	9618
893.697	9504
893.819	9519
893.941	9633
894.064	9587
894.186	9431
894.308	9405
894.43	9549
894.552	9561
894.674	9534
894.796	9332
894.918	9393
895.04	9230
895.161	9401
895.283	9382
895.405	9291
895.526	9253
895.648	9165
895.769	9222
895.891	9161
896.012	9294
896.134	9245
896.255	9188
896.376	9138
896.498	9135
896.619	9104
896.74	9119
896.861	9097
896.982	9241
897.103	9351
897.224	9161
897.345	9024
897.466	9013
897.587	9005
897.708	9028
897.828	9001
897.949	8929
898.07	8876
898.19	8872
898.311	8986
898.431	8921
898.552	8956
898.672	9013
898.792	8971
898.913	8910
899.033	8769
899.153	8750
899.273	8667
899.393	8701
899.513	8807
899.633	8663
899.753	8724
899.873	8670
899.993	8708
900.113	8670
900.232	8689
900.352	8659
900.472	8587
900.591	8499
900.711	8590
900.83	8499
900.95	8602
901.069	8613
901.189	8556
901.308	8484
901.427	8298
901.546	8434
901.665	8503
901.784	8457
901.904	8446
902.023	8324
902.141	8229
902.26	8210
902.379	8305
902.498	8187
902.617	8225
902.735	8309
902.854	8282
902.973	8214
903.091	8043
903.21	8168
903.328	8126
903.446	8138
903.565	8103
903.683	8180
903.801	8027
903.919	8123
904.038	8134
904.156	8039
904.274	8084
904.392	7967
904.51	8031
904.627	8031
904.745	8103
904.863	8092
904.981	7909
905.098	7860
905.216	7883
905.334	7902
905.451	7925
905.569	7913
905.686	7879
905.803	7944
905.921	7738
906.038	7849
906.155	7769
906.272	7700
906.389	7734
906.506	7575
906.623	7620
906.74	7636
906.857	7506
906.974	7582
907.091	7624
907.208	7647
907.324	7594
907.441	7483
907.557	7403
907.674	7445
907.79	7346
907.907	7377
908.023	7441
908.139	7438
908.256	7312
908.372	7327
908.488	7354
908.604	7247
908.72	7236
908.836	7263
908.952	7179
909.068	7198
909.184	7274
909.3	7168
909.415	7289
909.531	7190
909.647	7126
909.762	7160
909.878	7053
909.993	7095
910.108	7107
910.224	7133
910.339	7114
910.454	6989
910.57	7034
910.685	6977
910.8	7141
910.915	7053
911.03	6996
911.145	6905
911.259	6867
911.374	6886
911.489	6821
911.604	6760
911.718	6719
911.833	6779
911.947	6574
912.062	6623
912.176	6677
912.291	6677
912.405	6757
912.519	6745
912.633	6825
912.748	6760
912.862	6639
912.976	6574
913.09	6536
913.204	6578
913.318	6608
913.431	6673
913.545	6654
913.659	6726
913.772	6585
913.886	6559
914	6551
914.113	6665
914.226	6684
914.34	6574
914.453	6456
914.566	6631
914.68	6521
914.793	6509
914.906	6391
915.019	6407
915.132	6372
915.245	6376
915.358	6384
915.47	6410
915.583	6448
915.696	6525
915.809	6544
915.921	6589
916.034	6452
916.146	6403
916.259	6304
916.371	6441
916.483	6475
916.595	6403
916.708	6448
916.82	6384
916.932	6403
917.044	6334
917.156	6369
917.268	6262
917.38	6304
917.491	6350
917.603	6289
917.715	6391
917.826	6418
917.938	6319
918.049	6201
918.161	6285
918.272	6429
918.384	6445
918.495	6365
918.606	6251
918.717	6235
918.828	6285
918.939	6323
919.05	6209
919.161	6190
919.272	6110
919.383	6121
919.494	6315
919.604	6429
919.715	6273
919.826	6216
919.936	6247
920.047	6331
920.157	6228
920.267	6456
920.378	6308
920.488	6270
920.598	6429
920.708	6540
920.818	6498
920.928	6437
921.038	6608
921.148	6555
921.258	6346
921.368	6308
921.477	6171
921.587	6186
921.697	6079
921.806	6220
921.916	6076
922.025	5923
922.134	5882
922.244	5836
922.353	5942
922.462	5824
922.571	5802
922.68	5691
922.789	5703
922.898	5741
923.007	5672
923.116	5646
923.224	5642
923.333	5672
923.442	5573
923.55	5551
923.659	5562
923.767	5604
923.876	5551
923.984	5585
924.092	5452
924.201	5539
924.309	5463
924.417	5551
924.525	5543
924.633	5505
924.741	6251
924.849	5391
924.956	5509
925.064	5376
925.172	5311
925.279	5311
925.387	5395
925.494	5372
925.602	5398
925.709	5406
925.816	5265
925.924	5299
926.031	5364
926.138	5269
926.245	5341
926.352	5235
926.459	5307
926.566	5284
926.673	5178
926.779	5136
926.886	5155
926.993	5003
927.099	4984
927.206	4972
927.312	4934
927.419	5006
927.525	4987
927.631	4995
927.737	4904
927.843	4858
927.95	4782
928.056	4847
928.162	4820
928.267	4866
928.373	5288
928.479	4900
928.585	4691
928.69	4725
928.796	4797
928.901	4698
929.007	4565
929.112	4656
929.218	4675
929.323	4569
929.428	4558
929.533	4675
929.638	4485
929.743	4550
929.848	4531
929.953	4466
930.058	4443
930.163	4314
930.267	4341
930.372	4424
930.477	4284
930.581	4421
930.685	4352
930.79	4284
930.894	4242
930.998	4246
931.103	4333
931.207	4090
931.311	4120
931.415	4017
931.519	3911
931.623	3888
