Data from glass_V78500241_861.txt Node
Date: Wed Sep 01 19:20:28 CST 2021
User: usil
Spectrometer: V785-0024
Trigger mode: 0
Integration Time (sec): 4.000000E-1
Scans to average: 1
Nonlinearity correction enabled: false
Boxcar width: 0
Storing dark spectrum: false
XAxis mode: Wavelengths
Number of Pixels in Spectrum: 1024
>>>>>Begin Spectral Data<<<<<
801.071	3759
801.214	3785
801.356	3743
801.499	3766
801.641	3740
801.783	3778
801.926	3884
802.068	3789
802.211	3846
802.353	3873
802.496	3827
802.638	3888
802.78	3888
802.923	3949
803.065	3896
803.208	3846
803.35	3907
803.492	3930
803.635	3915
803.777	3827
803.919	3930
804.061	4143
804.204	3979
804.346	4021
804.488	3888
804.63	4025
804.773	4017
804.915	4010
805.057	4090
805.199	4059
805.341	4078
805.483	4105
805.626	4120
805.768	4154
805.91	4242
806.052	4287
806.194	4211
806.336	4333
806.478	4207
806.62	4173
806.762	4219
806.904	4265
807.046	4348
807.188	4230
807.33	4188
807.472	4207
807.614	4188
807.756	4272
807.898	4291
808.04	4223
808.182	4299
808.324	4314
808.465	4394
808.607	4470
808.749	4459
808.891	4451
809.033	4500
809.174	4390
809.316	4261
809.458	4280
809.6	4204
809.741	4166
809.883	4135
810.025	4227
810.166	4234
810.308	4299
810.45	4253
810.591	4276
810.733	4291
810.875	4523
811.016	4858
811.158	5121
811.299	5250
811.441	5288
811.582	5067
811.724	4694
811.865	4500
812.007	4489
812.148	4466
812.29	4436
812.431	4390
812.573	4379
812.714	4405
812.855	4367
812.997	4428
813.138	4485
813.279	4447
813.421	4398
813.562	4379
813.703	4329
813.845	4341
813.986	4284
814.127	4204
814.268	4291
814.41	4337
814.551	4223
814.692	4356
814.833	4284
814.974	4318
815.115	4272
815.256	4238
815.397	4268
815.539	4284
815.68	4215
815.821	4188
815.962	4261
816.103	4322
816.244	4242
816.385	4230
816.526	4280
816.666	4238
816.807	4097
816.948	4188
817.089	4196
817.23	4124
817.371	4032
817.512	4101
817.653	4074
817.793	4025
817.934	4021
818.075	4120
818.216	4131
818.356	4093
818.497	4010
818.638	3903
818.778	3926
818.919	3899
819.06	3892
819.2	3873
819.341	3888
819.481	3827
819.622	3930
819.762	3983
819.903	3968
820.043	3838
820.184	3869
820.324	3823
820.465	3926
820.605	3854
820.746	3907
820.886	3808
821.026	3949
821.167	3911
821.307	3987
821.447	3998
821.588	3930
821.728	3926
821.868	3911
822.008	3896
822.149	3907
822.289	3911
822.429	3838
822.569	3766
822.709	3789
822.849	3682
822.99	3751
823.13	3736
823.27	3789
823.41	3755
823.55	3736
823.69	3751
823.83	3747
823.97	3701
824.11	3660
824.25	3606
824.389	3663
824.529	3679
824.669	3610
824.809	3709
824.949	3743
825.089	3743
825.228	3732
825.368	3576
825.508	3584
825.648	3584
825.787	3614
825.927	3614
826.067	3633
826.206	3679
826.346	3804
826.485	3854
826.625	3880
826.765	3960
826.904	3888
827.044	3603
827.183	3561
827.323	3450
827.462	3462
827.601	3431
827.741	3424
827.88	3435
828.02	3401
828.159	3447
828.298	3500
828.437	3507
828.577	3485
828.716	3625
828.855	3488
828.994	3374
829.134	3359
829.273	3401
829.412	3340
829.551	3382
829.69	3363
829.829	3458
829.968	3553
830.107	3454
830.246	3450
830.385	3428
830.524	3340
830.663	3317
830.802	3237
830.941	3218
831.08	3222
831.219	3283
831.357	3260
831.496	3409
831.635	3222
831.774	3195
831.913	3207
832.051	3142
832.19	3165
832.329	3195
832.467	3123
832.606	3108
832.744	3176
832.883	3192
833.022	3222
833.16	3233
833.299	3325
833.437	3332
833.576	3351
833.714	3382
833.852	3443
833.991	3462
834.129	3492
834.267	3454
834.406	3386
834.544	3420
834.682	3405
834.821	3401
834.959	3564
835.097	3443
835.235	3549
835.373	3469
835.511	3500
835.65	3485
835.788	3530
835.926	3428
836.064	3397
836.202	3401
836.34	3591
836.478	3652
836.615	3538
836.753	3595
836.891	3663
837.029	3682
837.167	3637
837.305	3622
837.443	3530
837.58	3515
837.718	3610
837.856	3549
837.993	3568
838.131	3644
838.269	3587
838.406	3564
838.544	3564
838.681	3481
838.819	3473
838.956	3363
839.094	3412
839.231	3458
839.369	3557
839.506	3732
839.643	3637
839.781	3488
839.918	3485
840.055	3553
840.193	3553
840.33	3530
840.467	3557
840.604	3614
840.742	3823
840.879	3557
841.016	3606
841.153	3637
841.29	3778
841.427	3705
841.564	3690
841.701	3759
841.838	3713
841.975	3686
842.112	3724
842.249	3637
842.385	3641
842.522	3846
842.659	3724
842.796	3724
842.933	3720
843.069	3751
843.206	3724
843.343	3793
843.479	3846
843.616	3861
843.752	3675
843.889	3690
844.025	3854
844.162	3743
844.298	3888
844.435	3819
844.571	3778
844.708	3899
844.844	3972
844.98	3994
845.117	3979
845.253	3934
845.389	3945
845.525	3956
845.661	4006
845.798	3918
845.934	4044
846.07	3975
846.206	4109
846.342	4166
846.478	4074
846.614	4021
846.75	3960
846.886	3915
847.022	4025
847.158	4021
847.294	4071
847.429	4044
847.565	4032
847.701	4242
847.837	3876
847.972	3865
848.108	4010
848.244	3964
848.379	3869
848.515	3854
848.65	3835
848.786	3876
848.921	3915
849.057	3915
849.192	3972
849.328	3941
849.463	3949
849.598	3873
849.734	3846
849.869	3823
850.004	3827
850.14	3842
850.275	3804
850.41	3751
850.545	3724
850.68	3823
850.815	3785
850.95	3800
851.085	3994
851.22	3808
851.355	3857
851.49	3808
851.625	3816
851.76	3819
851.895	3751
852.03	3736
852.165	3835
852.299	3857
852.434	3876
852.569	3876
852.703	3896
852.838	3937
852.973	4029
853.107	3987
853.242	3945
853.376	3850
853.511	3804
853.645	3846
853.78	3972
853.914	3869
854.048	3888
854.183	3846
854.317	3953
854.451	4097
854.585	3949
854.72	3953
854.854	4071
854.988	3960
855.122	4040
855.256	3918
855.39	4040
855.524	4143
855.658	4135
855.792	4112
855.926	4128
856.06	4200
856.194	4253
856.327	4143
856.461	4154
856.595	4166
856.729	4223
856.862	4291
856.996	4249
857.13	4363
857.263	4363
857.397	4341
857.53	4310
857.664	4375
857.797	4390
857.931	4440
858.064	4367
858.197	4459
858.331	4394
858.464	4405
858.597	4367
858.731	4386
858.864	4451
858.997	4432
859.13	4508
859.263	4577
859.396	4580
859.529	4516
859.662	4577
859.795	4573
859.928	4596
860.061	4706
860.194	4755
860.327	4641
860.46	4634
860.592	4752
860.725	4752
860.858	4797
860.99	4679
861.123	4649
861.256	4660
861.388	4767
861.521	5402
861.653	4744
861.786	4767
861.918	4748
862.05	4816
862.183	4816
862.315	4847
862.447	4980
862.58	4900
862.712	4858
862.844	4797
862.976	4911
863.108	4877
863.24	5280
863.372	4831
863.504	4919
863.636	4892
863.768	4972
863.9	5014
864.032	4923
864.164	4995
864.296	5037
864.428	5090
864.559	5109
864.691	5064
864.823	5113
864.954	5117
865.086	5117
865.217	5086
865.349	5124
865.48	5143
865.612	5162
865.743	5368
865.875	5258
866.006	5208
866.137	5239
866.269	5223
866.4	5254
866.531	5235
866.662	5231
866.793	5296
866.924	5307
867.055	5303
867.186	5334
867.317	5337
867.448	5311
867.579	5414
867.71	5379
867.841	5383
867.972	5493
868.103	5467
868.233	5524
868.364	5528
868.495	5562
868.625	5649
868.756	5764
868.886	5680
869.017	5760
869.147	5882
869.278	5889
869.408	5809
869.539	5821
869.669	5870
869.799	5923
869.929	5969
870.06	6015
870.19	6125
870.32	6205
870.45	6289
870.58	6296
870.71	6437
870.84	6437
870.97	6471
871.1	6467
871.23	6601
871.36	6688
871.489	6719
871.619	6741
871.749	6810
871.879	6795
872.008	6973
872.138	6951
872.267	7050
872.397	6993
872.526	7103
872.656	7129
872.785	7175
872.915	7362
873.044	7506
873.173	7521
873.303	7655
873.432	7738
873.561	7894
873.69	7928
873.819	7951
873.948	8180
874.077	8279
874.206	8305
874.335	8396
874.464	8686
874.593	8899
874.722	8933
874.851	9127
874.979	9214
875.108	9447
875.237	9416
875.365	9504
875.494	9686
875.623	9800
875.751	9842
875.88	10067
876.008	10128
876.136	10284
876.265	10550
876.393	10641
876.521	10721
876.65	10843
876.778	10934
876.906	10877
877.034	11052
877.162	11162
877.29	11178
877.418	11410
877.546	11345
877.674	11444
877.802	11535
877.93	11539
878.058	11665
878.185	11566
878.313	11608
878.441	11726
878.568	11668
878.696	11783
878.824	11859
878.951	11889
879.079	12053
879.206	12095
879.333	12098
879.461	12060
879.588	12106
879.715	12072
879.842	12213
879.97	12087
880.097	11851
880.224	11893
880.351	11904
880.478	11828
880.605	11969
880.732	11855
880.859	11942
880.986	11821
881.112	11843
881.239	11748
881.366	11630
881.493	11691
881.619	11562
881.746	11619
881.872	11611
881.999	11482
882.125	11524
882.252	11589
882.378	11585
882.505	11577
882.631	11372
882.757	11379
882.883	11254
883.01	11280
883.136	11201
883.262	11102
883.388	11109
883.514	11174
883.64	11170
883.766	11090
883.892	10999
884.018	10987
884.143	11060
884.269	11162
884.395	10850
884.52	10759
884.646	10828
884.772	10729
884.897	10679
885.023	10672
885.148	10755
885.274	10714
885.399	10664
885.524	10611
885.65	10637
885.775	10710
885.9	10519
886.025	10599
886.15	10618
886.275	10459
886.4	10436
886.525	10478
886.65	10341
886.775	10394
886.9	10432
887.025	10569
887.149	10356
887.274	10238
887.399	10234
887.523	10177
887.648	10090
887.773	10139
887.897	10234
888.021	10291
888.146	10090
888.27	10139
888.395	10162
888.519	10158
888.643	10265
888.767	10204
888.891	10055
889.015	10002
889.139	10093
889.263	10101
889.387	10105
889.511	10090
889.635	10055
889.759	10048
889.883	9991
890.006	9968
890.13	10040
890.254	9930
890.377	9983
890.501	9846
890.624	9892
890.748	9892
890.871	9865
890.995	9751
891.118	9766
891.241	9781
891.364	9812
891.488	9869
891.611	9781
891.734	9736
891.857	9755
891.98	9682
892.103	9713
892.226	9728
892.349	9694
892.471	9519
892.594	9614
892.717	9530
892.839	9584
892.962	9580
893.085	9740
893.207	9599
893.33	9557
893.452	9473
893.575	9564
893.697	9515
893.819	9622
893.941	9641
894.064	9580
894.186	9428
894.308	9405
894.43	9545
894.552	9523
894.674	9431
894.796	9340
894.918	9378
895.04	9355
895.161	9382
895.283	9389
895.405	9325
895.526	9329
895.648	9268
895.769	9291
895.891	9256
896.012	9222
896.134	9275
896.255	9249
896.376	9199
896.498	9195
896.619	9119
896.74	9009
896.861	9081
896.982	9241
897.103	9313
897.224	9192
897.345	8967
897.466	9039
897.587	9077
897.708	9074
897.828	9131
897.949	8921
898.07	8899
898.19	8948
898.311	9005
898.431	8914
898.552	9039
898.672	9009
898.792	8948
898.913	8868
899.033	8804
899.153	8674
899.273	8686
899.393	8701
899.513	8731
899.633	8701
899.753	8773
899.873	8712
899.993	8724
900.113	8712
900.232	8823
900.352	8716
900.472	8663
900.591	8549
900.711	8655
900.83	8533
900.95	8640
901.069	8629
901.189	8568
901.308	8492
901.427	8385
901.546	8465
901.665	8412
901.784	8518
901.904	8454
902.023	8442
902.141	8256
902.26	8202
902.379	8263
902.498	8180
902.617	8199
902.735	8294
902.854	8218
902.973	8267
903.091	8081
903.21	8107
903.328	8100
903.446	8062
903.565	8164
903.683	8092
903.801	8069
903.919	8119
904.038	8153
904.156	8046
904.274	8084
904.392	8092
904.51	8046
904.627	8062
904.745	8073
904.863	8092
904.981	7944
905.098	7894
905.216	7913
905.334	7883
905.451	7921
905.569	7925
905.686	7955
905.803	7955
905.921	7788
906.038	7864
906.155	7845
906.272	7708
906.389	7746
906.506	7601
906.623	7670
906.74	7620
906.857	7506
906.974	7552
907.091	7655
907.208	7715
907.324	7628
907.441	7647
907.557	7537
907.674	7480
907.79	7415
907.907	7388
908.023	7388
908.139	7472
908.256	7388
908.372	7346
908.488	7362
908.604	7259
908.72	7259
908.836	7266
908.952	7289
909.068	7308
909.184	7403
909.3	7255
909.415	7320
909.531	7339
909.647	7118
909.762	7164
909.878	7122
909.993	7149
910.108	7072
910.224	7084
910.339	7095
910.454	7099
910.57	7065
910.685	6966
910.8	7202
910.915	7107
911.03	7027
911.145	6951
911.259	6954
911.374	6863
911.489	6844
911.604	6776
911.718	6719
911.833	6783
911.947	6658
912.062	6608
912.176	6646
912.291	6749
912.405	6684
912.519	6859
912.633	6848
912.748	6707
912.862	6662
912.976	6639
913.09	6544
913.204	6604
913.318	6608
913.431	6688
913.545	6692
913.659	6757
913.772	6650
913.886	6597
914	6517
914.113	6597
914.226	6616
914.34	6582
914.453	6490
914.566	6566
914.68	6536
914.793	6502
914.906	6384
915.019	6437
915.132	6464
915.245	6448
915.358	6437
915.47	6467
915.583	6464
915.696	6486
915.809	6559
915.921	6490
916.034	6433
916.146	6437
916.259	6429
916.371	6414
916.483	6475
916.595	6384
916.708	6426
916.82	6372
916.932	6410
917.044	6464
917.156	6407
917.268	6353
917.38	6346
917.491	6281
917.603	6372
917.715	6414
917.826	6426
917.938	6357
918.049	6266
918.161	6395
918.272	6452
918.384	6418
918.495	6342
918.606	6292
918.717	6182
918.828	6258
918.939	6270
919.05	6258
919.161	6262
919.272	6155
919.383	6209
919.494	6277
919.604	6452
919.715	6285
919.826	6201
919.936	6194
920.047	6338
920.157	6300
920.267	6452
920.378	6342
920.488	6338
920.598	6479
920.708	6570
920.818	6460
920.928	6490
921.038	6639
921.148	6585
921.258	6361
921.368	6311
921.477	6209
921.587	6175
921.697	6102
921.806	6239
921.916	6060
922.025	5984
922.134	5885
922.244	5889
922.353	6003
922.462	5904
922.571	5817
922.68	5748
922.789	5703
922.898	5703
923.007	5627
923.116	5714
923.224	5710
923.333	5649
923.442	5608
923.55	5577
923.659	5608
923.767	5653
923.876	5570
923.984	5596
924.092	5520
924.201	5543
924.309	5566
924.417	5646
924.525	5524
924.633	5452
924.741	6155
924.849	5368
924.956	5486
925.064	5360
925.172	5326
925.279	5326
925.387	5391
925.494	5376
925.602	5448
925.709	5410
925.816	5334
925.924	5303
926.031	5364
926.138	5349
926.245	5318
926.352	5227
926.459	5337
926.566	5334
926.673	5204
926.779	5174
926.886	5151
926.993	5060
927.099	5025
927.206	4980
927.312	4980
927.419	5006
927.525	4984
927.631	5014
927.737	4881
927.843	4885
927.95	4809
928.056	4828
928.162	4812
928.267	4858
928.373	5379
928.479	4911
928.585	4668
928.69	4793
928.796	4778
928.901	4698
929.007	4584
929.112	4660
929.218	4660
929.323	4615
929.428	4599
929.533	4725
929.638	4558
929.743	4573
929.848	4588
929.953	4508
930.058	4462
930.163	4325
930.267	4341
930.372	4440
930.477	4333
930.581	4508
930.685	4375
930.79	4227
930.894	4287
930.998	4196
931.103	4371
931.207	4181
931.311	4090
931.415	4044
931.519	3941
931.623	3953
