Data from glass_V78500241_1936.txt Node
Date: Wed Sep 01 19:27:55 CST 2021
User: usil
Spectrometer: V785-0024
Trigger mode: 0
Integration Time (sec): 4.000000E-1
Scans to average: 1
Nonlinearity correction enabled: false
Boxcar width: 0
Storing dark spectrum: false
XAxis mode: Wavelengths
Number of Pixels in Spectrum: 1024
>>>>>Begin Spectral Data<<<<<
801.071	3720
801.214	3804
801.356	3709
801.499	3785
801.641	3740
801.783	3778
801.926	3888
802.068	3831
802.211	3873
802.353	3899
802.496	3842
802.638	3873
802.78	3956
802.923	3918
803.065	3918
803.208	3831
803.35	3884
803.492	3907
803.635	3876
803.777	3819
803.919	3850
804.061	4109
804.204	3968
804.346	3972
804.488	3922
804.63	4051
804.773	3994
804.915	4048
805.057	4090
805.199	4017
805.341	4048
805.483	4112
805.626	4124
805.768	4120
805.91	4215
806.052	4196
806.194	4196
806.336	4310
806.478	4200
806.62	4188
806.762	4219
806.904	4211
807.046	4322
807.188	4211
807.33	4158
807.472	4242
807.614	4188
807.756	4265
807.898	4230
808.04	4181
808.182	4261
808.324	4344
808.465	4375
808.607	4455
808.749	4462
808.891	4481
809.033	4504
809.174	4394
809.316	4287
809.458	4238
809.6	4154
809.741	4143
809.883	4188
810.025	4230
810.166	4234
810.308	4223
810.45	4257
810.591	4242
810.733	4280
810.875	4535
811.016	4809
811.158	5056
811.299	5235
811.441	5261
811.582	5033
811.724	4645
811.865	4497
812.007	4462
812.148	4440
812.29	4424
812.431	4386
812.573	4394
812.714	4386
812.855	4371
812.997	4394
813.138	4512
813.279	4383
813.421	4383
813.562	4360
813.703	4344
813.845	4284
813.986	4219
814.127	4223
814.268	4257
814.41	4249
814.551	4268
814.692	4344
814.833	4238
814.974	4314
815.115	4371
815.256	4246
815.397	4230
815.539	4295
815.68	4215
815.821	4188
815.962	4306
816.103	4268
816.244	4215
816.385	4249
816.526	4291
816.666	4204
816.807	4143
816.948	4192
817.089	4158
817.23	4143
817.371	4055
817.512	4055
817.653	4055
817.793	4032
817.934	4071
818.075	4139
818.216	4078
818.356	4105
818.497	3972
818.638	3934
818.778	3907
818.919	3896
819.06	3899
819.2	3911
819.341	3869
819.481	3846
819.622	3873
819.762	3964
819.903	3964
820.043	3880
820.184	3789
820.324	3823
820.465	3869
820.605	3861
820.746	3850
820.886	3812
821.026	3922
821.167	3911
821.307	4010
821.447	3983
821.588	3934
821.728	3945
821.868	3899
822.008	3899
822.149	3884
822.289	3907
822.429	3774
822.569	3781
822.709	3793
822.849	3682
822.99	3732
823.13	3743
823.27	3785
823.41	3724
823.55	3717
823.69	3736
823.83	3743
823.97	3682
824.11	3625
824.25	3580
824.389	3648
824.529	3660
824.669	3610
824.809	3732
824.949	3755
825.089	3717
825.228	3675
825.368	3568
825.508	3526
825.648	3542
825.787	3622
825.927	3675
826.067	3622
826.206	3679
826.346	3755
826.485	3816
826.625	3819
826.765	3922
826.904	3838
827.044	3633
827.183	3515
827.323	3466
827.462	3485
827.601	3412
827.741	3420
827.88	3477
828.02	3367
828.159	3447
828.298	3481
828.437	3534
828.577	3481
828.716	3614
828.855	3488
828.994	3409
829.134	3351
829.273	3329
829.412	3355
829.551	3310
829.69	3329
829.829	3382
829.968	3515
830.107	3443
830.246	3424
830.385	3363
830.524	3340
830.663	3317
830.802	3214
830.941	3192
831.08	3188
831.219	3275
831.357	3214
831.496	3374
831.635	3237
831.774	3214
831.913	3192
832.051	3127
832.19	3176
832.329	3241
832.467	3184
832.606	3123
832.744	3157
832.883	3150
833.022	3180
833.16	3253
833.299	3298
833.437	3313
833.576	3374
833.714	3386
833.852	3424
833.991	3462
834.129	3473
834.267	3416
834.406	3397
834.544	3439
834.682	3431
834.821	3382
834.959	3568
835.097	3431
835.235	3538
835.373	3462
835.511	3511
835.65	3431
835.788	3481
835.926	3382
836.064	3367
836.202	3382
836.34	3530
836.478	3603
836.615	3553
836.753	3595
836.891	3641
837.029	3629
837.167	3545
837.305	3534
837.443	3534
837.58	3492
837.718	3625
837.856	3534
837.993	3481
838.131	3595
838.269	3584
838.406	3564
838.544	3587
838.681	3481
838.819	3454
838.956	3389
839.094	3424
839.231	3443
839.369	3515
839.506	3675
839.643	3660
839.781	3530
839.918	3450
840.055	3507
840.193	3492
840.33	3515
840.467	3526
840.604	3606
840.742	3785
840.879	3553
841.016	3595
841.153	3591
841.29	3804
841.427	3736
841.564	3701
841.701	3762
841.838	3663
841.975	3660
842.112	3686
842.249	3633
842.385	3614
842.522	3861
842.659	3717
842.796	3652
842.933	3743
843.069	3705
843.206	3705
843.343	3800
843.479	3781
843.616	3819
843.752	3690
843.889	3686
844.025	3808
844.162	3713
844.298	3876
844.435	3770
844.571	3740
844.708	3899
844.844	3911
844.98	3968
845.117	4029
845.253	3915
845.389	3911
845.525	3926
845.661	3956
845.798	3949
845.934	3979
846.07	3922
846.206	4071
846.342	4082
846.478	4109
846.614	3960
846.75	3934
846.886	3918
847.022	4055
847.158	4013
847.294	4021
847.429	4013
847.565	3983
847.701	4230
847.837	3892
847.972	3812
848.108	3937
848.244	3991
848.379	3850
848.515	3804
848.65	3831
848.786	3812
848.921	3896
849.057	3888
849.192	3945
849.328	3896
849.463	3937
849.598	3892
849.734	3812
849.869	3842
850.004	3774
850.14	3800
850.275	3751
850.41	3740
850.545	3762
850.68	3793
850.815	3762
850.95	3762
851.085	3934
851.22	3857
851.355	3827
851.49	3797
851.625	3812
851.76	3823
851.895	3743
852.03	3720
852.165	3778
852.299	3842
852.434	3922
852.569	3850
852.703	3888
852.838	3911
852.973	3979
853.107	4010
853.242	3888
853.376	3892
853.511	3724
853.645	3812
853.78	3972
853.914	3873
854.048	3861
854.183	3896
854.317	3896
854.451	4074
854.585	3941
854.72	3941
854.854	4010
854.988	3979
855.122	4017
855.256	3934
855.39	3979
855.524	4071
855.658	4086
855.792	4093
855.926	4131
856.06	4166
856.194	4211
856.327	4166
856.461	4040
856.595	4143
856.729	4188
856.862	4272
856.996	4253
857.13	4295
857.263	4341
857.397	4329
857.53	4238
857.664	4314
857.797	4390
857.931	4417
858.064	4348
858.197	4428
858.331	4379
858.464	4360
858.597	4310
858.731	4493
858.864	4451
858.997	4504
859.13	4523
859.263	4573
859.396	4577
859.529	4527
859.662	4596
859.795	4497
859.928	4599
860.061	4706
860.194	4759
860.327	4626
860.46	4637
860.592	4736
860.725	4729
860.858	4801
860.99	4710
861.123	4687
861.256	4694
861.388	4778
861.521	5448
861.653	4733
861.786	4679
861.918	4805
862.05	4828
862.183	4828
862.315	4854
862.447	4923
862.58	4854
862.712	4797
862.844	4790
862.976	4881
863.108	4835
863.24	5181
863.372	4805
863.504	4889
863.636	4911
863.768	4938
863.9	4987
864.032	4919
864.164	4987
864.296	5025
864.428	5025
864.559	5094
864.691	5102
864.823	5090
864.954	5132
865.086	5159
865.217	5121
865.349	5098
865.48	5166
865.612	5162
865.743	5280
865.875	5185
866.006	5193
866.137	5242
866.269	5212
866.4	5235
866.531	5242
866.662	5223
866.793	5250
866.924	5235
867.055	5376
867.186	5360
867.317	5322
867.448	5311
867.579	5379
867.71	5337
867.841	5345
867.972	5440
868.103	5459
868.233	5501
868.364	5467
868.495	5501
868.625	5680
868.756	5737
868.886	5646
869.017	5752
869.147	5813
869.278	5866
869.408	5836
869.539	5794
869.669	5912
869.799	5874
869.929	5916
870.06	5973
870.19	6224
870.32	6163
870.45	6243
870.58	6372
870.71	6448
870.84	6418
870.97	6490
871.1	6467
871.23	6525
871.36	6734
871.489	6662
871.619	6700
871.749	6833
871.879	6916
872.008	6996
872.138	6993
872.267	6985
872.397	6954
872.526	6993
872.656	7126
872.785	7232
872.915	7426
873.044	7537
873.173	7483
873.303	7674
873.432	7757
873.561	7906
873.69	7871
873.819	7921
873.948	8221
874.077	8263
874.206	8351
874.335	8492
874.464	8651
874.593	8830
874.722	8880
874.851	9093
874.979	9093
875.108	9397
875.237	9382
875.365	9431
875.494	9698
875.623	9808
875.751	9865
875.88	10063
876.008	10086
876.136	10348
876.265	10538
876.393	10698
876.521	10767
876.65	10889
876.778	10824
876.906	10885
877.034	11022
877.162	11136
877.29	11166
877.418	11356
877.546	11345
877.674	11448
877.802	11436
877.93	11585
878.058	11573
878.185	11596
878.313	11649
878.441	11729
878.568	11688
878.696	11718
878.824	11779
878.951	11916
879.079	11977
879.206	12114
879.333	12011
879.461	11935
879.588	12022
879.715	12022
879.842	12216
879.97	12079
880.097	11817
880.224	11904
880.351	11901
880.478	11889
880.605	11783
880.732	11832
880.859	12011
880.986	11805
881.112	11901
881.239	11657
881.366	11668
881.493	11554
881.619	11577
881.746	11532
881.872	11471
881.999	11478
882.125	11448
882.252	11566
882.378	11554
882.505	11581
882.631	11395
882.757	11231
882.883	11326
883.01	11265
883.136	11174
883.262	11124
883.388	11140
883.514	11235
883.64	11128
883.766	11075
883.892	10927
884.018	11056
884.143	11014
884.269	11124
884.395	10923
884.52	10763
884.646	10809
884.772	10679
884.897	10656
885.023	10733
885.148	10710
885.274	10725
885.399	10645
885.524	10554
885.65	10641
885.775	10626
885.9	10580
886.025	10656
886.15	10641
886.275	10462
886.4	10409
886.525	10360
886.65	10337
886.775	10310
886.9	10466
887.025	10565
887.149	10314
887.274	10246
887.399	10169
887.523	10204
887.648	10128
887.773	10090
887.897	10215
888.021	10253
888.146	10185
888.27	10253
888.395	10131
888.519	10242
888.643	10147
888.767	10204
888.891	10086
889.015	10036
889.139	10006
889.263	9922
889.387	10048
889.511	10055
889.635	10036
889.759	9918
889.883	9937
890.006	10036
890.13	10071
890.254	9956
890.377	9953
890.501	9823
890.624	9819
890.748	9880
890.871	9797
890.995	9774
891.118	9717
891.241	9774
891.364	9781
891.488	9827
891.611	9660
891.734	9800
891.857	9743
891.98	9713
892.103	9774
892.226	9751
892.349	9679
892.471	9580
892.594	9553
892.717	9648
892.839	9549
892.962	9599
893.085	9671
893.207	9618
893.33	9443
893.452	9545
893.575	9526
893.697	9450
893.819	9717
893.941	9694
894.064	9618
894.186	9492
894.308	9424
894.43	9477
894.552	9504
894.674	9564
894.796	9321
894.918	9412
895.04	9340
895.161	9416
895.283	9306
895.405	9199
895.526	9283
895.648	9245
895.769	9264
895.891	9241
896.012	9275
896.134	9218
896.255	9135
896.376	9192
896.498	9161
896.619	9195
896.74	9085
896.861	9089
896.982	9294
897.103	9256
897.224	9146
897.345	9081
897.466	9013
897.587	9017
897.708	9020
897.828	9066
897.949	8876
898.07	8834
898.19	8914
898.311	9005
898.431	8861
898.552	8883
898.672	8998
898.792	8975
898.913	8941
899.033	8845
899.153	8773
899.273	8648
899.393	8735
899.513	8746
899.633	8716
899.753	8724
899.873	8720
899.993	8686
900.113	8670
900.232	8655
900.352	8716
900.472	8571
900.591	8575
900.711	8602
900.83	8583
900.95	8682
901.069	8708
901.189	8541
901.308	8469
901.427	8415
901.546	8454
901.665	8511
901.784	8476
901.904	8355
902.023	8317
902.141	8149
902.26	8183
902.379	8305
902.498	8210
902.617	8279
902.735	8290
902.854	8267
902.973	8317
903.091	8107
903.21	8073
903.328	8138
903.446	8084
903.565	8065
903.683	8115
903.801	8069
903.919	8100
904.038	8107
904.156	8008
904.274	8005
904.392	8020
904.51	8111
904.627	8016
904.745	8073
904.863	8005
904.981	7909
905.098	7822
905.216	7788
905.334	7837
905.451	7852
905.569	7814
905.686	7887
905.803	7902
905.921	7753
906.038	7833
906.155	7731
906.272	7677
906.389	7590
906.506	7662
906.623	7628
906.74	7552
906.857	7639
906.974	7582
907.091	7639
907.208	7685
907.324	7616
907.441	7537
907.557	7434
907.674	7483
907.79	7407
907.907	7415
908.023	7434
908.139	7415
908.256	7343
908.372	7426
908.488	7343
908.604	7236
908.72	7179
908.836	7213
908.952	7270
909.068	7274
909.184	7308
909.3	7228
909.415	7240
909.531	7244
909.647	7027
909.762	7088
909.878	7046
909.993	7145
910.108	7133
910.224	7084
910.339	7072
910.454	7050
910.57	7019
910.685	6954
910.8	7160
910.915	7107
911.03	7008
911.145	6901
911.259	6886
911.374	6890
911.489	6791
911.604	6764
911.718	6692
911.833	6684
911.947	6681
912.062	6559
912.176	6688
912.291	6726
912.405	6726
912.519	6810
912.633	6825
912.748	6623
912.862	6711
912.976	6635
913.09	6555
913.204	6570
913.318	6620
913.431	6658
913.545	6665
913.659	6711
913.772	6654
913.886	6544
914	6532
914.113	6631
914.226	6620
914.34	6620
914.453	6563
914.566	6608
914.68	6559
914.793	6494
914.906	6410
915.019	6388
915.132	6350
915.245	6429
915.358	6445
915.47	6414
915.583	6471
915.696	6460
915.809	6544
915.921	6517
916.034	6410
916.146	6410
916.259	6311
916.371	6471
916.483	6467
916.595	6410
916.708	6395
916.82	6380
916.932	6331
917.044	6342
917.156	6422
917.268	6361
917.38	6342
917.491	6342
917.603	6285
917.715	6331
917.826	6399
917.938	6361
918.049	6243
918.161	6334
918.272	6448
918.384	6433
918.495	6350
918.606	6213
918.717	6182
918.828	6201
918.939	6243
919.05	6209
919.161	6228
919.272	6121
919.383	6114
919.494	6270
919.604	6407
919.715	6224
919.826	6232
919.936	6216
920.047	6357
920.157	6201
920.267	6395
920.378	6304
920.488	6304
920.598	6521
920.708	6513
920.818	6418
920.928	6445
921.038	6608
921.148	6555
921.258	6353
921.368	6266
921.477	6239
921.587	6178
921.697	6072
921.806	6186
921.916	6110
922.025	5920
922.134	5939
922.244	5870
922.353	5904
922.462	5847
922.571	5832
922.68	5737
922.789	5638
922.898	5707
923.007	5623
923.116	5649
923.224	5661
923.333	5668
923.442	5596
923.55	5554
923.659	5547
923.767	5596
923.876	5547
923.984	5566
924.092	5486
924.201	5524
924.309	5543
924.417	5547
924.525	5471
924.633	5459
924.741	6239
924.849	5395
924.956	5486
925.064	5303
925.172	5341
925.279	5280
925.387	5277
925.494	5307
925.602	5383
925.709	5421
925.816	5265
925.924	5318
926.031	5318
926.138	5315
926.245	5334
926.352	5223
926.459	5318
926.566	5383
926.673	5201
926.779	5151
926.886	5132
926.993	5067
927.099	5022
927.206	4968
927.312	4946
927.419	5010
927.525	4923
927.631	4987
927.737	4873
927.843	4870
927.95	4778
928.056	4793
928.162	4793
928.267	4850
928.373	5364
928.479	4805
928.585	4683
928.69	4767
928.796	4793
928.901	4679
929.007	4561
929.112	4710
929.218	4630
929.323	4538
929.428	4550
929.533	4653
929.638	4565
929.743	4508
929.848	4538
929.953	4489
930.058	4402
930.163	4348
930.267	4303
930.372	4432
930.477	4299
930.581	4432
930.685	4367
930.79	4253
930.894	4325
930.998	4211
931.103	4394
931.207	4112
931.311	4059
931.415	4029
931.519	3949
931.623	3934
