Data from glass_V78500241_1669.txt Node
Date: Wed Sep 01 19:26:04 CST 2021
User: usil
Spectrometer: V785-0024
Trigger mode: 0
Integration Time (sec): 4.000000E-1
Scans to average: 1
Nonlinearity correction enabled: false
Boxcar width: 0
Storing dark spectrum: false
XAxis mode: Wavelengths
Number of Pixels in Spectrum: 1024
>>>>>Begin Spectral Data<<<<<
801.071	3736
801.214	3747
801.356	3705
801.499	3759
801.641	3774
801.783	3785
801.926	3812
802.068	3797
802.211	3854
802.353	3888
802.496	3846
802.638	3880
802.78	3915
802.923	3922
803.065	3899
803.208	3846
803.35	3876
803.492	3926
803.635	3949
803.777	3793
803.919	3899
804.061	4154
804.204	3972
804.346	3964
804.488	3896
804.63	4093
804.773	3968
804.915	4013
805.057	4185
805.199	4040
805.341	4074
805.483	4116
805.626	4158
805.768	4097
805.91	4215
806.052	4192
806.194	4234
806.336	4363
806.478	4192
806.62	4150
806.762	4185
806.904	4299
807.046	4325
807.188	4211
807.33	4200
807.472	4253
807.614	4192
807.756	4310
807.898	4185
808.04	4211
808.182	4329
808.324	4341
808.465	4363
808.607	4489
808.749	4440
808.891	4451
809.033	4481
809.174	4367
809.316	4204
809.458	4272
809.6	4162
809.741	4177
809.883	4166
810.025	4211
810.166	4249
810.308	4211
810.45	4234
810.591	4253
810.733	4299
810.875	4508
811.016	4797
811.158	5136
811.299	5273
811.441	5303
811.582	5071
811.724	4759
811.865	4447
812.007	4417
812.148	4436
812.29	4421
812.431	4417
812.573	4379
812.714	4375
812.855	4405
812.997	4405
813.138	4436
813.279	4356
813.421	4398
813.562	4390
813.703	4348
813.845	4329
813.986	4219
814.127	4246
814.268	4249
814.41	4253
814.551	4287
814.692	4276
814.833	4284
814.974	4329
815.115	4363
815.256	4276
815.397	4246
815.539	4318
815.68	4234
815.821	4265
815.962	4268
816.103	4287
816.244	4284
816.385	4230
816.526	4261
816.666	4219
816.807	4143
816.948	4128
817.089	4196
817.23	4120
817.371	4029
817.512	4105
817.653	4067
817.793	4044
817.934	4036
818.075	4105
818.216	4006
818.356	4112
818.497	3960
818.638	3953
818.778	3937
818.919	3903
819.06	3865
819.2	3911
819.341	3880
819.481	3827
819.622	3937
819.762	4021
819.903	3975
820.043	3838
820.184	3838
820.324	3827
820.465	3865
820.605	3892
820.746	3888
820.886	3785
821.026	3899
821.167	3907
821.307	3994
821.447	4044
821.588	3972
821.728	3945
821.868	3956
822.008	3854
822.149	3899
822.289	3896
822.429	3762
822.569	3743
822.709	3778
822.849	3701
822.99	3679
823.13	3743
823.27	3766
823.41	3740
823.55	3698
823.69	3701
823.83	3728
823.97	3701
824.11	3599
824.25	3652
824.389	3656
824.529	3637
824.669	3629
824.809	3705
824.949	3713
825.089	3736
825.228	3755
825.368	3580
825.508	3580
825.648	3576
825.787	3622
825.927	3644
826.067	3610
826.206	3701
826.346	3770
826.485	3857
826.625	3835
826.765	3968
826.904	3816
827.044	3606
827.183	3545
827.323	3477
827.462	3492
827.601	3424
827.741	3435
827.88	3473
828.02	3382
828.159	3435
828.298	3511
828.437	3534
828.577	3473
828.716	3580
828.855	3481
828.994	3367
829.134	3367
829.273	3386
829.412	3363
829.551	3370
829.69	3359
829.829	3447
829.968	3553
830.107	3443
830.246	3412
830.385	3351
830.524	3344
830.663	3313
830.802	3310
830.941	3222
831.08	3211
831.219	3260
831.357	3253
831.496	3412
831.635	3260
831.774	3195
831.913	3226
832.051	3135
832.19	3169
832.329	3207
832.467	3119
832.606	3116
832.744	3165
832.883	3188
833.022	3184
833.16	3245
833.299	3332
833.437	3374
833.576	3409
833.714	3367
833.852	3473
833.991	3424
834.129	3443
834.267	3469
834.406	3420
834.544	3401
834.682	3386
834.821	3412
834.959	3572
835.097	3454
835.235	3549
835.373	3492
835.511	3458
835.65	3473
835.788	3477
835.926	3397
836.064	3397
836.202	3409
836.34	3542
836.478	3591
836.615	3553
836.753	3610
836.891	3625
837.029	3599
837.167	3629
837.305	3584
837.443	3523
837.58	3477
837.718	3614
837.856	3561
837.993	3519
838.131	3564
838.269	3549
838.406	3606
838.544	3564
838.681	3515
838.819	3466
838.956	3355
839.094	3416
839.231	3378
839.369	3530
839.506	3709
839.643	3610
839.781	3492
839.918	3435
840.055	3553
840.193	3504
840.33	3507
840.467	3526
840.604	3606
840.742	3789
840.879	3557
841.016	3599
841.153	3576
841.29	3770
841.427	3724
841.564	3724
841.701	3751
841.838	3686
841.975	3690
842.112	3743
842.249	3641
842.385	3629
842.522	3842
842.659	3698
842.796	3648
842.933	3743
843.069	3713
843.206	3709
843.343	3774
843.479	3762
843.616	3842
843.752	3663
843.889	3686
844.025	3915
844.162	3705
844.298	3892
844.435	3831
844.571	3781
844.708	3876
844.844	4010
844.98	4010
845.117	4025
845.253	3892
845.389	3911
845.525	4002
845.661	3998
845.798	3922
845.934	3941
846.07	3964
846.206	4044
846.342	4097
846.478	4051
846.614	3949
846.75	3941
846.886	3934
847.022	4010
847.158	4006
847.294	4002
847.429	4032
847.565	3991
847.701	4280
847.837	3869
847.972	3896
848.108	3941
848.244	3960
848.379	3896
848.515	3785
848.65	3770
848.786	3797
848.921	3876
849.057	3934
849.192	3945
849.328	3903
849.463	3915
849.598	3842
849.734	3956
849.869	3808
850.004	3812
850.14	3819
850.275	3770
850.41	3701
850.545	3778
850.68	3781
850.815	3781
850.95	3812
851.085	3953
851.22	3838
851.355	3857
851.49	3808
851.625	3781
851.76	3789
851.895	3781
852.03	3759
852.165	3816
852.299	3857
852.434	3903
852.569	3854
852.703	3854
852.838	3922
852.973	3979
853.107	3994
853.242	3892
853.376	3804
853.511	3797
853.645	3831
853.78	3922
853.914	3930
854.048	3903
854.183	3827
854.317	3964
854.451	4021
854.585	3975
854.72	3911
854.854	4040
854.988	3926
855.122	4036
855.256	3949
855.39	3975
855.524	4139
855.658	4093
855.792	4032
855.926	4128
856.06	4154
856.194	4200
856.327	4158
856.461	4097
856.595	4166
856.729	4207
856.862	4314
856.996	4261
857.13	4272
857.263	4367
857.397	4379
857.53	4261
857.664	4379
857.797	4432
857.931	4402
858.064	4398
858.197	4455
858.331	4356
858.464	4375
858.597	4371
858.731	4394
858.864	4462
858.997	4474
859.13	4497
859.263	4569
859.396	4615
859.529	4546
859.662	4523
859.795	4550
859.928	4546
860.061	4721
860.194	4755
860.327	4702
860.46	4660
860.592	4698
860.725	4759
860.858	4736
860.99	4698
861.123	4660
861.256	4679
861.388	4793
861.521	5402
861.653	4698
861.786	4736
861.918	4733
862.05	4782
862.183	4866
862.315	4881
862.447	4938
862.58	4847
862.712	4767
862.844	4744
862.976	4873
863.108	4858
863.24	5269
863.372	4835
863.504	4881
863.636	4870
863.768	5003
863.9	4927
864.032	4900
864.164	4987
864.296	5010
864.428	5079
864.559	5056
864.691	5090
864.823	5136
864.954	5140
865.086	5109
865.217	5143
865.349	5064
865.48	5197
865.612	5208
865.743	5254
865.875	5189
866.006	5189
866.137	5242
866.269	5223
866.4	5273
866.531	5242
866.662	5242
866.793	5246
866.924	5315
867.055	5330
867.186	5357
867.317	5349
867.448	5326
867.579	5360
867.71	5341
867.841	5383
867.972	5490
868.103	5433
868.233	5501
868.364	5493
868.495	5528
868.625	5634
868.756	5794
868.886	5661
869.017	5680
869.147	5870
869.278	5824
869.408	5779
869.539	5756
869.669	5923
869.799	5958
869.929	5984
870.06	6019
870.19	6235
870.32	6171
870.45	6247
870.58	6365
870.71	6445
870.84	6407
870.97	6422
871.1	6464
871.23	6620
871.36	6684
871.489	6574
871.619	6719
871.749	6867
871.879	6818
872.008	6943
872.138	6951
872.267	7034
872.397	7076
872.526	7061
872.656	7133
872.785	7228
872.915	7362
873.044	7540
873.173	7552
873.303	7689
873.432	7700
873.561	7814
873.69	7932
873.819	8027
873.948	8195
874.077	8279
874.206	8313
874.335	8465
874.464	8727
874.593	8838
874.722	8914
874.851	9108
874.979	9199
875.108	9359
875.237	9389
875.365	9458
875.494	9610
875.623	9770
875.751	9789
875.88	9968
876.008	10166
876.136	10249
876.265	10470
876.393	10706
876.521	10679
876.65	10786
876.778	10805
876.906	10908
877.034	10968
877.162	11132
877.29	11083
877.418	11242
877.546	11379
877.674	11372
877.802	11509
877.93	11471
878.058	11493
878.185	11577
878.313	11611
878.441	11718
878.568	11653
878.696	11794
878.824	11840
878.951	11984
879.079	12003
879.206	12129
879.333	12098
879.461	12030
879.588	12102
879.715	12117
879.842	12239
879.97	12011
880.097	11965
880.224	11882
880.351	11874
880.478	11946
880.605	11775
880.732	11760
880.859	12057
880.986	11870
881.112	11821
881.239	11718
881.366	11676
881.493	11547
881.619	11520
881.746	11596
881.872	11528
881.999	11589
882.125	11436
882.252	11497
882.378	11417
882.505	11581
882.631	11383
882.757	11280
882.883	11273
883.01	11250
883.136	11235
883.262	11098
883.388	11083
883.514	11162
883.64	11185
883.766	11166
883.892	11033
884.018	11064
884.143	11033
884.269	11075
884.395	10881
884.52	10744
884.646	10831
884.772	10668
884.897	10656
885.023	10702
885.148	10714
885.274	10759
885.399	10664
885.524	10603
885.65	10599
885.775	10577
885.9	10527
886.025	10694
886.15	10599
886.275	10451
886.4	10360
886.525	10379
886.65	10390
886.775	10402
886.9	10440
887.025	10516
887.149	10390
887.274	10230
887.399	10105
887.523	10173
887.648	10097
887.773	10071
887.897	10234
888.021	10192
888.146	10158
888.27	10265
888.395	10173
888.519	10173
888.643	10196
888.767	10181
888.891	10204
889.015	10048
889.139	10105
889.263	9949
889.387	10124
889.511	10078
889.635	10124
889.759	9945
889.883	10078
890.006	10074
890.13	10143
890.254	10013
890.377	9972
890.501	9895
890.624	9831
890.748	9941
890.871	9816
890.995	9762
891.118	9793
891.241	9770
891.364	9793
891.488	9915
891.611	9747
891.734	9717
891.857	9736
891.98	9736
892.103	9781
892.226	9720
892.349	9656
892.471	9599
892.594	9622
892.717	9625
892.839	9618
892.962	9694
893.085	9713
893.207	9614
893.33	9492
893.452	9553
893.575	9599
893.697	9500
893.819	9614
893.941	9610
894.064	9694
894.186	9370
894.308	9473
894.43	9542
894.552	9557
894.674	9534
894.796	9386
894.918	9458
895.04	9397
895.161	9306
895.283	9374
895.405	9226
895.526	9283
895.648	9154
895.769	9260
895.891	9188
896.012	9340
896.134	9264
896.255	9195
896.376	9230
896.498	9131
896.619	9142
896.74	9100
896.861	9146
896.982	9245
897.103	9306
897.224	9199
897.345	9108
897.466	8990
897.587	9020
897.708	9161
897.828	9070
897.949	8971
898.07	8868
898.19	8910
898.311	8967
898.431	8872
898.552	8861
898.672	8880
898.792	8933
898.913	8891
899.033	8739
899.153	8777
899.273	8598
899.393	8651
899.513	8739
899.633	8773
899.753	8716
899.873	8663
899.993	8746
900.113	8743
900.232	8750
900.352	8644
900.472	8587
900.591	8507
900.711	8651
900.83	8545
900.95	8651
901.069	8716
901.189	8560
901.308	8454
901.427	8347
901.546	8442
901.665	8461
901.784	8480
901.904	8419
902.023	8351
902.141	8256
902.26	8172
902.379	8309
902.498	8199
902.617	8252
902.735	8286
902.854	8282
902.973	8267
903.091	8062
903.21	8145
903.328	8145
903.446	8103
903.565	8065
903.683	8126
903.801	8024
903.919	8164
904.038	8183
904.156	8024
904.274	8065
904.392	8027
904.51	8016
904.627	8081
904.745	8111
904.863	8043
904.981	7856
905.098	7795
905.216	7864
905.334	7864
905.451	7879
905.569	7925
905.686	7978
905.803	7902
905.921	7830
906.038	7887
906.155	7803
906.272	7742
906.389	7753
906.506	7636
906.623	7586
906.74	7571
906.857	7590
906.974	7624
907.091	7674
907.208	7795
907.324	7651
907.441	7514
907.557	7506
907.674	7400
907.79	7381
907.907	7400
908.023	7381
908.139	7422
908.256	7369
908.372	7388
908.488	7369
908.604	7346
908.72	7285
908.836	7285
908.952	7221
909.068	7259
909.184	7331
909.3	7240
909.415	7293
909.531	7263
909.647	7103
909.762	7076
909.878	7061
909.993	7168
910.108	7145
910.224	7080
910.339	7080
910.454	6993
910.57	6993
910.685	6973
910.8	7202
910.915	7080
911.03	7008
911.145	6924
911.259	6894
911.374	6916
911.489	6867
911.604	6856
911.718	6749
911.833	6753
911.947	6665
912.062	6631
912.176	6700
912.291	6734
912.405	6642
912.519	6802
912.633	6806
912.748	6707
912.862	6650
912.976	6604
913.09	6506
913.204	6559
913.318	6585
913.431	6631
913.545	6703
913.659	6753
913.772	6620
913.886	6532
914	6521
914.113	6623
914.226	6681
914.34	6620
914.453	6502
914.566	6597
914.68	6509
914.793	6502
914.906	6437
915.019	6407
915.132	6350
915.245	6407
915.358	6399
915.47	6414
915.583	6464
915.696	6464
915.809	6547
915.921	6532
916.034	6467
916.146	6418
916.259	6437
916.371	6399
916.483	6464
916.595	6384
916.708	6395
916.82	6361
916.932	6342
917.044	6399
917.156	6418
917.268	6350
917.38	6327
917.491	6281
917.603	6357
917.715	6391
917.826	6395
917.938	6277
918.049	6270
918.161	6350
918.272	6441
918.384	6479
918.495	6323
918.606	6243
918.717	6224
918.828	6277
918.939	6235
919.05	6182
919.161	6285
919.272	6114
919.383	6136
919.494	6350
919.604	6403
919.715	6300
919.826	6224
919.936	6262
920.047	6331
920.157	6235
920.267	6448
920.378	6376
920.488	6266
920.598	6414
920.708	6555
920.818	6445
920.928	6437
921.038	6540
921.148	6612
921.258	6350
921.368	6300
921.477	6190
921.587	6117
921.697	6102
921.806	6152
921.916	6106
922.025	5984
922.134	5923
922.244	5866
922.353	5939
922.462	5847
922.571	5794
922.68	5745
922.789	5676
922.898	5729
923.007	5619
923.116	5733
923.224	5665
923.333	5672
923.442	5547
923.55	5600
923.659	5566
923.767	5634
923.876	5486
923.984	5627
924.092	5532
924.201	5516
924.309	5520
924.417	5520
924.525	5512
924.633	5452
924.741	6270
924.849	5368
924.956	5417
925.064	5364
925.172	5330
925.279	5277
925.387	5349
925.494	5349
925.602	5425
925.709	5383
925.816	5284
925.924	5322
926.031	5345
926.138	5296
926.245	5337
926.352	5208
926.459	5322
926.566	5322
926.673	5261
926.779	5136
926.886	5128
926.993	5037
927.099	4961
927.206	4957
927.312	4987
927.419	4999
927.525	4972
927.631	4999
927.737	4866
927.843	4885
927.95	4744
928.056	4771
928.162	4843
928.267	4850
928.373	5337
928.479	4885
928.585	4630
928.69	4721
928.796	4771
928.901	4706
929.007	4588
929.112	4687
929.218	4596
929.323	4592
929.428	4558
929.533	4664
929.638	4474
929.743	4512
929.848	4550
929.953	4481
930.058	4417
930.163	4333
930.267	4356
930.372	4421
930.477	4268
930.581	4470
930.685	4379
930.79	4207
930.894	4310
930.998	4265
931.103	4409
931.207	4097
931.311	4074
931.415	4029
931.519	3918
931.623	4002
