Data from glass_V78500241_651.txt Node
Date: Wed Sep 01 19:19:00 CST 2021
User: usil
Spectrometer: V785-0024
Trigger mode: 0
Integration Time (sec): 4.000000E-1
Scans to average: 1
Nonlinearity correction enabled: false
Boxcar width: 0
Storing dark spectrum: false
XAxis mode: Wavelengths
Number of Pixels in Spectrum: 1024
>>>>>Begin Spectral Data<<<<<
801.071	3747
801.214	3781
801.356	3690
801.499	3755
801.641	3751
801.783	3816
801.926	3865
802.068	3804
802.211	3865
802.353	3930
802.496	3854
802.638	3896
802.78	3937
802.923	3953
803.065	3926
803.208	3850
803.35	3857
803.492	3922
803.635	3918
803.777	3827
803.919	3861
804.061	4188
804.204	3960
804.346	3960
804.488	3937
804.63	4055
804.773	4021
804.915	4025
805.057	4147
805.199	4032
805.341	4120
805.483	4185
805.626	4158
805.768	4093
805.91	4242
806.052	4207
806.194	4234
806.336	4371
806.478	4234
806.62	4181
806.762	4223
806.904	4272
807.046	4341
807.188	4196
807.33	4207
807.472	4227
807.614	4150
807.756	4291
807.898	4200
808.04	4204
808.182	4314
808.324	4325
808.465	4390
808.607	4436
808.749	4459
808.891	4508
809.033	4497
809.174	4447
809.316	4306
809.458	4227
809.6	4204
809.741	4162
809.883	4124
810.025	4215
810.166	4238
810.308	4211
810.45	4268
810.591	4223
810.733	4291
810.875	4527
811.016	4816
811.158	5124
811.299	5288
811.441	5277
811.582	5083
811.724	4725
811.865	4451
812.007	4462
812.148	4451
812.29	4432
812.431	4402
812.573	4440
812.714	4409
812.855	4428
812.997	4428
813.138	4493
813.279	4451
813.421	4363
813.562	4413
813.703	4348
813.845	4360
813.986	4249
814.127	4242
814.268	4314
814.41	4333
814.551	4306
814.692	4337
814.833	4276
814.974	4306
815.115	4329
815.256	4295
815.397	4230
815.539	4280
815.68	4249
815.821	4230
815.962	4295
816.103	4280
816.244	4265
816.385	4265
816.526	4295
816.666	4223
816.807	4116
816.948	4207
817.089	4192
817.23	4124
817.371	4074
817.512	4093
817.653	4131
817.793	4025
817.934	4048
818.075	4109
818.216	4078
818.356	4116
818.497	3949
818.638	3983
818.778	3903
818.919	3903
819.06	3903
819.2	3945
819.341	3861
819.481	3838
819.622	3911
819.762	4017
819.903	3975
820.043	3903
820.184	3869
820.324	3846
820.465	3884
820.605	3861
820.746	3922
820.886	3812
821.026	3972
821.167	3956
821.307	3953
821.447	4025
821.588	3911
821.728	3945
821.868	3960
822.008	3880
822.149	3956
822.289	3945
822.429	3842
822.569	3785
822.709	3808
822.849	3709
822.99	3732
823.13	3800
823.27	3781
823.41	3766
823.55	3785
823.69	3720
823.83	3770
823.97	3682
824.11	3614
824.25	3633
824.389	3610
824.529	3690
824.669	3637
824.809	3736
824.949	3804
825.089	3705
825.228	3724
825.368	3610
825.508	3538
825.648	3610
825.787	3606
825.927	3644
826.067	3625
826.206	3663
826.346	3797
826.485	3861
826.625	3888
826.765	3953
826.904	3854
827.044	3587
827.183	3504
827.323	3450
827.462	3511
827.601	3473
827.741	3454
827.88	3458
828.02	3420
828.159	3477
828.298	3477
828.437	3507
828.577	3473
828.716	3576
828.855	3511
828.994	3397
829.134	3401
829.273	3378
829.412	3355
829.551	3355
829.69	3367
829.829	3477
829.968	3538
830.107	3416
830.246	3462
830.385	3389
830.524	3367
830.663	3336
830.802	3260
830.941	3188
831.08	3192
831.219	3264
831.357	3256
831.496	3435
831.635	3226
831.774	3226
831.913	3207
832.051	3142
832.19	3154
832.329	3214
832.467	3157
832.606	3127
832.744	3199
832.883	3180
833.022	3207
833.16	3275
833.299	3287
833.437	3367
833.576	3367
833.714	3389
833.852	3462
833.991	3458
834.129	3515
834.267	3431
834.406	3389
834.544	3431
834.682	3401
834.821	3435
834.959	3595
835.097	3443
835.235	3553
835.373	3477
835.511	3500
835.65	3473
835.788	3523
835.926	3382
836.064	3370
836.202	3424
836.34	3595
836.478	3644
836.615	3545
836.753	3606
836.891	3671
837.029	3633
837.167	3580
837.305	3587
837.443	3519
837.58	3542
837.718	3595
837.856	3587
837.993	3561
838.131	3633
838.269	3599
838.406	3580
838.544	3557
838.681	3462
838.819	3447
838.956	3405
839.094	3473
839.231	3469
839.369	3496
839.506	3755
839.643	3641
839.781	3507
839.918	3477
840.055	3568
840.193	3557
840.33	3553
840.467	3587
840.604	3622
840.742	3778
840.879	3587
841.016	3614
841.153	3610
841.29	3804
841.427	3724
841.564	3732
841.701	3732
841.838	3690
841.975	3663
842.112	3728
842.249	3618
842.385	3629
842.522	3816
842.659	3717
842.796	3644
842.933	3713
843.069	3743
843.206	3732
843.343	3797
843.479	3804
843.616	3857
843.752	3720
843.889	3705
844.025	3869
844.162	3728
844.298	3835
844.435	3808
844.571	3793
844.708	3922
844.844	4013
844.98	4021
845.117	4071
845.253	3956
845.389	3861
845.525	3941
845.661	3937
845.798	3979
845.934	4048
846.07	3956
846.206	4051
846.342	4135
846.478	4055
846.614	3953
846.75	3918
846.886	3896
847.022	4059
847.158	4025
847.294	4017
847.429	4036
847.565	3998
847.701	4268
847.837	3911
847.972	3892
848.108	3994
848.244	3975
848.379	3835
848.515	3835
848.65	3850
848.786	3854
848.921	3907
849.057	3945
849.192	3968
849.328	3911
849.463	3930
849.598	3899
849.734	3884
849.869	3819
850.004	3774
850.14	3812
850.275	3774
850.41	3781
850.545	3751
850.68	3789
850.815	3770
850.95	3762
851.085	3960
851.22	3873
851.355	3865
851.49	3816
851.625	3774
851.76	3804
851.895	3728
852.03	3759
852.165	3797
852.299	3873
852.434	3911
852.569	3861
852.703	3907
852.838	3968
852.973	4048
853.107	3960
853.242	3911
853.376	3888
853.511	3778
853.645	3838
853.78	3994
853.914	3899
854.048	3907
854.183	3873
854.317	3937
854.451	4097
854.585	3987
854.72	3964
854.854	4032
854.988	3941
855.122	4002
855.256	3918
855.39	4032
855.524	4109
855.658	4093
855.792	4101
855.926	4109
856.06	4200
856.194	4253
856.327	4173
856.461	4120
856.595	4185
856.729	4200
856.862	4314
856.996	4238
857.13	4287
857.263	4333
857.397	4360
857.53	4306
857.664	4363
857.797	4409
857.931	4443
858.064	4402
858.197	4459
858.331	4436
858.464	4352
858.597	4390
858.731	4440
858.864	4421
858.997	4459
859.13	4527
859.263	4565
859.396	4615
859.529	4535
859.662	4542
859.795	4538
859.928	4592
860.061	4702
860.194	4725
860.327	4664
860.46	4649
860.592	4740
860.725	4763
860.858	4801
860.99	4721
861.123	4702
861.256	4698
861.388	4809
861.521	5265
861.653	4725
861.786	4714
861.918	4782
862.05	4778
862.183	4885
862.315	4911
862.447	4938
862.58	4881
862.712	4847
862.844	4816
862.976	4858
863.108	4877
863.24	5235
863.372	4866
863.504	4930
863.636	4942
863.768	4961
863.9	4957
864.032	4946
864.164	4919
864.296	4995
864.428	5086
864.559	5185
864.691	5109
864.823	5132
864.954	5083
865.086	5159
865.217	5102
865.349	5090
865.48	5185
865.612	5220
865.743	5307
865.875	5170
866.006	5197
866.137	5273
866.269	5239
866.4	5258
866.531	5227
866.662	5193
866.793	5288
866.924	5269
867.055	5337
867.186	5406
867.317	5357
867.448	5376
867.579	5383
867.71	5360
867.841	5376
867.972	5440
868.103	5455
868.233	5520
868.364	5512
868.495	5532
868.625	5707
868.756	5824
868.886	5619
869.017	5710
869.147	5870
869.278	5855
869.408	5828
869.539	5809
869.669	5916
869.799	5927
869.929	6003
870.06	6038
870.19	6175
870.32	6182
870.45	6300
870.58	6342
870.71	6452
870.84	6460
870.97	6460
871.1	6437
871.23	6601
871.36	6677
871.489	6730
871.619	6703
871.749	6791
871.879	6935
872.008	7050
872.138	7019
872.267	7023
872.397	7023
872.526	7004
872.656	7084
872.785	7194
872.915	7415
873.044	7556
873.173	7529
873.303	7628
873.432	7742
873.561	7849
873.69	7879
873.819	8027
873.948	8115
874.077	8282
874.206	8328
874.335	8442
874.464	8640
874.593	8910
874.722	8971
874.851	9093
874.979	9241
875.108	9401
875.237	9355
875.365	9504
875.494	9694
875.623	9827
875.751	9816
875.88	10021
876.008	10150
876.136	10261
876.265	10527
876.393	10626
876.521	10778
876.65	10839
876.778	10957
876.906	10892
877.034	10965
877.162	11033
877.29	11090
877.418	11311
877.546	11387
877.674	11482
877.802	11463
877.93	11543
878.058	11512
878.185	11653
878.313	11638
878.441	11707
878.568	11714
878.696	11843
878.824	11897
878.951	12034
879.079	11984
879.206	12239
879.333	12072
879.461	11961
879.588	12102
879.715	12091
879.842	12308
879.97	12064
880.097	11874
880.224	11870
880.351	11916
880.478	11885
880.605	11843
880.732	11790
880.859	12057
880.986	11885
881.112	11882
881.239	11726
881.366	11661
881.493	11638
881.619	11608
881.746	11535
881.872	11566
881.999	11585
882.125	11398
882.252	11558
882.378	11471
882.505	11596
882.631	11455
882.757	11318
882.883	11261
883.01	11261
883.136	11208
883.262	11090
883.388	11079
883.514	11181
883.64	11170
883.766	11052
883.892	10934
884.018	11018
884.143	11067
884.269	11223
884.395	10858
884.52	10782
884.646	10797
884.772	10759
884.897	10656
885.023	10774
885.148	10759
885.274	10778
885.399	10736
885.524	10641
885.65	10630
885.775	10618
885.9	10599
886.025	10584
886.15	10512
886.275	10470
886.4	10424
886.525	10481
886.65	10440
886.775	10314
886.9	10516
887.025	10440
887.149	10344
887.274	10299
887.399	10287
887.523	10230
887.648	10154
887.773	10192
887.897	10344
888.021	10268
888.146	10135
888.27	10268
888.395	10227
888.519	10215
888.643	10253
888.767	10246
888.891	10120
889.015	9994
889.139	10078
889.263	9895
889.387	10177
889.511	10120
889.635	10025
889.759	9991
889.883	10002
890.006	10017
890.13	10173
890.254	9945
890.377	9941
890.501	9888
890.624	9915
890.748	9888
890.871	9823
890.995	9743
891.118	9740
891.241	9732
891.364	9740
891.488	9876
891.611	9717
891.734	9808
891.857	9816
891.98	9694
892.103	9736
892.226	9717
892.349	9694
892.471	9595
892.594	9603
892.717	9629
892.839	9576
892.962	9633
893.085	9667
893.207	9667
893.33	9591
893.452	9557
893.575	9568
893.697	9488
893.819	9629
893.941	9618
894.064	9671
894.186	9428
894.308	9447
894.43	9515
894.552	9580
894.674	9568
894.796	9428
894.918	9397
895.04	9435
895.161	9340
895.283	9313
895.405	9233
895.526	9275
895.648	9211
895.769	9226
895.891	9275
896.012	9245
896.134	9306
896.255	9230
896.376	9097
896.498	9135
896.619	9180
896.74	9108
896.861	9127
896.982	9256
897.103	9340
897.224	9184
897.345	9089
897.466	9077
897.587	8956
897.708	9157
897.828	9005
897.949	8956
898.07	8921
898.19	8891
898.311	8998
898.431	8971
898.552	8990
898.672	9001
898.792	9020
898.913	8994
899.033	8853
899.153	8754
899.273	8598
899.393	8777
899.513	8819
899.633	8857
899.753	8746
899.873	8648
899.993	8796
900.113	8705
900.232	8682
900.352	8678
900.472	8682
900.591	8583
900.711	8617
900.83	8560
900.95	8720
901.069	8682
901.189	8545
901.308	8461
901.427	8423
901.546	8427
901.665	8450
901.784	8522
901.904	8358
902.023	8309
902.141	8172
902.26	8256
902.379	8256
902.498	8259
902.617	8240
902.735	8336
902.854	8317
902.973	8279
903.091	8180
903.21	8134
903.328	8210
903.446	8123
903.565	8157
903.683	8161
903.801	8054
903.919	8107
904.038	8206
904.156	8054
904.274	8119
904.392	7963
904.51	8096
904.627	8016
904.745	8130
904.863	8081
904.981	7883
905.098	7833
905.216	7887
905.334	7894
905.451	7944
905.569	7852
905.686	7982
905.803	7890
905.921	7769
906.038	7875
906.155	7769
906.272	7792
906.389	7632
906.506	7643
906.623	7681
906.74	7647
906.857	7559
906.974	7552
907.091	7689
907.208	7742
907.324	7639
907.441	7632
907.557	7559
907.674	7495
907.79	7445
907.907	7457
908.023	7422
908.139	7449
908.256	7400
908.372	7346
908.488	7381
908.604	7244
908.72	7232
908.836	7297
908.952	7259
909.068	7202
909.184	7312
909.3	7228
909.415	7350
909.531	7346
909.647	7141
909.762	7164
909.878	7103
909.993	7103
910.108	7095
910.224	7103
910.339	7091
910.454	7038
910.57	7019
910.685	6909
910.8	7091
910.915	7072
911.03	7023
911.145	6920
911.259	6890
911.374	6913
911.489	6863
911.604	6848
911.718	6684
911.833	6779
911.947	6700
912.062	6673
912.176	6703
912.291	6764
912.405	6726
912.519	6882
912.633	6806
912.748	6779
912.862	6715
912.976	6662
913.09	6528
913.204	6601
913.318	6604
913.431	6662
913.545	6745
913.659	6684
913.772	6631
913.886	6589
914	6559
914.113	6639
914.226	6646
914.34	6627
914.453	6490
914.566	6639
914.68	6551
914.793	6547
914.906	6475
915.019	6426
915.132	6311
915.245	6441
915.358	6460
915.47	6467
915.583	6467
915.696	6433
915.809	6570
915.921	6559
916.034	6460
916.146	6403
916.259	6418
916.371	6471
916.483	6528
916.595	6437
916.708	6418
916.82	6376
916.932	6426
917.044	6380
917.156	6350
917.268	6308
917.38	6380
917.491	6353
917.603	6311
917.715	6369
917.826	6456
917.938	6334
918.049	6228
918.161	6327
918.272	6433
918.384	6479
918.495	6357
918.606	6270
918.717	6243
918.828	6273
918.939	6285
919.05	6243
919.161	6270
919.272	6205
919.383	6163
919.494	6281
919.604	6372
919.715	6311
919.826	6224
919.936	6232
920.047	6346
920.157	6338
920.267	6448
920.378	6410
920.488	6285
920.598	6532
920.708	6589
920.818	6456
920.928	6460
921.038	6631
921.148	6585
921.258	6403
921.368	6311
921.477	6251
921.587	6175
921.697	6060
921.806	6228
921.916	6125
922.025	5980
922.134	5935
922.244	5923
922.353	5931
922.462	5859
922.571	5847
922.68	5718
922.789	5680
922.898	5726
923.007	5627
923.116	5771
923.224	5722
923.333	5688
923.442	5668
923.55	5608
923.659	5619
923.767	5649
923.876	5562
923.984	5638
924.092	5539
924.201	5600
924.309	5566
924.417	5543
924.525	5505
924.633	5516
924.741	6148
924.849	5379
924.956	5497
925.064	5417
925.172	5345
925.279	5307
925.387	5372
925.494	5398
925.602	5482
925.709	5395
925.816	5231
925.924	5330
926.031	5341
926.138	5311
926.245	5357
926.352	5197
926.459	5296
926.566	5376
926.673	5223
926.779	5166
926.886	5121
926.993	5037
927.099	5052
927.206	4995
927.312	4923
927.419	5022
927.525	5033
927.631	5014
927.737	4919
927.843	4873
927.95	4778
928.056	4866
928.162	4870
928.267	4809
928.373	5395
928.479	4896
928.585	4683
928.69	4736
928.796	4824
928.901	4717
929.007	4630
929.112	4702
929.218	4641
929.323	4607
929.428	4607
929.533	4660
929.638	4538
929.743	4523
929.848	4561
929.953	4519
930.058	4462
930.163	4352
930.267	4348
930.372	4428
930.477	4318
930.581	4428
930.685	4394
930.79	4299
930.894	4303
930.998	4268
931.103	4394
931.207	4150
931.311	4147
931.415	4055
931.519	3930
931.623	3987
