Data from glass_V78500241_693.txt Node
Date: Wed Sep 01 19:19:18 CST 2021
User: usil
Spectrometer: V785-0024
Trigger mode: 0
Integration Time (sec): 4.000000E-1
Scans to average: 1
Nonlinearity correction enabled: false
Boxcar width: 0
Storing dark spectrum: false
XAxis mode: Wavelengths
Number of Pixels in Spectrum: 1024
>>>>>Begin Spectral Data<<<<<
801.071	3755
801.214	3717
801.356	3667
801.499	3797
801.641	3720
801.783	3797
801.926	3827
802.068	3835
802.211	3892
802.353	3846
802.496	3835
802.638	3880
802.78	3911
802.923	3945
803.065	3888
803.208	3838
803.35	3899
803.492	3911
803.635	3918
803.777	3823
803.919	3903
804.061	4173
804.204	3972
804.346	3949
804.488	3975
804.63	4006
804.773	3979
804.915	4055
805.057	4185
805.199	4032
805.341	4090
805.483	4173
805.626	4116
805.768	4158
805.91	4192
806.052	4268
806.194	4261
806.336	4390
806.478	4211
806.62	4215
806.762	4215
806.904	4371
807.046	4367
807.188	4238
807.33	4188
807.472	4227
807.614	4200
807.756	4291
807.898	4207
808.04	4227
808.182	4295
808.324	4360
808.465	4356
808.607	4497
808.749	4424
808.891	4447
809.033	4550
809.174	4432
809.316	4257
809.458	4257
809.6	4147
809.741	4131
809.883	4166
810.025	4230
810.166	4200
810.308	4249
810.45	4291
810.591	4257
810.733	4295
810.875	4554
811.016	4839
811.158	5124
811.299	5280
811.441	5311
811.582	5083
811.724	4714
811.865	4500
812.007	4462
812.148	4436
812.29	4455
812.431	4402
812.573	4405
812.714	4375
812.855	4417
812.997	4428
813.138	4478
813.279	4436
813.421	4402
813.562	4409
813.703	4337
813.845	4303
813.986	4280
814.127	4230
814.268	4272
814.41	4325
814.551	4249
814.692	4363
814.833	4280
814.974	4333
815.115	4344
815.256	4276
815.397	4219
815.539	4257
815.68	4253
815.821	4177
815.962	4333
816.103	4325
816.244	4265
816.385	4249
816.526	4337
816.666	4257
816.807	4105
816.948	4177
817.089	4169
817.23	4051
817.371	4055
817.512	4109
817.653	4071
817.793	4101
817.934	4078
818.075	4032
818.216	4059
818.356	4143
818.497	3994
818.638	3979
818.778	3956
818.919	3880
819.06	3880
819.2	3953
819.341	3888
819.481	3827
819.622	3896
819.762	3998
819.903	3945
820.043	3880
820.184	3838
820.324	3850
820.465	3907
820.605	3899
820.746	3903
820.886	3804
821.026	3968
821.167	3873
821.307	4002
821.447	3968
821.588	3991
821.728	3956
821.868	3937
822.008	3888
822.149	3937
822.289	3975
822.429	3762
822.569	3774
822.709	3774
822.849	3717
822.99	3724
823.13	3766
823.27	3846
823.41	3724
823.55	3759
823.69	3732
823.83	3751
823.97	3755
824.11	3629
824.25	3580
824.389	3679
824.529	3690
824.669	3648
824.809	3732
824.949	3766
825.089	3736
825.228	3679
825.368	3633
825.508	3572
825.648	3572
825.787	3701
825.927	3682
826.067	3625
826.206	3652
826.346	3819
826.485	3823
826.625	3888
826.765	3915
826.904	3857
827.044	3591
827.183	3542
827.323	3435
827.462	3511
827.601	3443
827.741	3428
827.88	3481
828.02	3378
828.159	3447
828.298	3511
828.437	3545
828.577	3462
828.716	3587
828.855	3507
828.994	3412
829.134	3374
829.273	3409
829.412	3355
829.551	3351
829.69	3374
829.829	3428
829.968	3526
830.107	3458
830.246	3428
830.385	3397
830.524	3351
830.663	3317
830.802	3279
830.941	3233
831.08	3241
831.219	3275
831.357	3313
831.496	3435
831.635	3268
831.774	3180
831.913	3199
832.051	3165
832.19	3154
832.329	3207
832.467	3135
832.606	3135
832.744	3173
832.883	3180
833.022	3207
833.16	3260
833.299	3298
833.437	3351
833.576	3393
833.714	3405
833.852	3469
833.991	3435
834.129	3504
834.267	3428
834.406	3401
834.544	3439
834.682	3428
834.821	3469
834.959	3568
835.097	3435
835.235	3549
835.373	3473
835.511	3466
835.65	3473
835.788	3538
835.926	3405
836.064	3424
836.202	3401
836.34	3576
836.478	3660
836.615	3557
836.753	3618
836.891	3663
837.029	3625
837.167	3591
837.305	3553
837.443	3534
837.58	3542
837.718	3576
837.856	3568
837.993	3511
838.131	3614
838.269	3606
838.406	3603
838.544	3595
838.681	3477
838.819	3447
838.956	3393
839.094	3405
839.231	3466
839.369	3584
839.506	3766
839.643	3652
839.781	3519
839.918	3447
840.055	3519
840.193	3576
840.33	3507
840.467	3564
840.604	3618
840.742	3785
840.879	3534
841.016	3603
841.153	3648
841.29	3770
841.427	3728
841.564	3736
841.701	3770
841.838	3736
841.975	3698
842.112	3743
842.249	3690
842.385	3633
842.522	3857
842.659	3713
842.796	3690
842.933	3740
843.069	3717
843.206	3728
843.343	3819
843.479	3819
843.616	3827
843.752	3705
843.889	3724
844.025	3865
844.162	3717
844.298	3869
844.435	3793
844.571	3797
844.708	3934
844.844	3998
844.98	4071
845.117	4063
845.253	3956
845.389	3930
845.525	3991
845.661	3926
845.798	3915
845.934	4006
846.07	3972
846.206	4048
846.342	4150
846.478	4097
846.614	3949
846.75	3937
846.886	3930
847.022	4059
847.158	4013
847.294	3972
847.429	4013
847.565	4029
847.701	4242
847.837	3899
847.972	3842
848.108	3991
848.244	3983
848.379	3888
848.515	3797
848.65	3854
848.786	3823
848.921	3918
849.057	3964
849.192	3956
849.328	3926
849.463	3949
849.598	3861
849.734	3869
849.869	3884
850.004	3804
850.14	3816
850.275	3789
850.41	3709
850.545	3759
850.68	3823
850.815	3835
850.95	3770
851.085	3964
851.22	3873
851.355	3846
851.49	3789
851.625	3797
851.76	3789
851.895	3751
852.03	3751
852.165	3800
852.299	3854
852.434	3930
852.569	3869
852.703	3896
852.838	3945
852.973	3991
853.107	4021
853.242	3918
853.376	3884
853.511	3778
853.645	3800
853.78	3972
853.914	3892
854.048	3907
854.183	3926
854.317	3937
854.451	4116
854.585	3991
854.72	3975
854.854	4044
854.988	3918
855.122	3998
855.256	3964
855.39	4017
855.524	4124
855.658	4078
855.792	4051
855.926	4109
856.06	4188
856.194	4223
856.327	4143
856.461	4109
856.595	4158
856.729	4219
856.862	4295
856.996	4276
857.13	4352
857.263	4329
857.397	4390
857.53	4318
857.664	4352
857.797	4398
857.931	4432
858.064	4402
858.197	4485
858.331	4398
858.464	4402
858.597	4367
858.731	4478
858.864	4478
858.997	4489
859.13	4481
859.263	4565
859.396	4573
859.529	4546
859.662	4527
859.795	4516
859.928	4615
860.061	4679
860.194	4710
860.327	4683
860.46	4675
860.592	4744
860.725	4771
860.858	4824
860.99	4702
861.123	4763
861.256	4683
861.388	4797
861.521	5273
861.653	4736
861.786	4714
861.918	4763
862.05	4816
862.183	4858
862.315	4908
862.447	4961
862.58	4908
862.712	4809
862.844	4740
862.976	4881
863.108	4847
863.24	5303
863.372	4847
863.504	4900
863.636	4892
863.768	4991
863.9	4980
864.032	4957
864.164	4934
864.296	5025
864.428	5029
864.559	5128
864.691	5159
864.823	5124
864.954	5094
865.086	5189
865.217	5121
865.349	5147
865.48	5216
865.612	5220
865.743	5280
865.875	5231
866.006	5189
866.137	5181
866.269	5280
866.4	5246
866.531	5269
866.662	5258
866.793	5292
866.924	5277
867.055	5357
867.186	5353
867.317	5330
867.448	5330
867.579	5360
867.71	5372
867.841	5379
867.972	5444
868.103	5448
868.233	5505
868.364	5532
868.495	5634
868.625	5703
868.756	5760
868.886	5672
869.017	5756
869.147	5901
869.278	5832
869.408	5790
869.539	5885
869.669	5977
869.799	5942
869.929	6015
870.06	5969
870.19	6235
870.32	6167
870.45	6304
870.58	6327
870.71	6403
870.84	6433
870.97	6437
871.1	6479
871.23	6646
871.36	6658
871.489	6749
871.619	6749
871.749	6844
871.879	6867
872.008	6981
872.138	6943
872.267	7038
872.397	6928
872.526	7080
872.656	7099
872.785	7244
872.915	7400
873.044	7533
873.173	7582
873.303	7693
873.432	7734
873.561	7925
873.69	7928
873.819	7982
873.948	8168
874.077	8263
874.206	8332
874.335	8381
874.464	8674
874.593	8880
874.722	8941
874.851	9184
874.979	9313
875.108	9321
875.237	9466
875.365	9519
875.494	9667
875.623	9873
875.751	9816
875.88	9987
876.008	10188
876.136	10337
876.265	10580
876.393	10771
876.521	10763
876.65	10778
876.778	10835
876.906	10980
877.034	10942
877.162	11090
877.29	11159
877.418	11330
877.546	11360
877.674	11512
877.802	11509
877.93	11543
878.058	11570
878.185	11627
878.313	11623
878.441	11836
878.568	11722
878.696	11726
878.824	11790
878.951	12011
879.079	12034
879.206	12068
879.333	12049
879.461	12068
879.588	12102
879.715	12076
879.842	12163
879.97	12155
880.097	11805
880.224	11912
880.351	11859
880.478	11984
880.605	11893
880.732	11897
880.859	11977
880.986	11775
881.112	11885
881.239	11668
881.366	11760
881.493	11657
881.619	11528
881.746	11558
881.872	11493
881.999	11608
882.125	11520
882.252	11543
882.378	11501
882.505	11486
882.631	11391
882.757	11326
882.883	11356
883.01	11280
883.136	11246
883.262	11090
883.388	11079
883.514	11189
883.64	11189
883.766	11086
883.892	10965
884.018	10984
884.143	11045
884.269	11151
884.395	10839
884.52	10869
884.646	10828
884.772	10714
884.897	10698
885.023	10729
885.148	10774
885.274	10774
885.399	10672
885.524	10675
885.65	10618
885.775	10565
885.9	10565
886.025	10611
886.15	10653
886.275	10424
886.4	10421
886.525	10436
886.65	10447
886.775	10382
886.9	10523
887.025	10561
887.149	10318
887.274	10284
887.399	10249
887.523	10185
887.648	10230
887.773	10158
887.897	10265
888.021	10318
888.146	10112
888.27	10204
888.395	10318
888.519	10131
888.643	10207
888.767	10204
888.891	10112
889.015	10029
889.139	10105
889.263	10074
889.387	10112
889.511	10082
889.635	10131
889.759	9876
889.883	10029
890.006	10021
890.13	10177
890.254	9953
890.377	10002
890.501	9831
890.624	9937
890.748	9835
890.871	9865
890.995	9690
891.118	9740
891.241	9766
891.364	9781
891.488	9831
891.611	9800
891.734	9732
891.857	9781
891.98	9740
892.103	9804
892.226	9720
892.349	9713
892.471	9595
892.594	9633
892.717	9633
892.839	9610
892.962	9690
893.085	9671
893.207	9587
893.33	9500
893.452	9542
893.575	9641
893.697	9564
893.819	9648
893.941	9713
894.064	9599
894.186	9435
894.308	9458
894.43	9488
894.552	9580
894.674	9526
894.796	9401
894.918	9317
895.04	9389
895.161	9393
895.283	9386
895.405	9325
895.526	9279
895.648	9329
895.769	9268
895.891	9294
896.012	9348
896.134	9138
896.255	9138
896.376	9199
896.498	9184
896.619	9116
896.74	9074
896.861	9093
896.982	9355
897.103	9340
897.224	9142
897.345	9047
897.466	9001
897.587	9043
897.708	9081
897.828	9013
897.949	8994
898.07	8941
898.19	8937
898.311	9039
898.431	8952
898.552	8937
898.672	9024
898.792	9001
898.913	8937
899.033	8864
899.153	8796
899.273	8651
899.393	8754
899.513	8766
899.633	8769
899.753	8811
899.873	8701
899.993	8735
900.113	8724
900.232	8762
900.352	8689
900.472	8602
900.591	8610
900.711	8629
900.83	8560
900.95	8667
901.069	8705
901.189	8606
901.308	8427
901.427	8408
901.546	8465
901.665	8488
901.784	8530
901.904	8396
902.023	8351
902.141	8244
902.26	8286
902.379	8229
902.498	8199
902.617	8221
902.735	8244
902.854	8324
902.973	8267
903.091	8119
903.21	8191
903.328	8267
903.446	8138
903.565	8103
903.683	8100
903.801	8058
903.919	8077
904.038	8123
904.156	8050
904.274	8088
904.392	8016
904.51	8088
904.627	8046
904.745	8073
904.863	8138
904.981	8024
905.098	7868
905.216	7906
905.334	7932
905.451	7913
905.569	7875
905.686	7997
905.803	7940
905.921	7693
906.038	7868
906.155	7807
906.272	7723
906.389	7837
906.506	7586
906.623	7693
906.74	7628
906.857	7552
906.974	7571
907.091	7647
907.208	7700
907.324	7651
907.441	7540
907.557	7499
907.674	7434
907.79	7430
907.907	7472
908.023	7445
908.139	7480
908.256	7354
908.372	7365
908.488	7407
908.604	7343
908.72	7247
908.836	7327
908.952	7244
909.068	7270
909.184	7331
909.3	7266
909.415	7282
909.531	7240
909.647	7156
909.762	7114
909.878	7091
909.993	7126
910.108	7122
910.224	7103
910.339	7103
910.454	7023
910.57	7027
910.685	7000
910.8	7145
910.915	7110
911.03	7050
911.145	6939
911.259	6920
911.374	6905
911.489	6833
911.604	6825
911.718	6719
911.833	6745
911.947	6673
912.062	6593
912.176	6707
912.291	6696
912.405	6707
912.519	6810
912.633	6818
912.748	6749
912.862	6703
912.976	6574
913.09	6570
913.204	6563
913.318	6646
913.431	6692
913.545	6711
913.659	6719
913.772	6669
913.886	6578
914	6521
914.113	6642
914.226	6593
914.34	6635
914.453	6486
914.566	6623
914.68	6593
914.793	6525
914.906	6456
915.019	6380
915.132	6418
915.245	6399
915.358	6452
915.47	6448
915.583	6502
915.696	6475
915.809	6517
915.921	6563
916.034	6460
916.146	6418
916.259	6422
916.371	6471
916.483	6509
916.595	6403
916.708	6410
916.82	6471
916.932	6365
917.044	6384
917.156	6441
917.268	6346
917.38	6327
917.491	6338
917.603	6376
917.715	6403
917.826	6418
917.938	6300
918.049	6281
918.161	6388
918.272	6445
918.384	6475
918.495	6353
918.606	6285
918.717	6213
918.828	6331
918.939	6277
919.05	6232
919.161	6270
919.272	6167
919.383	6159
919.494	6266
919.604	6418
919.715	6258
919.826	6258
919.936	6273
920.047	6353
920.157	6228
920.267	6429
920.378	6403
920.488	6311
920.598	6426
920.708	6563
920.818	6479
920.928	6460
921.038	6616
921.148	6559
921.258	6452
921.368	6285
921.477	6178
921.587	6182
921.697	6110
921.806	6125
921.916	6117
922.025	5946
922.134	5950
922.244	5942
922.353	5950
922.462	5878
922.571	5813
922.68	5722
922.789	5691
922.898	5729
923.007	5604
923.116	5684
923.224	5695
923.333	5691
923.442	5657
923.55	5524
923.659	5585
923.767	5649
923.876	5577
923.984	5581
924.092	5486
924.201	5543
924.309	5535
924.417	5554
924.525	5532
924.633	5566
924.741	6136
924.849	5364
924.956	5478
925.064	5440
925.172	5318
925.279	5292
925.387	5349
925.494	5372
925.602	5482
925.709	5395
925.816	5303
925.924	5284
926.031	5330
926.138	5284
926.245	5322
926.352	5250
926.459	5288
926.566	5296
926.673	5242
926.779	5117
926.886	5105
926.993	5086
927.099	5003
927.206	4995
927.312	5022
927.419	5071
927.525	4995
927.631	5006
927.737	4904
927.843	4824
927.95	4771
928.056	4816
928.162	4805
928.267	4896
928.373	5353
928.479	4873
928.585	4679
928.69	4763
928.796	4835
928.901	4740
929.007	4641
929.112	4668
929.218	4634
929.323	4615
929.428	4592
929.533	4622
929.638	4512
929.743	4599
929.848	4527
929.953	4531
930.058	4447
930.163	4360
930.267	4344
930.372	4424
930.477	4310
930.581	4466
930.685	4402
930.79	4284
930.894	4333
930.998	4223
931.103	4432
931.207	4181
931.311	4139
931.415	4055
931.519	3968
931.623	3915
