Data from glass_V78500241_1424.txt Node
Date: Wed Sep 01 19:24:22 CST 2021
User: usil
Spectrometer: V785-0024
Trigger mode: 0
Integration Time (sec): 4.000000E-1
Scans to average: 1
Nonlinearity correction enabled: false
Boxcar width: 0
Storing dark spectrum: false
XAxis mode: Wavelengths
Number of Pixels in Spectrum: 1024
>>>>>Begin Spectral Data<<<<<
801.071	3770
801.214	3728
801.356	3732
801.499	3701
801.641	3740
801.783	3774
801.926	3903
802.068	3827
802.211	3876
802.353	3903
802.496	3827
802.638	3888
802.78	3899
802.923	3930
803.065	3896
803.208	3838
803.35	3880
803.492	3888
803.635	3888
803.777	3808
803.919	3903
804.061	4143
804.204	3949
804.346	3930
804.488	3930
804.63	4040
804.773	3991
804.915	4006
805.057	4162
805.199	4048
805.341	4082
805.483	4177
805.626	4139
805.768	4105
805.91	4211
806.052	4192
806.194	4204
806.336	4363
806.478	4200
806.62	4219
806.762	4192
806.904	4219
807.046	4360
807.188	4223
807.33	4139
807.472	4219
807.614	4196
807.756	4310
807.898	4166
808.04	4246
808.182	4318
808.324	4314
808.465	4394
808.607	4493
808.749	4455
808.891	4546
809.033	4497
809.174	4432
809.316	4249
809.458	4215
809.6	4143
809.741	4131
809.883	4143
810.025	4238
810.166	4154
810.308	4181
810.45	4287
810.591	4223
810.733	4295
810.875	4538
811.016	4816
811.158	5121
811.299	5250
811.441	5258
811.582	5037
811.724	4729
811.865	4455
812.007	4538
812.148	4417
812.29	4421
812.431	4424
812.573	4402
812.714	4383
812.855	4363
812.997	4413
813.138	4493
813.279	4417
813.421	4352
813.562	4432
813.703	4348
813.845	4360
813.986	4287
814.127	4181
814.268	4249
814.41	4287
814.551	4280
814.692	4325
814.833	4318
814.974	4325
815.115	4356
815.256	4295
815.397	4249
815.539	4249
815.68	4211
815.821	4215
815.962	4352
816.103	4303
816.244	4265
816.385	4242
816.526	4287
816.666	4227
816.807	4063
816.948	4158
817.089	4116
817.23	4162
817.371	4040
817.512	4036
817.653	4025
817.793	4082
817.934	4025
818.075	4116
818.216	4071
818.356	4097
818.497	4021
818.638	3934
818.778	3956
818.919	3930
819.06	3884
819.2	3899
819.341	3854
819.481	3876
819.622	3915
819.762	4036
819.903	3953
820.043	3819
820.184	3850
820.324	3816
820.465	3896
820.605	3873
820.746	3861
820.886	3766
821.026	3915
821.167	3915
821.307	3975
821.447	3983
821.588	3964
821.728	3972
821.868	3956
822.008	3861
822.149	3873
822.289	3934
822.429	3789
822.569	3793
822.709	3778
822.849	3705
822.99	3736
823.13	3728
823.27	3812
823.41	3743
823.55	3732
823.69	3762
823.83	3755
823.97	3675
824.11	3576
824.25	3603
824.389	3629
824.529	3682
824.669	3614
824.809	3709
824.949	3778
825.089	3747
825.228	3705
825.368	3564
825.508	3545
825.648	3553
825.787	3599
825.927	3618
826.067	3614
826.206	3709
826.346	3831
826.485	3861
826.625	3876
826.765	3937
826.904	3842
827.044	3576
827.183	3542
827.323	3473
827.462	3504
827.601	3439
827.741	3458
827.88	3473
828.02	3405
828.159	3447
828.298	3504
828.437	3523
828.577	3469
828.716	3591
828.855	3530
828.994	3378
829.134	3374
829.273	3378
829.412	3348
829.551	3351
829.69	3355
829.829	3431
829.968	3492
830.107	3428
830.246	3485
830.385	3359
830.524	3351
830.663	3306
830.802	3260
830.941	3184
831.08	3165
831.219	3272
831.357	3279
831.496	3393
831.635	3241
831.774	3192
831.913	3222
832.051	3138
832.19	3119
832.329	3176
832.467	3142
832.606	3074
832.744	3173
832.883	3165
833.022	3169
833.16	3249
833.299	3321
833.437	3378
833.576	3370
833.714	3458
833.852	3412
833.991	3466
834.129	3511
834.267	3469
834.406	3401
834.544	3469
834.682	3473
834.821	3405
834.959	3580
835.097	3416
835.235	3519
835.373	3504
835.511	3549
835.65	3469
835.788	3454
835.926	3416
836.064	3412
836.202	3420
836.34	3553
836.478	3614
836.615	3553
836.753	3591
836.891	3644
837.029	3641
837.167	3557
837.305	3549
837.443	3568
837.58	3542
837.718	3599
837.856	3564
837.993	3534
838.131	3606
838.269	3580
838.406	3584
838.544	3618
838.681	3477
838.819	3481
838.956	3340
839.094	3412
839.231	3450
839.369	3545
839.506	3724
839.643	3641
839.781	3488
839.918	3458
840.055	3534
840.193	3553
840.33	3507
840.467	3580
840.604	3561
840.742	3804
840.879	3515
841.016	3561
841.153	3603
841.29	3747
841.427	3713
841.564	3759
841.701	3740
841.838	3667
841.975	3675
842.112	3690
842.249	3629
842.385	3660
842.522	3808
842.659	3732
842.796	3667
842.933	3679
843.069	3679
843.206	3644
843.343	3781
843.479	3762
843.616	3808
843.752	3690
843.889	3705
844.025	3903
844.162	3728
844.298	3857
844.435	3797
844.571	3770
844.708	3907
844.844	3991
844.98	3994
845.117	3998
845.253	3934
845.389	3911
845.525	3915
845.661	3975
845.798	3915
845.934	4036
846.07	3964
846.206	4078
846.342	4120
846.478	4059
846.614	3987
846.75	3941
846.886	3949
847.022	4013
847.158	3960
847.294	3994
847.429	4055
847.565	4036
847.701	4268
847.837	3896
847.972	3823
848.108	3953
848.244	3930
848.379	3800
848.515	3816
848.65	3835
848.786	3835
848.921	3876
849.057	3911
849.192	3953
849.328	3888
849.463	3915
849.598	3873
849.734	3861
849.869	3835
850.004	3800
850.14	3774
850.275	3781
850.41	3717
850.545	3724
850.68	3789
850.815	3808
850.95	3797
851.085	3983
851.22	3816
851.355	3827
851.49	3762
851.625	3778
851.76	3778
851.895	3740
852.03	3732
852.165	3816
852.299	3816
852.434	3903
852.569	3861
852.703	3869
852.838	3937
852.973	4055
853.107	3991
853.242	3880
853.376	3884
853.511	3808
853.645	3838
853.78	3987
853.914	3880
854.048	3903
854.183	3899
854.317	3945
854.451	4044
854.585	3972
854.72	3926
854.854	4055
854.988	3899
855.122	3964
855.256	3915
855.39	4067
855.524	4139
855.658	4093
855.792	4169
855.926	4135
856.06	4158
856.194	4219
856.327	4105
856.461	4112
856.595	4139
856.729	4169
856.862	4287
856.996	4257
857.13	4284
857.263	4322
857.397	4363
857.53	4299
857.664	4352
857.797	4394
857.931	4421
858.064	4390
858.197	4428
858.331	4363
858.464	4424
858.597	4348
858.731	4455
858.864	4459
858.997	4500
859.13	4542
859.263	4516
859.396	4588
859.529	4535
859.662	4504
859.795	4527
859.928	4599
860.061	4675
860.194	4714
860.327	4675
860.46	4675
860.592	4744
860.725	4793
860.858	4771
860.99	4660
861.123	4694
861.256	4752
861.388	4736
861.521	5311
861.653	4805
861.786	4744
861.918	4759
862.05	4831
862.183	4892
862.315	4904
862.447	4938
862.58	4873
862.712	4812
862.844	4816
862.976	4889
863.108	4835
863.24	5170
863.372	4843
863.504	4915
863.636	4942
863.768	4949
863.9	4961
864.032	4946
864.164	5014
864.296	5094
864.428	5181
864.559	5067
864.691	5178
864.823	5105
864.954	5143
865.086	5178
865.217	5094
865.349	5090
865.48	5124
865.612	5197
865.743	5315
865.875	5189
866.006	5223
866.137	5220
866.269	5261
866.4	5239
866.531	5273
866.662	5258
866.793	5254
866.924	5292
867.055	5368
867.186	5296
867.317	5326
867.448	5296
867.579	5410
867.71	5414
867.841	5459
867.972	5490
868.103	5474
868.233	5474
868.364	5505
868.495	5604
868.625	5657
868.756	5805
868.886	5699
869.017	5756
869.147	5897
869.278	5847
869.408	5813
869.539	5828
869.669	5954
869.799	5916
869.929	5950
870.06	5977
870.19	6167
870.32	6201
870.45	6235
870.58	6407
870.71	6429
870.84	6437
870.97	6388
871.1	6452
871.23	6635
871.36	6722
871.489	6688
871.619	6703
871.749	6810
871.879	6886
872.008	6928
872.138	6977
872.267	6989
872.397	7027
872.526	7057
872.656	7046
872.785	7190
872.915	7384
873.044	7575
873.173	7495
873.303	7552
873.432	7757
873.561	7898
873.69	7841
873.819	7997
873.948	8172
874.077	8259
874.206	8339
874.335	8480
874.464	8682
874.593	8830
874.722	8891
874.851	9123
874.979	9218
875.108	9302
875.237	9519
875.365	9519
875.494	9629
875.623	9724
875.751	9827
875.88	10036
876.008	10109
876.136	10272
876.265	10500
876.393	10706
876.521	10637
876.65	10885
876.778	10801
876.906	10957
877.034	10965
877.162	11075
877.29	11174
877.418	11280
877.546	11288
877.674	11455
877.802	11554
877.93	11516
878.058	11623
878.185	11573
878.313	11703
878.441	11668
878.568	11752
878.696	11748
878.824	11859
878.951	11958
879.079	11973
879.206	12117
879.333	12076
879.461	12041
879.588	12102
879.715	12087
879.842	12087
879.97	11980
880.097	11885
880.224	11874
880.351	11912
880.478	11889
880.605	11748
880.732	11741
880.859	12026
880.986	11802
881.112	11840
881.239	11688
881.366	11646
881.493	11600
881.619	11562
881.746	11573
881.872	11512
881.999	11493
882.125	11372
882.252	11611
882.378	11486
882.505	11638
882.631	11334
882.757	11322
882.883	11326
883.01	11189
883.136	11181
883.262	11048
883.388	11143
883.514	11204
883.64	11124
883.766	11121
883.892	10991
884.018	10999
884.143	11064
884.269	11162
884.395	10778
884.52	10717
884.646	10736
884.772	10748
884.897	10630
885.023	10653
885.148	10683
885.274	10710
885.399	10702
885.524	10611
885.65	10630
885.775	10554
885.9	10542
886.025	10630
886.15	10626
886.275	10485
886.4	10390
886.525	10390
886.65	10432
886.775	10322
886.9	10516
887.025	10558
887.149	10303
887.274	10227
887.399	10227
887.523	10105
887.648	10109
887.773	10162
887.897	10234
888.021	10238
888.146	10044
888.27	10238
888.395	10200
888.519	10162
888.643	10086
888.767	10143
888.891	10063
889.015	9975
889.139	10044
889.263	10032
889.387	10051
889.511	10071
889.635	10082
889.759	10055
889.883	9945
890.006	9968
890.13	10112
890.254	9960
890.377	9953
890.501	9835
890.624	9895
890.748	9892
890.871	9762
890.995	9713
891.118	9713
891.241	9781
891.364	9720
891.488	9823
891.611	9728
891.734	9724
891.857	9778
891.98	9720
892.103	9736
892.226	9732
892.349	9671
892.471	9614
892.594	9568
892.717	9660
892.839	9595
892.962	9648
893.085	9663
893.207	9614
893.33	9477
893.452	9549
893.575	9599
893.697	9496
893.819	9587
893.941	9720
894.064	9538
894.186	9447
894.308	9367
894.43	9515
894.552	9599
894.674	9530
894.796	9363
894.918	9313
895.04	9329
895.161	9340
895.283	9428
895.405	9253
895.526	9237
895.648	9214
895.769	9245
895.891	9237
896.012	9332
896.134	9169
896.255	9176
896.376	9055
896.498	9150
896.619	9138
896.74	9066
896.861	9077
896.982	9203
897.103	9344
897.224	9199
897.345	9123
897.466	8982
897.587	8967
897.708	9062
897.828	9097
897.949	8895
898.07	8910
898.19	8899
898.311	9028
898.431	8899
898.552	8971
898.672	8971
898.792	9001
898.913	8883
899.033	8883
899.153	8712
899.273	8670
899.393	8705
899.513	8804
899.633	8712
899.753	8773
899.873	8758
899.993	8708
900.113	8606
900.232	8720
900.352	8689
900.472	8560
900.591	8556
900.711	8644
900.83	8598
900.95	8617
901.069	8678
901.189	8552
901.308	8427
901.427	8412
901.546	8454
901.665	8438
901.784	8545
901.904	8324
902.023	8355
902.141	8275
902.26	8191
902.379	8256
902.498	8248
902.617	8244
902.735	8336
902.854	8263
902.973	8267
903.091	8142
903.21	8092
903.328	8168
903.446	8168
903.565	8081
903.683	8077
903.801	8054
903.919	8107
904.038	8164
904.156	8046
904.274	8119
904.392	7986
904.51	7986
904.627	8039
904.745	8046
904.863	8088
904.981	7883
905.098	7814
905.216	7833
905.334	7841
905.451	7917
905.569	7887
905.686	7940
905.803	7902
905.921	7719
906.038	7883
906.155	7792
906.272	7757
906.389	7746
906.506	7609
906.623	7685
906.74	7537
906.857	7495
906.974	7620
907.091	7658
907.208	7734
907.324	7689
907.441	7575
907.557	7472
907.674	7445
907.79	7400
907.907	7373
908.023	7453
908.139	7426
908.256	7377
908.372	7377
908.488	7324
908.604	7324
908.72	7263
908.836	7240
908.952	7301
909.068	7255
909.184	7282
909.3	7301
909.415	7285
909.531	7339
909.647	7076
909.762	7122
909.878	7088
909.993	7080
910.108	7149
910.224	7145
910.339	7126
910.454	6973
910.57	7076
910.685	6993
910.8	7149
910.915	7126
911.03	7019
911.145	6901
911.259	6852
911.374	6878
911.489	6878
911.604	6757
911.718	6749
911.833	6776
911.947	6673
912.062	6604
912.176	6688
912.291	6700
912.405	6681
912.519	6840
912.633	6821
912.748	6715
912.862	6692
912.976	6585
913.09	6521
913.204	6635
913.318	6616
913.431	6646
913.545	6654
913.659	6650
913.772	6677
913.886	6570
914	6494
914.113	6639
914.226	6623
914.34	6635
914.453	6464
914.566	6646
914.68	6433
914.793	6559
914.906	6407
915.019	6384
915.132	6376
915.245	6467
915.358	6464
915.47	6471
915.583	6441
915.696	6448
915.809	6536
915.921	6483
916.034	6422
916.146	6342
916.259	6388
916.371	6437
916.483	6448
916.595	6407
916.708	6399
916.82	6372
916.932	6422
917.044	6384
917.156	6353
917.268	6380
917.38	6350
917.491	6285
917.603	6384
917.715	6353
917.826	6429
917.938	6353
918.049	6228
918.161	6346
918.272	6369
918.384	6441
918.495	6372
918.606	6281
918.717	6239
918.828	6194
918.939	6300
919.05	6194
919.161	6273
919.272	6152
919.383	6175
919.494	6308
919.604	6418
919.715	6292
919.826	6216
919.936	6254
920.047	6289
920.157	6300
920.267	6403
920.378	6369
920.488	6277
920.598	6422
920.708	6551
920.818	6467
920.928	6502
921.038	6570
921.148	6559
921.258	6407
921.368	6277
921.477	6239
921.587	6159
921.697	6106
921.806	6209
921.916	6034
922.025	5973
922.134	5950
922.244	5885
922.353	5969
922.462	5855
922.571	5798
922.68	5691
922.789	5726
922.898	5657
923.007	5634
923.116	5676
923.224	5714
923.333	5703
923.442	5600
923.55	5570
923.659	5634
923.767	5661
923.876	5509
923.984	5608
924.092	5474
924.201	5562
924.309	5547
924.417	5539
924.525	5490
924.633	5528
924.741	6163
924.849	5398
924.956	5512
925.064	5372
925.172	5303
925.279	5337
925.387	5402
925.494	5353
925.602	5440
925.709	5448
925.816	5334
925.924	5311
926.031	5337
926.138	5315
926.245	5402
926.352	5193
926.459	5357
926.566	5311
926.673	5242
926.779	5136
926.886	5143
926.993	5075
927.099	4980
927.206	4991
927.312	4980
927.419	4991
927.525	4938
927.631	4999
927.737	4877
927.843	4934
927.95	4793
928.056	4877
928.162	4820
928.267	4900
928.373	5254
928.479	4892
928.585	4736
928.69	4748
928.796	4736
928.901	4649
929.007	4645
929.112	4672
929.218	4603
929.323	4630
929.428	4558
929.533	4641
929.638	4516
929.743	4550
929.848	4516
929.953	4542
930.058	4440
930.163	4299
930.267	4341
930.372	4413
930.477	4261
930.581	4481
930.685	4383
930.79	4276
930.894	4325
930.998	4280
931.103	4398
931.207	4112
931.311	4082
931.415	4059
931.519	3960
931.623	3960
