Data from glass_V78500241_2677.txt Node
Date: Wed Sep 01 19:33:03 CST 2021
User: usil
Spectrometer: V785-0024
Trigger mode: 0
Integration Time (sec): 4.000000E-1
Scans to average: 1
Nonlinearity correction enabled: false
Boxcar width: 0
Storing dark spectrum: false
XAxis mode: Wavelengths
Number of Pixels in Spectrum: 1024
>>>>>Begin Spectral Data<<<<<
801.071	3701
801.214	3728
801.356	3698
801.499	3751
801.641	3690
801.783	3728
801.926	3869
802.068	3800
802.211	3846
802.353	3861
802.496	3816
802.638	3854
802.78	3899
802.923	3953
803.065	3896
803.208	3797
803.35	3880
803.492	3819
803.635	3873
803.777	3793
803.919	3876
804.061	4128
804.204	3922
804.346	3934
804.488	3880
804.63	4040
804.773	3934
804.915	4040
805.057	4109
805.199	4067
805.341	4086
805.483	4097
805.626	4097
805.768	4109
805.91	4154
806.052	4192
806.194	4173
806.336	4325
806.478	4181
806.62	4158
806.762	4181
806.904	4265
807.046	4329
807.188	4166
807.33	4200
807.472	4257
807.614	4169
807.756	4253
807.898	4242
808.04	4188
808.182	4268
808.324	4356
808.465	4367
808.607	4516
808.749	4421
808.891	4436
809.033	4485
809.174	4379
809.316	4227
809.458	4234
809.6	4147
809.741	4166
809.883	4162
810.025	4200
810.166	4192
810.308	4211
810.45	4227
810.591	4249
810.733	4314
810.875	4538
811.016	4847
811.158	5113
811.299	5261
811.441	5258
811.582	5102
811.724	4660
811.865	4459
812.007	4470
812.148	4466
812.29	4398
812.431	4375
812.573	4375
812.714	4371
812.855	4413
812.997	4405
813.138	4466
813.279	4421
813.421	4367
813.562	4352
813.703	4322
813.845	4348
813.986	4223
814.127	4272
814.268	4230
814.41	4287
814.551	4238
814.692	4303
814.833	4230
814.974	4287
815.115	4303
815.256	4204
815.397	4227
815.539	4242
815.68	4207
815.821	4181
815.962	4303
816.103	4284
816.244	4173
816.385	4238
816.526	4265
816.666	4200
816.807	4078
816.948	4166
817.089	4158
817.23	4105
817.371	4002
817.512	4040
817.653	4074
817.793	4040
817.934	4006
818.075	4086
818.216	4071
818.356	4082
818.497	3960
818.638	3918
818.778	3915
818.919	3899
819.06	3865
819.2	3907
819.341	3804
819.481	3804
819.622	3899
819.762	4021
819.903	3934
820.043	3808
820.184	3831
820.324	3778
820.465	3884
820.605	3831
820.746	3884
820.886	3751
821.026	3930
821.167	3911
821.307	3991
821.447	3960
821.588	3968
821.728	3941
821.868	3896
822.008	3857
822.149	3884
822.289	3911
822.429	3774
822.569	3785
822.709	3774
822.849	3698
822.99	3698
823.13	3705
823.27	3732
823.41	3682
823.55	3720
823.69	3698
823.83	3755
823.97	3648
824.11	3584
824.25	3614
824.389	3633
824.529	3656
824.669	3614
824.809	3713
824.949	3724
825.089	3728
825.228	3652
825.368	3526
825.508	3545
825.648	3568
825.787	3580
825.927	3606
826.067	3595
826.206	3660
826.346	3770
826.485	3789
826.625	3816
826.765	3903
826.904	3819
827.044	3587
827.183	3545
827.323	3447
827.462	3473
827.601	3416
827.741	3389
827.88	3462
828.02	3393
828.159	3389
828.298	3454
828.437	3534
828.577	3428
828.716	3564
828.855	3466
828.994	3359
829.134	3351
829.273	3386
829.412	3355
829.551	3310
829.69	3351
829.829	3389
829.968	3515
830.107	3405
830.246	3435
830.385	3325
830.524	3336
830.663	3283
830.802	3245
830.941	3195
831.08	3184
831.219	3237
831.357	3233
831.496	3367
831.635	3207
831.774	3203
831.913	3203
832.051	3112
832.19	3116
832.329	3180
832.467	3116
832.606	3119
832.744	3119
832.883	3169
833.022	3161
833.16	3272
833.299	3279
833.437	3344
833.576	3313
833.714	3401
833.852	3443
833.991	3458
834.129	3462
834.267	3409
834.406	3382
834.544	3412
834.682	3401
834.821	3397
834.959	3591
835.097	3412
835.235	3523
835.373	3447
835.511	3469
835.65	3443
835.788	3462
835.926	3348
836.064	3348
836.202	3386
836.34	3557
836.478	3614
836.615	3542
836.753	3564
836.891	3648
837.029	3622
837.167	3580
837.305	3584
837.443	3542
837.58	3488
837.718	3564
837.856	3545
837.993	3523
838.131	3557
838.269	3534
838.406	3572
838.544	3515
838.681	3485
838.819	3439
838.956	3344
839.094	3363
839.231	3473
839.369	3534
839.506	3705
839.643	3641
839.781	3477
839.918	3466
840.055	3504
840.193	3462
840.33	3485
840.467	3538
840.604	3633
840.742	3766
840.879	3549
841.016	3519
841.153	3587
841.29	3705
841.427	3724
841.564	3682
841.701	3724
841.838	3671
841.975	3698
842.112	3694
842.249	3641
842.385	3625
842.522	3835
842.659	3667
842.796	3671
842.933	3682
843.069	3701
843.206	3709
843.343	3804
843.479	3800
843.616	3781
843.752	3660
843.889	3660
844.025	3785
844.162	3709
844.298	3846
844.435	3762
844.571	3781
844.708	3884
844.844	3991
844.98	4032
845.117	3975
845.253	3911
845.389	3892
845.525	3975
845.661	3960
845.798	3907
845.934	3983
846.07	3945
846.206	4074
846.342	4116
846.478	4051
846.614	3945
846.75	3873
846.886	3899
847.022	4021
847.158	3956
847.294	3979
847.429	4010
847.565	3994
847.701	4227
847.837	3861
847.972	3842
848.108	3945
848.244	3956
848.379	3823
848.515	3808
848.65	3861
848.786	3812
848.921	3800
849.057	3888
849.192	3972
849.328	3876
849.463	3854
849.598	3865
849.734	3823
849.869	3812
850.004	3740
850.14	3831
850.275	3793
850.41	3736
850.545	3732
850.68	3766
850.815	3793
850.95	3747
851.085	3937
851.22	3861
851.355	3781
851.49	3781
851.625	3789
851.76	3751
851.895	3743
852.03	3713
852.165	3774
852.299	3827
852.434	3876
852.569	3869
852.703	3835
852.838	3873
852.973	4025
853.107	3956
853.242	3869
853.376	3823
853.511	3720
853.645	3823
853.78	3972
853.914	3880
854.048	3899
854.183	3892
854.317	3926
854.451	4010
854.585	3926
854.72	3930
854.854	4017
854.988	3922
855.122	3918
855.256	3911
855.39	4013
855.524	4135
855.658	4074
855.792	4074
855.926	4116
856.06	4158
856.194	4223
856.327	4090
856.461	4139
856.595	4207
856.729	4169
856.862	4276
856.996	4211
857.13	4246
857.263	4299
857.397	4352
857.53	4268
857.664	4329
857.797	4379
857.931	4405
858.064	4394
858.197	4440
858.331	4333
858.464	4394
858.597	4314
858.731	4383
858.864	4428
858.997	4447
859.13	4516
859.263	4554
859.396	4596
859.529	4527
859.662	4478
859.795	4535
859.928	4607
860.061	4656
860.194	4759
860.327	4660
860.46	4664
860.592	4714
860.725	4774
860.858	4744
860.99	4710
861.123	4694
861.256	4702
861.388	4733
861.521	5261
861.653	4683
861.786	4733
861.918	4721
862.05	4710
862.183	4824
862.315	4843
862.447	4900
862.58	4870
862.712	4759
862.844	4752
862.976	4847
863.108	4820
863.24	5261
863.372	4831
863.504	4843
863.636	4873
863.768	4930
863.9	4957
864.032	4911
864.164	4919
864.296	4984
864.428	5102
864.559	5090
864.691	5098
864.823	5178
864.954	5143
865.086	5117
865.217	5105
865.349	5102
865.48	5136
865.612	5159
865.743	5284
865.875	5178
866.006	5162
866.137	5227
866.269	5239
866.4	5239
866.531	5254
866.662	5227
866.793	5242
866.924	5261
867.055	5322
867.186	5303
867.317	5303
867.448	5242
867.579	5383
867.71	5376
867.841	5337
867.972	5505
868.103	5463
868.233	5410
868.364	5474
868.495	5562
868.625	5596
868.756	5786
868.886	5684
869.017	5745
869.147	5870
869.278	5817
869.408	5805
869.539	5798
869.669	5942
869.799	5874
869.929	5965
870.06	6038
870.19	6152
870.32	6125
870.45	6308
870.58	6331
870.71	6441
870.84	6441
870.97	6418
871.1	6448
871.23	6608
871.36	6703
871.489	6677
871.619	6669
871.749	6829
871.879	6897
872.008	6977
872.138	6947
872.267	6947
872.397	6966
872.526	7042
872.656	7061
872.785	7206
872.915	7358
873.044	7495
873.173	7506
873.303	7632
873.432	7761
873.561	7849
873.69	7913
873.819	8016
873.948	8138
874.077	8248
874.206	8290
874.335	8431
874.464	8697
874.593	8925
874.722	8861
874.851	9017
874.979	9192
875.108	9336
875.237	9424
875.365	9428
875.494	9606
875.623	9804
875.751	9819
875.88	9926
876.008	10169
876.136	10211
876.265	10516
876.393	10714
876.521	10755
876.65	10793
876.778	10889
876.906	10858
877.034	10972
877.162	11018
877.29	11147
877.418	11258
877.546	11330
877.674	11425
877.802	11493
877.93	11459
878.058	11604
878.185	11505
878.313	11718
878.441	11756
878.568	11611
878.696	11767
878.824	11870
878.951	11973
879.079	12030
879.206	12121
879.333	12053
879.461	12030
879.588	12038
879.715	12011
879.842	12232
879.97	12019
880.097	11840
880.224	11828
880.351	11927
880.478	11843
880.605	11805
880.732	11790
880.859	11996
880.986	11809
881.112	11809
881.239	11665
881.366	11630
881.493	11642
881.619	11535
881.746	11570
881.872	11547
881.999	11532
882.125	11497
882.252	11520
882.378	11463
882.505	11608
882.631	11345
882.757	11239
882.883	11326
883.01	11208
883.136	11216
883.262	11079
883.388	11098
883.514	11166
883.64	11147
883.766	11048
883.892	10965
884.018	11079
884.143	11003
884.269	11025
884.395	10858
884.52	10683
884.646	10736
884.772	10656
884.897	10664
885.023	10698
885.148	10786
885.274	10736
885.399	10702
885.524	10584
885.65	10561
885.775	10584
885.9	10546
886.025	10622
886.15	10527
886.275	10432
886.4	10424
886.525	10341
886.65	10421
886.775	10325
886.9	10489
887.025	10485
887.149	10295
887.274	10238
887.399	10246
887.523	10185
887.648	10139
887.773	10128
887.897	10196
888.021	10192
888.146	10150
888.27	10192
888.395	10211
888.519	10196
888.643	10162
888.767	10150
888.891	10067
889.015	10055
889.139	10063
889.263	9926
889.387	10055
889.511	9968
889.635	10055
889.759	9911
889.883	9956
890.006	9930
890.13	10067
890.254	9941
890.377	10006
890.501	9797
890.624	9865
890.748	9823
890.871	9743
890.995	9770
891.118	9766
891.241	9755
891.364	9690
891.488	9838
891.611	9656
891.734	9759
891.857	9732
891.98	9690
892.103	9724
892.226	9644
892.349	9606
892.471	9557
892.594	9576
892.717	9629
892.839	9504
892.962	9545
893.085	9660
893.207	9572
893.33	9504
893.452	9397
893.575	9603
893.697	9439
893.819	9622
893.941	9656
894.064	9641
894.186	9450
894.308	9389
894.43	9511
894.552	9500
894.674	9526
894.796	9428
894.918	9370
895.04	9317
895.161	9340
895.283	9245
895.405	9249
895.526	9279
895.648	9199
895.769	9260
895.891	9188
896.012	9306
896.134	9222
896.255	9199
896.376	9100
896.498	9093
896.619	9100
896.74	9093
896.861	9009
896.982	9230
897.103	9233
897.224	9173
897.345	9097
897.466	9013
897.587	9089
897.708	9039
897.828	8929
897.949	8899
898.07	8823
898.19	8895
898.311	9017
898.431	8891
898.552	8956
898.672	8910
898.792	8982
898.913	8902
899.033	8807
899.153	8785
899.273	8636
899.393	8727
899.513	8678
899.633	8686
899.753	8682
899.873	8644
899.993	8720
900.113	8674
900.232	8758
900.352	8587
900.472	8571
900.591	8552
900.711	8598
900.83	8507
900.95	8682
901.069	8693
901.189	8488
901.308	8415
901.427	8381
901.546	8434
901.665	8461
901.784	8431
901.904	8336
902.023	8309
902.141	8225
902.26	8206
902.379	8248
902.498	8187
902.617	8218
902.735	8271
902.854	8195
902.973	8176
903.091	8142
903.21	8153
903.328	8206
903.446	8081
903.565	8062
903.683	8115
903.801	8043
903.919	8065
904.038	8111
904.156	7989
904.274	8065
904.392	8005
904.51	7963
904.627	8111
904.745	8024
904.863	8012
904.981	8012
905.098	7868
905.216	7822
905.334	7894
905.451	7845
905.569	7875
905.686	7909
905.803	7909
905.921	7784
906.038	7799
906.155	7826
906.272	7704
906.389	7715
906.506	7636
906.623	7662
906.74	7597
906.857	7563
906.974	7506
907.091	7647
907.208	7696
907.324	7624
907.441	7578
907.557	7449
907.674	7430
907.79	7308
907.907	7377
908.023	7449
908.139	7407
908.256	7350
908.372	7335
908.488	7324
908.604	7259
908.72	7171
908.836	7198
908.952	7236
909.068	7297
909.184	7350
909.3	7221
909.415	7213
909.531	7282
909.647	7164
909.762	6996
909.878	7057
909.993	7107
910.108	7015
910.224	7072
910.339	7065
910.454	7012
910.57	7027
910.685	7015
910.8	7175
910.915	7110
911.03	6985
911.145	6867
911.259	6859
911.374	6932
911.489	6863
911.604	6810
911.718	6711
911.833	6707
911.947	6654
912.062	6601
912.176	6738
912.291	6688
912.405	6635
912.519	6825
912.633	6810
912.748	6749
912.862	6623
912.976	6620
913.09	6517
913.204	6540
913.318	6623
913.431	6646
913.545	6646
913.659	6703
913.772	6585
913.886	6532
914	6506
914.113	6642
914.226	6673
914.34	6593
914.453	6475
914.566	6608
914.68	6506
914.793	6471
914.906	6369
915.019	6357
915.132	6388
915.245	6399
915.358	6456
915.47	6445
915.583	6452
915.696	6433
915.809	6528
915.921	6490
916.034	6380
916.146	6418
916.259	6399
916.371	6528
916.483	6403
916.595	6403
916.708	6410
916.82	6376
916.932	6357
917.044	6361
917.156	6353
917.268	6273
917.38	6361
917.491	6323
917.603	6331
917.715	6357
917.826	6403
917.938	6311
918.049	6197
918.161	6266
918.272	6403
918.384	6376
918.495	6311
918.606	6178
918.717	6194
918.828	6254
918.939	6232
919.05	6235
919.161	6228
919.272	6091
919.383	6129
919.494	6296
919.604	6388
919.715	6232
919.826	6190
919.936	6201
920.047	6334
920.157	6251
920.267	6418
920.378	6311
920.488	6270
920.598	6426
920.708	6563
920.818	6479
920.928	6410
921.038	6593
921.148	6612
921.258	6338
921.368	6273
921.477	6224
921.587	6178
921.697	6148
921.806	6091
921.916	6053
922.025	5939
922.134	5942
922.244	5908
922.353	5965
922.462	5817
922.571	5790
922.68	5710
922.789	5600
922.898	5691
923.007	5623
923.116	5760
923.224	5684
923.333	5672
923.442	5551
923.55	5573
923.659	5566
923.767	5573
923.876	5459
923.984	5566
924.092	5471
924.201	5524
924.309	5505
924.417	5509
924.525	5452
924.633	5490
924.741	6315
924.849	5357
924.956	5452
925.064	5322
925.172	5269
925.279	5299
925.387	5269
925.494	5288
925.602	5368
925.709	5406
925.816	5231
925.924	5334
926.031	5376
926.138	5258
926.245	5284
926.352	5212
926.459	5307
926.566	5299
926.673	5189
926.779	5094
926.886	5121
926.993	5018
927.099	4965
927.206	5003
927.312	4961
927.419	5037
927.525	4949
927.631	5014
927.737	4854
927.843	4881
927.95	4752
928.056	4847
928.162	4793
928.267	4820
928.373	5280
928.479	4801
928.585	4679
928.69	4778
928.796	4774
928.901	4710
929.007	4577
929.112	4634
929.218	4599
929.323	4535
929.428	4535
929.533	4649
929.638	4497
929.743	4523
929.848	4516
929.953	4516
930.058	4424
930.163	4284
930.267	4314
930.372	4398
930.477	4303
930.581	4417
930.685	4333
930.79	4246
930.894	4280
930.998	4219
931.103	4367
931.207	4101
931.311	4074
931.415	4025
931.519	3907
931.623	3930
