Data from glass_V78500241_1815.txt Node
Date: Wed Sep 01 19:27:04 CST 2021
User: usil
Spectrometer: V785-0024
Trigger mode: 0
Integration Time (sec): 4.000000E-1
Scans to average: 1
Nonlinearity correction enabled: false
Boxcar width: 0
Storing dark spectrum: false
XAxis mode: Wavelengths
Number of Pixels in Spectrum: 1024
>>>>>Begin Spectral Data<<<<<
801.071	3751
801.214	3740
801.356	3694
801.499	3747
801.641	3713
801.783	3785
801.926	3896
802.068	3797
802.211	3857
802.353	3842
802.496	3800
802.638	3888
802.78	3880
802.923	3926
803.065	3892
803.208	3888
803.35	3857
803.492	3892
803.635	3869
803.777	3770
803.919	3896
804.061	4124
804.204	3926
804.346	3930
804.488	3960
804.63	4040
804.773	4002
804.915	4021
805.057	4143
805.199	4055
805.341	4082
805.483	4158
805.626	4101
805.768	4128
805.91	4211
806.052	4200
806.194	4207
806.336	4329
806.478	4272
806.62	4173
806.762	4207
806.904	4238
807.046	4352
807.188	4227
807.33	4162
807.472	4242
807.614	4200
807.756	4257
807.898	4246
808.04	4215
808.182	4242
808.324	4280
808.465	4352
808.607	4424
808.749	4421
808.891	4417
809.033	4519
809.174	4421
809.316	4276
809.458	4253
809.6	4139
809.741	4124
809.883	4177
810.025	4219
810.166	4215
810.308	4204
810.45	4242
810.591	4249
810.733	4249
810.875	4500
811.016	4790
811.158	5128
811.299	5239
811.441	5322
811.582	5060
811.724	4725
811.865	4462
812.007	4436
812.148	4443
812.29	4424
812.431	4409
812.573	4405
812.714	4360
812.855	4421
812.997	4390
813.138	4451
813.279	4462
813.421	4375
813.562	4360
813.703	4333
813.845	4348
813.986	4268
814.127	4200
814.268	4257
814.41	4280
814.551	4249
814.692	4268
814.833	4306
814.974	4306
815.115	4341
815.256	4242
815.397	4169
815.539	4299
815.68	4211
815.821	4196
815.962	4314
816.103	4299
816.244	4234
816.385	4276
816.526	4291
816.666	4173
816.807	4128
816.948	4181
817.089	4147
817.23	4109
817.371	4078
817.512	4036
817.653	4082
817.793	3991
817.934	4044
818.075	4120
818.216	4074
818.356	4044
818.497	3972
818.638	3918
818.778	3903
818.919	3896
819.06	3861
819.2	3930
819.341	3903
819.481	3827
819.622	3915
819.762	4032
819.903	3941
820.043	3835
820.184	3869
820.324	3808
820.465	3865
820.605	3880
820.746	3827
820.886	3762
821.026	3926
821.167	3880
821.307	3960
821.447	3941
821.588	3983
821.728	3945
821.868	3922
822.008	3838
822.149	3892
822.289	3937
822.429	3816
822.569	3720
822.709	3789
822.849	3701
822.99	3724
823.13	3751
823.27	3751
823.41	3724
823.55	3747
823.69	3717
823.83	3759
823.97	3667
824.11	3610
824.25	3564
824.389	3667
824.529	3675
824.669	3629
824.809	3732
824.949	3762
825.089	3717
825.228	3701
825.368	3591
825.508	3568
825.648	3564
825.787	3595
825.927	3618
826.067	3591
826.206	3671
826.346	3785
826.485	3819
826.625	3854
826.765	3968
826.904	3823
827.044	3656
827.183	3515
827.323	3447
827.462	3473
827.601	3447
827.741	3416
827.88	3412
828.02	3374
828.159	3424
828.298	3454
828.437	3542
828.577	3473
828.716	3599
828.855	3488
828.994	3355
829.134	3367
829.273	3367
829.412	3355
829.551	3317
829.69	3382
829.829	3462
829.968	3488
830.107	3420
830.246	3462
830.385	3386
830.524	3359
830.663	3329
830.802	3260
830.941	3218
831.08	3169
831.219	3256
831.357	3237
831.496	3412
831.635	3241
831.774	3188
831.913	3195
832.051	3112
832.19	3119
832.329	3222
832.467	3131
832.606	3112
832.744	3165
832.883	3188
833.022	3157
833.16	3272
833.299	3313
833.437	3298
833.576	3374
833.714	3401
833.852	3454
833.991	3439
834.129	3435
834.267	3416
834.406	3378
834.544	3424
834.682	3412
834.821	3386
834.959	3580
835.097	3447
835.235	3519
835.373	3469
835.511	3504
835.65	3462
835.788	3435
835.926	3351
836.064	3386
836.202	3428
836.34	3526
836.478	3557
836.615	3549
836.753	3641
836.891	3641
837.029	3622
837.167	3572
837.305	3564
837.443	3530
837.58	3477
837.718	3595
837.856	3587
837.993	3534
838.131	3561
838.269	3576
838.406	3614
838.544	3526
838.681	3488
838.819	3416
838.956	3367
839.094	3370
839.231	3443
839.369	3504
839.506	3724
839.643	3644
839.781	3481
839.918	3466
840.055	3526
840.193	3557
840.33	3504
840.467	3599
840.604	3599
840.742	3816
840.879	3561
841.016	3564
841.153	3603
841.29	3694
841.427	3720
841.564	3740
841.701	3701
841.838	3698
841.975	3682
842.112	3705
842.249	3637
842.385	3614
842.522	3835
842.659	3679
842.796	3701
842.933	3743
843.069	3713
843.206	3709
843.343	3785
843.479	3732
843.616	3785
843.752	3641
843.889	3682
844.025	3861
844.162	3736
844.298	3838
844.435	3762
844.571	3785
844.708	3896
844.844	4032
844.98	4021
845.117	3998
845.253	3926
845.389	3915
845.525	3896
845.661	3987
845.798	3926
845.934	4036
846.07	3983
846.206	4048
846.342	4090
846.478	3998
846.614	4010
846.75	3960
846.886	3911
847.022	3994
847.158	4010
847.294	4006
847.429	4025
847.565	3960
847.701	4249
847.837	3918
847.972	3846
848.108	3956
848.244	4010
848.379	3827
848.515	3827
848.65	3831
848.786	3812
848.921	3823
849.057	3945
849.192	3968
849.328	3922
849.463	3922
849.598	3835
849.734	3865
849.869	3850
850.004	3850
850.14	3781
850.275	3797
850.41	3778
850.545	3736
850.68	3789
850.815	3789
850.95	3778
851.085	3922
851.22	3880
851.355	3838
851.49	3770
851.625	3766
851.76	3804
851.895	3720
852.03	3713
852.165	3781
852.299	3831
852.434	3884
852.569	3884
852.703	3835
852.838	3907
852.973	3987
853.107	3987
853.242	3884
853.376	3846
853.511	3762
853.645	3850
853.78	3953
853.914	3922
854.048	3865
854.183	3854
854.317	3960
854.451	4120
854.585	3937
854.72	3922
854.854	4044
854.988	3926
855.122	3975
855.256	3880
855.39	4029
855.524	4093
855.658	4124
855.792	4055
855.926	4116
856.06	4162
856.194	4196
856.327	4109
856.461	4071
856.595	4162
856.729	4147
856.862	4276
856.996	4280
857.13	4333
857.263	4310
857.397	4386
857.53	4325
857.664	4329
857.797	4394
857.931	4421
858.064	4352
858.197	4451
858.331	4375
858.464	4356
858.597	4363
858.731	4474
858.864	4470
858.997	4421
859.13	4497
859.263	4538
859.396	4603
859.529	4535
859.662	4535
859.795	4481
859.928	4603
860.061	4725
860.194	4717
860.327	4603
860.46	4645
860.592	4733
860.725	4733
860.858	4805
860.99	4679
861.123	4672
861.256	4767
861.388	4763
861.521	5436
861.653	4691
861.786	4729
861.918	4786
862.05	4793
862.183	4870
862.315	4915
862.447	4957
862.58	4839
862.712	4774
862.844	4797
862.976	4873
863.108	4866
863.24	5273
863.372	4812
863.504	4896
863.636	4870
863.768	4953
863.9	4949
864.032	4946
864.164	4946
864.296	5018
864.428	5117
864.559	5102
864.691	5124
864.823	5117
864.954	5117
865.086	5102
865.217	5132
865.349	5166
865.48	5201
865.612	5143
865.743	5277
865.875	5159
866.006	5178
866.137	5235
866.269	5193
866.4	5284
866.531	5250
866.662	5220
866.793	5242
866.924	5254
867.055	5353
867.186	5337
867.317	5296
867.448	5337
867.579	5368
867.71	5383
867.841	5395
867.972	5421
868.103	5444
868.233	5482
868.364	5539
868.495	5520
868.625	5741
868.756	5802
868.886	5688
869.017	5752
869.147	5874
869.278	5847
869.408	5836
869.539	5786
869.669	5980
869.799	5920
869.929	5931
870.06	6038
870.19	6201
870.32	6186
870.45	6254
870.58	6369
870.71	6475
870.84	6467
870.97	6388
871.1	6391
871.23	6681
871.36	6703
871.489	6703
871.619	6768
871.749	6787
871.879	6859
872.008	7034
872.138	6970
872.267	6939
872.397	7027
872.526	7103
872.656	7072
872.785	7236
872.915	7377
873.044	7559
873.173	7548
873.303	7658
873.432	7719
873.561	7837
873.69	7906
873.819	7967
873.948	8180
874.077	8233
874.206	8275
874.335	8442
874.464	8697
874.593	8830
874.722	8921
874.851	9161
874.979	9272
875.108	9329
875.237	9424
875.365	9447
875.494	9690
875.623	9789
875.751	9819
875.88	9972
876.008	10109
876.136	10234
876.265	10451
876.393	10710
876.521	10687
876.65	10809
876.778	10908
876.906	10915
877.034	10980
877.162	11090
877.29	11121
877.418	11356
877.546	11349
877.674	11486
877.802	11471
877.93	11547
878.058	11535
878.185	11566
878.313	11661
878.441	11646
878.568	11665
878.696	11855
878.824	11760
878.951	11882
879.079	12007
879.206	12106
879.333	12076
879.461	11973
879.588	12175
879.715	12083
879.842	12159
879.97	12076
880.097	11783
880.224	11965
880.351	11824
880.478	11809
880.605	11866
880.732	11882
880.859	11988
880.986	11870
881.112	11783
881.239	11786
881.366	11695
881.493	11596
881.619	11554
881.746	11573
881.872	11535
881.999	11524
882.125	11493
882.252	11615
882.378	11444
882.505	11554
882.631	11356
882.757	11277
882.883	11364
883.01	11299
883.136	11128
883.262	11071
883.388	11098
883.514	11193
883.64	11147
883.766	11086
883.892	10900
884.018	11010
884.143	11109
884.269	11064
884.395	10911
884.52	10763
884.646	10778
884.772	10691
884.897	10630
885.023	10653
885.148	10736
885.274	10771
885.399	10679
885.524	10630
885.65	10558
885.775	10653
885.9	10554
886.025	10664
886.15	10554
886.275	10493
886.4	10299
886.525	10432
886.65	10379
886.775	10363
886.9	10443
887.025	10493
887.149	10382
887.274	10268
887.399	10238
887.523	10219
887.648	10101
887.773	10067
887.897	10230
888.021	10158
888.146	10128
888.27	10147
888.395	10200
888.519	10181
888.643	10192
888.767	10116
888.891	10139
889.015	10044
889.139	10128
889.263	9987
889.387	10029
889.511	10135
889.635	10097
889.759	9994
889.883	9994
890.006	9975
890.13	10181
890.254	9956
890.377	9979
890.501	9869
890.624	9880
890.748	9918
890.871	9759
890.995	9789
891.118	9751
891.241	9789
891.364	9766
891.488	9816
891.611	9842
891.734	9800
891.857	9724
891.98	9736
892.103	9747
892.226	9701
892.349	9694
892.471	9584
892.594	9629
892.717	9584
892.839	9584
892.962	9625
893.085	9740
893.207	9553
893.33	9538
893.452	9488
893.575	9633
893.697	9519
893.819	9603
893.941	9625
894.064	9538
894.186	9431
894.308	9424
894.43	9504
894.552	9542
894.674	9549
894.796	9325
894.918	9485
895.04	9275
895.161	9344
895.283	9287
895.405	9218
895.526	9233
895.648	9272
895.769	9249
895.891	9176
896.012	9294
896.134	9211
896.255	9127
896.376	9070
896.498	9150
896.619	9138
896.74	9093
896.861	9138
896.982	9207
897.103	9310
897.224	9157
897.345	9081
897.466	9074
897.587	9047
897.708	9058
897.828	9036
897.949	8944
898.07	8834
898.19	8918
898.311	8979
898.431	8876
898.552	8899
898.672	8998
898.792	8883
898.913	8895
899.033	8842
899.153	8678
899.273	8613
899.393	8697
899.513	8762
899.633	8708
899.753	8693
899.873	8670
899.993	8754
900.113	8731
900.232	8720
900.352	8613
900.472	8568
900.591	8644
900.711	8564
900.83	8541
900.95	8621
901.069	8674
901.189	8560
901.308	8473
901.427	8396
901.546	8396
901.665	8492
901.784	8461
901.904	8377
902.023	8286
902.141	8259
902.26	8195
902.379	8267
902.498	8248
902.617	8259
902.735	8355
902.854	8240
902.973	8271
903.091	8126
903.21	8157
903.328	8199
903.446	8180
903.565	8062
903.683	8096
903.801	8012
903.919	8119
904.038	8096
904.156	8005
904.274	8092
904.392	8035
904.51	8024
904.627	8096
904.745	8126
904.863	8077
904.981	7970
905.098	7864
905.216	7871
905.334	7932
905.451	7982
905.569	7868
905.686	7921
905.803	7875
905.921	7818
906.038	7879
906.155	7727
906.272	7769
906.389	7689
906.506	7628
906.623	7643
906.74	7616
906.857	7525
906.974	7563
907.091	7639
907.208	7628
907.324	7597
907.441	7567
907.557	7453
907.674	7468
907.79	7358
907.907	7460
908.023	7430
908.139	7430
908.256	7411
908.372	7350
908.488	7365
908.604	7228
908.72	7247
908.836	7228
908.952	7225
909.068	7198
909.184	7377
909.3	7183
909.415	7274
909.531	7217
909.647	7110
909.762	7110
909.878	7107
909.993	7149
910.108	7088
910.224	7000
910.339	7088
910.454	6996
910.57	7034
910.685	6939
910.8	7107
910.915	7080
911.03	7031
911.145	6913
911.259	6886
911.374	6886
911.489	6856
911.604	6798
911.718	6639
911.833	6726
911.947	6650
912.062	6582
912.176	6639
912.291	6692
912.405	6658
912.519	6810
912.633	6818
912.748	6764
912.862	6669
912.976	6635
913.09	6536
913.204	6597
913.318	6620
913.431	6642
913.545	6665
913.659	6730
913.772	6642
913.886	6574
914	6604
914.113	6620
914.226	6612
914.34	6620
914.453	6460
914.566	6601
914.68	6532
914.793	6479
914.906	6395
915.019	6433
915.132	6391
915.245	6460
915.358	6369
915.47	6464
915.583	6445
915.696	6490
915.809	6574
915.921	6631
916.034	6464
916.146	6407
916.259	6365
916.371	6445
916.483	6395
916.595	6338
916.708	6388
916.82	6369
916.932	6342
917.044	6418
917.156	6410
917.268	6281
917.38	6350
917.491	6296
917.603	6334
917.715	6456
917.826	6452
917.938	6331
918.049	6289
918.161	6334
918.272	6388
918.384	6418
918.495	6391
918.606	6262
918.717	6216
918.828	6266
918.939	6285
919.05	6235
919.161	6209
919.272	6117
919.383	6144
919.494	6266
919.604	6422
919.715	6258
919.826	6178
919.936	6319
920.047	6369
920.157	6258
920.267	6475
920.378	6308
920.488	6228
920.598	6410
920.708	6540
920.818	6456
920.928	6467
921.038	6551
921.148	6601
921.258	6357
921.368	6300
921.477	6194
921.587	6201
921.697	6083
921.806	6186
921.916	6095
922.025	5901
922.134	5920
922.244	5908
922.353	5980
922.462	5855
922.571	5805
922.68	5680
922.789	5604
922.898	5691
923.007	5665
923.116	5695
923.224	5703
923.333	5665
923.442	5547
923.55	5589
923.659	5543
923.767	5596
923.876	5516
923.984	5592
924.092	5532
924.201	5592
924.309	5535
924.417	5577
924.525	5497
924.633	5505
924.741	6224
924.849	5414
924.956	5471
925.064	5349
925.172	5315
925.279	5334
925.387	5349
925.494	5326
925.602	5417
925.709	5379
925.816	5239
925.924	5280
926.031	5391
926.138	5322
926.245	5334
926.352	5250
926.459	5299
926.566	5307
926.673	5235
926.779	5140
926.886	5166
926.993	5048
927.099	4961
927.206	4957
927.312	4961
927.419	4999
927.525	5029
927.631	4961
927.737	4923
927.843	4866
927.95	4755
928.056	4820
928.162	4854
928.267	4858
928.373	5334
928.479	4831
928.585	4691
928.69	4763
928.796	4767
928.901	4660
929.007	4611
929.112	4679
929.218	4584
929.323	4580
929.428	4588
929.533	4660
929.638	4504
929.743	4565
929.848	4538
929.953	4497
930.058	4455
930.163	4325
930.267	4329
930.372	4421
930.477	4314
930.581	4485
930.685	4383
930.79	4246
930.894	4310
930.998	4200
931.103	4379
931.207	4109
931.311	4147
931.415	4036
931.519	3983
931.623	3899
