Data from glass_V78500241_1105.txt Node
Date: Wed Sep 01 19:22:09 CST 2021
User: usil
Spectrometer: V785-0024
Trigger mode: 0
Integration Time (sec): 4.000000E-1
Scans to average: 1
Nonlinearity correction enabled: false
Boxcar width: 0
Storing dark spectrum: false
XAxis mode: Wavelengths
Number of Pixels in Spectrum: 1024
>>>>>Begin Spectral Data<<<<<
801.071	3778
801.214	3743
801.356	3698
801.499	3755
801.641	3762
801.783	3774
801.926	3876
802.068	3876
802.211	3899
802.353	3934
802.496	3857
802.638	3873
802.78	3930
802.923	3975
803.065	3915
803.208	3880
803.35	3880
803.492	3846
803.635	3915
803.777	3804
803.919	3896
804.061	4200
804.204	3953
804.346	3953
804.488	3922
804.63	4048
804.773	3987
804.915	4032
805.057	4131
805.199	4063
805.341	4093
805.483	4169
805.626	4150
805.768	4105
805.91	4253
806.052	4188
806.194	4200
806.336	4344
806.478	4238
806.62	4207
806.762	4227
806.904	4306
807.046	4348
807.188	4223
807.33	4154
807.472	4287
807.614	4188
807.756	4265
807.898	4169
808.04	4234
808.182	4261
808.324	4314
808.465	4379
808.607	4455
808.749	4500
808.891	4512
809.033	4516
809.174	4398
809.316	4257
809.458	4268
809.6	4173
809.741	4135
809.883	4112
810.025	4242
810.166	4230
810.308	4246
810.45	4207
810.591	4227
810.733	4303
810.875	4512
811.016	4805
811.158	5147
811.299	5303
811.441	5261
811.582	5105
811.724	4672
811.865	4493
812.007	4459
812.148	4432
812.29	4409
812.431	4409
812.573	4390
812.714	4379
812.855	4402
812.997	4390
813.138	4478
813.279	4428
813.421	4398
813.562	4386
813.703	4363
813.845	4360
813.986	4276
814.127	4238
814.268	4253
814.41	4284
814.551	4272
814.692	4371
814.833	4265
814.974	4299
815.115	4363
815.256	4299
815.397	4227
815.539	4253
815.68	4192
815.821	4227
815.962	4337
816.103	4314
816.244	4227
816.385	4257
816.526	4329
816.666	4249
816.807	4109
816.948	4234
817.089	4188
817.23	4143
817.371	4074
817.512	4051
817.653	4105
817.793	4078
817.934	4093
818.075	4101
818.216	4101
818.356	4090
818.497	3991
818.638	3918
818.778	3899
818.919	3907
819.06	3819
819.2	3926
819.341	3899
819.481	3850
819.622	3892
819.762	4044
819.903	3937
820.043	3869
820.184	3865
820.324	3835
820.465	3918
820.605	3854
820.746	3880
820.886	3831
821.026	3907
821.167	3922
821.307	3968
821.447	4036
821.588	3991
821.728	3953
821.868	3975
822.008	3873
822.149	3911
822.289	3918
822.429	3789
822.569	3740
822.709	3854
822.849	3747
822.99	3793
823.13	3732
823.27	3778
823.41	3778
823.55	3751
823.69	3709
823.83	3724
823.97	3652
824.11	3637
824.25	3572
824.389	3610
824.529	3686
824.669	3675
824.809	3686
824.949	3816
825.089	3736
825.228	3660
825.368	3576
825.508	3584
825.648	3580
825.787	3663
825.927	3614
826.067	3629
826.206	3641
826.346	3800
826.485	3850
826.625	3865
826.765	3964
826.904	3827
827.044	3637
827.183	3523
827.323	3473
827.462	3481
827.601	3454
827.741	3405
827.88	3477
828.02	3393
828.159	3469
828.298	3526
828.437	3568
828.577	3462
828.716	3603
828.855	3507
828.994	3363
829.134	3397
829.273	3416
829.412	3378
829.551	3313
829.69	3405
829.829	3428
829.968	3538
830.107	3466
830.246	3431
830.385	3431
830.524	3386
830.663	3275
830.802	3287
830.941	3237
831.08	3188
831.219	3294
831.357	3287
831.496	3428
831.635	3218
831.774	3214
831.913	3226
832.051	3116
832.19	3123
832.329	3214
832.467	3138
832.606	3100
832.744	3184
832.883	3211
833.022	3192
833.16	3241
833.299	3332
833.437	3359
833.576	3389
833.714	3386
833.852	3462
833.991	3481
834.129	3485
834.267	3458
834.406	3405
834.544	3428
834.682	3424
834.821	3420
834.959	3618
835.097	3409
835.235	3561
835.373	3492
835.511	3504
835.65	3477
835.788	3485
835.926	3409
836.064	3412
836.202	3439
836.34	3542
836.478	3641
836.615	3557
836.753	3603
836.891	3622
837.029	3656
837.167	3603
837.305	3606
837.443	3580
837.58	3530
837.718	3637
837.856	3564
837.993	3523
838.131	3580
838.269	3603
838.406	3545
838.544	3603
838.681	3492
838.819	3466
838.956	3389
839.094	3393
839.231	3477
839.369	3534
839.506	3740
839.643	3682
839.781	3500
839.918	3466
840.055	3568
840.193	3549
840.33	3549
840.467	3587
840.604	3606
840.742	3808
840.879	3580
841.016	3576
841.153	3595
841.29	3751
841.427	3759
841.564	3717
841.701	3751
841.838	3694
841.975	3679
842.112	3705
842.249	3656
842.385	3622
842.522	3804
842.659	3679
842.796	3648
842.933	3728
843.069	3679
843.206	3705
843.343	3816
843.479	3781
843.616	3800
843.752	3686
843.889	3713
844.025	3873
844.162	3728
844.298	3854
844.435	3823
844.571	3759
844.708	3922
844.844	3972
844.98	4006
845.117	4021
845.253	3941
845.389	3884
845.525	3953
845.661	3979
845.798	3975
845.934	3975
846.07	3956
846.206	4078
846.342	4131
846.478	4116
846.614	3968
846.75	3945
846.886	3922
847.022	4051
847.158	3964
847.294	3987
847.429	4013
847.565	4029
847.701	4215
847.837	3903
847.972	3896
848.108	3991
848.244	3972
848.379	3892
848.515	3827
848.65	3846
848.786	3797
848.921	3865
849.057	3930
849.192	3949
849.328	3922
849.463	3949
849.598	3903
849.734	3835
849.869	3854
850.004	3789
850.14	3819
850.275	3823
850.41	3728
850.545	3797
850.68	3778
850.815	3800
850.95	3759
851.085	3972
851.22	3838
851.355	3831
851.49	3789
851.625	3789
851.76	3819
851.895	3770
852.03	3755
852.165	3876
852.299	3869
852.434	3911
852.569	3888
852.703	3918
852.838	3968
852.973	3998
853.107	4013
853.242	3941
853.376	3869
853.511	3759
853.645	3869
853.78	3964
853.914	3911
854.048	3880
854.183	3869
854.317	3953
854.451	4086
854.585	3941
854.72	3953
854.854	4097
854.988	3972
855.122	4032
855.256	3930
855.39	4097
855.524	4109
855.658	4105
855.792	4078
855.926	4120
856.06	4147
856.194	4249
856.327	4166
856.461	4128
856.595	4162
856.729	4177
856.862	4200
856.996	4227
857.13	4341
857.263	4344
857.397	4371
857.53	4280
857.664	4344
857.797	4398
857.931	4432
858.064	4390
858.197	4459
858.331	4398
858.464	4390
858.597	4360
858.731	4402
858.864	4455
858.997	4489
859.13	4542
859.263	4577
859.396	4607
859.529	4527
859.662	4538
859.795	4558
859.928	4584
860.061	4717
860.194	4744
860.327	4679
860.46	4649
860.592	4702
860.725	4736
860.858	4767
860.99	4694
861.123	4706
861.256	4733
861.388	4828
861.521	5372
861.653	4721
861.786	4771
861.918	4679
862.05	4790
862.183	4877
862.315	4934
862.447	4915
862.58	4946
862.712	4809
862.844	4820
862.976	4885
863.108	4847
863.24	5201
863.372	4820
863.504	4908
863.636	4965
863.768	4881
863.9	4995
864.032	4908
864.164	4946
864.296	5060
864.428	5105
864.559	5067
864.691	5117
864.823	5166
864.954	5086
865.086	5143
865.217	5140
865.349	5124
865.48	5121
865.612	5201
865.743	5292
865.875	5231
866.006	5178
866.137	5220
866.269	5296
866.4	5288
866.531	5242
866.662	5250
866.793	5242
866.924	5277
867.055	5368
867.186	5353
867.317	5341
867.448	5322
867.579	5398
867.71	5345
867.841	5395
867.972	5425
868.103	5478
868.233	5497
868.364	5539
868.495	5516
868.625	5642
868.756	5771
868.886	5646
869.017	5710
869.147	5855
869.278	5889
869.408	5748
869.539	5836
869.669	5904
869.799	5920
869.929	5988
870.06	6003
870.19	6216
870.32	6194
870.45	6258
870.58	6334
870.71	6464
870.84	6475
870.97	6426
871.1	6456
871.23	6650
871.36	6700
871.489	6673
871.619	6753
871.749	6798
871.879	6882
872.008	7004
872.138	6947
872.267	6996
872.397	7042
872.526	7050
872.656	7122
872.785	7251
872.915	7339
873.044	7445
873.173	7601
873.303	7582
873.432	7780
873.561	7860
873.69	7906
873.819	7997
873.948	8252
874.077	8313
874.206	8408
874.335	8434
874.464	8667
874.593	8864
874.722	8937
874.851	9176
874.979	9237
875.108	9378
875.237	9370
875.365	9485
875.494	9778
875.623	9857
875.751	9808
875.88	9998
876.008	10150
876.136	10227
876.265	10519
876.393	10729
876.521	10660
876.65	10816
876.778	10934
876.906	10904
877.034	10942
877.162	11143
877.29	11155
877.418	11273
877.546	11337
877.674	11520
877.802	11433
877.93	11577
878.058	11516
878.185	11600
878.313	11581
878.441	11798
878.568	11707
878.696	11817
878.824	11821
878.951	11973
879.079	12022
879.206	12197
879.333	12102
879.461	12098
879.588	12034
879.715	12049
879.842	12186
879.97	12072
880.097	11920
880.224	11821
880.351	11920
880.478	11935
880.605	11874
880.732	11805
880.859	12003
880.986	11813
881.112	11847
881.239	11752
881.366	11722
881.493	11592
881.619	11589
881.746	11634
881.872	11493
881.999	11551
882.125	11535
882.252	11516
882.378	11493
882.505	11562
882.631	11398
882.757	11368
882.883	11376
883.01	11277
883.136	11216
883.262	11185
883.388	11041
883.514	11280
883.64	11212
883.766	11102
883.892	10991
884.018	11022
884.143	11113
884.269	11098
884.395	10896
884.52	10835
884.646	10767
884.772	10687
884.897	10687
885.023	10714
885.148	10721
885.274	10717
885.399	10618
885.524	10664
885.65	10615
885.775	10569
885.9	10546
886.025	10626
886.15	10573
886.275	10512
886.4	10432
886.525	10424
886.65	10356
886.775	10337
886.9	10516
887.025	10569
887.149	10352
887.274	10196
887.399	10238
887.523	10223
887.648	10154
887.773	10059
887.897	10280
888.021	10219
888.146	10074
888.27	10310
888.395	10227
888.519	10120
888.643	10192
888.767	10242
888.891	10101
889.015	10010
889.139	10063
889.263	10032
889.387	10040
889.511	10150
889.635	10048
889.759	10025
889.883	9972
890.006	10025
890.13	10071
890.254	9994
890.377	9880
890.501	9857
890.624	9911
890.748	9968
890.871	9838
890.995	9762
891.118	9705
891.241	9781
891.364	9743
891.488	9892
891.611	9717
891.734	9747
891.857	9682
891.98	9766
892.103	9797
892.226	9701
892.349	9705
892.471	9507
892.594	9644
892.717	9625
892.839	9667
892.962	9610
893.085	9698
893.207	9584
893.33	9557
893.452	9534
893.575	9656
893.697	9515
893.819	9603
893.941	9606
894.064	9637
894.186	9443
894.308	9382
894.43	9519
894.552	9584
894.674	9538
894.796	9405
894.918	9408
895.04	9325
895.161	9340
895.283	9317
895.405	9199
895.526	9222
895.648	9245
895.769	9249
895.891	9249
896.012	9294
896.134	9310
896.255	9203
896.376	9142
896.498	9157
896.619	9180
896.74	9081
896.861	9116
896.982	9256
897.103	9321
897.224	9135
897.345	9047
897.466	9036
897.587	9005
897.708	9135
897.828	8994
897.949	8941
898.07	8967
898.19	8929
898.311	8982
898.431	8952
898.552	8914
898.672	9036
898.792	8963
898.913	8906
899.033	8830
899.153	8800
899.273	8705
899.393	8750
899.513	8735
899.633	8716
899.753	8792
899.873	8689
899.993	8731
900.113	8670
900.232	8739
900.352	8678
900.472	8594
900.591	8598
900.711	8629
900.83	8560
900.95	8686
901.069	8678
901.189	8492
901.308	8434
901.427	8385
901.546	8476
901.665	8465
901.784	8552
901.904	8366
902.023	8347
902.141	8248
902.26	8256
902.379	8320
902.498	8256
902.617	8176
902.735	8324
902.854	8317
902.973	8225
903.091	8138
903.21	8191
903.328	8164
903.446	8115
903.565	8077
903.683	8138
903.801	8073
903.919	8183
904.038	8176
904.156	8050
904.274	8138
904.392	7986
904.51	8046
904.627	8005
904.745	8096
904.863	8130
904.981	7989
905.098	7780
905.216	7883
905.334	7849
905.451	7936
905.569	7852
905.686	7989
905.803	7944
905.921	7712
906.038	7906
906.155	7845
906.272	7734
906.389	7761
906.506	7689
906.623	7693
906.74	7586
906.857	7521
906.974	7655
907.091	7681
907.208	7670
907.324	7620
907.441	7533
907.557	7472
907.674	7514
907.79	7377
907.907	7411
908.023	7460
908.139	7441
908.256	7316
908.372	7339
908.488	7354
908.604	7289
908.72	7263
908.836	7236
908.952	7251
909.068	7240
909.184	7312
909.3	7232
909.415	7270
909.531	7282
909.647	7152
909.762	7110
909.878	7042
909.993	7099
910.108	7091
910.224	7088
910.339	7114
910.454	7004
910.57	6973
910.685	6989
910.8	7217
910.915	7114
911.03	6996
911.145	6875
911.259	6916
911.374	6886
911.489	6837
911.604	6882
911.718	6715
911.833	6703
911.947	6658
912.062	6631
912.176	6696
912.291	6757
912.405	6711
912.519	6859
912.633	6867
912.748	6711
912.862	6692
912.976	6578
913.09	6566
913.204	6585
913.318	6604
913.431	6692
913.545	6703
913.659	6703
913.772	6669
913.886	6604
914	6582
914.113	6654
914.226	6635
914.34	6616
914.453	6479
914.566	6604
914.68	6536
914.793	6486
914.906	6391
915.019	6365
915.132	6429
915.245	6467
915.358	6448
915.47	6448
915.583	6494
915.696	6483
915.809	6536
915.921	6597
916.034	6422
916.146	6410
916.259	6391
916.371	6471
916.483	6395
916.595	6433
916.708	6414
916.82	6372
916.932	6380
917.044	6342
917.156	6384
917.268	6365
917.38	6319
917.491	6289
917.603	6380
917.715	6350
917.826	6475
917.938	6331
918.049	6281
918.161	6376
918.272	6422
918.384	6441
918.495	6277
918.606	6235
918.717	6224
918.828	6285
918.939	6296
919.05	6220
919.161	6273
919.272	6079
919.383	6155
919.494	6285
919.604	6422
919.715	6289
919.826	6247
919.936	6308
920.047	6315
920.157	6285
920.267	6437
920.378	6319
920.488	6300
920.598	6486
920.708	6582
920.818	6448
920.928	6471
921.038	6616
921.148	6593
921.258	6456
921.368	6315
921.477	6159
921.587	6155
921.697	6117
921.806	6273
921.916	6041
922.025	5942
922.134	5973
922.244	5882
922.353	5988
922.462	5885
922.571	5832
922.68	5703
922.789	5672
922.898	5745
923.007	5710
923.116	5729
923.224	5741
923.333	5688
923.442	5611
923.55	5596
923.659	5570
923.767	5604
923.876	5535
923.984	5646
924.092	5528
924.201	5592
924.309	5516
924.417	5585
924.525	5547
924.633	5573
924.741	6327
924.849	5379
924.956	5524
925.064	5376
925.172	5269
925.279	5299
925.387	5349
925.494	5353
925.602	5410
925.709	5417
925.816	5303
925.924	5322
926.031	5410
926.138	5315
926.245	5364
926.352	5231
926.459	5376
926.566	5376
926.673	5235
926.779	5140
926.886	5174
926.993	5022
927.099	4980
927.206	4984
927.312	4923
927.419	5029
927.525	4999
927.631	4999
927.737	4919
927.843	4805
927.95	4812
928.056	4839
928.162	4870
928.267	4763
928.373	5330
928.479	4843
928.585	4694
928.69	4793
928.796	4797
928.901	4641
929.007	4603
929.112	4710
929.218	4615
929.323	4588
929.428	4527
929.533	4694
929.638	4519
929.743	4577
929.848	4630
929.953	4516
930.058	4459
930.163	4363
930.267	4360
930.372	4417
930.477	4318
930.581	4466
930.685	4352
930.79	4246
930.894	4314
930.998	4284
931.103	4383
931.207	4128
931.311	4074
931.415	4006
931.519	3972
931.623	3953
