Data from glass_V78500241_2264.txt Node
Date: Wed Sep 01 19:30:11 CST 2021
User: usil
Spectrometer: V785-0024
Trigger mode: 0
Integration Time (sec): 4.000000E-1
Scans to average: 1
Nonlinearity correction enabled: false
Boxcar width: 0
Storing dark spectrum: false
XAxis mode: Wavelengths
Number of Pixels in Spectrum: 1024
>>>>>Begin Spectral Data<<<<<
801.071	3751
801.214	3747
801.356	3667
801.499	3732
801.641	3724
801.783	3781
801.926	3861
802.068	3808
802.211	3823
802.353	3861
802.496	3842
802.638	3876
802.78	3888
802.923	3911
803.065	3896
803.208	3850
803.35	3873
803.492	3911
803.635	3857
803.777	3781
803.919	3911
804.061	4200
804.204	3930
804.346	3949
804.488	3911
804.63	4071
804.773	3930
804.915	3987
805.057	4139
805.199	4013
805.341	4097
805.483	4120
805.626	4139
805.768	4086
805.91	4246
806.052	4234
806.194	4207
806.336	4356
806.478	4249
806.62	4143
806.762	4185
806.904	4287
807.046	4348
807.188	4177
807.33	4139
807.472	4268
807.614	4177
807.756	4211
807.898	4154
808.04	4215
808.182	4249
808.324	4306
808.465	4371
808.607	4462
808.749	4440
808.891	4436
809.033	4497
809.174	4424
809.316	4253
809.458	4257
809.6	4177
809.741	4131
809.883	4143
810.025	4196
810.166	4204
810.308	4177
810.45	4173
810.591	4242
810.733	4322
810.875	4474
811.016	4774
811.158	5132
811.299	5201
811.441	5246
811.582	5067
811.724	4694
811.865	4470
812.007	4417
812.148	4367
812.29	4417
812.431	4413
812.573	4413
812.714	4383
812.855	4413
812.997	4398
813.138	4504
813.279	4405
813.421	4371
813.562	4402
813.703	4337
813.845	4306
813.986	4249
814.127	4261
814.268	4227
814.41	4272
814.551	4234
814.692	4306
814.833	4291
814.974	4280
815.115	4325
815.256	4246
815.397	4238
815.539	4265
815.68	4192
815.821	4230
815.962	4291
816.103	4230
816.244	4246
816.385	4181
816.526	4318
816.666	4162
816.807	4097
816.948	4166
817.089	4192
817.23	4124
817.371	4025
817.512	4044
817.653	4093
817.793	4029
817.934	3998
818.075	4090
818.216	4074
818.356	4131
818.497	3964
818.638	3918
818.778	3880
818.919	3854
819.06	3854
819.2	3907
819.341	3880
819.481	3823
819.622	3884
819.762	3998
819.903	3979
820.043	3865
820.184	3819
820.324	3827
820.465	3869
820.605	3850
820.746	3835
820.886	3781
821.026	3937
821.167	3892
821.307	3994
821.447	3960
821.588	3930
821.728	3880
821.868	3949
822.008	3899
822.149	3850
822.289	3907
822.429	3819
822.569	3743
822.709	3793
822.849	3732
822.99	3705
823.13	3728
823.27	3755
823.41	3682
823.55	3720
823.69	3709
823.83	3743
823.97	3698
824.11	3587
824.25	3580
824.389	3587
824.529	3663
824.669	3614
824.809	3709
824.949	3705
825.089	3724
825.228	3709
825.368	3553
825.508	3591
825.648	3545
825.787	3610
825.927	3682
826.067	3644
826.206	3660
826.346	3751
826.485	3808
826.625	3846
826.765	3941
826.904	3823
827.044	3610
827.183	3530
827.323	3393
827.462	3511
827.601	3397
827.741	3393
827.88	3424
828.02	3355
828.159	3447
828.298	3454
828.437	3511
828.577	3458
828.716	3561
828.855	3473
828.994	3374
829.134	3370
829.273	3363
829.412	3340
829.551	3363
829.69	3367
829.829	3389
829.968	3492
830.107	3424
830.246	3397
830.385	3405
830.524	3310
830.663	3321
830.802	3192
830.941	3176
831.08	3180
831.219	3260
831.357	3256
831.496	3382
831.635	3226
831.774	3188
831.913	3207
832.051	3116
832.19	3146
832.329	3222
832.467	3100
832.606	3097
832.744	3176
832.883	3127
833.022	3154
833.16	3214
833.299	3317
833.437	3351
833.576	3348
833.714	3412
833.852	3420
833.991	3374
834.129	3504
834.267	3416
834.406	3409
834.544	3405
834.682	3416
834.821	3409
834.959	3564
835.097	3435
835.235	3511
835.373	3477
835.511	3496
835.65	3466
835.788	3443
835.926	3367
836.064	3382
836.202	3382
836.34	3542
836.478	3610
836.615	3538
836.753	3576
836.891	3629
837.029	3641
837.167	3561
837.305	3557
837.443	3542
837.58	3564
837.718	3603
837.856	3519
837.993	3507
838.131	3584
838.269	3572
838.406	3584
838.544	3584
838.681	3443
838.819	3466
838.956	3359
839.094	3321
839.231	3447
839.369	3496
839.506	3747
839.643	3652
839.781	3534
839.918	3439
840.055	3477
840.193	3545
840.33	3538
840.467	3564
840.604	3576
840.742	3797
840.879	3545
841.016	3553
841.153	3633
841.29	3736
841.427	3675
841.564	3720
841.701	3759
841.838	3667
841.975	3633
842.112	3759
842.249	3633
842.385	3637
842.522	3823
842.659	3724
842.796	3679
842.933	3720
843.069	3705
843.206	3713
843.343	3827
843.479	3778
843.616	3835
843.752	3690
843.889	3652
844.025	3888
844.162	3701
844.298	3831
844.435	3766
844.571	3747
844.708	3899
844.844	3964
844.98	4013
845.117	4036
845.253	3937
845.389	3869
845.525	3991
845.661	3987
845.798	3857
845.934	3991
846.07	3949
846.206	4067
846.342	4116
846.478	3998
846.614	3922
846.75	3903
846.886	3903
847.022	4051
847.158	4013
847.294	3998
847.429	4051
847.565	4017
847.701	4204
847.837	3800
847.972	3869
848.108	3949
848.244	3975
848.379	3854
848.515	3793
848.65	3781
848.786	3827
848.921	3842
849.057	3956
849.192	3953
849.328	3884
849.463	3899
849.598	3873
849.734	3865
849.869	3812
850.004	3785
850.14	3789
850.275	3781
850.41	3736
850.545	3736
850.68	3732
850.815	3755
850.95	3747
851.085	3926
851.22	3842
851.355	3857
851.49	3808
851.625	3774
851.76	3797
851.895	3675
852.03	3701
852.165	3762
852.299	3819
852.434	3876
852.569	3850
852.703	3857
852.838	3956
852.973	3979
853.107	4025
853.242	3903
853.376	3838
853.511	3751
853.645	3846
853.78	3975
853.914	3865
854.048	3941
854.183	3888
854.317	3926
854.451	4055
854.585	3975
854.72	3918
854.854	4051
854.988	3922
855.122	3991
855.256	3926
855.39	4025
855.524	4120
855.658	4067
855.792	4074
855.926	4093
856.06	4196
856.194	4185
856.327	4131
856.461	4086
856.595	4128
856.729	4162
856.862	4291
856.996	4215
857.13	4280
857.263	4318
857.397	4303
857.53	4284
857.664	4341
857.797	4360
857.931	4398
858.064	4405
858.197	4398
858.331	4367
858.464	4352
858.597	4363
858.731	4428
858.864	4428
858.997	4421
859.13	4504
859.263	4596
859.396	4596
859.529	4561
859.662	4527
859.795	4523
859.928	4592
860.061	4664
860.194	4710
860.327	4683
860.46	4679
860.592	4763
860.725	4740
860.858	4763
860.99	4710
861.123	4729
861.256	4714
861.388	4835
861.521	5539
861.653	4687
861.786	4710
861.918	4649
862.05	4805
862.183	4828
862.315	4877
862.447	4930
862.58	4873
862.712	4782
862.844	4771
862.976	4843
863.108	4877
863.24	5140
863.372	4816
863.504	4934
863.636	4870
863.768	4961
863.9	4896
864.032	4946
864.164	4934
864.296	5022
864.428	5102
864.559	5094
864.691	5075
864.823	5109
864.954	5086
865.086	5147
865.217	5102
865.349	5094
865.48	5170
865.612	5170
865.743	5288
865.875	5242
866.006	5170
866.137	5231
866.269	5277
866.4	5261
866.531	5231
866.662	5181
866.793	5227
866.924	5261
867.055	5303
867.186	5334
867.317	5360
867.448	5242
867.579	5364
867.71	5334
867.841	5345
867.972	5459
868.103	5452
868.233	5452
868.364	5478
868.495	5482
868.625	5634
868.756	5783
868.886	5668
869.017	5707
869.147	5817
869.278	5805
869.408	5752
869.539	5824
869.669	5885
869.799	5920
869.929	5973
870.06	5965
870.19	6209
870.32	6083
870.45	6247
870.58	6414
870.71	6418
870.84	6494
870.97	6422
871.1	6429
871.23	6642
871.36	6662
871.489	6681
871.619	6722
871.749	6852
871.879	6840
872.008	7031
872.138	6958
872.267	6977
872.397	6951
872.526	7004
872.656	7042
872.785	7221
872.915	7354
873.044	7491
873.173	7594
873.303	7658
873.432	7746
873.561	7856
873.69	7932
873.819	8016
873.948	8183
874.077	8252
874.206	8336
874.335	8415
874.464	8617
874.593	8800
874.722	8906
874.851	9150
874.979	9188
875.108	9306
875.237	9443
875.365	9450
875.494	9595
875.623	9857
875.751	9732
875.88	10044
876.008	10093
876.136	10185
876.265	10489
876.393	10763
876.521	10721
876.65	10774
876.778	10850
876.906	10869
877.034	10976
877.162	11083
877.29	11185
877.418	11334
877.546	11379
877.674	11379
877.802	11391
877.93	11585
878.058	11532
878.185	11547
878.313	11615
878.441	11756
878.568	11718
878.696	11855
878.824	11859
878.951	11863
879.079	12015
879.206	12049
879.333	12060
879.461	12030
879.588	12045
879.715	12091
879.842	12232
879.97	12041
880.097	11851
880.224	11859
880.351	11923
880.478	11939
880.605	11745
880.732	11809
880.859	11950
880.986	11851
881.112	11870
881.239	11707
881.366	11703
881.493	11562
881.619	11554
881.746	11573
881.872	11627
881.999	11516
882.125	11532
882.252	11486
882.378	11497
882.505	11547
882.631	11391
882.757	11296
882.883	11280
883.01	11269
883.136	11216
883.262	11090
883.388	11105
883.514	11140
883.64	11140
883.766	11136
883.892	11029
884.018	10965
884.143	11037
884.269	11132
884.395	10755
884.52	10843
884.646	10706
884.772	10694
884.897	10721
885.023	10687
885.148	10656
885.274	10816
885.399	10752
885.524	10694
885.65	10611
885.775	10626
885.9	10558
886.025	10649
886.15	10550
886.275	10478
886.4	10413
886.525	10398
886.65	10333
886.775	10379
886.9	10474
887.025	10485
887.149	10360
887.274	10223
887.399	10196
887.523	10109
887.648	10082
887.773	10109
887.897	10227
888.021	10150
888.146	10139
888.27	10227
888.395	10196
888.519	10143
888.643	10177
888.767	10211
888.891	10048
889.015	10029
889.139	10112
889.263	9979
889.387	10010
889.511	10112
889.635	10120
889.759	9956
889.883	9960
890.006	10086
890.13	10143
890.254	9945
890.377	9960
890.501	9911
890.624	9911
890.748	9850
890.871	9724
890.995	9694
891.118	9671
891.241	9740
891.364	9679
891.488	9884
891.611	9759
891.734	9762
891.857	9793
891.98	9622
892.103	9762
892.226	9713
892.349	9644
892.471	9519
892.594	9568
892.717	9637
892.839	9584
892.962	9576
893.085	9671
893.207	9652
893.33	9485
893.452	9553
893.575	9595
893.697	9428
893.819	9564
893.941	9633
894.064	9568
894.186	9428
894.308	9416
894.43	9530
894.552	9606
894.674	9458
894.796	9405
894.918	9370
895.04	9317
895.161	9325
895.283	9325
895.405	9287
895.526	9283
895.648	9294
895.769	9272
895.891	9203
896.012	9275
896.134	9287
896.255	9161
896.376	9154
896.498	9169
896.619	9112
896.74	8986
896.861	9047
896.982	9298
897.103	9317
897.224	9188
897.345	9028
897.466	8933
897.587	9001
897.708	9085
897.828	8982
897.949	8925
898.07	8826
898.19	8895
898.311	8982
898.431	8830
898.552	8883
898.672	8998
898.792	8929
898.913	8921
899.033	8826
899.153	8689
899.273	8693
899.393	8682
899.513	8815
899.633	8705
899.753	8674
899.873	8735
899.993	8686
900.113	8632
900.232	8712
900.352	8602
900.472	8571
900.591	8511
900.711	8617
900.83	8564
900.95	8659
901.069	8651
901.189	8625
901.308	8446
901.427	8374
901.546	8400
901.665	8427
901.784	8495
901.904	8396
902.023	8301
902.141	8221
902.26	8210
902.379	8271
902.498	8214
902.617	8176
902.735	8328
902.854	8282
902.973	8248
903.091	8088
903.21	8115
903.328	8172
903.446	8084
903.565	8111
903.683	8046
903.801	8073
903.919	8096
904.038	8153
904.156	8027
904.274	8058
904.392	8008
904.51	8046
904.627	8058
904.745	8084
904.863	8001
904.981	7970
905.098	7921
905.216	7841
905.334	7906
905.451	7909
905.569	7883
905.686	7875
905.803	7860
905.921	7704
906.038	7852
906.155	7814
906.272	7727
906.389	7731
906.506	7677
906.623	7628
906.74	7559
906.857	7575
906.974	7559
907.091	7670
907.208	7651
907.324	7674
907.441	7582
907.557	7518
907.674	7441
907.79	7388
907.907	7392
908.023	7460
908.139	7411
908.256	7316
908.372	7339
908.488	7327
908.604	7244
908.72	7270
908.836	7285
908.952	7156
909.068	7206
909.184	7305
909.3	7244
909.415	7255
909.531	7263
909.647	7126
909.762	7110
909.878	7072
909.993	7095
910.108	7114
910.224	6996
910.339	7141
910.454	7015
910.57	6981
910.685	6966
910.8	7107
910.915	7126
911.03	7042
911.145	6897
911.259	6909
911.374	6806
911.489	6867
911.604	6787
911.718	6677
911.833	6738
911.947	6642
912.062	6566
912.176	6681
912.291	6669
912.405	6738
912.519	6825
912.633	6878
912.748	6684
912.862	6696
912.976	6559
913.09	6563
913.204	6555
913.318	6608
913.431	6639
913.545	6707
913.659	6681
913.772	6620
913.886	6551
914	6551
914.113	6540
914.226	6616
914.34	6662
914.453	6517
914.566	6555
914.68	6513
914.793	6494
914.906	6410
915.019	6403
915.132	6414
915.245	6460
915.358	6502
915.47	6437
915.583	6467
915.696	6448
915.809	6467
915.921	6551
916.034	6418
916.146	6353
916.259	6391
916.371	6464
916.483	6464
916.595	6372
916.708	6376
916.82	6353
916.932	6327
917.044	6334
917.156	6433
917.268	6350
917.38	6342
917.491	6327
917.603	6384
917.715	6384
917.826	6460
917.938	6315
918.049	6266
918.161	6266
918.272	6437
918.384	6418
918.495	6380
918.606	6239
918.717	6190
918.828	6289
918.939	6292
919.05	6152
919.161	6251
919.272	6114
919.383	6144
919.494	6292
919.604	6369
919.715	6334
919.826	6190
919.936	6251
920.047	6315
920.157	6254
920.267	6426
920.378	6384
920.488	6243
920.598	6483
920.708	6506
920.818	6422
920.928	6536
921.038	6517
921.148	6566
921.258	6338
921.368	6281
921.477	6155
921.587	6205
921.697	5992
921.806	6213
921.916	6060
922.025	5916
922.134	5870
922.244	5889
922.353	5935
922.462	5863
922.571	5828
922.68	5733
922.789	5646
922.898	5714
923.007	5684
923.116	5688
923.224	5691
923.333	5638
923.442	5539
923.55	5528
923.659	5577
923.767	5630
923.876	5547
923.984	5630
924.092	5501
924.201	5520
924.309	5554
924.417	5558
924.525	5459
924.633	5482
924.741	6254
924.849	5376
924.956	5463
925.064	5334
925.172	5326
925.279	5315
925.387	5364
925.494	5357
925.602	5436
925.709	5345
925.816	5265
925.924	5307
926.031	5387
926.138	5303
926.245	5273
926.352	5204
926.459	5322
926.566	5349
926.673	5155
926.779	5124
926.886	5124
926.993	5010
927.099	4991
927.206	4972
927.312	4965
927.419	4999
927.525	4961
927.631	4987
927.737	4900
927.843	4858
927.95	4725
928.056	4835
928.162	4847
928.267	4820
928.373	5311
928.479	4847
928.585	4675
928.69	4767
928.796	4771
928.901	4748
929.007	4592
929.112	4672
929.218	4588
929.323	4569
929.428	4558
929.533	4630
929.638	4485
929.743	4527
929.848	4542
929.953	4546
930.058	4390
930.163	4306
930.267	4341
930.372	4421
930.477	4341
930.581	4489
930.685	4352
930.79	4291
930.894	4287
930.998	4246
931.103	4398
931.207	4116
931.311	4055
931.415	4055
931.519	3922
931.623	3972
