Data from glass_V78500241_2164.txt Node
Date: Wed Sep 01 19:29:30 CST 2021
User: usil
Spectrometer: V785-0024
Trigger mode: 0
Integration Time (sec): 4.000000E-1
Scans to average: 1
Nonlinearity correction enabled: false
Boxcar width: 0
Storing dark spectrum: false
XAxis mode: Wavelengths
Number of Pixels in Spectrum: 1024
>>>>>Begin Spectral Data<<<<<
801.071	3682
801.214	3785
801.356	3679
801.499	3747
801.641	3728
801.783	3766
801.926	3896
802.068	3819
802.211	3835
802.353	3903
802.496	3827
802.638	3842
802.78	3903
802.923	3918
803.065	3899
803.208	3819
803.35	3896
803.492	3880
803.635	3888
803.777	3827
803.919	3899
804.061	4173
804.204	3941
804.346	3964
804.488	3930
804.63	4017
804.773	3922
804.915	4006
805.057	4101
805.199	4006
805.341	4082
805.483	4143
805.626	4059
805.768	4150
805.91	4173
806.052	4227
806.194	4158
806.336	4318
806.478	4204
806.62	4207
806.762	4196
806.904	4227
807.046	4322
807.188	4192
807.33	4196
807.472	4215
807.614	4158
807.756	4249
807.898	4257
808.04	4211
808.182	4230
808.324	4322
808.465	4386
808.607	4462
808.749	4481
808.891	4500
809.033	4500
809.174	4402
809.316	4276
809.458	4234
809.6	4128
809.741	4139
809.883	4158
810.025	4238
810.166	4211
810.308	4185
810.45	4234
810.591	4223
810.733	4303
810.875	4485
811.016	4793
811.158	5090
811.299	5204
811.441	5307
811.582	5045
811.724	4679
811.865	4459
812.007	4508
812.148	4455
812.29	4398
812.431	4379
812.573	4360
812.714	4371
812.855	4409
812.997	4379
813.138	4485
813.279	4405
813.421	4402
813.562	4356
813.703	4318
813.845	4318
813.986	4246
814.127	4207
814.268	4261
814.41	4276
814.551	4295
814.692	4295
814.833	4284
814.974	4299
815.115	4272
815.256	4219
815.397	4249
815.539	4272
815.68	4177
815.821	4227
815.962	4318
816.103	4268
816.244	4242
816.385	4173
816.526	4268
816.666	4242
816.807	4097
816.948	4162
817.089	4166
817.23	4082
817.371	4090
817.512	4067
817.653	4055
817.793	4017
817.934	3987
818.075	4082
818.216	4093
818.356	4055
818.497	3937
818.638	3930
818.778	3937
818.919	3850
819.06	3865
819.2	3869
819.341	3903
819.481	3831
819.622	3880
819.762	4082
819.903	3918
820.043	3873
820.184	3838
820.324	3785
820.465	3896
820.605	3861
820.746	3846
820.886	3766
821.026	3899
821.167	3918
821.307	3964
821.447	3975
821.588	3972
821.728	3934
821.868	3911
822.008	3861
822.149	3873
822.289	3941
822.429	3781
822.569	3778
822.709	3755
822.849	3736
822.99	3720
823.13	3743
823.27	3793
823.41	3709
823.55	3762
823.69	3740
823.83	3743
823.97	3682
824.11	3633
824.25	3618
824.389	3656
824.529	3671
824.669	3622
824.809	3732
824.949	3705
825.089	3690
825.228	3675
825.368	3618
825.508	3553
825.648	3591
825.787	3606
825.927	3606
826.067	3599
826.206	3694
826.346	3804
826.485	3793
826.625	3850
826.765	3926
826.904	3831
827.044	3591
827.183	3515
827.323	3435
827.462	3496
827.601	3439
827.741	3420
827.88	3412
828.02	3370
828.159	3439
828.298	3485
828.437	3507
828.577	3485
828.716	3599
828.855	3511
828.994	3378
829.134	3370
829.273	3435
829.412	3332
829.551	3321
829.69	3367
829.829	3393
829.968	3526
830.107	3447
830.246	3416
830.385	3355
830.524	3325
830.663	3249
830.802	3233
830.941	3207
831.08	3173
831.219	3283
831.357	3287
831.496	3370
831.635	3241
831.774	3176
831.913	3157
832.051	3146
832.19	3150
832.329	3249
832.467	3112
832.606	3085
832.744	3169
832.883	3176
833.022	3188
833.16	3275
833.299	3310
833.437	3313
833.576	3378
833.714	3443
833.852	3428
833.991	3431
834.129	3469
834.267	3428
834.406	3389
834.544	3412
834.682	3393
834.821	3424
834.959	3534
835.097	3443
835.235	3526
835.373	3477
835.511	3538
835.65	3439
835.788	3469
835.926	3401
836.064	3393
836.202	3386
836.34	3538
836.478	3599
836.615	3530
836.753	3587
836.891	3679
837.029	3618
837.167	3557
837.305	3530
837.443	3504
837.58	3526
837.718	3599
837.856	3572
837.993	3545
838.131	3622
838.269	3595
838.406	3534
838.544	3576
838.681	3488
838.819	3424
838.956	3386
839.094	3386
839.231	3416
839.369	3488
839.506	3713
839.643	3625
839.781	3466
839.918	3469
840.055	3542
840.193	3469
840.33	3515
840.467	3545
840.604	3564
840.742	3812
840.879	3523
841.016	3572
841.153	3606
841.29	3774
841.427	3701
841.564	3720
841.701	3720
841.838	3698
841.975	3671
842.112	3701
842.249	3629
842.385	3644
842.522	3797
842.659	3713
842.796	3679
842.933	3694
843.069	3671
843.206	3747
843.343	3812
843.479	3812
843.616	3774
843.752	3667
843.889	3705
844.025	3880
844.162	3694
844.298	3816
844.435	3755
844.571	3823
844.708	3896
844.844	4002
844.98	4006
845.117	4017
845.253	3915
845.389	3892
845.525	4002
845.661	3987
845.798	3930
845.934	4002
846.07	3926
846.206	4051
846.342	4112
846.478	4036
846.614	3953
846.75	3922
846.886	3926
847.022	4010
847.158	3983
847.294	3968
847.429	4002
847.565	3983
847.701	4272
847.837	3880
847.972	3869
848.108	3987
848.244	3960
848.379	3846
848.515	3819
848.65	3789
848.786	3857
848.921	3838
849.057	3926
849.192	3964
849.328	3861
849.463	3911
849.598	3869
849.734	3857
849.869	3854
850.004	3797
850.14	3797
850.275	3819
850.41	3720
850.545	3759
850.68	3740
850.815	3838
850.95	3755
851.085	3991
851.22	3857
851.355	3808
851.49	3770
851.625	3793
851.76	3804
851.895	3705
852.03	3698
852.165	3770
852.299	3854
852.434	3903
852.569	3842
852.703	3876
852.838	3937
852.973	3941
853.107	3979
853.242	3896
853.376	3842
853.511	3736
853.645	3823
853.78	3964
853.914	3907
854.048	3899
854.183	3873
854.317	3960
854.451	4093
854.585	3956
854.72	3983
854.854	4036
854.988	3945
855.122	3994
855.256	3907
855.39	4017
855.524	4101
855.658	4097
855.792	4097
855.926	4090
856.06	4131
856.194	4154
856.327	4154
856.461	4139
856.595	4162
856.729	4143
856.862	4207
856.996	4223
857.13	4310
857.263	4291
857.397	4318
857.53	4234
857.664	4329
857.797	4409
857.931	4459
858.064	4394
858.197	4462
858.331	4409
858.464	4386
858.597	4344
858.731	4455
858.864	4413
858.997	4451
859.13	4497
859.263	4531
859.396	4508
859.529	4535
859.662	4504
859.795	4527
859.928	4596
860.061	4755
860.194	4740
860.327	4637
860.46	4668
860.592	4679
860.725	4740
860.858	4755
860.99	4698
861.123	4714
861.256	4744
861.388	4805
861.521	5459
861.653	4729
861.786	4672
861.918	4733
862.05	4767
862.183	4843
862.315	4881
862.447	4889
862.58	4866
862.712	4771
862.844	4786
862.976	4900
863.108	4881
863.24	5178
863.372	4801
863.504	4873
863.636	4904
863.768	4961
863.9	4923
864.032	4942
864.164	4938
864.296	4991
864.428	5067
864.559	5052
864.691	5079
864.823	5071
864.954	5117
865.086	5220
865.217	5132
865.349	5075
865.48	5147
865.612	5216
865.743	5265
865.875	5162
866.006	5155
866.137	5235
866.269	5258
866.4	5216
866.531	5258
866.662	5246
866.793	5242
866.924	5273
867.055	5311
867.186	5364
867.317	5330
867.448	5341
867.579	5372
867.71	5330
867.841	5368
867.972	5391
868.103	5493
868.233	5459
868.364	5524
868.495	5554
868.625	5604
868.756	5805
868.886	5634
869.017	5668
869.147	5874
869.278	5855
869.408	5783
869.539	5809
869.669	5931
869.799	5885
869.929	5958
870.06	5992
870.19	6163
870.32	6171
870.45	6213
870.58	6369
870.71	6448
870.84	6479
870.97	6426
871.1	6422
871.23	6635
871.36	6681
871.489	6616
871.619	6753
871.749	6772
871.879	6844
872.008	7065
872.138	6920
872.267	6996
872.397	7031
872.526	7046
872.656	7091
872.785	7228
872.915	7388
873.044	7525
873.173	7518
873.303	7689
873.432	7719
873.561	7871
873.69	7879
873.819	8046
873.948	8145
874.077	8240
874.206	8381
874.335	8461
874.464	8670
874.593	8876
874.722	8975
874.851	9093
874.979	9237
875.108	9321
875.237	9447
875.365	9412
875.494	9740
875.623	9823
875.751	9823
875.88	10071
876.008	10181
876.136	10249
876.265	10580
876.393	10687
876.521	10736
876.65	10725
876.778	10850
876.906	10850
877.034	10976
877.162	11045
877.29	11147
877.418	11265
877.546	11406
877.674	11448
877.802	11448
877.93	11566
878.058	11611
878.185	11497
878.313	11581
878.441	11756
878.568	11703
878.696	11790
878.824	11805
878.951	11927
879.079	11999
879.206	12136
879.333	11980
879.461	11988
879.588	12087
879.715	12129
879.842	12186
879.97	12038
880.097	11863
880.224	11912
880.351	11855
880.478	11805
880.605	11870
880.732	11661
880.859	11942
880.986	11863
881.112	11805
881.239	11714
881.366	11649
881.493	11611
881.619	11592
881.746	11520
881.872	11482
881.999	11596
882.125	11474
882.252	11558
882.378	11562
882.505	11490
882.631	11265
882.757	11318
882.883	11250
883.01	11220
883.136	11216
883.262	11185
883.388	11098
883.514	11197
883.64	11216
883.766	11159
883.892	11006
884.018	10965
884.143	11132
884.269	11086
884.395	10809
884.52	10755
884.646	10767
884.772	10778
884.897	10660
885.023	10721
885.148	10672
885.274	10748
885.399	10721
885.524	10592
885.65	10516
885.775	10634
885.9	10508
886.025	10653
886.15	10558
886.275	10508
886.4	10440
886.525	10466
886.65	10344
886.775	10322
886.9	10493
887.025	10607
887.149	10348
887.274	10234
887.399	10173
887.523	10211
887.648	10059
887.773	10101
887.897	10272
888.021	10158
888.146	10116
888.27	10341
888.395	10192
888.519	10234
888.643	10169
888.767	10173
888.891	10013
889.015	9987
889.139	10029
889.263	9972
889.387	10055
889.511	10120
889.635	10010
889.759	9960
889.883	10010
890.006	9994
890.13	10044
890.254	9899
890.377	9937
890.501	9857
890.624	9812
890.748	9846
890.871	9823
890.995	9789
891.118	9720
891.241	9648
891.364	9865
891.488	9747
891.611	9751
891.734	9682
891.857	9793
891.98	9751
892.103	9797
892.226	9690
892.349	9732
892.471	9469
892.594	9549
892.717	9633
892.839	9534
892.962	9709
893.085	9606
893.207	9561
893.33	9496
893.452	9500
893.575	9557
893.697	9507
893.819	9705
893.941	9580
894.064	9515
894.186	9435
894.308	9397
894.43	9523
894.552	9538
894.674	9523
894.796	9348
894.918	9348
895.04	9336
895.161	9462
895.283	9298
895.405	9207
895.526	9256
895.648	9184
895.769	9207
895.891	9237
896.012	9302
896.134	9195
896.255	9058
896.376	9119
896.498	9146
896.619	9161
896.74	9058
896.861	9074
896.982	9184
897.103	9363
897.224	9165
897.345	9032
897.466	8944
897.587	9036
897.708	9055
897.828	9104
897.949	8952
898.07	8895
898.19	8948
898.311	9013
898.431	8910
898.552	8853
898.672	8921
898.792	8925
898.913	8872
899.033	8766
899.153	8739
899.273	8610
899.393	8716
899.513	8682
899.633	8746
899.753	8731
899.873	8693
899.993	8735
900.113	8632
900.232	8708
900.352	8640
900.472	8575
900.591	8514
900.711	8590
900.83	8522
900.95	8663
901.069	8598
901.189	8568
901.308	8400
901.427	8347
901.546	8366
901.665	8446
901.784	8518
901.904	8336
902.023	8370
902.141	8275
902.26	8233
902.379	8298
902.498	8233
902.617	8252
902.735	8256
902.854	8195
902.973	8256
903.091	8138
903.21	8119
903.328	8172
903.446	8115
903.565	8058
903.683	8088
903.801	8039
903.919	8050
904.038	8092
904.156	8020
904.274	8050
904.392	7978
904.51	8065
904.627	7993
904.745	8069
904.863	8062
904.981	8001
905.098	7890
905.216	7875
905.334	7940
905.451	7875
905.569	7814
905.686	7928
905.803	7864
905.921	7788
906.038	7944
906.155	7784
906.272	7651
906.389	7696
906.506	7609
906.623	7590
906.74	7639
906.857	7559
906.974	7544
907.091	7655
907.208	7753
907.324	7620
907.441	7594
907.557	7426
907.674	7403
907.79	7362
907.907	7403
908.023	7407
908.139	7438
908.256	7419
908.372	7305
908.488	7289
908.604	7293
908.72	7236
908.836	7293
908.952	7236
909.068	7194
909.184	7339
909.3	7316
909.415	7289
909.531	7278
909.647	7084
909.762	7061
909.878	7137
909.993	7110
910.108	7126
910.224	7031
910.339	7118
910.454	7076
910.57	7023
910.685	6962
910.8	7122
910.915	7057
911.03	7004
911.145	6897
911.259	6856
911.374	6844
911.489	6814
911.604	6798
911.718	6715
911.833	6688
911.947	6696
912.062	6623
912.176	6738
912.291	6654
912.405	6650
912.519	6837
912.633	6753
912.748	6722
912.862	6635
912.976	6654
913.09	6471
913.204	6578
913.318	6650
913.431	6684
913.545	6707
913.659	6711
913.772	6646
913.886	6574
914	6555
914.113	6563
914.226	6650
914.34	6574
914.453	6422
914.566	6547
914.68	6498
914.793	6479
914.906	6395
915.019	6331
915.132	6372
915.245	6399
915.358	6445
915.47	6441
915.583	6464
915.696	6547
915.809	6509
915.921	6540
916.034	6315
916.146	6384
916.259	6346
916.371	6498
916.483	6506
916.595	6422
916.708	6426
916.82	6357
916.932	6376
917.044	6391
917.156	6365
917.268	6251
917.38	6319
917.491	6323
917.603	6391
917.715	6372
917.826	6384
917.938	6323
918.049	6319
918.161	6319
918.272	6403
918.384	6395
918.495	6369
918.606	6285
918.717	6216
918.828	6220
918.939	6209
919.05	6163
919.161	6213
919.272	6117
919.383	6205
919.494	6273
919.604	6433
919.715	6254
919.826	6213
919.936	6224
920.047	6414
920.157	6262
920.267	6456
920.378	6346
920.488	6327
920.598	6456
920.708	6601
920.818	6475
920.928	6502
921.038	6589
921.148	6612
921.258	6372
921.368	6243
921.477	6186
921.587	6171
921.697	6064
921.806	6228
921.916	6007
922.025	5973
922.134	5927
922.244	5855
922.353	5958
922.462	5786
922.571	5828
922.68	5714
922.789	5703
922.898	5672
923.007	5646
923.116	5726
923.224	5729
923.333	5661
923.442	5585
923.55	5630
923.659	5592
923.767	5611
923.876	5490
923.984	5547
924.092	5501
924.201	5554
924.309	5512
924.417	5547
924.525	5493
924.633	5509
924.741	6281
924.849	5391
924.956	5467
925.064	5360
925.172	5315
925.279	5284
925.387	5341
925.494	5296
925.602	5414
925.709	5357
925.816	5288
925.924	5311
926.031	5303
926.138	5269
926.245	5322
926.352	5235
926.459	5299
926.566	5360
926.673	5189
926.779	5121
926.886	5090
926.993	5041
927.099	4976
927.206	5018
927.312	4942
927.419	4995
927.525	4957
927.631	4930
927.737	4881
927.843	4854
927.95	4767
928.056	4801
928.162	4835
928.267	4900
928.373	5337
928.479	4889
928.585	4656
928.69	4736
928.796	4717
928.901	4675
929.007	4588
929.112	4622
929.218	4641
929.323	4535
929.428	4573
929.533	4656
929.638	4508
929.743	4474
929.848	4584
929.953	4508
930.058	4466
930.163	4287
930.267	4303
930.372	4405
930.477	4299
930.581	4436
930.685	4386
930.79	4204
930.894	4299
930.998	4219
931.103	4341
931.207	4101
931.311	4055
931.415	4067
931.519	3930
931.623	3945
