Data from glass_V78500241_1876.txt Node
Date: Wed Sep 01 19:27:30 CST 2021
User: usil
Spectrometer: V785-0024
Trigger mode: 0
Integration Time (sec): 4.000000E-1
Scans to average: 1
Nonlinearity correction enabled: false
Boxcar width: 0
Storing dark spectrum: false
XAxis mode: Wavelengths
Number of Pixels in Spectrum: 1024
>>>>>Begin Spectral Data<<<<<
801.071	3728
801.214	3778
801.356	3698
801.499	3736
801.641	3709
801.783	3789
801.926	3869
802.068	3812
802.211	3831
802.353	3865
802.496	3857
802.638	3896
802.78	3892
802.923	3899
803.065	3911
803.208	3823
803.35	3869
803.492	3861
803.635	3918
803.777	3835
803.919	3896
804.061	4147
804.204	3972
804.346	3930
804.488	3953
804.63	4032
804.773	3949
804.915	4055
805.057	4173
805.199	4013
805.341	4090
805.483	4147
805.626	4158
805.768	4128
805.91	4230
806.052	4249
806.194	4166
806.336	4379
806.478	4185
806.62	4147
806.762	4246
806.904	4242
807.046	4322
807.188	4169
807.33	4192
807.472	4211
807.614	4207
807.756	4268
807.898	4246
808.04	4280
808.182	4314
808.324	4268
808.465	4333
808.607	4424
808.749	4455
808.891	4443
809.033	4500
809.174	4383
809.316	4253
809.458	4272
809.6	4109
809.741	4120
809.883	4101
810.025	4177
810.166	4162
810.308	4215
810.45	4246
810.591	4238
810.733	4341
810.875	4573
811.016	4809
811.158	5178
811.299	5250
811.441	5296
811.582	5025
811.724	4675
811.865	4443
812.007	4424
812.148	4402
812.29	4402
812.431	4424
812.573	4409
812.714	4360
812.855	4413
812.997	4432
813.138	4455
813.279	4470
813.421	4394
813.562	4375
813.703	4310
813.845	4333
813.986	4299
814.127	4177
814.268	4246
814.41	4253
814.551	4268
814.692	4295
814.833	4230
814.974	4287
815.115	4348
815.256	4265
815.397	4246
815.539	4246
815.68	4219
815.821	4196
815.962	4261
816.103	4314
816.244	4284
816.385	4234
816.526	4238
816.666	4200
816.807	4082
816.948	4192
817.089	4154
817.23	4147
817.371	4090
817.512	4090
817.653	4074
817.793	4032
817.934	4032
818.075	4105
818.216	4074
818.356	4071
818.497	3968
818.638	3892
818.778	3922
818.919	3899
819.06	3835
819.2	3930
819.341	3831
819.481	3838
819.622	3926
819.762	4010
819.903	3903
820.043	3880
820.184	3850
820.324	3838
820.465	3869
820.605	3865
820.746	3804
820.886	3766
821.026	3888
821.167	3899
821.307	3960
821.447	3972
821.588	3953
821.728	3956
821.868	3960
822.008	3827
822.149	3922
822.289	3896
822.429	3778
822.569	3808
822.709	3808
822.849	3694
822.99	3720
823.13	3778
823.27	3816
823.41	3728
823.55	3717
823.69	3728
823.83	3686
823.97	3644
824.11	3622
824.25	3610
824.389	3641
824.529	3648
824.669	3656
824.809	3686
824.949	3720
825.089	3759
825.228	3701
825.368	3576
825.508	3549
825.648	3557
825.787	3618
825.927	3587
826.067	3622
826.206	3656
826.346	3808
826.485	3857
826.625	3865
826.765	3934
826.904	3827
827.044	3610
827.183	3530
827.323	3424
827.462	3450
827.601	3431
827.741	3439
827.88	3488
828.02	3374
828.159	3420
828.298	3466
828.437	3511
828.577	3462
828.716	3591
828.855	3538
828.994	3405
829.134	3355
829.273	3359
829.412	3348
829.551	3336
829.69	3378
829.829	3424
829.968	3526
830.107	3454
830.246	3428
830.385	3389
830.524	3321
830.663	3291
830.802	3249
830.941	3188
831.08	3169
831.219	3253
831.357	3287
831.496	3409
831.635	3222
831.774	3222
831.913	3211
832.051	3097
832.19	3123
832.329	3226
832.467	3108
832.606	3108
832.744	3165
832.883	3165
833.022	3184
833.16	3256
833.299	3306
833.437	3340
833.576	3348
833.714	3386
833.852	3431
833.991	3450
834.129	3458
834.267	3450
834.406	3393
834.544	3428
834.682	3416
834.821	3397
834.959	3523
835.097	3420
835.235	3515
835.373	3477
835.511	3496
835.65	3488
835.788	3504
835.926	3363
836.064	3370
836.202	3389
836.34	3576
836.478	3595
836.615	3549
836.753	3610
836.891	3629
837.029	3610
837.167	3572
837.305	3545
837.443	3545
837.58	3488
837.718	3557
837.856	3557
837.993	3511
838.131	3633
838.269	3542
838.406	3553
838.544	3587
838.681	3488
838.819	3447
838.956	3359
839.094	3389
839.231	3462
839.369	3515
839.506	3717
839.643	3580
839.781	3485
839.918	3500
840.055	3515
840.193	3492
840.33	3534
840.467	3519
840.604	3584
840.742	3781
840.879	3553
841.016	3553
841.153	3595
841.29	3762
841.427	3709
841.564	3740
841.701	3720
841.838	3701
841.975	3633
842.112	3724
842.249	3652
842.385	3603
842.522	3797
842.659	3713
842.796	3637
842.933	3713
843.069	3667
843.206	3667
843.343	3797
843.479	3797
843.616	3808
843.752	3698
843.889	3709
844.025	3861
844.162	3698
844.298	3835
844.435	3751
844.571	3793
844.708	3915
844.844	3964
844.98	4029
845.117	4036
845.253	3937
845.389	3857
845.525	3972
845.661	3949
845.798	3949
845.934	3983
846.07	3915
846.206	4067
846.342	4116
846.478	4074
846.614	3987
846.75	3945
846.886	3922
847.022	3994
847.158	3945
847.294	3991
847.429	4036
847.565	3983
847.701	4238
847.837	3857
847.972	3846
848.108	3960
848.244	3987
848.379	3842
848.515	3797
848.65	3747
848.786	3838
848.921	3857
849.057	3968
849.192	3953
849.328	3915
849.463	3922
849.598	3903
849.734	3869
849.869	3850
850.004	3762
850.14	3827
850.275	3808
850.41	3724
850.545	3797
850.68	3808
850.815	3747
850.95	3747
851.085	3941
851.22	3865
851.355	3838
851.49	3755
851.625	3793
851.76	3766
851.895	3698
852.03	3732
852.165	3819
852.299	3865
852.434	3888
852.569	3884
852.703	3873
852.838	3911
852.973	3968
853.107	3960
853.242	3854
853.376	3804
853.511	3785
853.645	3812
853.78	3998
853.914	3918
854.048	3850
854.183	3854
854.317	3968
854.451	4063
854.585	3930
854.72	3930
854.854	4055
854.988	3945
855.122	4017
855.256	3915
855.39	4036
855.524	4147
855.658	4059
855.792	4093
855.926	4128
856.06	4150
856.194	4177
856.327	4150
856.461	4128
856.595	4143
856.729	4147
856.862	4242
856.996	4227
857.13	4265
857.263	4268
857.397	4360
857.53	4272
857.664	4333
857.797	4402
857.931	4417
858.064	4341
858.197	4432
858.331	4371
858.464	4394
858.597	4329
858.731	4402
858.864	4451
858.997	4440
859.13	4512
859.263	4550
859.396	4569
859.529	4565
859.662	4535
859.795	4504
859.928	4611
860.061	4683
860.194	4687
860.327	4634
860.46	4641
860.592	4706
860.725	4725
860.858	4793
860.99	4656
861.123	4691
861.256	4656
861.388	4759
861.521	5398
861.653	4717
861.786	4714
861.918	4733
862.05	4748
862.183	4824
862.315	4927
862.447	4911
862.58	4889
862.712	4786
862.844	4759
862.976	4866
863.108	4870
863.24	5174
863.372	4847
863.504	4927
863.636	4919
863.768	4987
863.9	4961
864.032	4919
864.164	4904
864.296	5060
864.428	5079
864.559	5083
864.691	5079
864.823	5170
864.954	5121
865.086	5121
865.217	5109
865.349	5113
865.48	5204
865.612	5197
865.743	5337
865.875	5223
866.006	5201
866.137	5189
866.269	5246
866.4	5250
866.531	5193
866.662	5231
866.793	5254
866.924	5311
867.055	5337
867.186	5318
867.317	5326
867.448	5322
867.579	5334
867.71	5383
867.841	5368
867.972	5459
868.103	5459
868.233	5558
868.364	5474
868.495	5566
868.625	5642
868.756	5775
868.886	5642
869.017	5767
869.147	5783
869.278	5870
869.408	5813
869.539	5790
869.669	5927
869.799	5893
869.929	6030
870.06	5988
870.19	6194
870.32	6201
870.45	6243
870.58	6338
870.71	6441
870.84	6471
870.97	6410
871.1	6448
871.23	6620
871.36	6719
871.489	6646
871.619	6806
871.749	6806
871.879	6837
872.008	6958
872.138	6962
872.267	7027
872.397	6932
872.526	7019
872.656	7069
872.785	7187
872.915	7358
873.044	7514
873.173	7495
873.303	7655
873.432	7788
873.561	7909
873.69	7928
873.819	7978
873.948	8126
874.077	8275
874.206	8347
874.335	8488
874.464	8651
874.593	8883
874.722	8982
874.851	9207
874.979	9275
875.108	9408
875.237	9393
875.365	9450
875.494	9656
875.623	9778
875.751	9793
875.88	10006
876.008	10154
876.136	10299
876.265	10561
876.393	10645
876.521	10763
876.65	10831
876.778	10850
876.906	10877
877.034	10953
877.162	11064
877.29	11136
877.418	11398
877.546	11315
877.674	11463
877.802	11452
877.93	11490
878.058	11535
878.185	11600
878.313	11726
878.441	11748
878.568	11623
878.696	11824
878.824	11847
878.951	11901
879.079	11992
879.206	12079
879.333	12026
879.461	11904
879.588	12022
879.715	12182
879.842	12163
879.97	12038
880.097	11901
880.224	11832
880.351	11843
880.478	11912
880.605	11843
880.732	11832
880.859	11999
880.986	11813
881.112	11840
881.239	11809
881.366	11676
881.493	11688
881.619	11520
881.746	11570
881.872	11493
881.999	11535
882.125	11501
882.252	11566
882.378	11429
882.505	11554
882.631	11383
882.757	11303
882.883	11250
883.01	11208
883.136	11147
883.262	11071
883.388	11132
883.514	11102
883.64	11216
883.766	11086
883.892	10976
884.018	10946
884.143	10991
884.269	11090
884.395	10816
884.52	10797
884.646	10790
884.772	10717
884.897	10607
885.023	10714
885.148	10790
885.274	10778
885.399	10809
885.524	10637
885.65	10531
885.775	10542
885.9	10542
886.025	10607
886.15	10550
886.275	10398
886.4	10322
886.525	10371
886.65	10394
886.775	10333
886.9	10455
887.025	10459
887.149	10440
887.274	10185
887.399	10200
887.523	10097
887.648	10192
887.773	10112
887.897	10284
888.021	10322
888.146	10196
888.27	10139
888.395	10204
888.519	10185
888.643	10131
888.767	10185
888.891	10112
889.015	10086
889.139	10029
889.263	9991
889.387	10040
889.511	10154
889.635	10032
889.759	10074
889.883	9983
890.006	10048
890.13	10025
890.254	10025
890.377	9934
890.501	9915
890.624	9808
890.748	9918
890.871	9732
890.995	9797
891.118	9842
891.241	9732
891.364	9728
891.488	9781
891.611	9724
891.734	9667
891.857	9720
891.98	9732
892.103	9797
892.226	9747
892.349	9610
892.471	9469
892.594	9519
892.717	9599
892.839	9564
892.962	9587
893.085	9698
893.207	9496
893.33	9420
893.452	9614
893.575	9591
893.697	9500
893.819	9606
893.941	9698
894.064	9492
894.186	9469
894.308	9405
894.43	9485
894.552	9591
894.674	9450
894.796	9378
894.918	9389
895.04	9386
895.161	9355
895.283	9313
895.405	9230
895.526	9275
895.648	9287
895.769	9302
895.891	9245
896.012	9256
896.134	9188
896.255	9264
896.376	9180
896.498	9138
896.619	9112
896.74	9062
896.861	9097
896.982	9321
897.103	9279
897.224	9165
897.345	9108
897.466	9055
897.587	9055
897.708	9043
897.828	9070
897.949	8944
898.07	8861
898.19	8918
898.311	8998
898.431	8918
898.552	8887
898.672	8910
898.792	8906
898.913	8891
899.033	8800
899.153	8735
899.273	8651
899.393	8708
899.513	8701
899.633	8773
899.753	8716
899.873	8648
899.993	8746
900.113	8766
900.232	8682
900.352	8716
900.472	8560
900.591	8571
900.711	8697
900.83	8526
900.95	8716
901.069	8606
901.189	8541
901.308	8495
901.427	8347
901.546	8484
901.665	8473
901.784	8476
901.904	8374
902.023	8324
902.141	8210
902.26	8202
902.379	8320
902.498	8176
902.617	8187
902.735	8256
902.854	8206
902.973	8206
903.091	8138
903.21	8176
903.328	8161
903.446	8157
903.565	8138
903.683	8126
903.801	8016
903.919	8084
904.038	8168
904.156	8012
904.274	8073
904.392	8035
904.51	8005
904.627	8039
904.745	8077
904.863	8077
904.981	7917
905.098	7875
905.216	7811
905.334	7894
905.451	7879
905.569	7814
905.686	7925
905.803	7894
905.921	7883
906.038	7830
906.155	7765
906.272	7708
906.389	7715
906.506	7639
906.623	7662
906.74	7578
906.857	7529
906.974	7605
907.091	7647
907.208	7750
907.324	7559
907.441	7563
907.557	7472
907.674	7430
907.79	7407
907.907	7422
908.023	7419
908.139	7396
908.256	7381
908.372	7316
908.488	7362
908.604	7244
908.72	7244
908.836	7293
908.952	7213
909.068	7274
909.184	7297
909.3	7202
909.415	7266
909.531	7259
909.647	7091
909.762	7084
909.878	7080
909.993	7061
910.108	7076
910.224	7129
910.339	7088
910.454	7129
910.57	7023
910.685	6871
910.8	7236
910.915	7114
911.03	7015
911.145	6909
911.259	6844
911.374	6901
911.489	6795
911.604	6757
911.718	6696
911.833	6726
911.947	6662
912.062	6665
912.176	6696
912.291	6677
912.405	6730
912.519	6795
912.633	6764
912.748	6703
912.862	6684
912.976	6677
913.09	6513
913.204	6597
913.318	6597
913.431	6722
913.545	6677
913.659	6688
913.772	6582
913.886	6604
914	6604
914.113	6669
914.226	6593
914.34	6597
914.453	6460
914.566	6585
914.68	6540
914.793	6551
914.906	6365
915.019	6426
915.132	6361
915.245	6445
915.358	6509
915.47	6414
915.583	6418
915.696	6483
915.809	6540
915.921	6525
916.034	6422
916.146	6395
916.259	6384
916.371	6517
916.483	6460
916.595	6384
916.708	6422
916.82	6422
916.932	6357
917.044	6376
917.156	6418
917.268	6262
917.38	6361
917.491	6338
917.603	6353
917.715	6376
917.826	6418
917.938	6369
918.049	6213
918.161	6365
918.272	6441
918.384	6407
918.495	6300
918.606	6281
918.717	6235
918.828	6258
918.939	6296
919.05	6140
919.161	6258
919.272	6197
919.383	6152
919.494	6262
919.604	6391
919.715	6258
919.826	6239
919.936	6213
920.047	6304
920.157	6235
920.267	6433
920.378	6285
920.488	6289
920.598	6452
920.708	6570
920.818	6486
920.928	6437
921.038	6635
921.148	6502
921.258	6331
921.368	6266
921.477	6159
921.587	6182
921.697	6102
921.806	6140
921.916	6106
922.025	5878
922.134	5908
922.244	5870
922.353	5942
922.462	5859
922.571	5783
922.68	5665
922.789	5668
922.898	5741
923.007	5657
923.116	5722
923.224	5668
923.333	5668
923.442	5539
923.55	5638
923.659	5630
923.767	5611
923.876	5611
923.984	5577
924.092	5535
924.201	5532
924.309	5535
924.417	5562
924.525	5509
924.633	5474
924.741	6232
924.849	5387
924.956	5520
925.064	5341
925.172	5296
925.279	5303
925.387	5360
925.494	5311
925.602	5406
925.709	5395
925.816	5246
925.924	5337
926.031	5395
926.138	5318
926.245	5269
926.352	5197
926.459	5341
926.566	5322
926.673	5155
926.779	5121
926.886	5147
926.993	5045
927.099	5037
927.206	4965
927.312	4987
927.419	4984
927.525	4980
927.631	4957
927.737	4900
927.843	4889
927.95	4812
928.056	4862
928.162	4850
928.267	4862
928.373	5261
928.479	4900
928.585	4660
928.69	4733
928.796	4786
928.901	4660
929.007	4679
929.112	4706
929.218	4656
929.323	4603
929.428	4577
929.533	4683
929.638	4512
929.743	4550
929.848	4584
929.953	4516
930.058	4421
930.163	4299
930.267	4322
930.372	4451
930.477	4246
930.581	4447
930.685	4348
930.79	4215
930.894	4280
930.998	4249
931.103	4325
931.207	4120
931.311	4048
931.415	4021
931.519	3907
931.623	3937
