Data from glass_V78500241_274.txt Node
Date: Wed Sep 01 19:16:23 CST 2021
User: usil
Spectrometer: V785-0024
Trigger mode: 0
Integration Time (sec): 4.000000E-1
Scans to average: 1
Nonlinearity correction enabled: false
Boxcar width: 0
Storing dark spectrum: false
XAxis mode: Wavelengths
Number of Pixels in Spectrum: 1024
>>>>>Begin Spectral Data<<<<<
801.071	3743
801.214	3701
801.356	3743
801.499	3740
801.641	3743
801.783	3770
801.926	3888
802.068	3846
802.211	3876
802.353	3907
802.496	3869
802.638	3892
802.78	3892
802.923	3884
803.065	3926
803.208	3850
803.35	3911
803.492	3922
803.635	3945
803.777	3823
803.919	3907
804.061	4158
804.204	3968
804.346	3941
804.488	3888
804.63	4059
804.773	3991
804.915	4029
805.057	4143
805.199	4051
805.341	4128
805.483	4147
805.626	4105
805.768	4112
805.91	4230
806.052	4261
806.194	4223
806.336	4363
806.478	4253
806.62	4154
806.762	4154
806.904	4348
807.046	4322
807.188	4215
807.33	4215
807.472	4215
807.614	4192
807.756	4287
807.898	4204
808.04	4219
808.182	4310
808.324	4367
808.465	4390
808.607	4478
808.749	4440
808.891	4455
809.033	4558
809.174	4428
809.316	4314
809.458	4188
809.6	4200
809.741	4139
809.883	4139
810.025	4211
810.166	4227
810.308	4272
810.45	4246
810.591	4287
810.733	4268
810.875	4497
811.016	4824
811.158	5132
811.299	5265
811.441	5277
811.582	5071
811.724	4736
811.865	4466
812.007	4504
812.148	4421
812.29	4462
812.431	4432
812.573	4417
812.714	4402
812.855	4428
812.997	4462
813.138	4504
813.279	4424
813.421	4413
813.562	4390
813.703	4375
813.845	4367
813.986	4299
814.127	4261
814.268	4276
814.41	4303
814.551	4276
814.692	4341
814.833	4242
814.974	4318
815.115	4352
815.256	4276
815.397	4249
815.539	4257
815.68	4188
815.821	4265
815.962	4314
816.103	4318
816.244	4261
816.385	4253
816.526	4333
816.666	4211
816.807	4120
816.948	4234
817.089	4211
817.23	4150
817.371	4101
817.512	4093
817.653	4109
817.793	4048
817.934	4025
818.075	4097
818.216	4055
818.356	4116
818.497	4055
818.638	3968
818.778	3907
818.919	3922
819.06	3835
819.2	3953
819.341	3876
819.481	3861
819.622	3918
819.762	3964
819.903	3953
820.043	3854
820.184	3835
820.324	3808
820.465	3930
820.605	3854
820.746	3892
820.886	3842
821.026	3987
821.167	3922
821.307	3987
821.447	4013
821.588	3964
821.728	3979
821.868	3949
822.008	3880
822.149	3911
822.289	3930
822.429	3797
822.569	3774
822.709	3846
822.849	3720
822.99	3728
823.13	3755
823.27	3778
823.41	3717
823.55	3724
823.69	3713
823.83	3724
823.97	3690
824.11	3618
824.25	3591
824.389	3652
824.529	3694
824.669	3656
824.809	3713
824.949	3743
825.089	3755
825.228	3709
825.368	3610
825.508	3572
825.648	3599
825.787	3591
825.927	3679
826.067	3679
826.206	3686
826.346	3819
826.485	3835
826.625	3842
826.765	3987
826.904	3876
827.044	3618
827.183	3526
827.323	3481
827.462	3496
827.601	3386
827.741	3473
827.88	3443
828.02	3389
828.159	3454
828.298	3515
828.437	3553
828.577	3492
828.716	3599
828.855	3466
828.994	3405
829.134	3378
829.273	3454
829.412	3348
829.551	3378
829.69	3359
829.829	3409
829.968	3492
830.107	3462
830.246	3450
830.385	3397
830.524	3367
830.663	3344
830.802	3222
830.941	3192
831.08	3188
831.219	3275
831.357	3249
831.496	3435
831.635	3241
831.774	3214
831.913	3249
832.051	3173
832.19	3154
832.329	3211
832.467	3131
832.606	3104
832.744	3180
832.883	3188
833.022	3199
833.16	3260
833.299	3336
833.437	3317
833.576	3363
833.714	3439
833.852	3450
833.991	3462
834.129	3488
834.267	3428
834.406	3450
834.544	3439
834.682	3439
834.821	3428
834.959	3580
835.097	3405
835.235	3549
835.373	3500
835.511	3466
835.65	3469
835.788	3534
835.926	3397
836.064	3405
836.202	3424
836.34	3584
836.478	3606
836.615	3549
836.753	3652
836.891	3660
837.029	3656
837.167	3610
837.305	3557
837.443	3568
837.58	3515
837.718	3568
837.856	3561
837.993	3523
838.131	3622
838.269	3599
838.406	3580
838.544	3568
838.681	3450
838.819	3424
838.956	3409
839.094	3401
839.231	3477
839.369	3507
839.506	3751
839.643	3641
839.781	3519
839.918	3473
840.055	3523
840.193	3557
840.33	3530
840.467	3557
840.604	3618
840.742	3785
840.879	3523
841.016	3576
841.153	3595
841.29	3778
841.427	3747
841.564	3732
841.701	3766
841.838	3705
841.975	3690
842.112	3720
842.249	3648
842.385	3614
842.522	3857
842.659	3743
842.796	3663
842.933	3698
843.069	3713
843.206	3736
843.343	3869
843.479	3819
843.616	3819
843.752	3633
843.889	3698
844.025	3861
844.162	3720
844.298	3857
844.435	3781
844.571	3804
844.708	3941
844.844	3979
844.98	4017
845.117	4006
845.253	3918
845.389	3922
845.525	3949
845.661	4010
845.798	3953
845.934	4051
846.07	3918
846.206	4105
846.342	4181
846.478	4055
846.614	4010
846.75	3926
846.886	3960
847.022	4006
847.158	4036
847.294	4002
847.429	4071
847.565	3945
847.701	4268
847.837	3930
847.972	3873
848.108	3991
848.244	3991
848.379	3915
848.515	3831
848.65	3835
848.786	3876
848.921	3884
849.057	3911
849.192	3945
849.328	3930
849.463	3930
849.598	3903
849.734	3896
849.869	3835
850.004	3785
850.14	3835
850.275	3804
850.41	3766
850.545	3762
850.68	3766
850.815	3865
850.95	3812
851.085	3934
851.22	3869
851.355	3854
851.49	3740
851.625	3766
851.76	3816
851.895	3770
852.03	3728
852.165	3816
852.299	3835
852.434	3930
852.569	3896
852.703	3880
852.838	3979
852.973	3968
853.107	4006
853.242	3865
853.376	3869
853.511	3797
853.645	3884
853.78	4017
853.914	3934
854.048	3930
854.183	3907
854.317	3994
854.451	4105
854.585	3960
854.72	3968
854.854	4078
854.988	3941
855.122	3998
855.256	3945
855.39	4006
855.524	4093
855.658	4078
855.792	4147
855.926	4120
856.06	4188
856.194	4246
856.327	4169
856.461	4124
856.595	4158
856.729	4223
856.862	4314
856.996	4249
857.13	4303
857.263	4306
857.397	4344
857.53	4303
857.664	4348
857.797	4424
857.931	4447
858.064	4421
858.197	4466
858.331	4451
858.464	4402
858.597	4356
858.731	4481
858.864	4489
858.997	4470
859.13	4535
859.263	4538
859.396	4542
859.529	4523
859.662	4550
859.795	4508
859.928	4660
860.061	4755
860.194	4797
860.327	4668
860.46	4675
860.592	4725
860.725	4767
860.858	4805
860.99	4687
861.123	4733
861.256	4668
861.388	4767
861.521	5322
861.653	4778
861.786	4752
861.918	4740
862.05	4820
862.183	4812
862.315	4870
862.447	4987
862.58	4919
862.712	4824
862.844	4797
862.976	4866
863.108	4892
863.24	5258
863.372	4854
863.504	4915
863.636	4923
863.768	4968
863.9	4953
864.032	4980
864.164	4957
864.296	5064
864.428	5151
864.559	5151
864.691	5155
864.823	5170
864.954	5105
865.086	5140
865.217	5132
865.349	5102
865.48	5181
865.612	5223
865.743	5265
865.875	5197
866.006	5254
866.137	5235
866.269	5284
866.4	5315
866.531	5242
866.662	5250
866.793	5277
866.924	5311
867.055	5345
867.186	5376
867.317	5337
867.448	5322
867.579	5448
867.71	5364
867.841	5364
867.972	5467
868.103	5433
868.233	5501
868.364	5528
868.495	5562
868.625	5699
868.756	5783
868.886	5653
869.017	5691
869.147	5828
869.278	5836
869.408	5783
869.539	5851
869.669	5931
869.799	5935
869.929	6015
870.06	6038
870.19	6258
870.32	6224
870.45	6251
870.58	6319
870.71	6429
870.84	6544
870.97	6410
871.1	6483
871.23	6730
871.36	6707
871.489	6696
871.619	6760
871.749	6791
871.879	6897
872.008	7008
872.138	6924
872.267	7042
872.397	7004
872.526	7012
872.656	7110
872.785	7236
872.915	7415
873.044	7525
873.173	7548
873.303	7700
873.432	7807
873.561	7868
873.69	7932
873.819	8050
873.948	8164
874.077	8343
874.206	8347
874.335	8427
874.464	8750
874.593	8823
874.722	8956
874.851	9165
874.979	9344
875.108	9382
875.237	9386
875.365	9443
875.494	9625
875.623	9838
875.751	9850
875.88	9998
876.008	10135
876.136	10299
876.265	10580
876.393	10694
876.521	10698
876.65	10847
876.778	10908
876.906	10965
877.034	10987
877.162	11098
877.29	11155
877.418	11261
877.546	11414
877.674	11398
877.802	11585
877.93	11570
878.058	11532
878.185	11600
878.313	11539
878.441	11790
878.568	11684
878.696	11790
878.824	11813
878.951	11958
879.079	11969
879.206	12106
879.333	12053
879.461	12030
879.588	12213
879.715	12045
879.842	12175
879.97	12148
880.097	11802
880.224	11790
880.351	11912
880.478	11901
880.605	11855
880.732	11859
880.859	11980
880.986	11790
881.112	11809
881.239	11691
881.366	11608
881.493	11627
881.619	11474
881.746	11672
881.872	11558
881.999	11471
882.125	11471
882.252	11596
882.378	11528
882.505	11547
882.631	11376
882.757	11311
882.883	11337
883.01	11296
883.136	11143
883.262	11075
883.388	11124
883.514	11204
883.64	11178
883.766	11136
883.892	11014
884.018	11048
884.143	11048
884.269	11052
884.395	10797
884.52	10771
884.646	10790
884.772	10748
884.897	10641
885.023	10706
885.148	10828
885.274	10771
885.399	10656
885.524	10698
885.65	10622
885.775	10531
885.9	10466
886.025	10698
886.15	10584
886.275	10443
886.4	10390
886.525	10428
886.65	10352
886.775	10341
886.9	10451
887.025	10580
887.149	10379
887.274	10253
887.399	10280
887.523	10196
887.648	10162
887.773	10116
887.897	10356
888.021	10188
888.146	10124
888.27	10211
888.395	10211
888.519	10227
888.643	10147
888.767	10253
888.891	10181
889.015	10040
889.139	10074
889.263	10051
889.387	10051
889.511	10196
889.635	10105
889.759	9953
889.883	9975
890.006	10002
890.13	10086
890.254	9991
890.377	10029
890.501	9838
890.624	9812
890.748	9930
890.871	9899
890.995	9713
891.118	9637
891.241	9717
891.364	9686
891.488	9789
891.611	9682
891.734	9717
891.857	9736
891.98	9724
892.103	9747
892.226	9660
892.349	9625
892.471	9553
892.594	9542
892.717	9561
892.839	9637
892.962	9705
893.085	9622
893.207	9564
893.33	9500
893.452	9530
893.575	9667
893.697	9553
893.819	9633
893.941	9629
894.064	9580
894.186	9507
894.308	9435
894.43	9564
894.552	9507
894.674	9477
894.796	9469
894.918	9389
895.04	9359
895.161	9386
895.283	9382
895.405	9355
895.526	9313
895.648	9272
895.769	9230
895.891	9275
896.012	9241
896.134	9214
896.255	9222
896.376	9135
896.498	9085
896.619	9097
896.74	9173
896.861	9123
896.982	9279
897.103	9363
897.224	9203
897.345	9089
897.466	9058
897.587	9043
897.708	9131
897.828	9051
897.949	9001
898.07	8849
898.19	8876
898.311	9108
898.431	8952
898.552	8895
898.672	9001
898.792	8963
898.913	8880
899.033	8830
899.153	8708
899.273	8708
899.393	8739
899.513	8712
899.633	8830
899.753	8766
899.873	8708
899.993	8769
900.113	8762
900.232	8705
900.352	8655
900.472	8575
900.591	8556
900.711	8503
900.83	8583
900.95	8705
901.069	8739
901.189	8594
901.308	8511
901.427	8427
901.546	8465
901.665	8526
901.784	8461
901.904	8427
902.023	8370
902.141	8210
902.26	8218
902.379	8267
902.498	8286
902.617	8214
902.735	8336
902.854	8244
902.973	8267
903.091	8206
903.21	8081
903.328	8168
903.446	8138
903.565	8119
903.683	8123
903.801	8043
903.919	8084
904.038	8164
904.156	7997
904.274	8092
904.392	8012
904.51	8027
904.627	8123
904.745	8126
904.863	8145
904.981	7963
905.098	7887
905.216	7849
905.334	7887
905.451	7913
905.569	7909
905.686	7913
905.803	7921
905.921	7856
906.038	7856
906.155	7799
906.272	7750
906.389	7693
906.506	7689
906.623	7620
906.74	7620
906.857	7559
906.974	7636
907.091	7666
907.208	7818
907.324	7677
907.441	7605
907.557	7426
907.674	7502
907.79	7392
907.907	7491
908.023	7415
908.139	7445
908.256	7381
908.372	7369
908.488	7324
908.604	7270
908.72	7266
908.836	7236
908.952	7259
909.068	7244
909.184	7335
909.3	7274
909.415	7263
909.531	7285
909.647	7141
909.762	7160
909.878	7122
909.993	7133
910.108	7118
910.224	7133
910.339	7080
910.454	7057
910.57	6973
910.685	6951
910.8	7118
910.915	7103
911.03	7080
911.145	6909
911.259	6886
911.374	6913
911.489	6821
911.604	6825
911.718	6719
911.833	6738
911.947	6654
912.062	6623
912.176	6715
912.291	6722
912.405	6688
912.519	6829
912.633	6859
912.748	6662
912.862	6738
912.976	6642
913.09	6551
913.204	6566
913.318	6631
913.431	6703
913.545	6703
913.659	6768
913.772	6662
913.886	6635
914	6612
914.113	6601
914.226	6642
914.34	6631
914.453	6521
914.566	6631
914.68	6486
914.793	6544
914.906	6407
915.019	6441
915.132	6437
915.245	6403
915.358	6456
915.47	6452
915.583	6418
915.696	6528
915.809	6608
915.921	6589
916.034	6441
916.146	6422
916.259	6380
916.371	6486
916.483	6479
916.595	6414
916.708	6407
916.82	6426
916.932	6407
917.044	6403
917.156	6441
917.268	6315
917.38	6372
917.491	6319
917.603	6338
917.715	6407
917.826	6399
917.938	6380
918.049	6239
918.161	6357
918.272	6433
918.384	6471
918.495	6384
918.606	6239
918.717	6239
918.828	6308
918.939	6334
919.05	6171
919.161	6327
919.272	6114
919.383	6205
919.494	6296
919.604	6467
919.715	6315
919.826	6213
919.936	6239
920.047	6357
920.157	6277
920.267	6502
920.378	6311
920.488	6292
920.598	6532
920.708	6639
920.818	6517
920.928	6471
921.038	6593
921.148	6559
921.258	6376
921.368	6346
921.477	6224
921.587	6194
921.697	6144
921.806	6167
921.916	6064
922.025	5984
922.134	5889
922.244	5889
922.353	6041
922.462	5847
922.571	5805
922.68	5718
922.789	5722
922.898	5741
923.007	5657
923.116	5752
923.224	5695
923.333	5665
923.442	5627
923.55	5615
923.659	5604
923.767	5657
923.876	5608
923.984	5592
924.092	5528
924.201	5615
924.309	5535
924.417	5558
924.525	5497
924.633	5535
924.741	6254
924.849	5372
924.956	5421
925.064	5376
925.172	5326
925.279	5303
925.387	5357
925.494	5341
925.602	5448
925.709	5402
925.816	5299
925.924	5292
926.031	5364
926.138	5292
926.245	5326
926.352	5223
926.459	5311
926.566	5337
926.673	5227
926.779	5140
926.886	5151
926.993	5098
927.099	4995
927.206	5014
927.312	4968
927.419	5056
927.525	4980
927.631	5018
927.737	4927
927.843	4870
927.95	4812
928.056	4862
928.162	4809
928.267	4900
928.373	5265
928.479	4831
928.585	4679
928.69	4790
928.796	4828
928.901	4729
929.007	4630
929.112	4710
929.218	4630
929.323	4596
929.428	4584
929.533	4679
929.638	4565
929.743	4558
929.848	4573
929.953	4535
930.058	4421
930.163	4341
930.267	4344
930.372	4455
930.477	4306
930.581	4459
930.685	4379
930.79	4249
930.894	4295
930.998	4322
931.103	4428
931.207	4158
931.311	4112
931.415	4021
931.519	3926
931.623	3922
