Data from glass_V78500241_1340.txt Node
Date: Wed Sep 01 19:23:47 CST 2021
User: usil
Spectrometer: V785-0024
Trigger mode: 0
Integration Time (sec): 4.000000E-1
Scans to average: 1
Nonlinearity correction enabled: false
Boxcar width: 0
Storing dark spectrum: false
XAxis mode: Wavelengths
Number of Pixels in Spectrum: 1024
>>>>>Begin Spectral Data<<<<<
801.071	3740
801.214	3778
801.356	3732
801.499	3743
801.641	3709
801.783	3785
801.926	3884
802.068	3793
802.211	3880
802.353	3884
802.496	3842
802.638	3876
802.78	3926
802.923	3968
803.065	3915
803.208	3888
803.35	3857
803.492	3915
803.635	3945
803.777	3785
803.919	3876
804.061	4135
804.204	4013
804.346	3945
804.488	3926
804.63	4002
804.773	3964
804.915	4013
805.057	4147
805.199	4101
805.341	4090
805.483	4158
805.626	4166
805.768	4139
805.91	4204
806.052	4234
806.194	4204
806.336	4329
806.478	4223
806.62	4169
806.762	4177
806.904	4268
807.046	4329
807.188	4223
807.33	4200
807.472	4200
807.614	4246
807.756	4272
807.898	4211
808.04	4223
808.182	4265
808.324	4383
808.465	4424
808.607	4500
808.749	4497
808.891	4421
809.033	4546
809.174	4417
809.316	4295
809.458	4249
809.6	4173
809.741	4139
809.883	4143
810.025	4207
810.166	4257
810.308	4207
810.45	4265
810.591	4230
810.733	4276
810.875	4535
811.016	4831
811.158	5128
811.299	5318
811.441	5261
811.582	5090
811.724	4660
811.865	4459
812.007	4497
812.148	4451
812.29	4417
812.431	4428
812.573	4413
812.714	4360
812.855	4424
812.997	4447
813.138	4478
813.279	4390
813.421	4390
813.562	4375
813.703	4367
813.845	4371
813.986	4276
814.127	4261
814.268	4280
814.41	4310
814.551	4272
814.692	4310
814.833	4272
814.974	4314
815.115	4318
815.256	4257
815.397	4211
815.539	4268
815.68	4219
815.821	4192
815.962	4337
816.103	4272
816.244	4227
816.385	4230
816.526	4333
816.666	4204
816.807	4120
816.948	4154
817.089	4185
817.23	4112
817.371	4051
817.512	4029
817.653	4036
817.793	4010
817.934	4017
818.075	4116
818.216	4051
818.356	4147
818.497	3975
818.638	3884
818.778	3930
818.919	3884
819.06	3876
819.2	3918
819.341	3903
819.481	3827
819.622	3941
819.762	4040
819.903	3934
820.043	3857
820.184	3865
820.324	3785
820.465	3846
820.605	3884
820.746	3854
820.886	3793
821.026	3926
821.167	3888
821.307	3934
821.447	3972
821.588	3968
821.728	3964
821.868	3991
822.008	3880
822.149	3846
822.289	3922
822.429	3823
822.569	3770
822.709	3793
822.849	3686
822.99	3755
823.13	3751
823.27	3816
823.41	3755
823.55	3717
823.69	3751
823.83	3762
823.97	3656
824.11	3637
824.25	3599
824.389	3667
824.529	3648
824.669	3633
824.809	3701
824.949	3789
825.089	3705
825.228	3728
825.368	3580
825.508	3572
825.648	3587
825.787	3629
825.927	3610
826.067	3625
826.206	3614
826.346	3842
826.485	3842
826.625	3880
826.765	3983
826.904	3804
827.044	3580
827.183	3526
827.323	3447
827.462	3473
827.601	3428
827.741	3416
827.88	3469
828.02	3367
828.159	3443
828.298	3485
828.437	3515
828.577	3447
828.716	3606
828.855	3454
828.994	3412
829.134	3367
829.273	3389
829.412	3382
829.551	3340
829.69	3344
829.829	3412
829.968	3504
830.107	3454
830.246	3439
830.385	3386
830.524	3386
830.663	3291
830.802	3275
830.941	3203
831.08	3207
831.219	3253
831.357	3279
831.496	3409
831.635	3222
831.774	3169
831.913	3203
832.051	3150
832.19	3154
832.329	3207
832.467	3112
832.606	3089
832.744	3108
832.883	3207
833.022	3199
833.16	3245
833.299	3310
833.437	3348
833.576	3389
833.714	3424
833.852	3382
833.991	3458
834.129	3439
834.267	3447
834.406	3405
834.544	3428
834.682	3443
834.821	3447
834.959	3591
835.097	3409
835.235	3564
835.373	3466
835.511	3492
835.65	3458
835.788	3462
835.926	3367
836.064	3359
836.202	3428
836.34	3553
836.478	3629
836.615	3519
836.753	3599
836.891	3641
837.029	3641
837.167	3591
837.305	3599
837.443	3534
837.58	3485
837.718	3656
837.856	3572
837.993	3553
838.131	3599
838.269	3606
838.406	3606
838.544	3610
838.681	3500
838.819	3481
838.956	3393
839.094	3405
839.231	3462
839.369	3542
839.506	3720
839.643	3599
839.781	3534
839.918	3454
840.055	3534
840.193	3523
840.33	3545
840.467	3553
840.604	3606
840.742	3819
840.879	3542
841.016	3557
841.153	3644
841.29	3717
841.427	3690
841.564	3762
841.701	3785
841.838	3686
841.975	3671
842.112	3728
842.249	3629
842.385	3641
842.522	3800
842.659	3690
842.796	3717
842.933	3663
843.069	3709
843.206	3724
843.343	3797
843.479	3789
843.616	3816
843.752	3656
843.889	3686
844.025	3838
844.162	3747
844.298	3892
844.435	3759
844.571	3800
844.708	3945
844.844	3937
844.98	4029
845.117	4051
845.253	3937
845.389	3945
845.525	3983
845.661	3968
845.798	3934
845.934	3968
846.07	3934
846.206	3994
846.342	4143
846.478	4074
846.614	3991
846.75	3953
846.886	3884
847.022	4059
847.158	3960
847.294	3994
847.429	4036
847.565	4002
847.701	4261
847.837	3869
847.972	3842
848.108	3960
848.244	3945
848.379	3884
848.515	3835
848.65	3808
848.786	3873
848.921	3861
849.057	3941
849.192	3987
849.328	3918
849.463	3930
849.598	3911
849.734	3896
849.869	3835
850.004	3789
850.14	3827
850.275	3816
850.41	3698
850.545	3766
850.68	3797
850.815	3816
850.95	3808
851.085	3903
851.22	3873
851.355	3800
851.49	3819
851.625	3831
851.76	3804
851.895	3720
852.03	3732
852.165	3797
852.299	3869
852.434	3937
852.569	3865
852.703	3903
852.838	3972
852.973	4021
853.107	4025
853.242	3899
853.376	3854
853.511	3793
853.645	3850
853.78	3960
853.914	3899
854.048	3899
854.183	3892
854.317	3956
854.451	4078
854.585	3991
854.72	3934
854.854	4074
854.988	3937
855.122	4013
855.256	3926
855.39	4021
855.524	4139
855.658	4135
855.792	4116
855.926	4131
856.06	4196
856.194	4215
856.327	4185
856.461	4143
856.595	4124
856.729	4185
856.862	4280
856.996	4219
857.13	4265
857.263	4360
857.397	4352
857.53	4325
857.664	4333
857.797	4402
857.931	4360
858.064	4383
858.197	4470
858.331	4424
858.464	4383
858.597	4341
858.731	4432
858.864	4512
858.997	4455
859.13	4531
859.263	4508
859.396	4535
859.529	4508
859.662	4523
859.795	4558
859.928	4565
860.061	4736
860.194	4736
860.327	4679
860.46	4694
860.592	4714
860.725	4733
860.858	4790
860.99	4672
861.123	4675
861.256	4679
861.388	4797
861.521	5478
861.653	4729
861.786	4672
861.918	4774
862.05	4793
862.183	4835
862.315	4877
862.447	4911
862.58	4889
862.712	4774
862.844	4752
862.976	4877
863.108	4896
863.24	5197
863.372	4801
863.504	4885
863.636	4896
863.768	4946
863.9	4957
864.032	4908
864.164	4942
864.296	5048
864.428	5060
864.559	5140
864.691	5121
864.823	5181
864.954	5166
865.086	5128
865.217	5155
865.349	5143
865.48	5155
865.612	5246
865.743	5269
865.875	5185
866.006	5242
866.137	5178
866.269	5269
866.4	5246
866.531	5250
866.662	5250
866.793	5299
866.924	5273
867.055	5349
867.186	5357
867.317	5326
867.448	5311
867.579	5345
867.71	5372
867.841	5406
867.972	5440
868.103	5486
868.233	5509
868.364	5509
868.495	5547
868.625	5642
868.756	5802
868.886	5691
869.017	5745
869.147	5851
869.278	5878
869.408	5870
869.539	5863
869.669	5923
869.799	5927
869.929	6007
870.06	6045
870.19	6216
870.32	6186
870.45	6262
870.58	6361
870.71	6467
870.84	6483
870.97	6418
871.1	6422
871.23	6650
871.36	6738
871.489	6646
871.619	6749
871.749	6795
871.879	6878
872.008	6989
872.138	6947
872.267	7000
872.397	7038
872.526	7099
872.656	7110
872.785	7228
872.915	7392
873.044	7578
873.173	7586
873.303	7666
873.432	7788
873.561	7852
873.69	7913
873.819	8035
873.948	8183
874.077	8206
874.206	8324
874.335	8461
874.464	8686
874.593	8914
874.722	8891
874.851	9135
874.979	9264
875.108	9408
875.237	9374
875.365	9477
875.494	9648
875.623	9899
875.751	9736
875.88	10021
876.008	10086
876.136	10299
876.265	10493
876.393	10706
876.521	10752
876.65	10904
876.778	10942
876.906	10919
877.034	10991
877.162	11048
877.29	11128
877.418	11246
877.546	11356
877.674	11459
877.802	11486
877.93	11493
878.058	11535
878.185	11520
878.313	11653
878.441	11760
878.568	11699
878.696	11821
878.824	11821
878.951	11946
879.079	12011
879.206	12106
879.333	12026
879.461	11950
879.588	12106
879.715	12068
879.842	12262
879.97	12079
880.097	11965
880.224	11874
880.351	11931
880.478	11885
880.605	11889
880.732	11745
880.859	12068
880.986	11832
881.112	11779
881.239	11668
881.366	11630
881.493	11680
881.619	11535
881.746	11512
881.872	11490
881.999	11532
882.125	11478
882.252	11547
882.378	11493
882.505	11600
882.631	11307
882.757	11292
882.883	11376
883.01	11307
883.136	11235
883.262	11151
883.388	11098
883.514	11174
883.64	11201
883.766	11147
883.892	11033
884.018	11056
884.143	11140
884.269	11090
884.395	10858
884.52	10790
884.646	10752
884.772	10706
884.897	10687
885.023	10717
885.148	10771
885.274	10774
885.399	10641
885.524	10668
885.65	10546
885.775	10653
885.9	10470
886.025	10584
886.15	10569
886.275	10447
886.4	10379
886.525	10459
886.65	10363
886.775	10363
886.9	10504
887.025	10550
887.149	10440
887.274	10249
887.399	10154
887.523	10154
887.648	10162
887.773	10166
887.897	10249
888.021	10162
888.146	10097
888.27	10265
888.395	10242
888.519	10177
888.643	10162
888.767	10234
888.891	10090
889.015	9994
889.139	10021
889.263	10013
889.387	10082
889.511	10116
889.635	10101
889.759	10040
889.883	9994
890.006	9975
890.13	10101
890.254	9941
890.377	10006
890.501	9808
890.624	9899
890.748	9835
890.871	9797
890.995	9694
891.118	9793
891.241	9759
891.364	9781
891.488	9888
891.611	9732
891.734	9800
891.857	9766
891.98	9679
892.103	9793
892.226	9747
892.349	9663
892.471	9515
892.594	9637
892.717	9637
892.839	9618
892.962	9595
893.085	9656
893.207	9549
893.33	9435
893.452	9504
893.575	9656
893.697	9488
893.819	9561
893.941	9622
894.064	9660
894.186	9454
894.308	9382
894.43	9492
894.552	9572
894.674	9496
894.796	9310
894.918	9424
895.04	9393
895.161	9359
895.283	9325
895.405	9165
895.526	9382
895.648	9214
895.769	9211
895.891	9222
896.012	9268
896.134	9245
896.255	9199
896.376	9116
896.498	9150
896.619	9165
896.74	9085
896.861	9108
896.982	9241
897.103	9321
897.224	9207
897.345	9146
897.466	9009
897.587	9081
897.708	9097
897.828	9051
897.949	8960
898.07	8842
898.19	8963
898.311	8982
898.431	8838
898.552	8933
898.672	8963
898.792	8918
898.913	8800
899.033	8739
899.153	8697
899.273	8731
899.393	8739
899.513	8769
899.633	8705
899.753	8716
899.873	8720
899.993	8788
900.113	8655
900.232	8693
900.352	8693
900.472	8514
900.591	8594
900.711	8648
900.83	8507
900.95	8625
901.069	8670
901.189	8549
901.308	8415
901.427	8336
901.546	8492
901.665	8438
901.784	8492
901.904	8400
902.023	8419
902.141	8183
902.26	8229
902.379	8294
902.498	8180
902.617	8256
902.735	8279
902.854	8301
902.973	8267
903.091	8145
903.21	8100
903.328	8168
903.446	8149
903.565	8111
903.683	8142
903.801	8062
903.919	8164
904.038	8126
904.156	8065
904.274	8081
904.392	8126
904.51	8065
904.627	8069
904.745	8096
904.863	8088
904.981	7936
905.098	7845
905.216	7845
905.334	7947
905.451	7868
905.569	7921
905.686	8012
905.803	7887
905.921	7750
906.038	7871
906.155	7826
906.272	7715
906.389	7719
906.506	7639
906.623	7632
906.74	7620
906.857	7499
906.974	7575
907.091	7712
907.208	7750
907.324	7632
907.441	7472
907.557	7468
907.674	7457
907.79	7460
907.907	7415
908.023	7468
908.139	7377
908.256	7346
908.372	7365
908.488	7350
908.604	7327
908.72	7175
908.836	7270
908.952	7194
909.068	7301
909.184	7297
909.3	7259
909.415	7308
909.531	7320
909.647	7110
909.762	7080
909.878	7118
909.993	7110
910.108	7088
910.224	7057
910.339	7088
910.454	6993
910.57	7008
910.685	6954
910.8	7118
910.915	7076
911.03	7080
911.145	6909
911.259	6916
911.374	6924
911.489	6837
911.604	6821
911.718	6726
911.833	6707
911.947	6700
912.062	6604
912.176	6639
912.291	6677
912.405	6700
912.519	6852
912.633	6779
912.748	6779
912.862	6726
912.976	6612
913.09	6536
913.204	6597
913.318	6604
913.431	6681
913.545	6692
913.659	6787
913.772	6631
913.886	6544
914	6502
914.113	6623
914.226	6620
914.34	6627
914.453	6490
914.566	6612
914.68	6502
914.793	6547
914.906	6372
915.019	6388
915.132	6407
915.245	6429
915.358	6422
915.47	6437
915.583	6429
915.696	6494
915.809	6536
915.921	6578
916.034	6403
916.146	6448
916.259	6342
916.371	6506
916.483	6502
916.595	6361
916.708	6407
916.82	6414
916.932	6426
917.044	6395
917.156	6395
917.268	6342
917.38	6357
917.491	6319
917.603	6327
917.715	6388
917.826	6422
917.938	6338
918.049	6285
918.161	6338
918.272	6418
918.384	6452
918.495	6327
918.606	6308
918.717	6163
918.828	6254
918.939	6281
919.05	6171
919.161	6247
919.272	6155
919.383	6152
919.494	6273
919.604	6426
919.715	6346
919.826	6224
919.936	6308
920.047	6338
920.157	6251
920.267	6498
920.378	6273
920.488	6308
920.598	6479
920.708	6559
920.818	6517
920.928	6441
921.038	6597
921.148	6582
921.258	6311
921.368	6262
921.477	6224
921.587	6209
921.697	6038
921.806	6197
921.916	6102
922.025	5927
922.134	5901
922.244	5882
922.353	5969
922.462	5889
922.571	5824
922.68	5714
922.789	5703
922.898	5745
923.007	5668
923.116	5748
923.224	5726
923.333	5646
923.442	5577
923.55	5604
923.659	5611
923.767	5630
923.876	5547
923.984	5627
924.092	5467
924.201	5535
924.309	5543
924.417	5570
924.525	5512
924.633	5512
924.741	6281
924.849	5410
924.956	5452
925.064	5360
925.172	5296
925.279	5360
925.387	5330
925.494	5307
925.602	5398
925.709	5379
925.816	5296
925.924	5322
926.031	5387
926.138	5299
926.245	5334
926.352	5239
926.459	5307
926.566	5322
926.673	5197
926.779	5121
926.886	5132
926.993	5041
927.099	4999
927.206	4930
927.312	4911
927.419	5022
927.525	4999
927.631	5022
927.737	4923
927.843	4881
927.95	4797
928.056	4755
928.162	4812
928.267	4866
928.373	5341
928.479	4843
928.585	4714
928.69	4767
928.796	4771
928.901	4755
929.007	4588
929.112	4649
929.218	4641
929.323	4645
929.428	4580
929.533	4679
929.638	4481
929.743	4546
929.848	4554
929.953	4512
930.058	4470
930.163	4299
930.267	4356
930.372	4462
930.477	4356
930.581	4489
930.685	4352
930.79	4280
930.894	4249
930.998	4265
931.103	4379
931.207	4169
931.311	4090
931.415	4097
931.519	3941
931.623	3926
