Data from glass_V78500241_2260.txt Node
Date: Wed Sep 01 19:30:10 CST 2021
User: usil
Spectrometer: V785-0024
Trigger mode: 0
Integration Time (sec): 4.000000E-1
Scans to average: 1
Nonlinearity correction enabled: false
Boxcar width: 0
Storing dark spectrum: false
XAxis mode: Wavelengths
Number of Pixels in Spectrum: 1024
>>>>>Begin Spectral Data<<<<<
801.071	3675
801.214	3762
801.356	3701
801.499	3740
801.641	3762
801.783	3751
801.926	3838
802.068	3819
802.211	3861
802.353	3884
802.496	3812
802.638	3907
802.78	3873
802.923	3915
803.065	3892
803.208	3846
803.35	3869
803.492	3896
803.635	3907
803.777	3785
803.919	3880
804.061	4143
804.204	3930
804.346	3964
804.488	3945
804.63	4055
804.773	3915
804.915	4055
805.057	4105
805.199	4002
805.341	4109
805.483	4131
805.626	4120
805.768	4128
805.91	4192
806.052	4249
806.194	4211
806.336	4360
806.478	4227
806.62	4147
806.762	4185
806.904	4215
807.046	4352
807.188	4211
807.33	4139
807.472	4204
807.614	4173
807.756	4230
807.898	4219
808.04	4200
808.182	4287
808.324	4276
808.465	4337
808.607	4432
808.749	4436
808.891	4451
809.033	4500
809.174	4440
809.316	4268
809.458	4272
809.6	4093
809.741	4139
809.883	4185
810.025	4211
810.166	4196
810.308	4185
810.45	4253
810.591	4196
810.733	4265
810.875	4523
811.016	4828
811.158	5117
811.299	5273
811.441	5235
811.582	5025
811.724	4683
811.865	4436
812.007	4443
812.148	4440
812.29	4405
812.431	4405
812.573	4402
812.714	4356
812.855	4356
812.997	4379
813.138	4447
813.279	4421
813.421	4379
813.562	4424
813.703	4344
813.845	4314
813.986	4253
814.127	4204
814.268	4234
814.41	4276
814.551	4230
814.692	4303
814.833	4257
814.974	4268
815.115	4341
815.256	4223
815.397	4238
815.539	4249
815.68	4192
815.821	4207
815.962	4284
816.103	4253
816.244	4249
816.385	4215
816.526	4272
816.666	4200
816.807	4101
816.948	4154
817.089	4177
817.23	4154
817.371	4063
817.512	4059
817.653	4032
817.793	4048
817.934	4074
818.075	4128
818.216	4082
818.356	4097
818.497	3956
818.638	3941
818.778	3911
818.919	3899
819.06	3850
819.2	3865
819.341	3838
819.481	3850
819.622	3915
819.762	3994
819.903	3941
820.043	3827
820.184	3831
820.324	3793
820.465	3846
820.605	3812
820.746	3865
820.886	3789
821.026	3930
821.167	3911
821.307	3968
821.447	3987
821.588	3968
821.728	3968
821.868	3907
822.008	3842
822.149	3876
822.289	3896
822.429	3812
822.569	3770
822.709	3785
822.849	3724
822.99	3732
823.13	3751
823.27	3770
823.41	3690
823.55	3724
823.69	3686
823.83	3751
823.97	3656
824.11	3610
824.25	3610
824.389	3618
824.529	3625
824.669	3622
824.809	3682
824.949	3751
825.089	3720
825.228	3679
825.368	3580
825.508	3553
825.648	3553
825.787	3576
825.927	3625
826.067	3641
826.206	3644
826.346	3778
826.485	3797
826.625	3838
826.765	3911
826.904	3804
827.044	3580
827.183	3523
827.323	3431
827.462	3492
827.601	3409
827.741	3435
827.88	3416
828.02	3359
828.159	3466
828.298	3504
828.437	3519
828.577	3435
828.716	3572
828.855	3458
828.994	3370
829.134	3363
829.273	3382
829.412	3355
829.551	3336
829.69	3348
829.829	3443
829.968	3507
830.107	3450
830.246	3466
830.385	3340
830.524	3348
830.663	3275
830.802	3233
830.941	3192
831.08	3176
831.219	3279
831.357	3222
831.496	3329
831.635	3203
831.774	3154
831.913	3176
832.051	3131
832.19	3142
832.329	3161
832.467	3142
832.606	3077
832.744	3146
832.883	3180
833.022	3176
833.16	3268
833.299	3294
833.437	3344
833.576	3374
833.714	3443
833.852	3412
833.991	3458
834.129	3488
834.267	3447
834.406	3389
834.544	3428
834.682	3424
834.821	3393
834.959	3542
835.097	3393
835.235	3530
835.373	3477
835.511	3530
835.65	3439
835.788	3481
835.926	3420
836.064	3378
836.202	3409
836.34	3549
836.478	3595
836.615	3545
836.753	3591
836.891	3614
837.029	3625
837.167	3618
837.305	3576
837.443	3519
837.58	3515
837.718	3545
837.856	3538
837.993	3557
838.131	3572
838.269	3568
838.406	3637
838.544	3557
838.681	3458
838.819	3458
838.956	3340
839.094	3374
839.231	3439
839.369	3511
839.506	3705
839.643	3622
839.781	3492
839.918	3496
840.055	3523
840.193	3511
840.33	3538
840.467	3553
840.604	3557
840.742	3785
840.879	3553
841.016	3561
841.153	3622
841.29	3759
841.427	3720
841.564	3701
841.701	3698
841.838	3690
841.975	3675
842.112	3713
842.249	3679
842.385	3629
842.522	3751
842.659	3690
842.796	3648
842.933	3713
843.069	3724
843.206	3724
843.343	3827
843.479	3797
843.616	3793
843.752	3648
843.889	3648
844.025	3896
844.162	3736
844.298	3785
844.435	3766
844.571	3778
844.708	3907
844.844	3972
844.98	3987
845.117	3975
845.253	3880
845.389	3899
845.525	3922
845.661	3903
845.798	3934
845.934	3998
846.07	3918
846.206	4029
846.342	4074
846.478	4078
846.614	3983
846.75	3907
846.886	3896
847.022	4029
847.158	4013
847.294	4002
847.429	4025
847.565	3964
847.701	4261
847.837	3865
847.972	3876
848.108	3956
848.244	3979
848.379	3842
848.515	3850
848.65	3789
848.786	3819
848.921	3873
849.057	3949
849.192	3956
849.328	3876
849.463	3941
849.598	3888
849.734	3876
849.869	3850
850.004	3785
850.14	3804
850.275	3766
850.41	3740
850.545	3728
850.68	3747
850.815	3808
850.95	3789
851.085	3945
851.22	3838
851.355	3823
851.49	3785
851.625	3759
851.76	3812
851.895	3732
852.03	3690
852.165	3808
852.299	3831
852.434	3941
852.569	3861
852.703	3888
852.838	3880
852.973	3987
853.107	3983
853.242	3865
853.376	3846
853.511	3732
853.645	3816
853.78	3953
853.914	3964
854.048	3903
854.183	3876
854.317	3915
854.451	3994
854.585	3983
854.72	3884
854.854	4048
854.988	3953
855.122	4017
855.256	3861
855.39	4006
855.524	4093
855.658	4044
855.792	4067
855.926	4139
856.06	4128
856.194	4215
856.327	4109
856.461	4082
856.595	4150
856.729	4181
856.862	4280
856.996	4249
857.13	4268
857.263	4287
857.397	4356
857.53	4284
857.664	4322
857.797	4440
857.931	4447
858.064	4424
858.197	4394
858.331	4398
858.464	4356
858.597	4325
858.731	4421
858.864	4432
858.997	4432
859.13	4519
859.263	4550
859.396	4546
859.529	4516
859.662	4523
859.795	4550
859.928	4588
860.061	4714
860.194	4687
860.327	4584
860.46	4649
860.592	4729
860.725	4748
860.858	4797
860.99	4698
861.123	4679
861.256	4725
861.388	4755
861.521	5429
861.653	4725
861.786	4717
861.918	4698
862.05	4828
862.183	4850
862.315	4854
862.447	4961
862.58	4904
862.712	4793
862.844	4793
862.976	4854
863.108	4809
863.24	5220
863.372	4858
863.504	4866
863.636	4911
863.768	4946
863.9	4934
864.032	4896
864.164	4953
864.296	5006
864.428	5079
864.559	5083
864.691	5102
864.823	5143
864.954	5117
865.086	5121
865.217	5128
865.349	5113
865.48	5151
865.612	5216
865.743	5315
865.875	5174
866.006	5109
866.137	5246
866.269	5242
866.4	5223
866.531	5216
866.662	5204
866.793	5258
866.924	5250
867.055	5379
867.186	5311
867.317	5292
867.448	5334
867.579	5349
867.71	5337
867.841	5368
867.972	5467
868.103	5448
868.233	5429
868.364	5497
868.495	5516
868.625	5676
868.756	5748
868.886	5684
869.017	5691
869.147	5878
869.278	5863
869.408	5870
869.539	5863
869.669	5935
869.799	5927
869.929	5969
870.06	5996
870.19	6194
870.32	6152
870.45	6216
870.58	6372
870.71	6346
870.84	6494
870.97	6490
871.1	6467
871.23	6589
871.36	6669
871.489	6673
871.619	6665
871.749	6806
871.879	6878
872.008	7084
872.138	6947
872.267	7031
872.397	6973
872.526	7008
872.656	7042
872.785	7190
872.915	7392
873.044	7548
873.173	7502
873.303	7628
873.432	7750
873.561	7909
873.69	7875
873.819	7993
873.948	8214
874.077	8195
874.206	8286
874.335	8446
874.464	8632
874.593	8845
874.722	8937
874.851	9081
874.979	9203
875.108	9313
875.237	9435
875.365	9549
875.494	9625
875.623	9857
875.751	9873
875.88	9987
876.008	10188
876.136	10249
876.265	10493
876.393	10683
876.521	10679
876.65	10717
876.778	10873
876.906	10896
877.034	11022
877.162	11151
877.29	11117
877.418	11353
877.546	11345
877.674	11459
877.802	11505
877.93	11543
878.058	11611
878.185	11577
878.313	11604
878.441	11714
878.568	11592
878.696	11802
878.824	11809
878.951	11954
879.079	11999
879.206	12079
879.333	11999
879.461	11973
879.588	12045
879.715	11965
879.842	12228
879.97	12152
880.097	11847
880.224	11824
880.351	11942
880.478	11817
880.605	11855
880.732	11779
880.859	11923
880.986	11779
881.112	11889
881.239	11714
881.366	11630
881.493	11661
881.619	11528
881.746	11516
881.872	11573
881.999	11474
882.125	11535
882.252	11566
882.378	11490
882.505	11543
882.631	11356
882.757	11364
882.883	11284
883.01	11193
883.136	11136
883.262	11094
883.388	11018
883.514	11193
883.64	11242
883.766	11132
883.892	10896
884.018	10995
884.143	11029
884.269	11117
884.395	10816
884.52	10748
884.646	10774
884.772	10736
884.897	10679
885.023	10668
885.148	10706
885.274	10721
885.399	10740
885.524	10626
885.65	10508
885.775	10641
885.9	10584
886.025	10611
886.15	10569
886.275	10428
886.4	10421
886.525	10375
886.65	10356
886.775	10337
886.9	10478
887.025	10443
887.149	10314
887.274	10215
887.399	10158
887.523	10158
887.648	10185
887.773	10044
887.897	10238
888.021	10249
888.146	10090
888.27	10177
888.395	10158
888.519	10162
888.643	10169
888.767	10185
888.891	10048
889.015	9953
889.139	10032
889.263	9994
889.387	10086
889.511	10105
889.635	10082
889.759	9956
889.883	9960
890.006	9998
890.13	10051
890.254	9930
890.377	9975
890.501	9861
890.624	9850
890.748	9873
890.871	9747
890.995	9755
891.118	9743
891.241	9800
891.364	9766
891.488	9808
891.611	9736
891.734	9785
891.857	9755
891.98	9633
892.103	9751
892.226	9793
892.349	9606
892.471	9564
892.594	9553
892.717	9580
892.839	9580
892.962	9553
893.085	9671
893.207	9549
893.33	9549
893.452	9557
893.575	9580
893.697	9473
893.819	9576
893.941	9618
894.064	9603
894.186	9363
894.308	9397
894.43	9488
894.552	9549
894.674	9454
894.796	9393
894.918	9374
895.04	9272
895.161	9386
895.283	9393
895.405	9272
895.526	9325
895.648	9272
895.769	9298
895.891	9237
896.012	9237
896.134	9233
896.255	9165
896.376	9119
896.498	9077
896.619	9070
896.74	9062
896.861	9112
896.982	9157
897.103	9302
897.224	9207
897.345	9066
897.466	9005
897.587	9051
897.708	9062
897.828	9043
897.949	8944
898.07	8902
898.19	8864
898.311	9055
898.431	8845
898.552	8891
898.672	8963
898.792	8941
898.913	8925
899.033	8766
899.153	8769
899.273	8659
899.393	8724
899.513	8716
899.633	8697
899.753	8686
899.873	8682
899.993	8785
900.113	8670
900.232	8739
900.352	8587
900.472	8625
900.591	8488
900.711	8568
900.83	8537
900.95	8682
901.069	8693
901.189	8522
901.308	8419
901.427	8381
901.546	8355
901.665	8484
901.784	8598
901.904	8370
902.023	8256
902.141	8199
902.26	8183
902.379	8279
902.498	8229
902.617	8221
902.735	8305
902.854	8256
902.973	8221
903.091	8157
903.21	8111
903.328	8157
903.446	8084
903.565	8008
903.683	8111
903.801	8088
903.919	8142
904.038	8096
904.156	8084
904.274	8001
904.392	8001
904.51	8046
904.627	8046
904.745	8077
904.863	8111
904.981	7917
905.098	7814
905.216	7837
905.334	7906
905.451	7917
905.569	7864
905.686	7928
905.803	7917
905.921	7776
906.038	7868
906.155	7769
906.272	7734
906.389	7715
906.506	7655
906.623	7624
906.74	7552
906.857	7594
906.974	7544
907.091	7624
907.208	7734
907.324	7616
907.441	7556
907.557	7438
907.674	7403
907.79	7358
907.907	7377
908.023	7365
908.139	7388
908.256	7324
908.372	7354
908.488	7400
908.604	7301
908.72	7251
908.836	7266
908.952	7202
909.068	7278
909.184	7285
909.3	7187
909.415	7308
909.531	7305
909.647	7122
909.762	7145
909.878	7053
909.993	7145
910.108	7091
910.224	7107
910.339	7053
910.454	7061
910.57	6993
910.685	6962
910.8	7129
910.915	7050
911.03	7008
911.145	6897
911.259	6825
911.374	6852
911.489	6901
911.604	6837
911.718	6734
911.833	6726
911.947	6642
912.062	6528
912.176	6669
912.291	6703
912.405	6673
912.519	6802
912.633	6776
912.748	6741
912.862	6692
912.976	6566
913.09	6502
913.204	6616
913.318	6597
913.431	6627
913.545	6642
913.659	6692
913.772	6604
913.886	6551
914	6570
914.113	6623
914.226	6616
914.34	6631
914.453	6403
914.566	6570
914.68	6601
914.793	6540
914.906	6380
915.019	6369
915.132	6399
915.245	6384
915.358	6464
915.47	6445
915.583	6517
915.696	6475
915.809	6532
915.921	6547
916.034	6471
916.146	6376
916.259	6403
916.371	6448
916.483	6452
916.595	6365
916.708	6437
916.82	6399
916.932	6331
917.044	6372
917.156	6315
917.268	6296
917.38	6353
917.491	6315
917.603	6338
917.715	6395
917.826	6433
917.938	6285
918.049	6243
918.161	6346
918.272	6331
918.384	6448
918.495	6353
918.606	6270
918.717	6209
918.828	6281
918.939	6235
919.05	6190
919.161	6254
919.272	6155
919.383	6129
919.494	6296
919.604	6467
919.715	6273
919.826	6304
919.936	6190
920.047	6338
920.157	6243
920.267	6437
920.378	6296
920.488	6270
920.598	6486
920.708	6494
920.818	6437
920.928	6471
921.038	6532
921.148	6639
921.258	6331
921.368	6342
921.477	6243
921.587	6205
921.697	6041
921.806	6220
921.916	6060
922.025	5950
922.134	5908
922.244	5908
922.353	5893
922.462	5798
922.571	5748
922.68	5688
922.789	5699
922.898	5661
923.007	5585
923.116	5657
923.224	5684
923.333	5630
923.442	5600
923.55	5570
923.659	5570
923.767	5623
923.876	5585
923.984	5615
924.092	5516
924.201	5482
924.309	5524
924.417	5562
924.525	5471
924.633	5497
924.741	6247
924.849	5372
924.956	5482
925.064	5360
925.172	5239
925.279	5307
925.387	5368
925.494	5315
925.602	5417
925.709	5387
925.816	5280
925.924	5345
926.031	5398
926.138	5318
926.245	5292
926.352	5242
926.459	5334
926.566	5326
926.673	5189
926.779	5193
926.886	5132
926.993	5033
927.099	5014
927.206	4938
927.312	4976
927.419	4976
927.525	4900
927.631	4946
927.737	4900
927.843	4877
927.95	4725
928.056	4824
928.162	4793
928.267	4850
928.373	5337
928.479	4873
928.585	4717
928.69	4729
928.796	4752
928.901	4672
929.007	4607
929.112	4675
929.218	4607
929.323	4592
929.428	4535
929.533	4698
929.638	4538
929.743	4512
929.848	4546
929.953	4485
930.058	4432
930.163	4375
930.267	4314
930.372	4447
930.477	4249
930.581	4474
930.685	4394
930.79	4230
930.894	4276
930.998	4227
931.103	4398
931.207	4074
931.311	4044
931.415	3994
931.519	3915
931.623	3934
