Data from glass_V78500241_2755.txt Node
Date: Wed Sep 01 19:33:35 CST 2021
User: usil
Spectrometer: V785-0024
Trigger mode: 0
Integration Time (sec): 4.000000E-1
Scans to average: 1
Nonlinearity correction enabled: false
Boxcar width: 0
Storing dark spectrum: false
XAxis mode: Wavelengths
Number of Pixels in Spectrum: 1024
>>>>>Begin Spectral Data<<<<<
801.071	3709
801.214	3774
801.356	3667
801.499	3743
801.641	3717
801.783	3747
801.926	3842
802.068	3800
802.211	3861
802.353	3880
802.496	3823
802.638	3842
802.78	3869
802.923	3896
803.065	3884
803.208	3812
803.35	3892
803.492	3922
803.635	3861
803.777	3778
803.919	3861
804.061	4162
804.204	3945
804.346	3907
804.488	3865
804.63	3964
804.773	3983
804.915	4021
805.057	4120
805.199	4002
805.341	4074
805.483	4112
805.626	4116
805.768	4109
805.91	4169
806.052	4169
806.194	4158
806.336	4318
806.478	4219
806.62	4154
806.762	4128
806.904	4268
807.046	4329
807.188	4230
807.33	4150
807.472	4242
807.614	4200
807.756	4242
807.898	4238
808.04	4215
808.182	4253
808.324	4268
808.465	4325
808.607	4474
808.749	4489
808.891	4478
809.033	4512
809.174	4367
809.316	4280
809.458	4196
809.6	4154
809.741	4109
809.883	4147
810.025	4196
810.166	4177
810.308	4181
810.45	4192
810.591	4253
810.733	4314
810.875	4512
811.016	4793
811.158	5098
811.299	5254
811.441	5216
811.582	5018
811.724	4653
811.865	4459
812.007	4455
812.148	4417
812.29	4390
812.431	4402
812.573	4383
812.714	4367
812.855	4409
812.997	4451
813.138	4459
813.279	4375
813.421	4375
813.562	4375
813.703	4299
813.845	4291
813.986	4227
814.127	4200
814.268	4249
814.41	4272
814.551	4249
814.692	4303
814.833	4272
814.974	4284
815.115	4303
815.256	4242
815.397	4185
815.539	4257
815.68	4173
815.821	4173
815.962	4268
816.103	4276
816.244	4185
816.385	4200
816.526	4261
816.666	4200
816.807	4109
816.948	4139
817.089	4120
817.23	4105
817.371	4067
817.512	4029
817.653	4059
817.793	4032
817.934	4017
818.075	4097
818.216	4044
818.356	4067
818.497	3907
818.638	3888
818.778	3884
818.919	3911
819.06	3850
819.2	3926
819.341	3854
819.481	3797
819.622	3884
819.762	3998
819.903	3941
820.043	3880
820.184	3827
820.324	3793
820.465	3850
820.605	3869
820.746	3846
820.886	3766
821.026	3918
821.167	3869
821.307	3937
821.447	3960
821.588	3937
821.728	3945
821.868	3915
822.008	3880
822.149	3865
822.289	3869
822.429	3774
822.569	3705
822.709	3778
822.849	3690
822.99	3656
823.13	3686
823.27	3740
823.41	3698
823.55	3720
823.69	3694
823.83	3701
823.97	3663
824.11	3591
824.25	3580
824.389	3622
824.529	3675
824.669	3610
824.809	3679
824.949	3736
825.089	3698
825.228	3694
825.368	3599
825.508	3564
825.648	3591
825.787	3557
825.927	3637
826.067	3644
826.206	3652
826.346	3759
826.485	3816
826.625	3857
826.765	3941
826.904	3800
827.044	3599
827.183	3488
827.323	3431
827.462	3500
827.601	3386
827.741	3420
827.88	3435
828.02	3378
828.159	3412
828.298	3477
828.437	3496
828.577	3450
828.716	3584
828.855	3538
828.994	3355
829.134	3382
829.273	3401
829.412	3344
829.551	3359
829.69	3302
829.829	3401
829.968	3477
830.107	3370
830.246	3409
830.385	3336
830.524	3329
830.663	3291
830.802	3249
830.941	3165
831.08	3192
831.219	3279
831.357	3260
831.496	3401
831.635	3188
831.774	3161
831.913	3176
832.051	3123
832.19	3135
832.329	3199
832.467	3119
832.606	3089
832.744	3161
832.883	3192
833.022	3195
833.16	3237
833.299	3298
833.437	3348
833.576	3355
833.714	3401
833.852	3458
833.991	3428
834.129	3439
834.267	3431
834.406	3409
834.544	3416
834.682	3439
834.821	3401
834.959	3549
835.097	3435
835.235	3519
835.373	3477
835.511	3469
835.65	3428
835.788	3454
835.926	3378
836.064	3370
836.202	3359
836.34	3561
836.478	3580
836.615	3542
836.753	3572
836.891	3629
837.029	3599
837.167	3580
837.305	3511
837.443	3534
837.58	3481
837.718	3568
837.856	3538
837.993	3526
838.131	3618
838.269	3557
838.406	3530
838.544	3561
838.681	3435
838.819	3405
838.956	3344
839.094	3393
839.231	3393
839.369	3538
839.506	3747
839.643	3584
839.781	3496
839.918	3466
840.055	3523
840.193	3515
840.33	3492
840.467	3557
840.604	3595
840.742	3770
840.879	3523
841.016	3561
841.153	3572
841.29	3709
841.427	3690
841.564	3671
841.701	3740
841.838	3713
841.975	3644
842.112	3690
842.249	3618
842.385	3622
842.522	3789
842.659	3656
842.796	3663
842.933	3694
843.069	3652
843.206	3720
843.343	3766
843.479	3766
843.616	3812
843.752	3667
843.889	3652
844.025	3823
844.162	3709
844.298	3816
844.435	3755
844.571	3762
844.708	3819
844.844	3956
844.98	3979
845.117	3953
845.253	3911
845.389	3922
845.525	3968
845.661	3941
845.798	3926
845.934	4006
846.07	3937
846.206	4036
846.342	4101
846.478	4044
846.614	3979
846.75	3918
846.886	3896
847.022	4032
847.158	3937
847.294	3998
847.429	4036
847.565	3964
847.701	4211
847.837	3880
847.972	3850
848.108	3998
848.244	3922
848.379	3819
848.515	3797
848.65	3781
848.786	3823
848.921	3831
849.057	3934
849.192	3945
849.328	3903
849.463	3922
849.598	3861
849.734	3911
849.869	3812
850.004	3793
850.14	3793
850.275	3759
850.41	3709
850.545	3705
850.68	3766
850.815	3800
850.95	3789
851.085	3915
851.22	3850
851.355	3854
851.49	3755
851.625	3766
851.76	3759
851.895	3762
852.03	3701
852.165	3770
852.299	3842
852.434	3915
852.569	3823
852.703	3838
852.838	3892
852.973	3998
853.107	4002
853.242	3869
853.376	3838
853.511	3778
853.645	3861
853.78	3968
853.914	3842
854.048	3861
854.183	3888
854.317	3949
854.451	4109
854.585	3918
854.72	3907
854.854	3994
854.988	3949
855.122	3979
855.256	3918
855.39	4017
855.524	4086
855.658	4078
855.792	4093
855.926	4090
856.06	4143
856.194	4188
856.327	4128
856.461	4067
856.595	4177
856.729	4185
856.862	4287
856.996	4185
857.13	4280
857.263	4337
857.397	4329
857.53	4310
857.664	4333
857.797	4348
857.931	4386
858.064	4390
858.197	4432
858.331	4394
858.464	4322
858.597	4333
858.731	4390
858.864	4478
858.997	4466
859.13	4508
859.263	4504
859.396	4618
859.529	4470
859.662	4462
859.795	4519
859.928	4561
860.061	4698
860.194	4672
860.327	4664
860.46	4630
860.592	4717
860.725	4733
860.858	4778
860.99	4664
861.123	4645
861.256	4664
861.388	4771
861.521	5208
861.653	4736
861.786	4717
861.918	4759
862.05	4774
862.183	4828
862.315	4923
862.447	4889
862.58	4904
862.712	4778
862.844	4752
862.976	4881
863.108	4835
863.24	5216
863.372	4824
863.504	4873
863.636	4877
863.768	4965
863.9	4942
864.032	4946
864.164	4965
864.296	4961
864.428	5075
864.559	5113
864.691	5045
864.823	5083
864.954	5064
865.086	5094
865.217	5155
865.349	5060
865.48	5105
865.612	5128
865.743	5296
865.875	5181
866.006	5117
866.137	5242
866.269	5197
866.4	5311
866.531	5185
866.662	5174
866.793	5261
866.924	5261
867.055	5337
867.186	5318
867.317	5334
867.448	5296
867.579	5364
867.71	5345
867.841	5360
867.972	5429
868.103	5452
868.233	5459
868.364	5547
868.495	5474
868.625	5668
868.756	5786
868.886	5672
869.017	5695
869.147	5855
869.278	5824
869.408	5786
869.539	5771
869.669	5931
869.799	5866
869.929	6007
870.06	5988
870.19	6095
870.32	6175
870.45	6266
870.58	6281
870.71	6395
870.84	6479
870.97	6429
871.1	6494
871.23	6601
871.36	6654
871.489	6555
871.619	6726
871.749	6764
871.879	6878
872.008	6981
872.138	6951
872.267	6985
872.397	7012
872.526	7008
872.656	7110
872.785	7168
872.915	7274
873.044	7495
873.173	7567
873.303	7578
873.432	7803
873.561	7887
873.69	7898
873.819	7944
873.948	8096
874.077	8240
874.206	8298
874.335	8446
874.464	8590
874.593	8880
874.722	8929
874.851	9043
874.979	9294
875.108	9386
875.237	9447
875.365	9553
875.494	9591
875.623	9793
875.751	9819
875.88	10025
876.008	10109
876.136	10219
876.265	10497
876.393	10698
876.521	10725
876.65	10797
876.778	10828
876.906	10862
877.034	10991
877.162	11060
877.29	11109
877.418	11254
877.546	11349
877.674	11452
877.802	11429
877.93	11463
878.058	11573
878.185	11493
878.313	11604
878.441	11752
878.568	11695
878.696	11817
878.824	11901
878.951	11942
879.079	11984
879.206	12022
879.333	12091
879.461	12030
879.588	12057
879.715	12083
879.842	12159
879.97	12053
880.097	11889
880.224	11783
880.351	11904
880.478	11809
880.605	11794
880.732	11859
880.859	12034
880.986	11764
881.112	11809
881.239	11741
881.366	11611
881.493	11589
881.619	11566
881.746	11543
881.872	11554
881.999	11463
882.125	11398
882.252	11543
882.378	11497
882.505	11493
882.631	11372
882.757	11273
882.883	11303
883.01	11269
883.136	11273
883.262	11136
883.388	11086
883.514	11166
883.64	11185
883.766	11067
883.892	10938
884.018	10938
884.143	11064
884.269	11079
884.395	10801
884.52	10740
884.646	10797
884.772	10683
884.897	10698
885.023	10626
885.148	10729
885.274	10721
885.399	10683
885.524	10554
885.65	10577
885.775	10516
885.9	10577
886.025	10607
886.15	10519
886.275	10386
886.4	10352
886.525	10360
886.65	10382
886.775	10379
886.9	10421
887.025	10531
887.149	10299
887.274	10280
887.399	10169
887.523	10135
887.648	10082
887.773	10131
887.897	10242
888.021	10192
888.146	10135
888.27	10227
888.395	10147
888.519	10246
888.643	10192
888.767	10230
888.891	10067
889.015	9949
889.139	9994
889.263	9987
889.387	10112
889.511	10097
889.635	10055
889.759	9964
889.883	10025
890.006	9979
890.13	10044
890.254	9979
890.377	10029
890.501	9880
890.624	9846
890.748	9937
890.871	9835
890.995	9720
891.118	9690
891.241	9743
891.364	9682
891.488	9854
891.611	9770
891.734	9724
891.857	9701
891.98	9679
892.103	9732
892.226	9717
892.349	9667
892.471	9523
892.594	9595
892.717	9656
892.839	9591
892.962	9599
893.085	9660
893.207	9511
893.33	9477
893.452	9511
893.575	9591
893.697	9481
893.819	9530
893.941	9595
894.064	9625
894.186	9466
894.308	9401
894.43	9462
894.552	9603
894.674	9500
894.796	9355
894.918	9336
895.04	9340
895.161	9420
895.283	9291
895.405	9211
895.526	9260
895.648	9256
895.769	9214
895.891	9233
896.012	9211
896.134	9142
896.255	9226
896.376	9093
896.498	9142
896.619	9097
896.74	9058
896.861	9036
896.982	9294
897.103	9306
897.224	9112
897.345	9020
897.466	8975
897.587	9055
897.708	9070
897.828	9024
897.949	8880
898.07	8826
898.19	8899
898.311	8998
898.431	8880
898.552	8864
898.672	8952
898.792	8914
898.913	8906
899.033	8819
899.153	8762
899.273	8640
899.393	8720
899.513	8758
899.633	8762
899.753	8693
899.873	8697
899.993	8781
900.113	8590
900.232	8670
900.352	8708
900.472	8552
900.591	8625
900.711	8545
900.83	8556
900.95	8587
901.069	8743
901.189	8575
901.308	8419
901.427	8347
901.546	8381
901.665	8412
901.784	8480
901.904	8347
902.023	8415
902.141	8271
902.26	8176
902.379	8275
902.498	8195
902.617	8225
902.735	8317
902.854	8263
902.973	8199
903.091	8134
903.21	8157
903.328	8191
903.446	8153
903.565	8073
903.683	8050
903.801	8084
903.919	8088
904.038	8092
904.156	7974
904.274	8073
904.392	7993
904.51	8054
904.627	8043
904.745	8100
904.863	8092
904.981	7917
905.098	7811
905.216	7890
905.334	7887
905.451	7826
905.569	7875
905.686	7856
905.803	7913
905.921	7677
906.038	7860
906.155	7860
906.272	7719
906.389	7674
906.506	7616
906.623	7609
906.74	7636
906.857	7529
906.974	7518
907.091	7639
907.208	7712
907.324	7609
907.441	7552
907.557	7430
907.674	7483
907.79	7400
907.907	7343
908.023	7369
908.139	7419
908.256	7369
908.372	7335
908.488	7312
908.604	7244
908.72	7327
908.836	7278
908.952	7232
909.068	7202
909.184	7259
909.3	7190
909.415	7297
909.531	7247
909.647	7114
909.762	7110
909.878	7099
909.993	7152
910.108	7061
910.224	7061
910.339	7095
910.454	7000
910.57	6966
910.685	6939
910.8	7122
910.915	7072
911.03	7023
911.145	6882
911.259	6901
911.374	6913
911.489	6844
911.604	6802
911.718	6684
911.833	6757
911.947	6639
912.062	6593
912.176	6707
912.291	6677
912.405	6730
912.519	6821
912.633	6856
912.748	6730
912.862	6635
912.976	6589
913.09	6585
913.204	6578
913.318	6616
913.431	6654
913.545	6688
913.659	6665
913.772	6620
913.886	6502
914	6536
914.113	6627
914.226	6601
914.34	6574
914.453	6483
914.566	6612
914.68	6521
914.793	6498
914.906	6414
915.019	6384
915.132	6331
915.245	6395
915.358	6429
915.47	6441
915.583	6460
915.696	6445
915.809	6460
915.921	6525
916.034	6395
916.146	6426
916.259	6388
916.371	6464
916.483	6422
916.595	6372
916.708	6380
916.82	6357
916.932	6391
917.044	6369
917.156	6372
917.268	6296
917.38	6361
917.491	6331
917.603	6289
917.715	6445
917.826	6422
917.938	6315
918.049	6213
918.161	6334
918.272	6407
918.384	6391
918.495	6350
918.606	6224
918.717	6194
918.828	6289
918.939	6346
919.05	6148
919.161	6254
919.272	6072
919.383	6178
919.494	6292
919.604	6429
919.715	6251
919.826	6197
919.936	6247
920.047	6258
920.157	6232
920.267	6464
920.378	6308
920.488	6270
920.598	6399
920.708	6498
920.818	6490
920.928	6445
921.038	6601
921.148	6525
921.258	6323
921.368	6304
921.477	6182
921.587	6163
921.697	6083
921.806	6201
921.916	6049
922.025	5954
922.134	5923
922.244	5847
922.353	5912
922.462	5809
922.571	5752
922.68	5756
922.789	5623
922.898	5657
923.007	5680
923.116	5676
923.224	5688
923.333	5604
923.442	5562
923.55	5577
923.659	5615
923.767	5646
923.876	5520
923.984	5577
924.092	5512
924.201	5547
924.309	5505
924.417	5543
924.525	5444
924.633	5444
924.741	6292
924.849	5334
924.956	5452
925.064	5318
925.172	5258
925.279	5337
925.387	5372
925.494	5284
925.602	5368
925.709	5417
925.816	5246
925.924	5273
926.031	5368
926.138	5261
926.245	5322
926.352	5189
926.459	5311
926.566	5311
926.673	5185
926.779	5143
926.886	5109
926.993	5006
927.099	4995
927.206	5003
927.312	4904
927.419	5052
927.525	4942
927.631	5006
927.737	4892
927.843	4858
927.95	4755
928.056	4786
928.162	4790
928.267	4850
928.373	5334
928.479	4797
928.585	4668
928.69	4744
928.796	4771
928.901	4656
929.007	4561
929.112	4694
929.218	4630
929.323	4607
929.428	4554
929.533	4641
929.638	4462
929.743	4512
929.848	4573
929.953	4500
930.058	4432
930.163	4306
930.267	4352
930.372	4417
930.477	4329
930.581	4436
930.685	4341
930.79	4242
930.894	4295
930.998	4253
931.103	4360
931.207	4044
931.311	4059
931.415	4010
931.519	3907
931.623	3915
