Data from glass_V78500241_969.txt Node
Date: Wed Sep 01 19:21:13 CST 2021
User: usil
Spectrometer: V785-0024
Trigger mode: 0
Integration Time (sec): 4.000000E-1
Scans to average: 1
Nonlinearity correction enabled: false
Boxcar width: 0
Storing dark spectrum: false
XAxis mode: Wavelengths
Number of Pixels in Spectrum: 1024
>>>>>Begin Spectral Data<<<<<
801.071	3751
801.214	3785
801.356	3732
801.499	3732
801.641	3709
801.783	3781
801.926	3884
802.068	3827
802.211	3854
802.353	3884
802.496	3846
802.638	3876
802.78	3918
802.923	3941
803.065	3964
803.208	3907
803.35	3880
803.492	3922
803.635	3945
803.777	3816
803.919	3907
804.061	4128
804.204	4029
804.346	3964
804.488	3953
804.63	4044
804.773	4006
804.915	4029
805.057	4173
805.199	4067
805.341	4082
805.483	4139
805.626	4105
805.768	4109
805.91	4196
806.052	4215
806.194	4188
806.336	4356
806.478	4234
806.62	4147
806.762	4211
806.904	4257
807.046	4363
807.188	4246
807.33	4227
807.472	4253
807.614	4215
807.756	4280
807.898	4230
808.04	4246
808.182	4261
808.324	4306
808.465	4390
808.607	4470
808.749	4455
808.891	4489
809.033	4542
809.174	4402
809.316	4299
809.458	4234
809.6	4147
809.741	4177
809.883	4158
810.025	4211
810.166	4219
810.308	4242
810.45	4265
810.591	4200
810.733	4287
810.875	4535
811.016	4816
811.158	5162
811.299	5360
811.441	5261
811.582	5067
811.724	4744
811.865	4478
812.007	4436
812.148	4436
812.29	4386
812.431	4451
812.573	4421
812.714	4367
812.855	4436
812.997	4451
813.138	4462
813.279	4413
813.421	4383
813.562	4379
813.703	4383
813.845	4348
813.986	4276
814.127	4246
814.268	4299
814.41	4280
814.551	4291
814.692	4341
814.833	4325
814.974	4314
815.115	4333
815.256	4246
815.397	4227
815.539	4314
815.68	4211
815.821	4219
815.962	4344
816.103	4287
816.244	4230
816.385	4276
816.526	4329
816.666	4211
816.807	4139
816.948	4150
817.089	4181
817.23	4124
817.371	4059
817.512	4067
817.653	4120
817.793	4032
817.934	4021
818.075	4139
818.216	4078
818.356	4112
818.497	3998
818.638	3888
818.778	3911
818.919	3896
819.06	3854
819.2	3918
819.341	3865
819.481	3876
819.622	3918
819.762	4059
819.903	3964
820.043	3899
820.184	3838
820.324	3819
820.465	3918
820.605	3838
820.746	3907
820.886	3808
821.026	3930
821.167	3911
821.307	3964
821.447	3994
821.588	3941
821.728	3975
821.868	3941
822.008	3896
822.149	3956
822.289	3918
822.429	3800
822.569	3797
822.709	3827
822.849	3724
822.99	3789
823.13	3747
823.27	3800
823.41	3698
823.55	3808
823.69	3732
823.83	3785
823.97	3682
824.11	3622
824.25	3587
824.389	3637
824.529	3713
824.669	3686
824.809	3747
824.949	3785
825.089	3751
825.228	3728
825.368	3625
825.508	3549
825.648	3584
825.787	3572
825.927	3679
826.067	3603
826.206	3663
826.346	3778
826.485	3781
826.625	3869
826.765	3998
826.904	3823
827.044	3614
827.183	3511
827.323	3477
827.462	3481
827.601	3473
827.741	3443
827.88	3454
828.02	3401
828.159	3466
828.298	3507
828.437	3523
828.577	3515
828.716	3599
828.855	3477
828.994	3397
829.134	3359
829.273	3401
829.412	3386
829.551	3367
829.69	3401
829.829	3428
829.968	3542
830.107	3458
830.246	3485
830.385	3420
830.524	3370
830.663	3256
830.802	3283
830.941	3150
831.08	3169
831.219	3287
831.357	3256
831.496	3443
831.635	3211
831.774	3211
831.913	3233
832.051	3184
832.19	3127
832.329	3233
832.467	3157
832.606	3097
832.744	3184
832.883	3180
833.022	3195
833.16	3275
833.299	3321
833.437	3332
833.576	3420
833.714	3428
833.852	3435
833.991	3462
834.129	3477
834.267	3454
834.406	3435
834.544	3443
834.682	3462
834.821	3389
834.959	3580
835.097	3401
835.235	3553
835.373	3500
835.511	3545
835.65	3485
835.788	3519
835.926	3386
836.064	3393
836.202	3409
836.34	3568
836.478	3557
836.615	3526
836.753	3637
836.891	3682
837.029	3614
837.167	3587
837.305	3622
837.443	3530
837.58	3473
837.718	3587
837.856	3564
837.993	3542
838.131	3614
838.269	3610
838.406	3591
838.544	3584
838.681	3458
838.819	3496
838.956	3412
839.094	3443
839.231	3450
839.369	3523
839.506	3762
839.643	3641
839.781	3507
839.918	3481
840.055	3477
840.193	3538
840.33	3511
840.467	3568
840.604	3622
840.742	3831
840.879	3591
841.016	3580
841.153	3564
841.29	3732
841.427	3682
841.564	3720
841.701	3762
841.838	3709
841.975	3717
842.112	3732
842.249	3606
842.385	3629
842.522	3876
842.659	3682
842.796	3682
842.933	3705
843.069	3713
843.206	3736
843.343	3785
843.479	3781
843.616	3838
843.752	3656
843.889	3682
844.025	3876
844.162	3705
844.298	3873
844.435	3835
844.571	3789
844.708	3903
844.844	4017
844.98	4055
845.117	3987
845.253	3896
845.389	3934
845.525	3994
845.661	3991
845.798	3964
845.934	3998
846.07	3998
846.206	4051
846.342	4143
846.478	4090
846.614	3991
846.75	3964
846.886	3899
847.022	4055
847.158	3991
847.294	3968
847.429	4059
847.565	4040
847.701	4238
847.837	3915
847.972	3869
848.108	4002
848.244	3972
848.379	3831
848.515	3812
848.65	3797
848.786	3873
848.921	3854
849.057	3899
849.192	3968
849.328	3899
849.463	3926
849.598	3896
849.734	3869
849.869	3861
850.004	3804
850.14	3816
850.275	3797
850.41	3759
850.545	3736
850.68	3751
850.815	3770
850.95	3808
851.085	3941
851.22	3892
851.355	3876
851.49	3831
851.625	3762
851.76	3804
851.895	3732
852.03	3717
852.165	3816
852.299	3861
852.434	3918
852.569	3846
852.703	3857
852.838	3903
852.973	3975
853.107	4040
853.242	3941
853.376	3869
853.511	3800
853.645	3873
853.78	3987
853.914	3926
854.048	3884
854.183	3918
854.317	3930
854.451	4010
854.585	3934
854.72	3953
854.854	4051
854.988	3975
855.122	4021
855.256	3880
855.39	4036
855.524	4135
855.658	4097
855.792	4112
855.926	4150
856.06	4188
856.194	4219
856.327	4158
856.461	4154
856.595	4158
856.729	4223
856.862	4284
856.996	4310
857.13	4348
857.263	4344
857.397	4386
857.53	4265
857.664	4325
857.797	4466
857.931	4417
858.064	4363
858.197	4455
858.331	4409
858.464	4432
858.597	4383
858.731	4478
858.864	4485
858.997	4455
859.13	4546
859.263	4523
859.396	4573
859.529	4535
859.662	4569
859.795	4504
859.928	4588
860.061	4725
860.194	4759
860.327	4653
860.46	4618
860.592	4733
860.725	4793
860.858	4755
860.99	4748
861.123	4702
861.256	4748
861.388	4748
861.521	5535
861.653	4694
861.786	4694
861.918	4782
862.05	4786
862.183	4820
862.315	4866
862.447	4987
862.58	4915
862.712	4755
862.844	4816
862.976	4900
863.108	4885
863.24	5235
863.372	4782
863.504	4908
863.636	4915
863.768	4995
863.9	5003
864.032	4957
864.164	4980
864.296	5056
864.428	5117
864.559	5102
864.691	5132
864.823	5094
864.954	5140
865.086	5151
865.217	5132
865.349	5147
865.48	5223
865.612	5208
865.743	5299
865.875	5261
866.006	5170
866.137	5315
866.269	5246
866.4	5269
866.531	5296
866.662	5258
866.793	5261
866.924	5315
867.055	5318
867.186	5349
867.317	5292
867.448	5334
867.579	5379
867.71	5421
867.841	5421
867.972	5482
868.103	5520
868.233	5509
868.364	5532
868.495	5501
868.625	5680
868.756	5771
868.886	5657
869.017	5779
869.147	5878
869.278	5840
869.408	5893
869.539	5851
869.669	5973
869.799	5939
869.929	5980
870.06	5996
870.19	6216
870.32	6197
870.45	6258
870.58	6350
870.71	6429
870.84	6471
870.97	6399
871.1	6448
871.23	6681
871.36	6722
871.489	6662
871.619	6734
871.749	6814
871.879	6840
872.008	7031
872.138	6897
872.267	7012
872.397	7065
872.526	7034
872.656	7129
872.785	7168
872.915	7335
873.044	7548
873.173	7613
873.303	7647
873.432	7734
873.561	7887
873.69	7925
873.819	7978
873.948	8210
874.077	8282
874.206	8396
874.335	8446
874.464	8720
874.593	8845
874.722	8971
874.851	9207
874.979	9214
875.108	9382
875.237	9401
875.365	9462
875.494	9713
875.623	9842
875.751	9857
875.88	10002
876.008	10128
876.136	10310
876.265	10569
876.393	10679
876.521	10702
876.65	10858
876.778	10877
876.906	10892
877.034	11048
877.162	11136
877.29	11105
877.418	11383
877.546	11345
877.674	11455
877.802	11535
877.93	11649
878.058	11509
878.185	11585
878.313	11634
878.441	11798
878.568	11821
878.696	11809
878.824	11847
878.951	11965
879.079	12019
879.206	12121
879.333	12106
879.461	12034
879.588	12114
879.715	12114
879.842	12285
879.97	12030
880.097	11729
880.224	11893
880.351	11802
880.478	11866
880.605	11897
880.732	11897
880.859	12136
880.986	11821
881.112	11874
881.239	11695
881.366	11729
881.493	11653
881.619	11486
881.746	11566
881.872	11539
881.999	11520
882.125	11509
882.252	11604
882.378	11547
882.505	11520
882.631	11395
882.757	11299
882.883	11364
883.01	11318
883.136	11105
883.262	11094
883.388	11231
883.514	11204
883.64	11166
883.766	11102
883.892	11090
884.018	10968
884.143	11018
884.269	11090
884.395	10885
884.52	10793
884.646	10717
884.772	10675
884.897	10596
885.023	10714
885.148	10691
885.274	10812
885.399	10744
885.524	10672
885.65	10535
885.775	10569
885.9	10580
886.025	10596
886.15	10550
886.275	10523
886.4	10394
886.525	10440
886.65	10386
886.775	10371
886.9	10508
887.025	10615
887.149	10432
887.274	10295
887.399	10166
887.523	10238
887.648	10154
887.773	10150
887.897	10287
888.021	10188
888.146	10124
888.27	10188
888.395	10185
888.519	10177
888.643	10253
888.767	10246
888.891	10188
889.015	10055
889.139	10078
889.263	9953
889.387	10128
889.511	10059
889.635	10040
889.759	9972
889.883	10006
890.006	10010
890.13	10147
890.254	10010
890.377	9994
890.501	9934
890.624	9918
890.748	9937
890.871	9717
890.995	9675
891.118	9713
891.241	9797
891.364	9785
891.488	9922
891.611	9751
891.734	9804
891.857	9770
891.98	9736
892.103	9778
892.226	9747
892.349	9690
892.471	9553
892.594	9660
892.717	9618
892.839	9644
892.962	9648
893.085	9698
893.207	9618
893.33	9492
893.452	9454
893.575	9652
893.697	9507
893.819	9644
893.941	9637
894.064	9629
894.186	9428
894.308	9397
894.43	9561
894.552	9618
894.674	9462
894.796	9389
894.918	9397
895.04	9348
895.161	9466
895.283	9363
895.405	9256
895.526	9241
895.648	9237
895.769	9237
895.891	9268
896.012	9249
896.134	9249
896.255	9279
896.376	9085
896.498	9169
896.619	9097
896.74	9123
896.861	9066
896.982	9192
897.103	9313
897.224	9211
897.345	8994
897.466	9135
897.587	9062
897.708	9085
897.828	9039
897.949	9009
898.07	8910
898.19	8963
898.311	8975
898.431	8933
898.552	8921
898.672	8979
898.792	8933
898.913	8823
899.033	8807
899.153	8807
899.273	8743
899.393	8754
899.513	8720
899.633	8750
899.753	8766
899.873	8716
899.993	8689
900.113	8655
900.232	8796
900.352	8682
900.472	8579
900.591	8613
900.711	8606
900.83	8590
900.95	8720
901.069	8655
901.189	8610
901.308	8514
901.427	8412
901.546	8446
901.665	8473
901.784	8499
901.904	8347
902.023	8332
902.141	8218
902.26	8221
902.379	8237
902.498	8275
902.617	8176
902.735	8324
902.854	8298
902.973	8252
903.091	8134
903.21	8195
903.328	8221
903.446	8149
903.565	8092
903.683	8123
903.801	8103
903.919	8172
904.038	8119
904.156	8024
904.274	8081
904.392	8035
904.51	7989
904.627	8081
904.745	8119
904.863	8153
904.981	7913
905.098	7849
905.216	7902
905.334	7955
905.451	7951
905.569	7856
905.686	7955
905.803	7955
905.921	7822
906.038	7864
906.155	7788
906.272	7753
906.389	7700
906.506	7746
906.623	7616
906.74	7578
906.857	7533
906.974	7620
907.091	7746
907.208	7700
907.324	7632
907.441	7518
907.557	7483
907.674	7476
907.79	7441
907.907	7449
908.023	7407
908.139	7495
908.256	7411
908.372	7369
908.488	7358
908.604	7270
908.72	7301
908.836	7206
908.952	7251
909.068	7282
909.184	7354
909.3	7266
909.415	7236
909.531	7285
909.647	7137
909.762	7110
909.878	7088
909.993	7152
910.108	7145
910.224	7091
910.339	7149
910.454	7038
910.57	6970
910.685	6981
910.8	7213
910.915	7129
911.03	7004
911.145	6924
911.259	6878
911.374	6878
911.489	6798
911.604	6802
911.718	6696
911.833	6806
911.947	6642
912.062	6620
912.176	6719
912.291	6703
912.405	6703
912.519	6821
912.633	6795
912.748	6738
912.862	6730
912.976	6654
913.09	6513
913.204	6616
913.318	6574
913.431	6715
913.545	6658
913.659	6703
913.772	6677
913.886	6593
914	6494
914.113	6635
914.226	6631
914.34	6639
914.453	6528
914.566	6593
914.68	6486
914.793	6540
914.906	6418
915.019	6384
915.132	6407
915.245	6410
915.358	6486
915.47	6475
915.583	6536
915.696	6525
915.809	6517
915.921	6570
916.034	6433
916.146	6483
916.259	6369
916.371	6528
916.483	6429
916.595	6334
916.708	6502
916.82	6399
916.932	6395
917.044	6403
917.156	6433
917.268	6369
917.38	6327
917.491	6315
917.603	6357
917.715	6403
917.826	6376
917.938	6292
918.049	6300
918.161	6369
918.272	6445
918.384	6437
918.495	6388
918.606	6239
918.717	6296
918.828	6308
918.939	6251
919.05	6178
919.161	6266
919.272	6114
919.383	6163
919.494	6258
919.604	6456
919.715	6270
919.826	6205
919.936	6292
920.047	6399
920.157	6235
920.267	6441
920.378	6380
920.488	6308
920.598	6448
920.708	6608
920.818	6490
920.928	6464
921.038	6658
921.148	6620
921.258	6350
921.368	6277
921.477	6190
921.587	6209
921.697	6159
921.806	6216
921.916	6083
922.025	5950
922.134	5882
922.244	5878
922.353	5973
922.462	5859
922.571	5790
922.68	5764
922.789	5707
922.898	5802
923.007	5710
923.116	5714
923.224	5703
923.333	5691
923.442	5615
923.55	5623
923.659	5608
923.767	5649
923.876	5520
923.984	5577
924.092	5535
924.201	5623
924.309	5581
924.417	5604
924.525	5554
924.633	5528
924.741	6197
924.849	5353
924.956	5497
925.064	5372
925.172	5330
925.279	5318
925.387	5379
925.494	5322
925.602	5474
925.709	5368
925.816	5292
925.924	5258
926.031	5349
926.138	5284
926.245	5353
926.352	5212
926.459	5341
926.566	5315
926.673	5223
926.779	5147
926.886	5155
926.993	5075
927.099	5003
927.206	4995
927.312	4946
927.419	5014
927.525	5003
927.631	4999
927.737	4915
927.843	4858
927.95	4771
928.056	4801
928.162	4831
928.267	4885
928.373	5376
928.479	4873
928.585	4683
928.69	4736
928.796	4816
928.901	4687
929.007	4622
929.112	4706
929.218	4683
929.323	4656
929.428	4584
929.533	4660
929.638	4542
929.743	4554
929.848	4584
929.953	4504
930.058	4424
930.163	4348
930.267	4360
930.372	4409
930.477	4303
930.581	4466
930.685	4367
930.79	4261
930.894	4348
930.998	4257
931.103	4398
931.207	4120
931.311	4124
931.415	4051
931.519	3937
931.623	3998
