Data from glass_V78500241_268.txt Node
Date: Wed Sep 01 19:16:21 CST 2021
User: usil
Spectrometer: V785-0024
Trigger mode: 0
Integration Time (sec): 4.000000E-1
Scans to average: 1
Nonlinearity correction enabled: false
Boxcar width: 0
Storing dark spectrum: false
XAxis mode: Wavelengths
Number of Pixels in Spectrum: 1024
>>>>>Begin Spectral Data<<<<<
801.071	3740
801.214	3785
801.356	3705
801.499	3717
801.641	3762
801.783	3778
801.926	3873
802.068	3857
802.211	3865
802.353	3907
802.496	3873
802.638	3846
802.78	3884
802.923	3968
803.065	3937
803.208	3812
803.35	3873
803.492	3949
803.635	3941
803.777	3854
803.919	3911
804.061	4131
804.204	4002
804.346	3983
804.488	3903
804.63	4074
804.773	3987
804.915	4025
805.057	4139
805.199	4078
805.341	4131
805.483	4116
805.626	4158
805.768	4109
805.91	4207
806.052	4234
806.194	4246
806.336	4371
806.478	4234
806.62	4166
806.762	4219
806.904	4276
807.046	4432
807.188	4200
807.33	4196
807.472	4230
807.614	4173
807.756	4265
807.898	4219
808.04	4223
808.182	4314
808.324	4337
808.465	4398
808.607	4497
808.749	4462
808.891	4478
809.033	4523
809.174	4390
809.316	4272
809.458	4207
809.6	4150
809.741	4154
809.883	4109
810.025	4261
810.166	4188
810.308	4173
810.45	4219
810.591	4207
810.733	4291
810.875	4546
811.016	4843
811.158	5151
811.299	5292
811.441	5322
811.582	5071
811.724	4717
811.865	4474
812.007	4538
812.148	4462
812.29	4447
812.431	4360
812.573	4424
812.714	4390
812.855	4424
812.997	4417
813.138	4523
813.279	4455
813.421	4436
813.562	4386
813.703	4360
813.845	4348
813.986	4272
814.127	4242
814.268	4249
814.41	4280
814.551	4272
814.692	4333
814.833	4287
814.974	4314
815.115	4371
815.256	4299
815.397	4238
815.539	4284
815.68	4181
815.821	4215
815.962	4341
816.103	4329
816.244	4238
816.385	4253
816.526	4272
816.666	4188
816.807	4097
816.948	4154
817.089	4207
817.23	4109
817.371	4071
817.512	4086
817.653	4097
817.793	4071
817.934	4055
818.075	4101
818.216	4116
818.356	4116
818.497	4032
818.638	3903
818.778	3903
818.919	3896
819.06	3838
819.2	3941
819.341	3888
819.481	3880
819.622	3918
819.762	3998
819.903	3960
820.043	3884
820.184	3850
820.324	3793
820.465	3892
820.605	3903
820.746	3926
820.886	3827
821.026	3937
821.167	3918
821.307	4021
821.447	3994
821.588	3968
821.728	3975
821.868	3930
822.008	3884
822.149	3926
822.289	3922
822.429	3808
822.569	3797
822.709	3823
822.849	3690
822.99	3732
823.13	3785
823.27	3827
823.41	3740
823.55	3740
823.69	3762
823.83	3774
823.97	3720
824.11	3629
824.25	3610
824.389	3667
824.529	3656
824.669	3663
824.809	3743
824.949	3766
825.089	3743
825.228	3720
825.368	3622
825.508	3603
825.648	3599
825.787	3614
825.927	3599
826.067	3656
826.206	3682
826.346	3800
826.485	3808
826.625	3838
826.765	3979
826.904	3800
827.044	3641
827.183	3519
827.323	3462
827.462	3534
827.601	3450
827.741	3416
827.88	3485
828.02	3363
828.159	3450
828.298	3504
828.437	3584
828.577	3511
828.716	3618
828.855	3504
828.994	3412
829.134	3416
829.273	3439
829.412	3374
829.551	3325
829.69	3348
829.829	3409
829.968	3549
830.107	3458
830.246	3447
830.385	3355
830.524	3374
830.663	3367
830.802	3298
830.941	3230
831.08	3222
831.219	3306
831.357	3260
831.496	3405
831.635	3218
831.774	3218
831.913	3222
832.051	3131
832.19	3127
832.329	3249
832.467	3085
832.606	3104
832.744	3157
832.883	3203
833.022	3207
833.16	3268
833.299	3302
833.437	3382
833.576	3424
833.714	3405
833.852	3454
833.991	3454
834.129	3496
834.267	3443
834.406	3450
834.544	3458
834.682	3420
834.821	3401
834.959	3606
835.097	3420
835.235	3561
835.373	3477
835.511	3530
835.65	3488
835.788	3504
835.926	3424
836.064	3378
836.202	3435
836.34	3603
836.478	3622
836.615	3564
836.753	3606
836.891	3644
837.029	3584
837.167	3587
837.305	3557
837.443	3553
837.58	3504
837.718	3614
837.856	3587
837.993	3576
838.131	3599
838.269	3595
838.406	3618
838.544	3625
838.681	3481
838.819	3473
838.956	3367
839.094	3409
839.231	3454
839.369	3545
839.506	3743
839.643	3644
839.781	3534
839.918	3462
840.055	3496
840.193	3515
840.33	3553
840.467	3587
840.604	3622
840.742	3819
840.879	3561
841.016	3614
841.153	3618
841.29	3785
841.427	3743
841.564	3713
841.701	3736
841.838	3679
841.975	3743
842.112	3724
842.249	3656
842.385	3671
842.522	3838
842.659	3694
842.796	3675
842.933	3728
843.069	3690
843.206	3732
843.343	3842
843.479	3778
843.616	3823
843.752	3663
843.889	3709
844.025	3865
844.162	3755
844.298	3873
844.435	3781
844.571	3755
844.708	3915
844.844	4010
844.98	4017
845.117	4017
845.253	3937
845.389	3907
845.525	3953
845.661	3991
845.798	3915
845.934	3975
846.07	3949
846.206	4055
846.342	4124
846.478	4063
846.614	4025
846.75	3994
846.886	3937
847.022	4040
847.158	3991
847.294	4017
847.429	4074
847.565	4025
847.701	4230
847.837	3907
847.972	3876
848.108	3987
848.244	4006
848.379	3865
848.515	3781
848.65	3854
848.786	3880
848.921	3861
849.057	3941
849.192	3968
849.328	3903
849.463	3937
849.598	3880
849.734	3854
849.869	3785
850.004	3800
850.14	3816
850.275	3804
850.41	3759
850.545	3781
850.68	3804
850.815	3835
850.95	3804
851.085	3945
851.22	3873
851.355	3896
851.49	3827
851.625	3789
851.76	3819
851.895	3755
852.03	3732
852.165	3823
852.299	3861
852.434	3907
852.569	3934
852.703	3876
852.838	3968
852.973	4017
853.107	4040
853.242	3884
853.376	3907
853.511	3808
853.645	3854
853.78	3956
853.914	3926
854.048	3941
854.183	3907
854.317	4029
854.451	4067
854.585	3949
854.72	3915
854.854	4048
854.988	3960
855.122	4044
855.256	3979
855.39	4067
855.524	4112
855.658	4078
855.792	4143
855.926	4192
856.06	4185
856.194	4230
856.327	4143
856.461	4154
856.595	4185
856.729	4177
856.862	4306
856.996	4265
857.13	4284
857.263	4409
857.397	4421
857.53	4333
857.664	4360
857.797	4409
857.931	4405
858.064	4428
858.197	4436
858.331	4417
858.464	4409
858.597	4375
858.731	4443
858.864	4485
858.997	4493
859.13	4546
859.263	4580
859.396	4554
859.529	4535
859.662	4599
859.795	4565
859.928	4630
860.061	4755
860.194	4748
860.327	4710
860.46	4634
860.592	4725
860.725	4774
860.858	4805
860.99	4725
861.123	4702
861.256	4763
861.388	4778
861.521	5265
861.653	4752
861.786	4729
861.918	4801
862.05	4816
862.183	4831
862.315	4892
862.447	4934
862.58	4930
862.712	4774
862.844	4797
862.976	4885
863.108	4889
863.24	5246
863.372	4870
863.504	4911
863.636	4900
863.768	4965
863.9	4984
864.032	4923
864.164	4938
864.296	5022
864.428	5128
864.559	5136
864.691	5117
864.823	5094
864.954	5132
865.086	5174
865.217	5105
865.349	5170
865.48	5155
865.612	5189
865.743	5315
865.875	5197
866.006	5197
866.137	5239
866.269	5239
866.4	5299
866.531	5242
866.662	5227
866.793	5261
866.924	5292
867.055	5372
867.186	5372
867.317	5296
867.448	5296
867.579	5357
867.71	5360
867.841	5402
867.972	5532
868.103	5440
868.233	5467
868.364	5566
868.495	5551
868.625	5646
868.756	5771
868.886	5649
869.017	5771
869.147	5859
869.278	5859
869.408	5786
869.539	5870
869.669	5942
869.799	5866
869.929	5977
870.06	6026
870.19	6194
870.32	6186
870.45	6228
870.58	6372
870.71	6433
870.84	6483
870.97	6494
871.1	6467
871.23	6650
871.36	6688
871.489	6673
871.619	6753
871.749	6875
871.879	6856
872.008	7015
872.138	6977
872.267	7023
872.397	7004
872.526	7046
872.656	7057
872.785	7244
872.915	7373
873.044	7533
873.173	7582
873.303	7674
873.432	7750
873.561	7921
873.69	7894
873.819	8065
873.948	8206
874.077	8263
874.206	8298
874.335	8434
874.464	8697
874.593	8906
874.722	8910
874.851	9104
874.979	9230
875.108	9424
875.237	9412
875.365	9481
875.494	9663
875.623	9785
875.751	9789
875.88	10013
876.008	10158
876.136	10234
876.265	10580
876.393	10752
876.521	10740
876.65	10812
876.778	10847
876.906	10976
877.034	10991
877.162	11056
877.29	11075
877.418	11345
877.546	11364
877.674	11551
877.802	11436
877.93	11532
878.058	11478
878.185	11608
878.313	11589
878.441	11684
878.568	11657
878.696	11767
878.824	11893
878.951	11946
879.079	12057
879.206	12106
879.333	12083
879.461	12007
879.588	12152
879.715	11999
879.842	12216
879.97	12144
880.097	11859
880.224	11942
880.351	11794
880.478	11821
880.605	11901
880.732	11809
880.859	12026
880.986	11847
881.112	11836
881.239	11665
881.366	11691
881.493	11573
881.619	11604
881.746	11516
881.872	11547
881.999	11566
882.125	11429
882.252	11543
882.378	11452
882.505	11532
882.631	11429
882.757	11265
882.883	11303
883.01	11189
883.136	11220
883.262	11212
883.388	11022
883.514	11235
883.64	11162
883.766	11159
883.892	11025
884.018	10976
884.143	11064
884.269	11105
884.395	10877
884.52	10831
884.646	10763
884.772	10683
884.897	10687
885.023	10691
885.148	10744
885.274	10793
885.399	10759
885.524	10603
885.65	10637
885.775	10580
885.9	10580
886.025	10687
886.15	10558
886.275	10451
886.4	10432
886.525	10402
886.65	10390
886.775	10314
886.9	10470
887.025	10649
887.149	10379
887.274	10249
887.399	10242
887.523	10173
887.648	10097
887.773	10063
887.897	10265
888.021	10303
888.146	10185
888.27	10280
888.395	10284
888.519	10181
888.643	10230
888.767	10215
888.891	10078
889.015	10074
889.139	10044
889.263	9899
889.387	10090
889.511	10135
889.635	10101
889.759	9926
889.883	9994
890.006	10010
890.13	10109
890.254	10036
890.377	10040
890.501	9869
890.624	9880
890.748	9911
890.871	9713
890.995	9762
891.118	9736
891.241	9800
891.364	9736
891.488	9850
891.611	9732
891.734	9785
891.857	9804
891.98	9785
892.103	9724
892.226	9694
892.349	9644
892.471	9488
892.594	9606
892.717	9553
892.839	9686
892.962	9641
893.085	9671
893.207	9622
893.33	9534
893.452	9519
893.575	9584
893.697	9519
893.819	9660
893.941	9641
894.064	9625
894.186	9477
894.308	9401
894.43	9485
894.552	9591
894.674	9530
894.796	9370
894.918	9389
895.04	9336
895.161	9408
895.283	9355
895.405	9260
895.526	9268
895.648	9226
895.769	9313
895.891	9233
896.012	9329
896.134	9226
896.255	9226
896.376	9169
896.498	9173
896.619	9127
896.74	9093
896.861	9142
896.982	9279
897.103	9359
897.224	9203
897.345	9039
897.466	9001
897.587	9070
897.708	9097
897.828	9058
897.949	9032
898.07	8880
898.19	8876
898.311	9024
898.431	8914
898.552	8948
898.672	8994
898.792	8933
898.913	8956
899.033	8777
899.153	8739
899.273	8610
899.393	8689
899.513	8796
899.633	8758
899.753	8754
899.873	8731
899.993	8735
900.113	8727
900.232	8705
900.352	8689
900.472	8655
900.591	8617
900.711	8594
900.83	8594
900.95	8682
901.069	8739
901.189	8644
901.308	8434
901.427	8438
901.546	8499
901.665	8454
901.784	8454
901.904	8381
902.023	8328
902.141	8286
902.26	8244
902.379	8275
902.498	8191
902.617	8199
902.735	8294
902.854	8290
902.973	8221
903.091	8161
903.21	8183
903.328	8206
903.446	8081
903.565	8084
903.683	8111
903.801	8046
903.919	8069
904.038	8130
904.156	8020
904.274	8107
904.392	8035
904.51	8043
904.627	8115
904.745	8176
904.863	8088
904.981	7909
905.098	7871
905.216	7898
905.334	7963
905.451	7951
905.569	7887
905.686	7940
905.803	7898
905.921	7795
906.038	7894
906.155	7780
906.272	7780
906.389	7712
906.506	7696
906.623	7628
906.74	7609
906.857	7514
906.974	7605
907.091	7696
907.208	7772
907.324	7662
907.441	7590
907.557	7483
907.674	7514
907.79	7411
907.907	7453
908.023	7453
908.139	7430
908.256	7381
908.372	7362
908.488	7373
908.604	7263
908.72	7217
908.836	7259
908.952	7259
909.068	7236
909.184	7305
909.3	7255
909.415	7255
909.531	7251
909.647	7069
909.762	7122
909.878	7164
909.993	7114
910.108	7110
910.224	7103
910.339	7038
910.454	7027
910.57	7038
910.685	7008
910.8	7088
910.915	7171
911.03	7072
911.145	6924
911.259	6913
911.374	6916
911.489	6894
911.604	6772
911.718	6722
911.833	6791
911.947	6684
912.062	6620
912.176	6730
912.291	6700
912.405	6734
912.519	6856
912.633	6848
912.748	6722
912.862	6722
912.976	6597
913.09	6555
913.204	6669
913.318	6658
913.431	6650
913.545	6677
913.659	6707
913.772	6700
913.886	6582
914	6612
914.113	6631
914.226	6681
914.34	6555
914.453	6471
914.566	6650
914.68	6517
914.793	6498
914.906	6410
915.019	6429
915.132	6376
915.245	6426
915.358	6475
915.47	6464
915.583	6521
915.696	6540
915.809	6502
915.921	6578
916.034	6395
916.146	6426
916.259	6429
916.371	6525
916.483	6467
916.595	6429
916.708	6384
916.82	6433
916.932	6441
917.044	6395
917.156	6429
917.268	6350
917.38	6429
917.491	6300
917.603	6353
917.715	6426
917.826	6426
917.938	6346
918.049	6258
918.161	6311
918.272	6429
918.384	6433
918.495	6376
918.606	6232
918.717	6247
918.828	6281
918.939	6285
919.05	6232
919.161	6273
919.272	6102
919.383	6136
919.494	6304
919.604	6445
919.715	6243
919.826	6239
919.936	6281
920.047	6380
920.157	6308
920.267	6456
920.378	6346
920.488	6281
920.598	6441
920.708	6582
920.818	6490
920.928	6433
921.038	6604
921.148	6620
921.258	6429
921.368	6315
921.477	6247
921.587	6213
921.697	6068
921.806	6205
921.916	6095
922.025	6011
922.134	5935
922.244	5889
922.353	5992
922.462	5840
922.571	5813
922.68	5752
922.789	5722
922.898	5722
923.007	5668
923.116	5657
923.224	5729
923.333	5634
923.442	5649
923.55	5543
923.659	5558
923.767	5604
923.876	5528
923.984	5672
924.092	5528
924.201	5577
924.309	5570
924.417	5627
924.525	5505
924.633	5520
924.741	6308
924.849	5376
924.956	5497
925.064	5372
925.172	5326
925.279	5349
925.387	5349
925.494	5368
925.602	5410
925.709	5391
925.816	5292
925.924	5357
926.031	5387
926.138	5250
926.245	5261
926.352	5246
926.459	5353
926.566	5360
926.673	5208
926.779	5147
926.886	5128
926.993	5025
927.099	5014
927.206	4949
927.312	4896
927.419	5048
927.525	4934
927.631	5064
927.737	5003
927.843	4831
927.95	4839
928.056	4866
928.162	4862
928.267	4839
928.373	5254
928.479	4828
928.585	4649
928.69	4805
928.796	4816
928.901	4725
929.007	4607
929.112	4691
929.218	4622
929.323	4580
929.428	4573
929.533	4698
929.638	4565
929.743	4538
929.848	4558
929.953	4538
930.058	4424
930.163	4363
930.267	4348
930.372	4459
930.477	4356
930.581	4481
930.685	4394
930.79	4261
930.894	4287
930.998	4299
931.103	4325
931.207	4109
931.311	4105
931.415	4071
931.519	3987
931.623	3956
