Data from glass_V78500241_1586.txt Node
Date: Wed Sep 01 19:25:29 CST 2021
User: usil
Spectrometer: V785-0024
Trigger mode: 0
Integration Time (sec): 4.000000E-1
Scans to average: 1
Nonlinearity correction enabled: false
Boxcar width: 0
Storing dark spectrum: false
XAxis mode: Wavelengths
Number of Pixels in Spectrum: 1024
>>>>>Begin Spectral Data<<<<<
801.071	3789
801.214	3736
801.356	3717
801.499	3740
801.641	3743
801.783	3797
801.926	3880
802.068	3808
802.211	3861
802.353	3911
802.496	3785
802.638	3857
802.78	3907
802.923	3907
803.065	3884
803.208	3838
803.35	3884
803.492	3880
803.635	3918
803.777	3819
803.919	3896
804.061	4173
804.204	4010
804.346	3964
804.488	3941
804.63	4059
804.773	3934
804.915	3987
805.057	4139
805.199	4071
805.341	4059
805.483	4124
805.626	4128
805.768	4135
805.91	4227
806.052	4276
806.194	4246
806.336	4329
806.478	4211
806.62	4192
806.762	4154
806.904	4234
807.046	4322
807.188	4223
807.33	4192
807.472	4219
807.614	4192
807.756	4253
807.898	4169
808.04	4219
808.182	4261
808.324	4363
808.465	4337
808.607	4485
808.749	4436
808.891	4474
809.033	4485
809.174	4409
809.316	4246
809.458	4246
809.6	4135
809.741	4166
809.883	4162
810.025	4207
810.166	4227
810.308	4261
810.45	4272
810.591	4238
810.733	4303
810.875	4493
811.016	4771
811.158	5117
811.299	5235
811.441	5284
811.582	5010
811.724	4702
811.865	4443
812.007	4455
812.148	4462
812.29	4394
812.431	4409
812.573	4443
812.714	4451
812.855	4409
812.997	4405
813.138	4504
813.279	4455
813.421	4440
813.562	4371
813.703	4344
813.845	4333
813.986	4253
814.127	4230
814.268	4234
814.41	4291
814.551	4265
814.692	4303
814.833	4268
814.974	4303
815.115	4348
815.256	4230
815.397	4215
815.539	4246
815.68	4223
815.821	4211
815.962	4344
816.103	4268
816.244	4261
816.385	4219
816.526	4257
816.666	4230
816.807	4109
816.948	4215
817.089	4196
817.23	4082
817.371	4109
817.512	4051
817.653	4109
817.793	4040
817.934	4055
818.075	4112
818.216	4078
818.356	4090
818.497	4010
818.638	3903
818.778	3911
818.919	3934
819.06	3854
819.2	3903
819.341	3903
819.481	3838
819.622	3903
819.762	4017
819.903	4002
820.043	3888
820.184	3842
820.324	3816
820.465	3876
820.605	3835
820.746	3873
820.886	3808
821.026	3915
821.167	3911
821.307	3972
821.447	3998
821.588	3945
821.728	3956
821.868	3926
822.008	3850
822.149	3949
822.289	3918
822.429	3774
822.569	3755
822.709	3831
822.849	3713
822.99	3701
823.13	3778
823.27	3766
823.41	3717
823.55	3747
823.69	3762
823.83	3747
823.97	3690
824.11	3568
824.25	3572
824.389	3660
824.529	3667
824.669	3622
824.809	3717
824.949	3747
825.089	3732
825.228	3686
825.368	3576
825.508	3557
825.648	3580
825.787	3622
825.927	3663
826.067	3648
826.206	3663
826.346	3785
826.485	3835
826.625	3888
826.765	3949
826.904	3861
827.044	3610
827.183	3519
827.323	3416
827.462	3523
827.601	3428
827.741	3424
827.88	3435
828.02	3367
828.159	3370
828.298	3473
828.437	3530
828.577	3492
828.716	3553
828.855	3511
828.994	3389
829.134	3359
829.273	3435
829.412	3321
829.551	3340
829.69	3351
829.829	3447
829.968	3526
830.107	3435
830.246	3420
830.385	3363
830.524	3355
830.663	3287
830.802	3233
830.941	3218
831.08	3192
831.219	3268
831.357	3283
831.496	3401
831.635	3226
831.774	3214
831.913	3203
832.051	3104
832.19	3142
832.329	3222
832.467	3146
832.606	3131
832.744	3146
832.883	3180
833.022	3207
833.16	3272
833.299	3294
833.437	3336
833.576	3363
833.714	3393
833.852	3431
833.991	3439
834.129	3477
834.267	3409
834.406	3424
834.544	3435
834.682	3405
834.821	3393
834.959	3526
835.097	3462
835.235	3561
835.373	3477
835.511	3519
835.65	3454
835.788	3473
835.926	3374
836.064	3374
836.202	3431
836.34	3606
836.478	3564
836.615	3523
836.753	3557
836.891	3652
837.029	3663
837.167	3561
837.305	3553
837.443	3526
837.58	3523
837.718	3591
837.856	3549
837.993	3523
838.131	3614
838.269	3591
838.406	3549
838.544	3580
838.681	3435
838.819	3435
838.956	3386
839.094	3416
839.231	3443
839.369	3507
839.506	3778
839.643	3648
839.781	3477
839.918	3492
840.055	3507
840.193	3538
840.33	3530
840.467	3572
840.604	3610
840.742	3778
840.879	3545
841.016	3572
841.153	3584
841.29	3774
841.427	3743
841.564	3747
841.701	3762
841.838	3679
841.975	3690
842.112	3705
842.249	3671
842.385	3656
842.522	3842
842.659	3671
842.796	3682
842.933	3709
843.069	3660
843.206	3698
843.343	3823
843.479	3759
843.616	3838
843.752	3671
843.889	3648
844.025	3800
844.162	3736
844.298	3854
844.435	3781
844.571	3797
844.708	3937
844.844	4010
844.98	4029
845.117	4044
845.253	3956
845.389	3876
845.525	3949
845.661	3975
845.798	3899
845.934	3994
846.07	3975
846.206	4036
846.342	4177
846.478	4093
846.614	3972
846.75	3907
846.886	3930
847.022	3987
847.158	3934
847.294	4002
847.429	4029
847.565	4044
847.701	4230
847.837	3831
847.972	3892
848.108	4010
848.244	3945
848.379	3835
848.515	3789
848.65	3827
848.786	3816
848.921	3869
849.057	3907
849.192	3964
849.328	3934
849.463	3911
849.598	3915
849.734	3861
849.869	3876
850.004	3778
850.14	3797
850.275	3778
850.41	3755
850.545	3762
850.68	3797
850.815	3812
850.95	3766
851.085	3941
851.22	3915
851.355	3827
851.49	3781
851.625	3755
851.76	3800
851.895	3713
852.03	3736
852.165	3816
852.299	3827
852.434	3915
852.569	3842
852.703	3888
852.838	3987
852.973	4013
853.107	3983
853.242	3861
853.376	3835
853.511	3819
853.645	3831
853.78	3991
853.914	3922
854.048	3880
854.183	3892
854.317	3945
854.451	4051
854.585	4002
854.72	3956
854.854	4063
854.988	3945
855.122	3998
855.256	3926
855.39	3975
855.524	4101
855.658	4120
855.792	4071
855.926	4101
856.06	4181
856.194	4166
856.327	4154
856.461	4090
856.595	4112
856.729	4200
856.862	4291
856.996	4291
857.13	4291
857.263	4306
857.397	4375
857.53	4295
857.664	4356
857.797	4402
857.931	4405
858.064	4405
858.197	4474
858.331	4405
858.464	4344
858.597	4371
858.731	4455
858.864	4470
858.997	4512
859.13	4481
859.263	4493
859.396	4596
859.529	4542
859.662	4531
859.795	4558
859.928	4577
860.061	4706
860.194	4710
860.327	4634
860.46	4675
860.592	4755
860.725	4725
860.858	4801
860.99	4748
861.123	4653
861.256	4668
861.388	4771
861.521	5505
861.653	4725
861.786	4755
861.918	4740
862.05	4850
862.183	4824
862.315	4873
862.447	4942
862.58	4885
862.712	4774
862.844	4805
862.976	4839
863.108	4946
863.24	5231
863.372	4839
863.504	4854
863.636	4911
863.768	4980
863.9	4957
864.032	4889
864.164	4923
864.296	5029
864.428	5071
864.559	5113
864.691	5079
864.823	5064
864.954	5086
865.086	5136
865.217	5052
865.349	5079
865.48	5159
865.612	5204
865.743	5303
865.875	5189
866.006	5197
866.137	5231
866.269	5170
866.4	5265
866.531	5246
866.662	5223
866.793	5258
866.924	5265
867.055	5334
867.186	5315
867.317	5372
867.448	5315
867.579	5345
867.71	5364
867.841	5379
867.972	5455
868.103	5482
868.233	5493
868.364	5501
868.495	5547
868.625	5710
868.756	5737
868.886	5672
869.017	5764
869.147	5805
869.278	5855
869.408	5817
869.539	5805
869.669	5931
869.799	5882
869.929	6045
870.06	5977
870.19	6213
870.32	6129
870.45	6232
870.58	6342
870.71	6391
870.84	6536
870.97	6418
871.1	6452
871.23	6593
871.36	6696
871.489	6604
871.619	6734
871.749	6783
871.879	6916
872.008	6928
872.138	6981
872.267	7069
872.397	6977
872.526	7053
872.656	7110
872.785	7206
872.915	7426
873.044	7514
873.173	7556
873.303	7628
873.432	7742
873.561	7849
873.69	7925
873.819	8092
873.948	8206
874.077	8240
874.206	8339
874.335	8454
874.464	8712
874.593	8838
874.722	8929
874.851	9138
874.979	9195
875.108	9344
875.237	9435
875.365	9553
875.494	9679
875.623	9838
875.751	9869
875.88	9926
876.008	10147
876.136	10306
876.265	10531
876.393	10672
876.521	10721
876.65	10831
876.778	10942
876.906	10908
877.034	11037
877.162	11048
877.29	11136
877.418	11258
877.546	11414
877.674	11455
877.802	11482
877.93	11497
878.058	11604
878.185	11501
878.313	11649
878.441	11786
878.568	11745
878.696	11824
878.824	11939
878.951	11817
879.079	11950
879.206	12205
879.333	12117
879.461	12045
879.588	12083
879.715	12068
879.842	12258
879.97	12083
880.097	11889
880.224	12030
880.351	11935
880.478	11958
880.605	11855
880.732	11836
880.859	11939
880.986	11794
881.112	11809
881.239	11745
881.366	11665
881.493	11604
881.619	11638
881.746	11596
881.872	11505
881.999	11512
882.125	11482
882.252	11570
882.378	11452
882.505	11562
882.631	11379
882.757	11353
882.883	11360
883.01	11261
883.136	11246
883.262	11086
883.388	10995
883.514	11178
883.64	11121
883.766	11098
883.892	11037
884.018	11079
884.143	11041
884.269	11109
884.395	10831
884.52	10778
884.646	10736
884.772	10782
884.897	10656
885.023	10653
885.148	10752
885.274	10755
885.399	10748
885.524	10599
885.65	10653
885.775	10573
885.9	10645
886.025	10588
886.15	10512
886.275	10440
886.4	10436
886.525	10413
886.65	10462
886.775	10402
886.9	10546
887.025	10546
887.149	10432
887.274	10246
887.399	10162
887.523	10188
887.648	10242
887.773	10086
887.897	10196
888.021	10192
888.146	10139
888.27	10242
888.395	10200
888.519	10158
888.643	10169
888.767	10185
888.891	10040
889.015	10010
889.139	10044
889.263	10017
889.387	10162
889.511	10105
889.635	9960
889.759	10017
889.883	9934
890.006	10021
890.13	10090
890.254	9903
890.377	9903
890.501	9857
890.624	9884
890.748	9835
890.871	9835
890.995	9778
891.118	9740
891.241	9823
891.364	9793
891.488	9808
891.611	9759
891.734	9797
891.857	9648
891.98	9766
892.103	9781
892.226	9690
892.349	9595
892.471	9511
892.594	9545
892.717	9618
892.839	9545
892.962	9591
893.085	9656
893.207	9576
893.33	9580
893.452	9450
893.575	9564
893.697	9568
893.819	9576
893.941	9580
894.064	9576
894.186	9408
894.308	9397
894.43	9561
894.552	9595
894.674	9492
894.796	9416
894.918	9416
895.04	9359
895.161	9370
895.283	9370
895.405	9302
895.526	9253
895.648	9268
895.769	9237
895.891	9230
896.012	9268
896.134	9230
896.255	9214
896.376	9214
896.498	9184
896.619	9112
896.74	9062
896.861	9119
896.982	9226
897.103	9329
897.224	9207
897.345	9116
897.466	8990
897.587	9028
897.708	9112
897.828	8982
897.949	8963
898.07	8883
898.19	8861
898.311	9001
898.431	8929
898.552	8902
898.672	8982
898.792	8891
898.913	8941
899.033	8887
899.153	8746
899.273	8655
899.393	8716
899.513	8724
899.633	8724
899.753	8769
899.873	8781
899.993	8746
900.113	8712
900.232	8731
900.352	8678
900.472	8617
900.591	8549
900.711	8670
900.83	8530
900.95	8602
901.069	8648
901.189	8587
901.308	8454
901.427	8480
901.546	8488
901.665	8461
901.784	8457
901.904	8286
902.023	8317
902.141	8199
902.26	8172
902.379	8286
902.498	8199
902.617	8172
902.735	8309
902.854	8339
902.973	8271
903.091	8161
903.21	8195
903.328	8180
903.446	8134
903.565	8096
903.683	8088
903.801	8062
903.919	8161
904.038	8069
904.156	8088
904.274	8065
904.392	8020
904.51	7967
904.627	8043
904.745	8096
904.863	8088
904.981	7925
905.098	7906
905.216	7883
905.334	7849
905.451	7883
905.569	7906
905.686	7871
905.803	7944
905.921	7772
906.038	7845
906.155	7780
906.272	7719
906.389	7727
906.506	7658
906.623	7647
906.74	7628
906.857	7487
906.974	7582
907.091	7597
907.208	7632
907.324	7639
907.441	7597
907.557	7449
907.674	7464
907.79	7316
907.907	7407
908.023	7419
908.139	7384
908.256	7365
908.372	7381
908.488	7346
908.604	7213
908.72	7251
908.836	7331
908.952	7251
909.068	7282
909.184	7339
909.3	7266
909.415	7263
909.531	7225
909.647	7126
909.762	7107
909.878	7065
909.993	7149
910.108	7141
910.224	7057
910.339	7118
910.454	7057
910.57	7042
910.685	6951
910.8	7114
910.915	7152
911.03	6996
911.145	6901
911.259	6859
911.374	6875
911.489	6806
911.604	6818
911.718	6696
911.833	6703
911.947	6650
912.062	6700
912.176	6684
912.291	6662
912.405	6662
912.519	6795
912.633	6829
912.748	6741
912.862	6738
912.976	6563
913.09	6528
913.204	6635
913.318	6593
913.431	6665
913.545	6722
913.659	6707
913.772	6631
913.886	6574
914	6574
914.113	6677
914.226	6658
914.34	6597
914.453	6547
914.566	6623
914.68	6521
914.793	6517
914.906	6445
915.019	6464
915.132	6426
915.245	6395
915.358	6437
915.47	6471
915.583	6410
915.696	6506
915.809	6475
915.921	6578
916.034	6429
916.146	6437
916.259	6433
916.371	6494
916.483	6422
916.595	6483
916.708	6372
916.82	6372
916.932	6422
917.044	6361
917.156	6426
917.268	6361
917.38	6338
917.491	6262
917.603	6334
917.715	6380
917.826	6414
917.938	6296
918.049	6270
918.161	6342
918.272	6414
918.384	6414
918.495	6350
918.606	6270
918.717	6209
918.828	6319
918.939	6289
919.05	6186
919.161	6201
919.272	6182
919.383	6175
919.494	6357
919.604	6372
919.715	6300
919.826	6197
919.936	6232
920.047	6369
920.157	6311
920.267	6410
920.378	6342
920.488	6300
920.598	6525
920.708	6582
920.818	6452
920.928	6429
921.038	6578
921.148	6532
921.258	6365
921.368	6296
921.477	6175
921.587	6087
921.697	6098
921.806	6114
921.916	6095
922.025	5965
922.134	5935
922.244	5863
922.353	5980
922.462	5878
922.571	5726
922.68	5676
922.789	5653
922.898	5737
923.007	5668
923.116	5741
923.224	5718
923.333	5627
923.442	5589
923.55	5661
923.659	5627
923.767	5630
923.876	5532
923.984	5634
924.092	5497
924.201	5566
924.309	5539
924.417	5532
924.525	5528
924.633	5497
924.741	6083
924.849	5364
924.956	5490
925.064	5349
925.172	5280
925.279	5307
925.387	5402
925.494	5341
925.602	5467
925.709	5357
925.816	5277
925.924	5345
926.031	5330
926.138	5322
926.245	5353
926.352	5189
926.459	5341
926.566	5349
926.673	5185
926.779	5193
926.886	5109
926.993	5045
927.099	5029
927.206	4961
927.312	4949
927.419	5033
927.525	4946
927.631	4995
927.737	4934
927.843	4858
927.95	4786
928.056	4873
928.162	4809
928.267	4850
928.373	5330
928.479	4828
928.585	4653
928.69	4706
928.796	4748
928.901	4706
929.007	4649
929.112	4672
929.218	4618
929.323	4603
929.428	4531
929.533	4656
929.638	4538
929.743	4550
929.848	4550
929.953	4504
930.058	4519
930.163	4299
930.267	4360
930.372	4440
930.477	4318
930.581	4451
930.685	4375
930.79	4253
930.894	4299
930.998	4272
931.103	4405
931.207	4120
931.311	4055
931.415	4029
931.519	3972
931.623	3934
