Data from glass_V78500241_1950.txt Node
Date: Wed Sep 01 19:28:01 CST 2021
User: usil
Spectrometer: V785-0024
Trigger mode: 0
Integration Time (sec): 4.000000E-1
Scans to average: 1
Nonlinearity correction enabled: false
Boxcar width: 0
Storing dark spectrum: false
XAxis mode: Wavelengths
Number of Pixels in Spectrum: 1024
>>>>>Begin Spectral Data<<<<<
801.071	3720
801.214	3724
801.356	3713
801.499	3709
801.641	3717
801.783	3740
801.926	3831
802.068	3827
802.211	3888
802.353	3865
802.496	3880
802.638	3873
802.78	3892
802.923	3956
803.065	3896
803.208	3838
803.35	3842
803.492	3835
803.635	3915
803.777	3793
803.919	3876
804.061	4169
804.204	3918
804.346	3934
804.488	3907
804.63	4025
804.773	3937
804.915	4036
805.057	4109
805.199	4032
805.341	4124
805.483	4192
805.626	4112
805.768	4059
805.91	4215
806.052	4249
806.194	4196
806.336	4383
806.478	4188
806.62	4154
806.762	4211
806.904	4234
807.046	4348
807.188	4200
807.33	4192
807.472	4249
807.614	4192
807.756	4253
807.898	4211
808.04	4238
808.182	4276
808.324	4291
808.465	4363
808.607	4489
808.749	4440
808.891	4485
809.033	4504
809.174	4363
809.316	4291
809.458	4211
809.6	4116
809.741	4086
809.883	4181
810.025	4200
810.166	4238
810.308	4223
810.45	4230
810.591	4230
810.733	4284
810.875	4550
811.016	4870
811.158	5159
811.299	5254
811.441	5246
811.582	5109
811.724	4687
811.865	4462
812.007	4462
812.148	4451
812.29	4432
812.431	4428
812.573	4371
812.714	4363
812.855	4367
812.997	4398
813.138	4470
813.279	4356
813.421	4360
813.562	4360
813.703	4344
813.845	4329
813.986	4299
814.127	4204
814.268	4261
814.41	4295
814.551	4257
814.692	4352
814.833	4268
814.974	4310
815.115	4272
815.256	4253
815.397	4253
815.539	4249
815.68	4162
815.821	4200
815.962	4306
816.103	4249
816.244	4219
816.385	4257
816.526	4276
816.666	4207
816.807	4086
816.948	4181
817.089	4173
817.23	4105
817.371	4025
817.512	4067
817.653	4074
817.793	4036
817.934	4017
818.075	4116
818.216	4036
818.356	4078
818.497	3975
818.638	3888
818.778	3888
818.919	3873
819.06	3876
819.2	3922
819.341	3816
819.481	3842
819.622	3854
819.762	3998
819.903	3945
820.043	3884
820.184	3800
820.324	3846
820.465	3816
820.605	3869
820.746	3861
820.886	3770
821.026	3953
821.167	3922
821.307	3979
821.447	3934
821.588	3960
821.728	3937
821.868	3930
822.008	3854
822.149	3937
822.289	3918
822.429	3800
822.569	3755
822.709	3793
822.849	3701
822.99	3694
823.13	3736
823.27	3793
823.41	3743
823.55	3736
823.69	3724
823.83	3713
823.97	3694
824.11	3545
824.25	3561
824.389	3644
824.529	3648
824.669	3622
824.809	3717
824.949	3743
825.089	3694
825.228	3686
825.368	3580
825.508	3564
825.648	3564
825.787	3568
825.927	3663
826.067	3610
826.206	3652
826.346	3812
826.485	3831
826.625	3876
826.765	3968
826.904	3835
827.044	3686
827.183	3534
827.323	3443
827.462	3523
827.601	3447
827.741	3477
827.88	3447
828.02	3351
828.159	3435
828.298	3447
828.437	3526
828.577	3477
828.716	3576
828.855	3530
828.994	3386
829.134	3367
829.273	3386
829.412	3351
829.551	3351
829.69	3355
829.829	3439
829.968	3469
830.107	3389
830.246	3450
830.385	3370
830.524	3332
830.663	3302
830.802	3253
830.941	3214
831.08	3169
831.219	3294
831.357	3241
831.496	3428
831.635	3226
831.774	3165
831.913	3237
832.051	3108
832.19	3142
832.329	3207
832.467	3135
832.606	3116
832.744	3161
832.883	3195
833.022	3211
833.16	3249
833.299	3294
833.437	3351
833.576	3340
833.714	3367
833.852	3447
833.991	3401
834.129	3435
834.267	3458
834.406	3332
834.544	3412
834.682	3439
834.821	3439
834.959	3530
835.097	3443
835.235	3507
835.373	3485
835.511	3462
835.65	3443
835.788	3473
835.926	3374
836.064	3363
836.202	3367
836.34	3542
836.478	3614
836.615	3523
836.753	3576
836.891	3629
837.029	3580
837.167	3564
837.305	3572
837.443	3557
837.58	3500
837.718	3576
837.856	3553
837.993	3519
838.131	3599
838.269	3584
838.406	3572
838.544	3545
838.681	3431
838.819	3435
838.956	3348
839.094	3378
839.231	3382
839.369	3549
839.506	3720
839.643	3618
839.781	3534
839.918	3481
840.055	3542
840.193	3519
840.33	3507
840.467	3519
840.604	3599
840.742	3793
840.879	3515
841.016	3561
841.153	3561
841.29	3732
841.427	3713
841.564	3724
841.701	3717
841.838	3701
841.975	3675
842.112	3743
842.249	3610
842.385	3622
842.522	3819
842.659	3701
842.796	3648
842.933	3709
843.069	3694
843.206	3698
843.343	3793
843.479	3808
843.616	3838
843.752	3652
843.889	3652
844.025	3842
844.162	3720
844.298	3827
844.435	3778
844.571	3785
844.708	3941
844.844	3968
844.98	4032
845.117	4006
845.253	3983
845.389	3926
845.525	3956
845.661	3922
845.798	3926
845.934	3994
846.07	3964
846.206	4044
846.342	4105
846.478	4055
846.614	3983
846.75	3930
846.886	3907
847.022	4025
847.158	3987
847.294	4006
847.429	4006
847.565	4013
847.701	4242
847.837	3838
847.972	3903
848.108	3991
848.244	3949
848.379	3880
848.515	3838
848.65	3831
848.786	3835
848.921	3861
849.057	3934
849.192	3953
849.328	3888
849.463	3884
849.598	3892
849.734	3857
849.869	3850
850.004	3785
850.14	3819
850.275	3778
850.41	3732
850.545	3770
850.68	3755
850.815	3755
850.95	3804
851.085	3903
851.22	3884
851.355	3793
851.49	3759
851.625	3827
851.76	3770
851.895	3736
852.03	3713
852.165	3774
852.299	3800
852.434	3896
852.569	3880
852.703	3873
852.838	3899
852.973	3994
853.107	4032
853.242	3873
853.376	3854
853.511	3766
853.645	3876
853.78	3934
853.914	3896
854.048	3888
854.183	3892
854.317	3968
854.451	4124
854.585	3979
854.72	3915
854.854	4051
854.988	3956
855.122	4010
855.256	3975
855.39	4017
855.524	4090
855.658	4097
855.792	4109
855.926	4128
856.06	4173
856.194	4227
856.327	4158
856.461	4120
856.595	4200
856.729	4211
856.862	4303
856.996	4196
857.13	4303
857.263	4314
857.397	4352
857.53	4227
857.664	4333
857.797	4417
857.931	4413
858.064	4360
858.197	4459
858.331	4375
858.464	4344
858.597	4344
858.731	4417
858.864	4432
858.997	4432
859.13	4546
859.263	4542
859.396	4592
859.529	4500
859.662	4531
859.795	4512
859.928	4611
860.061	4717
860.194	4786
860.327	4645
860.46	4683
860.592	4744
860.725	4744
860.858	4786
860.99	4717
861.123	4683
861.256	4675
861.388	4725
861.521	5402
861.653	4698
861.786	4725
861.918	4729
862.05	4774
862.183	4824
862.315	4900
862.447	4927
862.58	4873
862.712	4790
862.844	4748
862.976	4870
863.108	4847
863.24	5174
863.372	4805
863.504	4908
863.636	4908
863.768	4972
863.9	4968
864.032	4927
864.164	4930
864.296	5041
864.428	5136
864.559	5052
864.691	5162
864.823	5094
864.954	5143
865.086	5155
865.217	5117
865.349	5033
865.48	5166
865.612	5170
865.743	5349
865.875	5170
866.006	5132
866.137	5212
866.269	5258
866.4	5223
866.531	5204
866.662	5258
866.793	5258
866.924	5261
867.055	5345
867.186	5273
867.317	5277
867.448	5284
867.579	5410
867.71	5315
867.841	5410
867.972	5440
868.103	5452
868.233	5493
868.364	5512
868.495	5558
868.625	5661
868.756	5771
868.886	5695
869.017	5767
869.147	5847
869.278	5851
869.408	5809
869.539	5794
869.669	5866
869.799	5912
869.929	5969
870.06	6041
870.19	6171
870.32	6201
870.45	6201
870.58	6311
870.71	6384
870.84	6441
870.97	6399
871.1	6410
871.23	6642
871.36	6700
871.489	6646
871.619	6757
871.749	6810
871.879	6840
872.008	6951
872.138	6981
872.267	6989
872.397	7019
872.526	7038
872.656	7088
872.785	7202
872.915	7331
873.044	7396
873.173	7559
873.303	7658
873.432	7742
873.561	7830
873.69	7890
873.819	7993
873.948	8153
874.077	8279
874.206	8317
874.335	8431
874.464	8625
874.593	8948
874.722	8906
874.851	9161
874.979	9272
875.108	9405
875.237	9454
875.365	9504
875.494	9660
875.623	9827
875.751	9762
875.88	10017
876.008	10192
876.136	10295
876.265	10459
876.393	10672
876.521	10694
876.65	10828
876.778	10824
876.906	10889
877.034	11006
877.162	11064
877.29	11143
877.418	11261
877.546	11360
877.674	11383
877.802	11448
877.93	11566
878.058	11532
878.185	11554
878.313	11592
878.441	11809
878.568	11665
878.696	11714
878.824	11737
878.951	11920
879.079	11965
879.206	12167
879.333	11988
879.461	12049
879.588	12026
879.715	12019
879.842	12216
879.97	12030
880.097	11805
880.224	11805
880.351	11897
880.478	11904
880.605	11847
880.732	11817
880.859	11984
880.986	11733
881.112	11855
881.239	11649
881.366	11695
881.493	11611
881.619	11596
881.746	11463
881.872	11532
881.999	11543
882.125	11387
882.252	11509
882.378	11535
882.505	11573
882.631	11383
882.757	11353
882.883	11330
883.01	11296
883.136	11185
883.262	11105
883.388	11052
883.514	11155
883.64	11201
883.766	11075
883.892	10946
884.018	10961
884.143	11048
884.269	11094
884.395	10911
884.52	10782
884.646	10759
884.772	10786
884.897	10694
885.023	10668
885.148	10630
885.274	10755
885.399	10698
885.524	10611
885.65	10550
885.775	10618
885.9	10546
886.025	10615
886.15	10607
886.275	10424
886.4	10352
886.525	10379
886.65	10398
886.775	10295
886.9	10428
887.025	10478
887.149	10409
887.274	10223
887.399	10204
887.523	10128
887.648	10086
887.773	10112
887.897	10166
888.021	10253
888.146	10135
888.27	10223
888.395	10249
888.519	10124
888.643	10169
888.767	10147
888.891	9979
889.015	10044
889.139	10082
889.263	9934
889.387	10074
889.511	10093
889.635	10135
889.759	10006
889.883	9934
890.006	9937
890.13	10067
890.254	10006
890.377	9934
890.501	9876
890.624	9975
890.748	9835
890.871	9759
890.995	9755
891.118	9667
891.241	9774
891.364	9770
891.488	9793
891.611	9709
891.734	9759
891.857	9732
891.98	9682
892.103	9755
892.226	9671
892.349	9599
892.471	9511
892.594	9549
892.717	9587
892.839	9614
892.962	9629
893.085	9679
893.207	9595
893.33	9469
893.452	9443
893.575	9629
893.697	9439
893.819	9625
893.941	9637
894.064	9523
894.186	9401
894.308	9424
894.43	9545
894.552	9690
894.674	9530
894.796	9325
894.918	9485
895.04	9325
895.161	9332
895.283	9359
895.405	9203
895.526	9298
895.648	9241
895.769	9237
895.891	9268
896.012	9329
896.134	9249
896.255	9161
896.376	9104
896.498	9138
896.619	9108
896.74	9097
896.861	9161
896.982	9173
897.103	9310
897.224	9154
897.345	9100
897.466	9024
897.587	9097
897.708	9024
897.828	9085
897.949	8914
898.07	8857
898.19	8880
898.311	9036
898.431	8891
898.552	8902
898.672	8986
898.792	9005
898.913	8982
899.033	8807
899.153	8758
899.273	8667
899.393	8716
899.513	8701
899.633	8758
899.753	8750
899.873	8750
899.993	8758
900.113	8674
900.232	8724
900.352	8689
900.472	8575
900.591	8514
900.711	8568
900.83	8587
900.95	8632
901.069	8663
901.189	8552
901.308	8427
901.427	8427
901.546	8370
901.665	8476
901.784	8423
901.904	8328
902.023	8336
902.141	8202
902.26	8168
902.379	8221
902.498	8199
902.617	8256
902.735	8244
902.854	8248
902.973	8279
903.091	8153
903.21	8107
903.328	8180
903.446	8134
903.565	8046
903.683	8115
903.801	8012
903.919	8107
904.038	8168
904.156	8027
904.274	8123
904.392	7978
904.51	8027
904.627	8073
904.745	8096
904.863	8039
904.981	7898
905.098	7864
905.216	7864
905.334	7902
905.451	7803
905.569	7898
905.686	7959
905.803	7818
905.921	7780
906.038	7940
906.155	7776
906.272	7632
906.389	7723
906.506	7613
906.623	7658
906.74	7597
906.857	7476
906.974	7578
907.091	7670
907.208	7708
907.324	7609
907.441	7559
907.557	7426
907.674	7422
907.79	7369
907.907	7354
908.023	7480
908.139	7381
908.256	7339
908.372	7381
908.488	7381
908.604	7259
908.72	7221
908.836	7278
908.952	7232
909.068	7209
909.184	7293
909.3	7305
909.415	7305
909.531	7339
909.647	7091
909.762	7156
909.878	7122
909.993	7091
910.108	7114
910.224	7065
910.339	7114
910.454	7019
910.57	7038
910.685	6939
910.8	7122
910.915	7053
911.03	6981
911.145	6916
911.259	6916
911.374	6878
911.489	6856
911.604	6764
911.718	6703
911.833	6722
911.947	6662
912.062	6635
912.176	6779
912.291	6745
912.405	6711
912.519	6833
912.633	6764
912.748	6673
912.862	6688
912.976	6612
913.09	6532
913.204	6570
913.318	6681
913.431	6635
913.545	6681
913.659	6738
913.772	6623
913.886	6620
914	6570
914.113	6608
914.226	6620
914.34	6570
914.453	6498
914.566	6582
914.68	6471
914.793	6490
914.906	6403
915.019	6486
915.132	6319
915.245	6372
915.358	6441
915.47	6403
915.583	6433
915.696	6471
915.809	6563
915.921	6559
916.034	6376
916.146	6437
916.259	6414
916.371	6475
916.483	6494
916.595	6357
916.708	6376
916.82	6426
916.932	6357
917.044	6334
917.156	6410
917.268	6315
917.38	6369
917.491	6342
917.603	6372
917.715	6361
917.826	6437
917.938	6308
918.049	6300
918.161	6426
918.272	6433
918.384	6441
918.495	6338
918.606	6258
918.717	6220
918.828	6228
918.939	6239
919.05	6228
919.161	6273
919.272	6117
919.383	6136
919.494	6281
919.604	6407
919.715	6319
919.826	6194
919.936	6239
920.047	6308
920.157	6235
920.267	6380
920.378	6319
920.488	6311
920.598	6445
920.708	6498
920.818	6433
920.928	6418
921.038	6555
921.148	6578
921.258	6380
921.368	6292
921.477	6190
921.587	6186
921.697	6060
921.806	6186
921.916	6079
922.025	5931
922.134	5889
922.244	5912
922.353	5916
922.462	5828
922.571	5802
922.68	5653
922.789	5733
922.898	5718
923.007	5653
923.116	5676
923.224	5608
923.333	5623
923.442	5558
923.55	5524
923.659	5592
923.767	5627
923.876	5543
923.984	5604
924.092	5501
924.201	5520
924.309	5532
924.417	5558
924.525	5516
924.633	5490
924.741	6254
924.849	5376
924.956	5505
925.064	5360
925.172	5311
925.279	5303
925.387	5341
925.494	5322
925.602	5410
925.709	5414
925.816	5296
925.924	5345
926.031	5387
926.138	5296
926.245	5322
926.352	5159
926.459	5322
926.566	5303
926.673	5201
926.779	5166
926.886	5090
926.993	5003
927.099	5022
927.206	4949
927.312	4972
927.419	5052
927.525	4976
927.631	4987
927.737	4885
927.843	4870
927.95	4793
928.056	4824
928.162	4812
928.267	4835
928.373	5337
928.479	4881
928.585	4702
928.69	4782
928.796	4744
928.901	4653
929.007	4538
929.112	4691
929.218	4634
929.323	4615
929.428	4523
929.533	4653
929.638	4527
929.743	4550
929.848	4531
929.953	4512
930.058	4424
930.163	4341
930.267	4375
930.372	4405
930.477	4318
930.581	4481
930.685	4356
930.79	4268
930.894	4314
930.998	4234
931.103	4409
931.207	4109
931.311	4101
931.415	4097
931.519	3987
931.623	3941
