Data from glass_V78500241_976.txt Node
Date: Wed Sep 01 19:21:15 CST 2021
User: usil
Spectrometer: V785-0024
Trigger mode: 0
Integration Time (sec): 4.000000E-1
Scans to average: 1
Nonlinearity correction enabled: false
Boxcar width: 0
Storing dark spectrum: false
XAxis mode: Wavelengths
Number of Pixels in Spectrum: 1024
>>>>>Begin Spectral Data<<<<<
801.071	3770
801.214	3736
801.356	3724
801.499	3732
801.641	3751
801.783	3789
801.926	3850
802.068	3823
802.211	3857
802.353	3892
802.496	3842
802.638	3869
802.78	3907
802.923	3934
803.065	3876
803.208	3884
803.35	3903
803.492	3937
803.635	3926
803.777	3808
803.919	3918
804.061	4169
804.204	3953
804.346	3968
804.488	3918
804.63	4055
804.773	4017
804.915	4040
805.057	4147
805.199	4074
805.341	4082
805.483	4162
805.626	4116
805.768	4112
805.91	4173
806.052	4246
806.194	4219
806.336	4356
806.478	4192
806.62	4196
806.762	4181
806.904	4261
807.046	4341
807.188	4211
807.33	4181
807.472	4265
807.614	4207
807.756	4276
807.898	4234
808.04	4223
808.182	4276
808.324	4341
808.465	4375
808.607	4489
808.749	4421
808.891	4493
809.033	4489
809.174	4428
809.316	4230
809.458	4253
809.6	4188
809.741	4181
809.883	4173
810.025	4268
810.166	4242
810.308	4200
810.45	4238
810.591	4234
810.733	4314
810.875	4531
811.016	4873
811.158	5086
811.299	5235
811.441	5341
811.582	5075
811.724	4702
811.865	4462
812.007	4519
812.148	4459
812.29	4440
812.431	4398
812.573	4428
812.714	4379
812.855	4443
812.997	4432
813.138	4493
813.279	4436
813.421	4398
813.562	4394
813.703	4344
813.845	4344
813.986	4284
814.127	4223
814.268	4318
814.41	4333
814.551	4261
814.692	4352
814.833	4268
814.974	4314
815.115	4356
815.256	4280
815.397	4219
815.539	4257
815.68	4196
815.821	4234
815.962	4371
816.103	4314
816.244	4276
816.385	4215
816.526	4295
816.666	4188
816.807	4143
816.948	4147
817.089	4200
817.23	4166
817.371	4086
817.512	4105
817.653	4086
817.793	4044
817.934	4067
818.075	4086
818.216	4124
818.356	4063
818.497	4006
818.638	3930
818.778	3953
818.919	3915
819.06	3876
819.2	3915
819.341	3850
819.481	3861
819.622	3922
819.762	4017
819.903	3968
820.043	3873
820.184	3823
820.324	3819
820.465	3911
820.605	3880
820.746	3857
820.886	3816
821.026	3960
821.167	3956
821.307	3998
821.447	3991
821.588	3968
821.728	3979
821.868	3926
822.008	3854
822.149	3911
822.289	3937
822.429	3812
822.569	3770
822.709	3812
822.849	3705
822.99	3724
823.13	3774
823.27	3781
823.41	3713
823.55	3785
823.69	3762
823.83	3785
823.97	3675
824.11	3622
824.25	3595
824.389	3667
824.529	3686
824.669	3671
824.809	3724
824.949	3732
825.089	3740
825.228	3747
825.368	3587
825.508	3564
825.648	3599
825.787	3595
825.927	3641
826.067	3644
826.206	3705
826.346	3831
826.485	3850
826.625	3884
826.765	3945
826.904	3831
827.044	3675
827.183	3485
827.323	3428
827.462	3492
827.601	3435
827.741	3439
827.88	3458
828.02	3397
828.159	3458
828.298	3466
828.437	3545
828.577	3458
828.716	3633
828.855	3481
828.994	3374
829.134	3344
829.273	3363
829.412	3370
829.551	3329
829.69	3355
829.829	3488
829.968	3530
830.107	3435
830.246	3477
830.385	3351
830.524	3355
830.663	3332
830.802	3268
830.941	3180
831.08	3188
831.219	3260
831.357	3287
831.496	3443
831.635	3256
831.774	3237
831.913	3222
832.051	3157
832.19	3154
832.329	3264
832.467	3176
832.606	3150
832.744	3169
832.883	3188
833.022	3268
833.16	3233
833.299	3302
833.437	3313
833.576	3420
833.714	3409
833.852	3439
833.991	3473
834.129	3492
834.267	3466
834.406	3393
834.544	3435
834.682	3409
834.821	3428
834.959	3606
835.097	3424
835.235	3507
835.373	3511
835.511	3507
835.65	3466
835.788	3473
835.926	3431
836.064	3405
836.202	3424
836.34	3549
836.478	3595
836.615	3538
836.753	3641
836.891	3644
837.029	3587
837.167	3576
837.305	3584
837.443	3557
837.58	3526
837.718	3572
837.856	3553
837.993	3580
838.131	3618
838.269	3572
838.406	3549
838.544	3641
838.681	3473
838.819	3466
838.956	3389
839.094	3405
839.231	3450
839.369	3515
839.506	3717
839.643	3618
839.781	3469
839.918	3504
840.055	3580
840.193	3576
840.33	3519
840.467	3561
840.604	3633
840.742	3846
840.879	3572
841.016	3564
841.153	3633
841.29	3747
841.427	3743
841.564	3675
841.701	3747
841.838	3652
841.975	3686
842.112	3724
842.249	3641
842.385	3625
842.522	3831
842.659	3679
842.796	3637
842.933	3736
843.069	3679
843.206	3747
843.343	3816
843.479	3823
843.616	3831
843.752	3713
843.889	3656
844.025	3888
844.162	3713
844.298	3838
844.435	3835
844.571	3770
844.708	3915
844.844	4032
844.98	4036
845.117	4013
845.253	3903
845.389	3915
845.525	3983
845.661	3991
845.798	3941
845.934	4044
846.07	3949
846.206	4021
846.342	4124
846.478	4055
846.614	4002
846.75	3972
846.886	3930
847.022	4059
847.158	3987
847.294	4044
847.429	4010
847.565	4002
847.701	4238
847.837	3880
847.972	3869
848.108	3983
848.244	3975
848.379	3854
848.515	3823
848.65	3861
848.786	3896
848.921	3865
849.057	3922
849.192	3922
849.328	3922
849.463	3907
849.598	3903
849.734	3857
849.869	3857
850.004	3793
850.14	3800
850.275	3846
850.41	3755
850.545	3694
850.68	3770
850.815	3808
850.95	3812
851.085	3956
851.22	3861
851.355	3838
851.49	3804
851.625	3793
851.76	3793
851.895	3759
852.03	3728
852.165	3778
852.299	3854
852.434	3915
852.569	3819
852.703	3899
852.838	3903
852.973	4021
853.107	4006
853.242	3918
853.376	3880
853.511	3781
853.645	3831
853.78	3960
853.914	3918
854.048	3892
854.183	3892
854.317	3937
854.451	4067
854.585	3991
854.72	3972
854.854	4055
854.988	3941
855.122	3994
855.256	3934
855.39	4055
855.524	4143
855.658	4078
855.792	4078
855.926	4109
856.06	4173
856.194	4211
856.327	4147
856.461	4169
856.595	4135
856.729	4147
856.862	4272
856.996	4257
857.13	4322
857.263	4318
857.397	4337
857.53	4303
857.664	4379
857.797	4417
857.931	4443
858.064	4390
858.197	4413
858.331	4386
858.464	4363
858.597	4390
858.731	4440
858.864	4436
858.997	4455
859.13	4573
859.263	4546
859.396	4573
859.529	4512
859.662	4535
859.795	4550
859.928	4584
860.061	4675
860.194	4717
860.327	4645
860.46	4645
860.592	4717
860.725	4763
860.858	4793
860.99	4702
861.123	4729
861.256	4706
861.388	4774
861.521	5524
861.653	4755
861.786	4725
861.918	4771
862.05	4801
862.183	4820
862.315	4896
862.447	4900
862.58	4946
862.712	4793
862.844	4771
862.976	4919
863.108	4873
863.24	5292
863.372	4839
863.504	4892
863.636	4858
863.768	5018
863.9	4968
864.032	4904
864.164	5014
864.296	5033
864.428	5090
864.559	5132
864.691	5124
864.823	5128
864.954	5136
865.086	5128
865.217	5113
865.349	5121
865.48	5181
865.612	5185
865.743	5292
865.875	5231
866.006	5197
866.137	5307
866.269	5261
866.4	5311
866.531	5227
866.662	5231
866.793	5239
866.924	5311
867.055	5303
867.186	5296
867.317	5337
867.448	5288
867.579	5383
867.71	5364
867.841	5383
867.972	5497
868.103	5459
868.233	5497
868.364	5524
868.495	5551
868.625	5722
868.756	5824
868.886	5646
869.017	5722
869.147	5870
869.278	5817
869.408	5832
869.539	5859
869.669	5897
869.799	5889
869.929	5961
870.06	6026
870.19	6167
870.32	6194
870.45	6292
870.58	6296
870.71	6426
870.84	6498
870.97	6441
871.1	6445
871.23	6639
871.36	6696
871.489	6642
871.619	6768
871.749	6829
871.879	6871
872.008	6973
872.138	6996
872.267	7019
872.397	7004
872.526	7012
872.656	7103
872.785	7244
872.915	7365
873.044	7472
873.173	7594
873.303	7620
873.432	7795
873.561	7883
873.69	7917
873.819	8020
873.948	8183
874.077	8233
874.206	8332
874.335	8514
874.464	8568
874.593	8895
874.722	8880
874.851	9176
874.979	9226
875.108	9351
875.237	9466
875.365	9450
875.494	9675
875.623	9781
875.751	9835
875.88	10021
876.008	10173
876.136	10265
876.265	10542
876.393	10717
876.521	10694
876.65	10843
876.778	10957
876.906	10953
877.034	11018
877.162	11117
877.29	11113
877.418	11277
877.546	11421
877.674	11482
877.802	11493
877.93	11512
878.058	11558
878.185	11543
878.313	11676
878.441	11821
878.568	11695
878.696	11707
878.824	11836
878.951	11980
879.079	11999
879.206	12125
879.333	12098
879.461	12007
879.588	12057
879.715	12087
879.842	12319
879.97	12117
880.097	11855
880.224	11885
880.351	11840
880.478	11847
880.605	11916
880.732	11866
880.859	12068
880.986	11771
881.112	11916
881.239	11748
881.366	11783
881.493	11539
881.619	11581
881.746	11596
881.872	11657
881.999	11532
882.125	11406
882.252	11630
882.378	11539
882.505	11745
882.631	11398
882.757	11303
882.883	11299
883.01	11330
883.136	11124
883.262	11208
883.388	11102
883.514	11223
883.64	11223
883.766	11132
883.892	10991
884.018	10949
884.143	11170
884.269	11151
884.395	10839
884.52	10854
884.646	10740
884.772	10672
884.897	10679
885.023	10740
885.148	10721
885.274	10778
885.399	10672
885.524	10637
885.65	10675
885.775	10550
885.9	10565
886.025	10645
886.15	10645
886.275	10500
886.4	10402
886.525	10474
886.65	10382
886.775	10310
886.9	10474
887.025	10558
887.149	10333
887.274	10246
887.399	10166
887.523	10196
887.648	10105
887.773	10181
887.897	10230
888.021	10295
888.146	10128
888.27	10230
888.395	10242
888.519	10211
888.643	10158
888.767	10261
888.891	10112
889.015	10010
889.139	10067
889.263	9968
889.387	10207
889.511	10131
889.635	10109
889.759	9979
889.883	9994
890.006	9994
890.13	10128
890.254	9972
890.377	10002
890.501	9865
890.624	9895
890.748	9930
890.871	9838
890.995	9698
891.118	9789
891.241	9850
891.364	9705
891.488	9816
891.611	9774
891.734	9759
891.857	9793
891.98	9709
892.103	9838
892.226	9701
892.349	9667
892.471	9488
892.594	9572
892.717	9633
892.839	9701
892.962	9637
893.085	9644
893.207	9580
893.33	9488
893.452	9515
893.575	9572
893.697	9530
893.819	9618
893.941	9648
894.064	9564
894.186	9447
894.308	9408
894.43	9572
894.552	9580
894.674	9542
894.796	9450
894.918	9431
895.04	9313
895.161	9367
895.283	9405
895.405	9302
895.526	9351
895.648	9268
895.769	9241
895.891	9283
896.012	9317
896.134	9184
896.255	9218
896.376	9135
896.498	9260
896.619	9214
896.74	9013
896.861	9089
896.982	9260
897.103	9332
897.224	9203
897.345	9047
897.466	9001
897.587	8990
897.708	9074
897.828	9119
897.949	8963
898.07	8842
898.19	8975
898.311	9077
898.431	8937
898.552	8937
898.672	8998
898.792	8979
898.913	8948
899.033	8724
899.153	8766
899.273	8632
899.393	8640
899.513	8743
899.633	8754
899.753	8807
899.873	8686
899.993	8724
900.113	8678
900.232	8678
900.352	8739
900.472	8587
900.591	8594
900.711	8587
900.83	8568
900.95	8640
901.069	8785
901.189	8663
901.308	8400
901.427	8336
901.546	8381
901.665	8442
901.784	8499
901.904	8473
902.023	8328
902.141	8237
902.26	8221
902.379	8256
902.498	8286
902.617	8240
902.735	8301
902.854	8290
902.973	8294
903.091	8149
903.21	8172
903.328	8123
903.446	8153
903.565	8092
903.683	8115
903.801	8058
903.919	8134
904.038	8092
904.156	8043
904.274	8107
904.392	8046
904.51	7997
904.627	8062
904.745	8092
904.863	8043
904.981	7879
905.098	7921
905.216	7879
905.334	7902
905.451	7913
905.569	7959
905.686	7967
905.803	7894
905.921	7731
906.038	7860
906.155	7719
906.272	7750
906.389	7750
906.506	7704
906.623	7658
906.74	7601
906.857	7533
906.974	7651
907.091	7670
907.208	7738
907.324	7643
907.441	7552
907.557	7468
907.674	7476
907.79	7411
907.907	7369
908.023	7362
908.139	7415
908.256	7384
908.372	7422
908.488	7369
908.604	7274
908.72	7221
908.836	7228
908.952	7194
909.068	7213
909.184	7320
909.3	7255
909.415	7320
909.531	7324
909.647	7145
909.762	7091
909.878	7122
909.993	7179
910.108	7091
910.224	7084
910.339	7069
910.454	7000
910.57	7012
910.685	6924
910.8	7183
910.915	7072
911.03	6996
911.145	6909
911.259	6837
911.374	6924
911.489	6856
911.604	6821
911.718	6715
911.833	6806
911.947	6612
912.062	6597
912.176	6726
912.291	6787
912.405	6719
912.519	6802
912.633	6837
912.748	6734
912.862	6692
912.976	6631
913.09	6513
913.204	6620
913.318	6616
913.431	6696
913.545	6703
913.659	6802
913.772	6658
913.886	6547
914	6525
914.113	6665
914.226	6635
914.34	6582
914.453	6498
914.566	6654
914.68	6604
914.793	6597
914.906	6395
915.019	6422
915.132	6414
915.245	6429
915.358	6429
915.47	6410
915.583	6509
915.696	6509
915.809	6559
915.921	6566
916.034	6391
916.146	6426
916.259	6346
916.371	6441
916.483	6471
916.595	6418
916.708	6399
916.82	6380
916.932	6388
917.044	6407
917.156	6414
917.268	6365
917.38	6323
917.491	6285
917.603	6323
917.715	6418
917.826	6460
917.938	6331
918.049	6270
918.161	6372
918.272	6452
918.384	6395
918.495	6361
918.606	6353
918.717	6243
918.828	6311
918.939	6323
919.05	6228
919.161	6327
919.272	6163
919.383	6148
919.494	6365
919.604	6399
919.715	6315
919.826	6232
919.936	6285
920.047	6380
920.157	6232
920.267	6509
920.378	6365
920.488	6262
920.598	6536
920.708	6563
920.818	6483
920.928	6399
921.038	6639
921.148	6540
921.258	6346
921.368	6357
921.477	6190
921.587	6194
921.697	6117
921.806	6216
921.916	6022
922.025	5954
922.134	5874
922.244	5885
922.353	5958
922.462	5813
922.571	5821
922.68	5691
922.789	5657
922.898	5745
923.007	5642
923.116	5741
923.224	5714
923.333	5699
923.442	5539
923.55	5581
923.659	5604
923.767	5680
923.876	5558
923.984	5661
924.092	5554
924.201	5558
924.309	5573
924.417	5570
924.525	5467
924.633	5520
924.741	6178
924.849	5334
924.956	5493
925.064	5337
925.172	5303
925.279	5265
925.387	5364
925.494	5345
925.602	5440
925.709	5383
925.816	5311
925.924	5360
926.031	5402
926.138	5349
926.245	5330
926.352	5208
926.459	5299
926.566	5398
926.673	5235
926.779	5193
926.886	5124
926.993	5029
927.099	5014
927.206	5006
927.312	4949
927.419	5041
927.525	4999
927.631	5006
927.737	4900
927.843	4900
927.95	4805
928.056	4820
928.162	4809
928.267	4820
928.373	5357
928.479	4790
928.585	4706
928.69	4782
928.796	4755
928.901	4694
929.007	4603
929.112	4653
929.218	4615
929.323	4626
929.428	4535
929.533	4679
929.638	4485
929.743	4542
929.848	4577
929.953	4512
930.058	4447
930.163	4314
930.267	4375
930.372	4428
930.477	4261
930.581	4497
930.685	4341
930.79	4291
930.894	4325
930.998	4265
931.103	4386
931.207	4120
931.311	4063
931.415	4017
931.519	3922
931.623	3991
