Data from glass_V78500241_1126.txt Node
Date: Wed Sep 01 19:22:18 CST 2021
User: usil
Spectrometer: V785-0024
Trigger mode: 0
Integration Time (sec): 4.000000E-1
Scans to average: 1
Nonlinearity correction enabled: false
Boxcar width: 0
Storing dark spectrum: false
XAxis mode: Wavelengths
Number of Pixels in Spectrum: 1024
>>>>>Begin Spectral Data<<<<<
801.071	3701
801.214	3747
801.356	3762
801.499	3762
801.641	3740
801.783	3785
801.926	3911
802.068	3838
802.211	3873
802.353	3945
802.496	3876
802.638	3861
802.78	3899
802.923	3953
803.065	3876
803.208	3827
803.35	3880
803.492	3926
803.635	3937
803.777	3827
803.919	3896
804.061	4158
804.204	3972
804.346	3953
804.488	3918
804.63	4048
804.773	3994
804.915	4063
805.057	4105
805.199	4036
805.341	4093
805.483	4147
805.626	4120
805.768	4143
805.91	4219
806.052	4227
806.194	4211
806.336	4337
806.478	4207
806.62	4185
806.762	4204
806.904	4246
807.046	4371
807.188	4227
807.33	4204
807.472	4249
807.614	4188
807.756	4291
807.898	4219
808.04	4257
808.182	4276
808.324	4306
808.465	4402
808.607	4485
808.749	4440
808.891	4474
809.033	4538
809.174	4386
809.316	4268
809.458	4242
809.6	4154
809.741	4158
809.883	4124
810.025	4276
810.166	4215
810.308	4204
810.45	4234
810.591	4261
810.733	4329
810.875	4542
811.016	4854
811.158	5140
811.299	5254
811.441	5261
811.582	5124
811.724	4706
811.865	4481
812.007	4440
812.148	4436
812.29	4481
812.431	4394
812.573	4417
812.714	4360
812.855	4413
812.997	4405
813.138	4504
813.279	4417
813.421	4371
813.562	4455
813.703	4322
813.845	4295
813.986	4295
814.127	4234
814.268	4280
814.41	4341
814.551	4261
814.692	4303
814.833	4238
814.974	4337
815.115	4360
815.256	4223
815.397	4257
815.539	4230
815.68	4188
815.821	4238
815.962	4314
816.103	4246
816.244	4227
816.385	4223
816.526	4261
816.666	4234
816.807	4093
816.948	4181
817.089	4181
817.23	4147
817.371	4059
817.512	4093
817.653	4093
817.793	4040
817.934	4063
818.075	4109
818.216	4055
818.356	4090
818.497	4029
818.638	3915
818.778	3930
818.919	3888
819.06	3911
819.2	3926
819.341	3903
819.481	3850
819.622	3899
819.762	3983
819.903	4017
820.043	3846
820.184	3861
820.324	3808
820.465	3854
820.605	3857
820.746	3873
820.886	3819
821.026	3945
821.167	3956
821.307	3991
821.447	3991
821.588	4002
821.728	3972
821.868	3968
822.008	3888
822.149	3941
822.289	3922
822.429	3793
822.569	3781
822.709	3789
822.849	3709
822.99	3728
823.13	3743
823.27	3797
823.41	3743
823.55	3755
823.69	3747
823.83	3743
823.97	3713
824.11	3622
824.25	3576
824.389	3614
824.529	3660
824.669	3622
824.809	3682
824.949	3755
825.089	3751
825.228	3717
825.368	3595
825.508	3576
825.648	3553
825.787	3595
825.927	3656
826.067	3595
826.206	3625
826.346	3781
826.485	3876
826.625	3850
826.765	3953
826.904	3823
827.044	3606
827.183	3549
827.323	3397
827.462	3492
827.601	3424
827.741	3435
827.88	3466
828.02	3378
828.159	3450
828.298	3469
828.437	3530
828.577	3462
828.716	3587
828.855	3469
828.994	3374
829.134	3405
829.273	3416
829.412	3370
829.551	3359
829.69	3386
829.829	3466
829.968	3545
830.107	3458
830.246	3462
830.385	3351
830.524	3355
830.663	3306
830.802	3264
830.941	3226
831.08	3211
831.219	3260
831.357	3310
831.496	3409
831.635	3264
831.774	3211
831.913	3241
832.051	3150
832.19	3169
832.329	3207
832.467	3123
832.606	3093
832.744	3135
832.883	3173
833.022	3176
833.16	3260
833.299	3325
833.437	3351
833.576	3393
833.714	3435
833.852	3424
833.991	3477
834.129	3477
834.267	3409
834.406	3416
834.544	3431
834.682	3450
834.821	3466
834.959	3606
835.097	3439
835.235	3542
835.373	3511
835.511	3504
835.65	3435
835.788	3488
835.926	3393
836.064	3389
836.202	3401
836.34	3595
836.478	3618
836.615	3572
836.753	3629
836.891	3663
837.029	3595
837.167	3587
837.305	3580
837.443	3561
837.58	3485
837.718	3614
837.856	3549
837.993	3538
838.131	3587
838.269	3568
838.406	3599
838.544	3591
838.681	3523
838.819	3466
838.956	3367
839.094	3397
839.231	3500
839.369	3507
839.506	3717
839.643	3663
839.781	3526
839.918	3496
840.055	3538
840.193	3557
840.33	3515
840.467	3584
840.604	3572
840.742	3804
840.879	3545
841.016	3595
841.153	3599
841.29	3755
841.427	3766
841.564	3762
841.701	3732
841.838	3709
841.975	3682
842.112	3713
842.249	3644
842.385	3622
842.522	3838
842.659	3682
842.796	3644
842.933	3724
843.069	3705
843.206	3679
843.343	3838
843.479	3819
843.616	3808
843.752	3724
843.889	3717
844.025	3873
844.162	3743
844.298	3880
844.435	3789
844.571	3762
844.708	3911
844.844	4002
844.98	4017
845.117	4044
845.253	3945
845.389	3911
845.525	3930
845.661	4013
845.798	3911
845.934	4051
846.07	3972
846.206	4071
846.342	4143
846.478	4021
846.614	3972
846.75	3941
846.886	3918
847.022	4086
847.158	4013
847.294	4048
847.429	4017
847.565	4025
847.701	4200
847.837	3869
847.972	3865
848.108	3953
848.244	3964
848.379	3876
848.515	3804
848.65	3812
848.786	3838
848.921	3907
849.057	3953
849.192	3953
849.328	3899
849.463	3911
849.598	3903
849.734	3880
849.869	3846
850.004	3755
850.14	3816
850.275	3751
850.41	3755
850.545	3778
850.68	3846
850.815	3793
850.95	3831
851.085	3903
851.22	3865
851.355	3819
851.49	3781
851.625	3804
851.76	3766
851.895	3766
852.03	3717
852.165	3816
852.299	3819
852.434	3953
852.569	3899
852.703	3869
852.838	3960
852.973	3983
853.107	3964
853.242	3884
853.376	3865
853.511	3781
853.645	3808
853.78	3975
853.914	3941
854.048	3911
854.183	3892
854.317	3949
854.451	4074
854.585	3987
854.72	3937
854.854	4036
854.988	3945
855.122	4010
855.256	3918
855.39	4025
855.524	4124
855.658	4090
855.792	4128
855.926	4158
856.06	4154
856.194	4238
856.327	4169
856.461	4166
856.595	4154
856.729	4211
856.862	4291
856.996	4246
857.13	4322
857.263	4337
857.397	4333
857.53	4265
857.664	4390
857.797	4398
857.931	4474
858.064	4394
858.197	4466
858.331	4432
858.464	4390
858.597	4341
858.731	4451
858.864	4485
858.997	4485
859.13	4504
859.263	4535
859.396	4615
859.529	4527
859.662	4535
859.795	4558
859.928	4615
860.061	4683
860.194	4744
860.327	4641
860.46	4626
860.592	4755
860.725	4736
860.858	4774
860.99	4717
861.123	4645
861.256	4706
861.388	4706
861.521	5402
861.653	4698
861.786	4710
861.918	4725
862.05	4831
862.183	4862
862.315	4881
862.447	4995
862.58	4930
862.712	4809
862.844	4774
862.976	4942
863.108	4896
863.24	5208
863.372	4847
863.504	4915
863.636	4904
863.768	4953
863.9	4957
864.032	4949
864.164	4984
864.296	5033
864.428	5090
864.559	5140
864.691	5090
864.823	5067
864.954	5121
865.086	5147
865.217	5136
865.349	5094
865.48	5178
865.612	5155
865.743	5296
865.875	5193
866.006	5197
866.137	5140
866.269	5273
866.4	5212
866.531	5223
866.662	5296
866.793	5261
866.924	5326
867.055	5391
867.186	5372
867.317	5299
867.448	5341
867.579	5448
867.71	5429
867.841	5376
867.972	5490
868.103	5478
868.233	5524
868.364	5524
868.495	5512
868.625	5634
868.756	5775
868.886	5695
869.017	5672
869.147	5836
869.278	5863
869.408	5805
869.539	5828
869.669	5939
869.799	5939
869.929	5935
870.06	6034
870.19	6163
870.32	6194
870.45	6235
870.58	6323
870.71	6437
870.84	6464
870.97	6422
871.1	6422
871.23	6658
871.36	6703
871.489	6612
871.619	6772
871.749	6806
871.879	6901
872.008	7008
872.138	7046
872.267	6973
872.397	6924
872.526	7019
872.656	7137
872.785	7198
872.915	7388
873.044	7521
873.173	7605
873.303	7681
873.432	7746
873.561	7925
873.69	7917
873.819	7989
873.948	8149
874.077	8271
874.206	8317
874.335	8476
874.464	8693
874.593	8834
874.722	8944
874.851	9138
874.979	9237
875.108	9325
875.237	9428
875.365	9511
875.494	9690
875.623	9861
875.751	9838
875.88	10010
876.008	10120
876.136	10360
876.265	10478
876.393	10607
876.521	10691
876.65	10850
876.778	10915
876.906	11003
877.034	10927
877.162	11052
877.29	11185
877.418	11288
877.546	11303
877.674	11490
877.802	11520
877.93	11509
878.058	11566
878.185	11604
878.313	11642
878.441	11695
878.568	11657
878.696	11882
878.824	11809
878.951	12034
879.079	11969
879.206	12159
879.333	12064
879.461	12007
879.588	12136
879.715	12079
879.842	12311
879.97	12083
880.097	11874
880.224	11885
880.351	11897
880.478	11927
880.605	11828
880.732	11859
880.859	12049
880.986	11942
881.112	11851
881.239	11752
881.366	11703
881.493	11589
881.619	11573
881.746	11535
881.872	11493
881.999	11585
882.125	11535
882.252	11471
882.378	11497
882.505	11589
882.631	11482
882.757	11322
882.883	11258
883.01	11280
883.136	11174
883.262	11189
883.388	11029
883.514	11216
883.64	11140
883.766	11086
883.892	11071
884.018	11094
884.143	11121
884.269	11075
884.395	10896
884.52	10759
884.646	10824
884.772	10740
884.897	10653
885.023	10687
885.148	10733
885.274	10889
885.399	10805
885.524	10618
885.65	10649
885.775	10706
885.9	10577
886.025	10527
886.15	10550
886.275	10519
886.4	10470
886.525	10451
886.65	10352
886.775	10360
886.9	10466
887.025	10478
887.149	10280
887.274	10249
887.399	10188
887.523	10185
887.648	10242
887.773	10185
887.897	10242
888.021	10242
888.146	10150
888.27	10268
888.395	10230
888.519	10223
888.643	10249
888.767	10131
888.891	10219
889.015	10071
889.139	9964
889.263	9991
889.387	10078
889.511	10188
889.635	10063
889.759	9949
889.883	10029
890.006	9991
890.13	10124
890.254	9922
890.377	10010
890.501	9781
890.624	9930
890.748	9918
890.871	9781
890.995	9675
891.118	9686
891.241	9793
891.364	9762
891.488	9835
891.611	9827
891.734	9747
891.857	9793
891.98	9705
892.103	9827
892.226	9728
892.349	9675
892.471	9507
892.594	9637
892.717	9667
892.839	9580
892.962	9656
893.085	9709
893.207	9576
893.33	9542
893.452	9584
893.575	9648
893.697	9534
893.819	9576
893.941	9572
894.064	9564
894.186	9443
894.308	9458
894.43	9557
894.552	9606
894.674	9545
894.796	9401
894.918	9370
895.04	9332
895.161	9378
895.283	9283
895.405	9302
895.526	9222
895.648	9249
895.769	9253
895.891	9237
896.012	9253
896.134	9192
896.255	9188
896.376	9184
896.498	9131
896.619	9119
896.74	9104
896.861	9127
896.982	9272
897.103	9321
897.224	9199
897.345	9093
897.466	9097
897.587	9081
897.708	9074
897.828	9036
897.949	8960
898.07	8864
898.19	8902
898.311	9074
898.431	8971
898.552	8925
898.672	8944
898.792	8952
898.913	8902
899.033	8815
899.153	8739
899.273	8720
899.393	8731
899.513	8750
899.633	8693
899.753	8758
899.873	8648
899.993	8708
900.113	8686
900.232	8724
900.352	8674
900.472	8560
900.591	8590
900.711	8610
900.83	8575
900.95	8674
901.069	8659
901.189	8530
901.308	8415
901.427	8400
901.546	8484
901.665	8503
901.784	8469
901.904	8343
902.023	8377
902.141	8233
902.26	8263
902.379	8252
902.498	8225
902.617	8263
902.735	8275
902.854	8294
902.973	8229
903.091	8161
903.21	8123
903.328	8123
903.446	8134
903.565	8069
903.683	8134
903.801	8043
903.919	8123
904.038	8233
904.156	8020
904.274	8016
904.392	8020
904.51	8081
904.627	8100
904.745	8096
904.863	8073
904.981	7898
905.098	7883
905.216	7864
905.334	7883
905.451	7913
905.569	7845
905.686	7913
905.803	7917
905.921	7757
906.038	7894
906.155	7788
906.272	7715
906.389	7769
906.506	7696
906.623	7658
906.74	7578
906.857	7525
906.974	7620
907.091	7670
907.208	7765
907.324	7704
907.441	7613
907.557	7518
907.674	7384
907.79	7377
907.907	7392
908.023	7449
908.139	7434
908.256	7377
908.372	7365
908.488	7373
908.604	7278
908.72	7278
908.836	7285
908.952	7282
909.068	7228
909.184	7320
909.3	7270
909.415	7297
909.531	7278
909.647	7038
909.762	7122
909.878	7129
909.993	7183
910.108	7084
910.224	7065
910.339	7050
910.454	7046
910.57	7004
910.685	6985
910.8	7145
910.915	7179
911.03	7027
911.145	6920
911.259	6943
911.374	6920
911.489	6863
911.604	6802
911.718	6662
911.833	6726
911.947	6646
912.062	6608
912.176	6776
912.291	6745
912.405	6650
912.519	6833
912.633	6825
912.748	6745
912.862	6757
912.976	6620
913.09	6509
913.204	6604
913.318	6604
913.431	6650
913.545	6688
913.659	6715
913.772	6646
913.886	6544
914	6570
914.113	6601
914.226	6673
914.34	6635
914.453	6486
914.566	6654
914.68	6536
914.793	6540
914.906	6437
915.019	6422
915.132	6376
915.245	6357
915.358	6467
915.47	6422
915.583	6452
915.696	6441
915.809	6521
915.921	6593
916.034	6399
916.146	6437
916.259	6357
916.371	6471
916.483	6464
916.595	6422
916.708	6471
916.82	6441
916.932	6429
917.044	6391
917.156	6395
917.268	6338
917.38	6376
917.491	6304
917.603	6391
917.715	6407
917.826	6395
917.938	6334
918.049	6289
918.161	6433
918.272	6441
918.384	6475
918.495	6331
918.606	6251
918.717	6266
918.828	6334
918.939	6270
919.05	6247
919.161	6243
919.272	6114
919.383	6182
919.494	6292
919.604	6376
919.715	6304
919.826	6251
919.936	6254
920.047	6353
920.157	6262
920.267	6471
920.378	6308
920.488	6311
920.598	6456
920.708	6525
920.818	6456
920.928	6483
921.038	6566
921.148	6544
921.258	6331
921.368	6327
921.477	6277
921.587	6220
921.697	6076
921.806	6159
921.916	6102
922.025	5950
922.134	5939
922.244	5863
922.353	5927
922.462	5836
922.571	5790
922.68	5752
922.789	5676
922.898	5722
923.007	5630
923.116	5714
923.224	5695
923.333	5630
923.442	5596
923.55	5608
923.659	5634
923.767	5684
923.876	5551
923.984	5649
924.092	5486
924.201	5558
924.309	5573
924.417	5535
924.525	5501
924.633	5482
924.741	6281
924.849	5387
924.956	5414
925.064	5376
925.172	5334
925.279	5322
925.387	5372
925.494	5318
925.602	5459
925.709	5421
925.816	5277
925.924	5330
926.031	5337
926.138	5326
926.245	5303
926.352	5242
926.459	5368
926.566	5353
926.673	5204
926.779	5189
926.886	5189
926.993	5003
927.099	4991
927.206	4957
927.312	4938
927.419	5041
927.525	5025
927.631	5075
927.737	4927
927.843	4919
927.95	4812
928.056	4839
928.162	4858
928.267	4790
928.373	5379
928.479	4908
928.585	4687
928.69	4824
928.796	4725
928.901	4694
929.007	4634
929.112	4710
929.218	4637
929.323	4618
929.428	4577
929.533	4706
929.638	4500
929.743	4573
929.848	4577
929.953	4592
930.058	4421
930.163	4341
930.267	4352
930.372	4474
930.477	4337
930.581	4497
930.685	4405
930.79	4265
930.894	4265
930.998	4265
931.103	4402
931.207	4105
931.311	4109
931.415	4025
931.519	3956
931.623	3956
