Data from glass_V78500241_758.txt Node
Date: Wed Sep 01 19:19:45 CST 2021
User: usil
Spectrometer: V785-0024
Trigger mode: 0
Integration Time (sec): 4.000000E-1
Scans to average: 1
Nonlinearity correction enabled: false
Boxcar width: 0
Storing dark spectrum: false
XAxis mode: Wavelengths
Number of Pixels in Spectrum: 1024
>>>>>Begin Spectral Data<<<<<
801.071	3743
801.214	3774
801.356	3717
801.499	3759
801.641	3705
801.783	3789
801.926	3876
802.068	3865
802.211	3869
802.353	3926
802.496	3857
802.638	3926
802.78	3937
802.923	3960
803.065	3930
803.208	3835
803.35	3888
803.492	3918
803.635	3899
803.777	3812
803.919	3888
804.061	4147
804.204	3937
804.346	3968
804.488	3960
804.63	4017
804.773	3979
804.915	4010
805.057	4124
805.199	4063
805.341	4105
805.483	4128
805.626	4116
805.768	4150
805.91	4246
806.052	4272
806.194	4166
806.336	4337
806.478	4219
806.62	4196
806.762	4188
806.904	4280
807.046	4352
807.188	4211
807.33	4181
807.472	4238
807.614	4200
807.756	4272
807.898	4200
808.04	4207
808.182	4276
808.324	4295
808.465	4356
808.607	4478
808.749	4451
808.891	4504
809.033	4535
809.174	4398
809.316	4276
809.458	4249
809.6	4154
809.741	4143
809.883	4173
810.025	4246
810.166	4234
810.308	4227
810.45	4272
810.591	4272
810.733	4272
810.875	4516
811.016	4820
811.158	5159
811.299	5284
811.441	5303
811.582	5045
811.724	4717
811.865	4478
812.007	4489
812.148	4489
812.29	4440
812.431	4402
812.573	4375
812.714	4352
812.855	4333
812.997	4462
813.138	4478
813.279	4440
813.421	4421
813.562	4409
813.703	4333
813.845	4379
813.986	4272
814.127	4253
814.268	4265
814.41	4333
814.551	4272
814.692	4344
814.833	4234
814.974	4310
815.115	4329
815.256	4242
815.397	4257
815.539	4234
815.68	4230
815.821	4238
815.962	4322
816.103	4318
816.244	4219
816.385	4242
816.526	4284
816.666	4234
816.807	4120
816.948	4207
817.089	4188
817.23	4143
817.371	4040
817.512	4071
817.653	4067
817.793	4055
817.934	4097
818.075	4082
818.216	4086
818.356	4101
818.497	3979
818.638	3926
818.778	3896
818.919	3873
819.06	3876
819.2	3937
819.341	3857
819.481	3838
819.622	3934
819.762	4006
819.903	3907
820.043	3896
820.184	3835
820.324	3846
820.465	3922
820.605	3816
820.746	3873
820.886	3819
821.026	3930
821.167	3915
821.307	3987
821.447	3968
821.588	3991
821.728	3991
821.868	3979
822.008	3857
822.149	3975
822.289	3945
822.429	3808
822.569	3781
822.709	3827
822.849	3694
822.99	3736
823.13	3781
823.27	3781
823.41	3705
823.55	3743
823.69	3720
823.83	3762
823.97	3690
824.11	3591
824.25	3625
824.389	3610
824.529	3644
824.669	3641
824.809	3732
824.949	3747
825.089	3736
825.228	3720
825.368	3595
825.508	3580
825.648	3542
825.787	3610
825.927	3652
826.067	3660
826.206	3713
826.346	3800
826.485	3930
826.625	3831
826.765	3907
826.904	3854
827.044	3663
827.183	3572
827.323	3443
827.462	3492
827.601	3454
827.741	3420
827.88	3454
828.02	3348
828.159	3428
828.298	3538
828.437	3553
828.577	3462
828.716	3618
828.855	3507
828.994	3409
829.134	3397
829.273	3401
829.412	3359
829.551	3348
829.69	3409
829.829	3477
829.968	3500
830.107	3450
830.246	3412
830.385	3412
830.524	3389
830.663	3355
830.802	3253
830.941	3184
831.08	3226
831.219	3264
831.357	3283
831.496	3393
831.635	3230
831.774	3176
831.913	3203
832.051	3142
832.19	3154
832.329	3214
832.467	3112
832.606	3138
832.744	3199
832.883	3237
833.022	3169
833.16	3256
833.299	3287
833.437	3344
833.576	3382
833.714	3428
833.852	3450
833.991	3450
834.129	3496
834.267	3462
834.406	3420
834.544	3462
834.682	3447
834.821	3462
834.959	3572
835.097	3458
835.235	3526
835.373	3534
835.511	3507
835.65	3450
835.788	3538
835.926	3443
836.064	3405
836.202	3397
836.34	3568
836.478	3641
836.615	3580
836.753	3641
836.891	3663
837.029	3614
837.167	3572
837.305	3542
837.443	3564
837.58	3496
837.718	3584
837.856	3591
837.993	3584
838.131	3576
838.269	3580
838.406	3587
838.544	3603
838.681	3469
838.819	3447
838.956	3370
839.094	3405
839.231	3454
839.369	3534
839.506	3728
839.643	3656
839.781	3500
839.918	3447
840.055	3564
840.193	3545
840.33	3538
840.467	3564
840.604	3606
840.742	3823
840.879	3564
841.016	3568
841.153	3610
841.29	3774
841.427	3728
841.564	3717
841.701	3781
841.838	3709
841.975	3633
842.112	3724
842.249	3648
842.385	3625
842.522	3800
842.659	3690
842.796	3705
842.933	3717
843.069	3720
843.206	3770
843.343	3808
843.479	3808
843.616	3804
843.752	3663
843.889	3720
844.025	3850
844.162	3682
844.298	3850
844.435	3812
844.571	3800
844.708	3888
844.844	4017
844.98	4051
845.117	4048
845.253	3926
845.389	3903
845.525	3975
845.661	4021
845.798	3930
845.934	4044
846.07	3964
846.206	4036
846.342	4154
846.478	4040
846.614	4002
846.75	3949
846.886	3922
847.022	4025
847.158	4025
847.294	4059
847.429	4036
847.565	4044
847.701	4223
847.837	3892
847.972	3884
848.108	3994
848.244	3964
848.379	3880
848.515	3823
848.65	3831
848.786	3846
848.921	3838
849.057	3941
849.192	3972
849.328	3941
849.463	3937
849.598	3903
849.734	3896
849.869	3880
850.004	3823
850.14	3819
850.275	3812
850.41	3694
850.545	3759
850.68	3781
850.815	3808
850.95	3800
851.085	3983
851.22	3861
851.355	3812
851.49	3770
851.625	3808
851.76	3789
851.895	3751
852.03	3736
852.165	3797
852.299	3800
852.434	3930
852.569	3903
852.703	3869
852.838	3926
852.973	3994
853.107	4002
853.242	3918
853.376	3869
853.511	3781
853.645	3854
853.78	3968
853.914	3934
854.048	3937
854.183	3956
854.317	3941
854.451	4086
854.585	3945
854.72	3949
854.854	4063
854.988	3934
855.122	3998
855.256	3903
855.39	4036
855.524	4131
855.658	4082
855.792	4120
855.926	4097
856.06	4139
856.194	4207
856.327	4135
856.461	4124
856.595	4150
856.729	4181
856.862	4284
856.996	4261
857.13	4352
857.263	4371
857.397	4348
857.53	4265
857.664	4375
857.797	4390
857.931	4440
858.064	4394
858.197	4443
858.331	4409
858.464	4424
858.597	4386
858.731	4481
858.864	4424
858.997	4428
859.13	4542
859.263	4535
859.396	4607
859.529	4508
859.662	4554
859.795	4519
859.928	4687
860.061	4744
860.194	4744
860.327	4630
860.46	4637
860.592	4729
860.725	4778
860.858	4771
860.99	4706
861.123	4710
861.256	4687
861.388	4771
861.521	5448
861.653	4717
861.786	4672
861.918	4828
862.05	4797
862.183	4915
862.315	4881
862.447	4957
862.58	4896
862.712	4824
862.844	4744
862.976	4847
863.108	4862
863.24	5277
863.372	4850
863.504	4930
863.636	4934
863.768	5022
863.9	5022
864.032	4889
864.164	4995
864.296	5014
864.428	5121
864.559	5109
864.691	5162
864.823	5159
864.954	5155
865.086	5181
865.217	5151
865.349	5098
865.48	5193
865.612	5204
865.743	5288
865.875	5216
866.006	5231
866.137	5250
866.269	5246
866.4	5235
866.531	5254
866.662	5246
866.793	5292
866.924	5322
867.055	5326
867.186	5376
867.317	5315
867.448	5349
867.579	5368
867.71	5360
867.841	5376
867.972	5421
868.103	5463
868.233	5448
868.364	5516
868.495	5539
868.625	5718
868.756	5821
868.886	5695
869.017	5695
869.147	5847
869.278	5870
869.408	5786
869.539	5859
869.669	5904
869.799	5965
869.929	5965
870.06	5999
870.19	6197
870.32	6224
870.45	6304
870.58	6376
870.71	6525
870.84	6490
870.97	6388
871.1	6486
871.23	6608
871.36	6696
871.489	6726
871.619	6753
871.749	6848
871.879	6916
872.008	7000
872.138	6973
872.267	7046
872.397	6977
872.526	7038
872.656	7072
872.785	7202
872.915	7407
873.044	7514
873.173	7529
873.303	7597
873.432	7723
873.561	7917
873.69	7940
873.819	8050
873.948	8191
874.077	8244
874.206	8362
874.335	8530
874.464	8686
874.593	8876
874.722	8944
874.851	9207
874.979	9256
875.108	9310
875.237	9485
875.365	9526
875.494	9644
875.623	9846
875.751	9800
875.88	9934
876.008	10124
876.136	10329
876.265	10561
876.393	10714
876.521	10714
876.65	10862
876.778	10938
876.906	10866
877.034	10980
877.162	11136
877.29	11117
877.418	11307
877.546	11387
877.674	11505
877.802	11516
877.93	11463
878.058	11566
878.185	11512
878.313	11630
878.441	11809
878.568	11570
878.696	11904
878.824	11843
878.951	11916
879.079	12034
879.206	12213
879.333	11973
879.461	11992
879.588	12087
879.715	12098
879.842	12330
879.97	12026
880.097	11950
880.224	11954
880.351	11874
880.478	11878
880.605	11855
880.732	11897
880.859	11961
880.986	11882
881.112	11885
881.239	11729
881.366	11672
881.493	11649
881.619	11497
881.746	11615
881.872	11474
881.999	11528
882.125	11535
882.252	11573
882.378	11528
882.505	11589
882.631	11372
882.757	11364
882.883	11395
883.01	11315
883.136	11242
883.262	11128
883.388	11075
883.514	11288
883.64	11197
883.766	11090
883.892	11056
884.018	11018
884.143	11029
884.269	11189
884.395	10892
884.52	10812
884.646	10755
884.772	10706
884.897	10645
885.023	10721
885.148	10748
885.274	10786
885.399	10755
885.524	10634
885.65	10653
885.775	10603
885.9	10500
886.025	10637
886.15	10622
886.275	10459
886.4	10379
886.525	10443
886.65	10367
886.775	10375
886.9	10478
887.025	10535
887.149	10344
887.274	10196
887.399	10242
887.523	10128
887.648	10101
887.773	10135
887.897	10196
888.021	10318
888.146	10120
888.27	10265
888.395	10162
888.519	10265
888.643	10200
888.767	10139
888.891	10097
889.015	10067
889.139	10002
889.263	9953
889.387	10051
889.511	10143
889.635	10116
889.759	10040
889.883	9994
890.006	9930
890.13	10147
890.254	9945
890.377	9934
890.501	9876
890.624	9972
890.748	9854
890.871	9854
890.995	9732
891.118	9747
891.241	9751
891.364	9728
891.488	9774
891.611	9698
891.734	9720
891.857	9831
891.98	9747
892.103	9720
892.226	9736
892.349	9663
892.471	9576
892.594	9557
892.717	9663
892.839	9584
892.962	9576
893.085	9667
893.207	9599
893.33	9526
893.452	9496
893.575	9717
893.697	9526
893.819	9633
893.941	9572
894.064	9606
894.186	9435
894.308	9412
894.43	9534
894.552	9667
894.674	9466
894.796	9401
894.918	9488
895.04	9344
895.161	9363
895.283	9340
895.405	9256
895.526	9344
895.648	9245
895.769	9173
895.891	9374
896.012	9256
896.134	9211
896.255	9230
896.376	9138
896.498	9154
896.619	9150
896.74	9123
896.861	9138
896.982	9287
897.103	9363
897.224	9203
897.345	9097
897.466	9066
897.587	9089
897.708	9173
897.828	9058
897.949	8918
898.07	8925
898.19	8952
898.311	9009
898.431	8975
898.552	8967
898.672	8925
898.792	8967
898.913	8937
899.033	8880
899.153	8769
899.273	8731
899.393	8754
899.513	8777
899.633	8819
899.753	8746
899.873	8667
899.993	8739
900.113	8735
900.232	8712
900.352	8659
900.472	8617
900.591	8579
900.711	8644
900.83	8541
900.95	8716
901.069	8636
901.189	8526
901.308	8446
901.427	8362
901.546	8385
901.665	8480
901.784	8503
901.904	8400
902.023	8339
902.141	8301
902.26	8248
902.379	8263
902.498	8183
902.617	8259
902.735	8309
902.854	8294
902.973	8248
903.091	8138
903.21	8123
903.328	8138
903.446	8096
903.565	8115
903.683	8107
903.801	8058
903.919	8100
904.038	8153
904.156	8035
904.274	8130
904.392	7963
904.51	8088
904.627	8024
904.745	8100
904.863	8077
904.981	7986
905.098	7902
905.216	7826
905.334	7925
905.451	7978
905.569	7864
905.686	7978
905.803	7951
905.921	7822
906.038	7894
906.155	7837
906.272	7738
906.389	7780
906.506	7685
906.623	7605
906.74	7632
906.857	7578
906.974	7632
907.091	7639
907.208	7666
907.324	7677
907.441	7540
907.557	7487
907.674	7499
907.79	7449
907.907	7396
908.023	7529
908.139	7476
908.256	7369
908.372	7354
908.488	7343
908.604	7251
908.72	7232
908.836	7289
908.952	7293
909.068	7350
909.184	7308
909.3	7255
909.415	7305
909.531	7358
909.647	7084
909.762	7137
909.878	7061
909.993	7122
910.108	7053
910.224	7137
910.339	7129
910.454	7057
910.57	7019
910.685	6916
910.8	7149
910.915	7126
911.03	6970
911.145	6973
911.259	6882
911.374	6856
911.489	6852
911.604	6814
911.718	6692
911.833	6730
911.947	6631
912.062	6631
912.176	6707
912.291	6730
912.405	6692
912.519	6878
912.633	6791
912.748	6711
912.862	6768
912.976	6642
913.09	6532
913.204	6612
913.318	6635
913.431	6665
913.545	6681
913.659	6722
913.772	6608
913.886	6639
914	6532
914.113	6612
914.226	6665
914.34	6642
914.453	6471
914.566	6635
914.68	6513
914.793	6513
914.906	6422
915.019	6437
915.132	6391
915.245	6403
915.358	6467
915.47	6464
915.583	6437
915.696	6445
915.809	6525
915.921	6551
916.034	6445
916.146	6391
916.259	6365
916.371	6494
916.483	6452
916.595	6418
916.708	6437
916.82	6372
916.932	6380
917.044	6391
917.156	6433
917.268	6304
917.38	6376
917.491	6399
917.603	6342
917.715	6441
917.826	6441
917.938	6403
918.049	6235
918.161	6338
918.272	6399
918.384	6448
918.495	6361
918.606	6289
918.717	6232
918.828	6369
918.939	6209
919.05	6232
919.161	6239
919.272	6140
919.383	6190
919.494	6262
919.604	6445
919.715	6285
919.826	6247
919.936	6216
920.047	6353
920.157	6243
920.267	6445
920.378	6334
920.488	6292
920.598	6486
920.708	6544
920.818	6475
920.928	6464
921.038	6646
921.148	6585
921.258	6384
921.368	6315
921.477	6220
921.587	6254
921.697	6148
921.806	6220
921.916	6060
922.025	5946
922.134	5916
922.244	5882
922.353	5939
922.462	5832
922.571	5805
922.68	5729
922.789	5680
922.898	5722
923.007	5699
923.116	5726
923.224	5668
923.333	5623
923.442	5630
923.55	5596
923.659	5611
923.767	5608
923.876	5589
923.984	5653
924.092	5501
924.201	5558
924.309	5604
924.417	5570
924.525	5516
924.633	5509
924.741	6125
924.849	5368
924.956	5463
925.064	5402
925.172	5341
925.279	5322
925.387	5364
925.494	5345
925.602	5433
925.709	5425
925.816	5269
925.924	5372
926.031	5318
926.138	5269
926.245	5383
926.352	5239
926.459	5360
926.566	5311
926.673	5235
926.779	5132
926.886	5147
926.993	5071
927.099	5094
927.206	4984
927.312	4968
927.419	5018
927.525	5041
927.631	4995
927.737	4892
927.843	4923
927.95	4774
928.056	4847
928.162	4839
928.267	4858
928.373	5368
928.479	4862
928.585	4691
928.69	4729
928.796	4786
928.901	4733
929.007	4580
929.112	4721
929.218	4668
929.323	4637
929.428	4565
929.533	4729
929.638	4497
929.743	4554
929.848	4618
929.953	4535
930.058	4402
930.163	4356
930.267	4322
930.372	4459
930.477	4287
930.581	4462
930.685	4352
930.79	4219
930.894	4276
930.998	4280
931.103	4405
931.207	4173
931.311	4112
931.415	4044
931.519	3960
931.623	3930
