Data from glass_V78500241_1638.txt Node
Date: Wed Sep 01 19:25:51 CST 2021
User: usil
Spectrometer: V785-0024
Trigger mode: 0
Integration Time (sec): 4.000000E-1
Scans to average: 1
Nonlinearity correction enabled: false
Boxcar width: 0
Storing dark spectrum: false
XAxis mode: Wavelengths
Number of Pixels in Spectrum: 1024
>>>>>Begin Spectral Data<<<<<
801.071	3759
801.214	3770
801.356	3709
801.499	3785
801.641	3641
801.783	3808
801.926	3857
802.068	3846
802.211	3876
802.353	3831
802.496	3816
802.638	3861
802.78	3915
802.923	3941
803.065	3884
803.208	3850
803.35	3854
803.492	3926
803.635	3880
803.777	3770
803.919	3884
804.061	4162
804.204	3937
804.346	3956
804.488	3876
804.63	4036
804.773	3991
804.915	4055
805.057	4135
805.199	4059
805.341	4139
805.483	4093
805.626	4169
805.768	4093
805.91	4192
806.052	4177
806.194	4227
806.336	4371
806.478	4192
806.62	4204
806.762	4181
806.904	4265
807.046	4363
807.188	4261
807.33	4223
807.472	4234
807.614	4207
807.756	4276
807.898	4188
808.04	4188
808.182	4299
808.324	4306
808.465	4322
808.607	4459
808.749	4443
808.891	4440
809.033	4531
809.174	4363
809.316	4261
809.458	4204
809.6	4162
809.741	4162
809.883	4139
810.025	4253
810.166	4261
810.308	4253
810.45	4219
810.591	4242
810.733	4276
810.875	4485
811.016	4873
811.158	5147
811.299	5269
811.441	5284
811.582	5083
811.724	4675
811.865	4474
812.007	4436
812.148	4451
812.29	4413
812.431	4424
812.573	4455
812.714	4360
812.855	4424
812.997	4451
813.138	4466
813.279	4341
813.421	4344
813.562	4398
813.703	4333
813.845	4352
813.986	4291
814.127	4227
814.268	4211
814.41	4272
814.551	4230
814.692	4314
814.833	4261
814.974	4284
815.115	4360
815.256	4261
815.397	4257
815.539	4272
815.68	4192
815.821	4185
815.962	4303
816.103	4253
816.244	4242
816.385	4204
816.526	4356
816.666	4211
816.807	4112
816.948	4211
817.089	4192
817.23	4116
817.371	4067
817.512	4036
817.653	4051
817.793	4013
817.934	4013
818.075	4063
818.216	4112
818.356	4086
818.497	3979
818.638	3907
818.778	3930
818.919	3892
819.06	3857
819.2	3930
819.341	3876
819.481	3865
819.622	3918
819.762	4010
819.903	3949
820.043	3861
820.184	3835
820.324	3778
820.465	3857
820.605	3861
820.746	3876
820.886	3785
821.026	3915
821.167	3911
821.307	3983
821.447	3968
821.588	3956
821.728	3964
821.868	3975
822.008	3850
822.149	3972
822.289	3922
822.429	3778
822.569	3747
822.709	3778
822.849	3701
822.99	3713
823.13	3759
823.27	3816
823.41	3728
823.55	3720
823.69	3698
823.83	3785
823.97	3694
824.11	3584
824.25	3599
824.389	3648
824.529	3622
824.669	3606
824.809	3705
824.949	3732
825.089	3728
825.228	3679
825.368	3591
825.508	3561
825.648	3557
825.787	3587
825.927	3648
826.067	3561
826.206	3675
826.346	3781
826.485	3816
826.625	3896
826.765	3937
826.904	3816
827.044	3606
827.183	3572
827.323	3382
827.462	3496
827.601	3409
827.741	3405
827.88	3435
828.02	3378
828.159	3447
828.298	3507
828.437	3542
828.577	3515
828.716	3622
828.855	3511
828.994	3363
829.134	3382
829.273	3367
829.412	3374
829.551	3313
829.69	3382
829.829	3435
829.968	3542
830.107	3412
830.246	3443
830.385	3397
830.524	3389
830.663	3294
830.802	3249
830.941	3188
831.08	3188
831.219	3272
831.357	3241
831.496	3405
831.635	3230
831.774	3203
831.913	3211
832.051	3142
832.19	3116
832.329	3230
832.467	3157
832.606	3135
832.744	3192
832.883	3173
833.022	3226
833.16	3233
833.299	3291
833.437	3302
833.576	3344
833.714	3424
833.852	3473
833.991	3443
834.129	3443
834.267	3458
834.406	3401
834.544	3477
834.682	3386
834.821	3420
834.959	3580
835.097	3416
835.235	3519
835.373	3458
835.511	3424
835.65	3458
835.788	3466
835.926	3382
836.064	3393
836.202	3397
836.34	3542
836.478	3610
836.615	3542
836.753	3587
836.891	3663
837.029	3660
837.167	3610
837.305	3549
837.443	3572
837.58	3526
837.718	3610
837.856	3572
837.993	3526
838.131	3599
838.269	3603
838.406	3591
838.544	3576
838.681	3431
838.819	3458
838.956	3363
839.094	3348
839.231	3447
839.369	3447
839.506	3728
839.643	3648
839.781	3485
839.918	3454
840.055	3523
840.193	3534
840.33	3564
840.467	3523
840.604	3625
840.742	3800
840.879	3530
841.016	3545
841.153	3606
841.29	3774
841.427	3701
841.564	3690
841.701	3755
841.838	3663
841.975	3660
842.112	3720
842.249	3648
842.385	3584
842.522	3888
842.659	3652
842.796	3667
842.933	3728
843.069	3701
843.206	3701
843.343	3800
843.479	3800
843.616	3804
843.752	3675
843.889	3728
844.025	3823
844.162	3751
844.298	3846
844.435	3800
844.571	3819
844.708	3918
844.844	4013
844.98	4017
845.117	4017
845.253	3949
845.389	3926
845.525	3941
845.661	3983
845.798	3945
845.934	4017
846.07	3945
846.206	4055
846.342	4124
846.478	4071
846.614	3953
846.75	3960
846.886	3926
847.022	4002
847.158	3949
847.294	4006
847.429	4010
847.565	4036
847.701	4219
847.837	3896
847.972	3865
848.108	4006
848.244	3964
848.379	3846
848.515	3838
848.65	3804
848.786	3907
848.921	3876
849.057	3953
849.192	3926
849.328	3896
849.463	3941
849.598	3892
849.734	3884
849.869	3819
850.004	3793
850.14	3808
850.275	3743
850.41	3751
850.545	3740
850.68	3762
850.815	3812
850.95	3778
851.085	3918
851.22	3873
851.355	3831
851.49	3778
851.625	3797
851.76	3766
851.895	3705
852.03	3747
852.165	3766
852.299	3808
852.434	3888
852.569	3918
852.703	3869
852.838	3975
852.973	3991
853.107	3979
853.242	3899
853.376	3880
853.511	3778
853.645	3793
853.78	3998
853.914	3918
854.048	3918
854.183	3899
854.317	3975
854.451	4059
854.585	3953
854.72	3972
854.854	4040
854.988	3949
855.122	3998
855.256	3884
855.39	3987
855.524	4109
855.658	4082
855.792	4059
855.926	4120
856.06	4196
856.194	4196
856.327	4116
856.461	4139
856.595	4185
856.729	4196
856.862	4265
856.996	4253
857.13	4325
857.263	4329
857.397	4390
857.53	4318
857.664	4333
857.797	4379
857.931	4417
858.064	4440
858.197	4432
858.331	4428
858.464	4348
858.597	4310
858.731	4474
858.864	4443
858.997	4447
859.13	4500
859.263	4500
859.396	4580
859.529	4474
859.662	4519
859.795	4489
859.928	4561
860.061	4698
860.194	4706
860.327	4611
860.46	4649
860.592	4706
860.725	4793
860.858	4782
860.99	4683
861.123	4675
861.256	4702
861.388	4740
861.521	5524
861.653	4714
861.786	4691
861.918	4786
862.05	4812
862.183	4831
862.315	4904
862.447	4915
862.58	4858
862.712	4782
862.844	4733
862.976	4885
863.108	4843
863.24	5227
863.372	4805
863.504	4927
863.636	4896
863.768	4911
863.9	4965
864.032	4900
864.164	4946
864.296	4984
864.428	5102
864.559	5124
864.691	5132
864.823	5079
864.954	5094
865.086	5166
865.217	5124
865.349	5083
865.48	5105
865.612	5227
865.743	5258
865.875	5204
866.006	5185
866.137	5212
866.269	5216
866.4	5250
866.531	5242
866.662	5280
866.793	5261
866.924	5296
867.055	5322
867.186	5315
867.317	5376
867.448	5341
867.579	5433
867.71	5307
867.841	5425
867.972	5486
868.103	5463
868.233	5455
868.364	5440
868.495	5543
868.625	5596
868.756	5786
868.886	5623
869.017	5737
869.147	5802
869.278	5809
869.408	5786
869.539	5817
869.669	5935
869.799	5904
869.929	5980
870.06	5996
870.19	6171
870.32	6239
870.45	6258
870.58	6353
870.71	6441
870.84	6441
870.97	6414
871.1	6498
871.23	6654
871.36	6707
871.489	6639
871.619	6730
871.749	6753
871.879	6833
872.008	6947
872.138	6954
872.267	7000
872.397	6996
872.526	7072
872.656	7160
872.785	7202
872.915	7377
873.044	7571
873.173	7533
873.303	7628
873.432	7731
873.561	7875
873.69	7894
873.819	7993
873.948	8195
874.077	8267
874.206	8362
874.335	8423
874.464	8617
874.593	8811
874.722	8929
874.851	9173
874.979	9237
875.108	9329
875.237	9435
875.365	9473
875.494	9614
875.623	9873
875.751	9850
875.88	10032
876.008	10078
876.136	10257
876.265	10474
876.393	10714
876.521	10721
876.65	10793
876.778	10923
876.906	10892
877.034	10919
877.162	11083
877.29	11128
877.418	11345
877.546	11421
877.674	11436
877.802	11448
877.93	11512
878.058	11577
878.185	11539
878.313	11634
878.441	11767
878.568	11752
878.696	11714
878.824	11798
878.951	12019
879.079	12026
879.206	12117
879.333	12072
879.461	12038
879.588	12152
879.715	12034
879.842	12190
879.97	11996
880.097	11889
880.224	11878
880.351	11935
880.478	11878
880.605	11828
880.732	11794
880.859	12038
880.986	11817
881.112	11813
881.239	11653
881.366	11703
881.493	11539
881.619	11600
881.746	11585
881.872	11592
881.999	11551
882.125	11581
882.252	11581
882.378	11429
882.505	11592
882.631	11303
882.757	11284
882.883	11258
883.01	11258
883.136	11170
883.262	11117
883.388	11113
883.514	11181
883.64	11143
883.766	11041
883.892	11003
884.018	10999
884.143	11079
884.269	11121
884.395	10778
884.52	10767
884.646	10862
884.772	10729
884.897	10596
885.023	10668
885.148	10759
885.274	10812
885.399	10774
885.524	10596
885.65	10634
885.775	10668
885.9	10641
886.025	10561
886.15	10569
886.275	10466
886.4	10440
886.525	10379
886.65	10428
886.775	10371
886.9	10459
887.025	10497
887.149	10363
887.274	10227
887.399	10135
887.523	10181
887.648	10147
887.773	10078
887.897	10211
888.021	10249
888.146	10101
888.27	10223
888.395	10177
888.519	10207
888.643	10230
888.767	10147
888.891	10131
889.015	10006
889.139	10067
889.263	10013
889.387	10055
889.511	10154
889.635	10074
889.759	9884
889.883	9972
890.006	9987
890.13	10017
890.254	9987
890.377	9998
890.501	9831
890.624	9838
890.748	9854
890.871	9774
890.995	9774
891.118	9679
891.241	9709
891.364	9751
891.488	9873
891.611	9747
891.734	9755
891.857	9720
891.98	9690
892.103	9812
892.226	9751
892.349	9644
892.471	9568
892.594	9587
892.717	9644
892.839	9591
892.962	9652
893.085	9595
893.207	9637
893.33	9458
893.452	9591
893.575	9660
893.697	9462
893.819	9622
893.941	9625
894.064	9580
894.186	9420
894.308	9382
894.43	9553
894.552	9549
894.674	9549
894.796	9317
894.918	9363
895.04	9310
895.161	9325
895.283	9325
895.405	9268
895.526	9226
895.648	9275
895.769	9256
895.891	9241
896.012	9294
896.134	9268
896.255	9108
896.376	9131
896.498	9195
896.619	9119
896.74	8990
896.861	9077
896.982	9249
897.103	9287
897.224	9131
897.345	9077
897.466	9051
897.587	8979
897.708	9017
897.828	9001
897.949	8982
898.07	8899
898.19	8876
898.311	9028
898.431	8891
898.552	8902
898.672	8937
898.792	8998
898.913	8929
899.033	8807
899.153	8750
899.273	8686
899.393	8724
899.513	8739
899.633	8697
899.753	8769
899.873	8678
899.993	8750
900.113	8636
900.232	8667
900.352	8629
900.472	8632
900.591	8499
900.711	8583
900.83	8507
900.95	8659
901.069	8670
901.189	8564
901.308	8465
901.427	8396
901.546	8423
901.665	8431
901.784	8434
901.904	8457
902.023	8347
902.141	8233
902.26	8229
902.379	8301
902.498	8229
902.617	8206
902.735	8279
902.854	8221
902.973	8339
903.091	8130
903.21	8142
903.328	8149
903.446	8142
903.565	8065
903.683	8119
903.801	8069
903.919	8172
904.038	8119
904.156	8069
904.274	8081
904.392	7974
904.51	8062
904.627	8001
904.745	8050
904.863	8046
904.981	7879
905.098	7856
905.216	7841
905.334	7860
905.451	7849
905.569	7890
905.686	7875
905.803	7906
905.921	7814
906.038	7830
906.155	7822
906.272	7803
906.389	7712
906.506	7651
906.623	7696
906.74	7601
906.857	7575
906.974	7594
907.091	7655
907.208	7696
907.324	7681
907.441	7586
907.557	7430
907.674	7453
907.79	7384
907.907	7438
908.023	7422
908.139	7457
908.256	7457
908.372	7419
908.488	7320
908.604	7236
908.72	7244
908.836	7301
908.952	7221
909.068	7259
909.184	7339
909.3	7270
909.415	7289
909.531	7259
909.647	7023
909.762	7095
909.878	7103
909.993	7122
910.108	7088
910.224	7053
910.339	7057
910.454	7012
910.57	6970
910.685	6977
910.8	7255
910.915	7084
911.03	7012
911.145	6928
911.259	6894
911.374	6875
911.489	6810
911.604	6783
911.718	6730
911.833	6772
911.947	6589
912.062	6612
912.176	6715
912.291	6696
912.405	6681
912.519	6852
912.633	6825
912.748	6753
912.862	6700
912.976	6620
913.09	6540
913.204	6589
913.318	6662
913.431	6665
913.545	6681
913.659	6684
913.772	6677
913.886	6536
914	6490
914.113	6620
914.226	6601
914.34	6597
914.453	6422
914.566	6604
914.68	6433
914.793	6509
914.906	6426
915.019	6365
915.132	6350
915.245	6353
915.358	6448
915.47	6429
915.583	6418
915.696	6532
915.809	6486
915.921	6570
916.034	6445
916.146	6498
916.259	6395
916.371	6475
916.483	6456
916.595	6448
916.708	6407
916.82	6395
916.932	6369
917.044	6365
917.156	6403
917.268	6338
917.38	6376
917.491	6323
917.603	6380
917.715	6395
917.826	6369
917.938	6338
918.049	6277
918.161	6395
918.272	6422
918.384	6467
918.495	6395
918.606	6296
918.717	6175
918.828	6262
918.939	6308
919.05	6289
919.161	6308
919.272	6148
919.383	6144
919.494	6270
919.604	6384
919.715	6292
919.826	6243
919.936	6216
920.047	6361
920.157	6254
920.267	6441
920.378	6315
920.488	6235
920.598	6441
920.708	6555
920.818	6456
920.928	6407
921.038	6574
921.148	6589
921.258	6353
921.368	6285
921.477	6190
921.587	6144
921.697	6102
921.806	6213
921.916	6102
922.025	5965
922.134	5882
922.244	5931
922.353	5920
922.462	5813
922.571	5828
922.68	5733
922.789	5729
922.898	5710
923.007	5676
923.116	5710
923.224	5672
923.333	5623
923.442	5600
923.55	5535
923.659	5596
923.767	5646
923.876	5551
923.984	5592
924.092	5532
924.201	5524
924.309	5535
924.417	5554
924.525	5474
924.633	5509
924.741	6296
924.849	5395
924.956	5474
925.064	5436
925.172	5307
925.279	5273
925.387	5364
925.494	5326
925.602	5387
925.709	5421
925.816	5292
925.924	5360
926.031	5440
926.138	5326
926.245	5326
926.352	5220
926.459	5311
926.566	5337
926.673	5178
926.779	5132
926.886	5113
926.993	5067
927.099	5018
927.206	4980
927.312	4934
927.419	5022
927.525	4984
927.631	4976
927.737	4923
927.843	4877
927.95	4759
928.056	4786
928.162	4816
928.267	4839
928.373	5318
928.479	4801
928.585	4691
928.69	4778
928.796	4782
928.901	4706
929.007	4588
929.112	4664
929.218	4637
929.323	4584
929.428	4573
929.533	4622
929.638	4523
929.743	4535
929.848	4569
929.953	4493
930.058	4421
930.163	4348
930.267	4344
930.372	4409
930.477	4295
930.581	4470
930.685	4360
930.79	4249
930.894	4299
930.998	4261
931.103	4379
931.207	4112
931.311	4055
931.415	4044
931.519	3926
931.623	3964
