Data from glass_V78500241_2536.txt Node
Date: Wed Sep 01 19:32:04 CST 2021
User: usil
Spectrometer: V785-0024
Trigger mode: 0
Integration Time (sec): 4.000000E-1
Scans to average: 1
Nonlinearity correction enabled: false
Boxcar width: 0
Storing dark spectrum: false
XAxis mode: Wavelengths
Number of Pixels in Spectrum: 1024
>>>>>Begin Spectral Data<<<<<
801.071	3736
801.214	3747
801.356	3694
801.499	3728
801.641	3713
801.783	3770
801.926	3876
802.068	3857
802.211	3827
802.353	3873
802.496	3846
802.638	3865
802.78	3907
802.923	3918
803.065	3896
803.208	3846
803.35	3850
803.492	3896
803.635	3922
803.777	3770
803.919	3865
804.061	4135
804.204	3926
804.346	3918
804.488	3949
804.63	3972
804.773	3953
804.915	4006
805.057	4109
805.199	4040
805.341	4093
805.483	4116
805.626	4078
805.768	4067
805.91	4192
806.052	4192
806.194	4192
806.336	4306
806.478	4219
806.62	4147
806.762	4196
806.904	4230
807.046	4337
807.188	4204
807.33	4166
807.472	4257
807.614	4246
807.756	4299
807.898	4147
808.04	4227
808.182	4230
808.324	4268
808.465	4371
808.607	4470
808.749	4424
808.891	4462
809.033	4500
809.174	4360
809.316	4238
809.458	4276
809.6	4139
809.741	4166
809.883	4143
810.025	4207
810.166	4188
810.308	4173
810.45	4196
810.591	4253
810.733	4246
810.875	4504
811.016	4816
811.158	5056
811.299	5235
811.441	5326
811.582	5086
811.724	4691
811.865	4485
812.007	4440
812.148	4440
812.29	4443
812.431	4459
812.573	4421
812.714	4386
812.855	4360
812.997	4455
813.138	4474
813.279	4386
813.421	4405
813.562	4344
813.703	4356
813.845	4303
813.986	4280
814.127	4246
814.268	4272
814.41	4246
814.551	4257
814.692	4322
814.833	4242
814.974	4299
815.115	4280
815.256	4242
815.397	4181
815.539	4219
815.68	4207
815.821	4211
815.962	4299
816.103	4280
816.244	4230
816.385	4230
816.526	4318
816.666	4188
816.807	4078
816.948	4166
817.089	4162
817.23	4112
817.371	4055
817.512	4067
817.653	4044
817.793	4040
817.934	4055
818.075	4105
818.216	4086
818.356	4067
818.497	3979
818.638	3956
818.778	3945
818.919	3873
819.06	3857
819.2	3903
819.341	3854
819.481	3819
819.622	3926
819.762	3972
819.903	3945
820.043	3823
820.184	3800
820.324	3854
820.465	3884
820.605	3842
820.746	3816
820.886	3800
821.026	3911
821.167	3899
821.307	3975
821.447	3964
821.588	3972
821.728	3956
821.868	3907
822.008	3842
822.149	3876
822.289	3903
822.429	3785
822.569	3774
822.709	3800
822.849	3713
822.99	3717
823.13	3720
823.27	3747
823.41	3667
823.55	3701
823.69	3690
823.83	3728
823.97	3652
824.11	3591
824.25	3599
824.389	3629
824.529	3618
824.669	3644
824.809	3690
824.949	3766
825.089	3728
825.228	3644
825.368	3538
825.508	3553
825.648	3553
825.787	3576
825.927	3580
826.067	3599
826.206	3652
826.346	3793
826.485	3842
826.625	3854
826.765	3911
826.904	3842
827.044	3614
827.183	3534
827.323	3409
827.462	3496
827.601	3382
827.741	3412
827.88	3420
828.02	3393
828.159	3454
828.298	3500
828.437	3511
828.577	3481
828.716	3606
828.855	3492
828.994	3374
829.134	3363
829.273	3389
829.412	3336
829.551	3298
829.69	3351
829.829	3435
829.968	3545
830.107	3439
830.246	3454
830.385	3336
830.524	3389
830.663	3291
830.802	3283
830.941	3184
831.08	3192
831.219	3260
831.357	3233
831.496	3389
831.635	3207
831.774	3188
831.913	3157
832.051	3116
832.19	3100
832.329	3199
832.467	3116
832.606	3077
832.744	3180
832.883	3154
833.022	3203
833.16	3260
833.299	3306
833.437	3283
833.576	3393
833.714	3435
833.852	3389
833.991	3485
834.129	3424
834.267	3420
834.406	3374
834.544	3409
834.682	3439
834.821	3382
834.959	3580
835.097	3393
835.235	3530
835.373	3473
835.511	3466
835.65	3435
835.788	3492
835.926	3405
836.064	3397
836.202	3363
836.34	3587
836.478	3564
836.615	3523
836.753	3587
836.891	3641
837.029	3622
837.167	3584
837.305	3526
837.443	3519
837.58	3511
837.718	3622
837.856	3587
837.993	3504
838.131	3591
838.269	3576
838.406	3568
838.544	3564
838.681	3462
838.819	3466
838.956	3393
839.094	3389
839.231	3416
839.369	3504
839.506	3686
839.643	3633
839.781	3477
839.918	3420
840.055	3538
840.193	3485
840.33	3496
840.467	3545
840.604	3584
840.742	3789
840.879	3519
841.016	3549
841.153	3603
841.29	3736
841.427	3667
841.564	3713
841.701	3720
841.838	3694
841.975	3663
842.112	3686
842.249	3625
842.385	3610
842.522	3797
842.659	3660
842.796	3637
842.933	3701
843.069	3747
843.206	3717
843.343	3785
843.479	3747
843.616	3838
843.752	3637
843.889	3698
844.025	3842
844.162	3690
844.298	3823
844.435	3778
844.571	3740
844.708	3896
844.844	4017
844.98	4017
845.117	3979
845.253	3926
845.389	3926
845.525	3926
845.661	3975
845.798	3903
845.934	4002
846.07	3953
846.206	4040
846.342	4139
846.478	4071
846.614	3934
846.75	3945
846.886	3926
847.022	4017
847.158	3930
847.294	3983
847.429	3987
847.565	3991
847.701	4253
847.837	3888
847.972	3865
848.108	4013
848.244	3918
848.379	3861
848.515	3778
848.65	3778
848.786	3865
848.921	3865
849.057	3934
849.192	3918
849.328	3918
849.463	3911
849.598	3869
849.734	3861
849.869	3831
850.004	3774
850.14	3785
850.275	3770
850.41	3717
850.545	3778
850.68	3724
850.815	3816
850.95	3751
851.085	3907
851.22	3873
851.355	3838
851.49	3770
851.625	3793
851.76	3823
851.895	3728
852.03	3686
852.165	3755
852.299	3827
852.434	3899
852.569	3846
852.703	3899
852.838	3945
852.973	3972
853.107	3998
853.242	3873
853.376	3869
853.511	3781
853.645	3842
853.78	3960
853.914	3865
854.048	3873
854.183	3892
854.317	3899
854.451	4071
854.585	3926
854.72	3922
854.854	4002
854.988	3964
855.122	4013
855.256	3876
855.39	3975
855.524	4143
855.658	4097
855.792	4097
855.926	4124
856.06	4128
856.194	4169
856.327	4173
856.461	4086
856.595	4101
856.729	4188
856.862	4280
856.996	4238
857.13	4314
857.263	4303
857.397	4341
857.53	4234
857.664	4344
857.797	4375
857.931	4386
858.064	4421
858.197	4451
858.331	4417
858.464	4348
858.597	4310
858.731	4402
858.864	4443
858.997	4455
859.13	4466
859.263	4554
859.396	4558
859.529	4500
859.662	4523
859.795	4565
859.928	4622
860.061	4672
860.194	4725
860.327	4668
860.46	4641
860.592	4736
860.725	4767
860.858	4752
860.99	4656
861.123	4725
861.256	4714
861.388	4778
861.521	5410
861.653	4736
861.786	4687
861.918	4748
862.05	4809
862.183	4820
862.315	4850
862.447	4961
862.58	4862
862.712	4771
862.844	4763
862.976	4858
863.108	4877
863.24	5174
863.372	4835
863.504	4889
863.636	4919
863.768	4946
863.9	4965
864.032	4900
864.164	4957
864.296	5003
864.428	5083
864.559	5128
864.691	5109
864.823	5124
864.954	5124
865.086	5147
865.217	5109
865.349	5090
865.48	5155
865.612	5231
865.743	5277
865.875	5140
866.006	5197
866.137	5220
866.269	5223
866.4	5220
866.531	5208
866.662	5212
866.793	5273
866.924	5265
867.055	5334
867.186	5277
867.317	5387
867.448	5265
867.579	5357
867.71	5368
867.841	5360
867.972	5421
868.103	5493
868.233	5467
868.364	5493
868.495	5566
868.625	5649
868.756	5779
868.886	5672
869.017	5688
869.147	5794
869.278	5813
869.408	5817
869.539	5783
869.669	5878
869.799	5904
869.929	5954
870.06	6007
870.19	6273
870.32	6186
870.45	6251
870.58	6388
870.71	6384
870.84	6532
870.97	6414
871.1	6448
871.23	6620
871.36	6665
871.489	6703
871.619	6707
871.749	6768
871.879	6779
872.008	6951
872.138	6932
872.267	7004
872.397	7004
872.526	7008
872.656	7114
872.785	7225
872.915	7346
873.044	7483
873.173	7582
873.303	7559
873.432	7795
873.561	7818
873.69	7845
873.819	7989
873.948	8187
874.077	8244
874.206	8298
874.335	8374
874.464	8625
874.593	8845
874.722	8853
874.851	9066
874.979	9195
875.108	9336
875.237	9310
875.365	9428
875.494	9667
875.623	9861
875.751	9823
875.88	9975
876.008	10158
876.136	10246
876.265	10485
876.393	10645
876.521	10778
876.65	10786
876.778	10801
876.906	10900
877.034	10972
877.162	11086
877.29	11155
877.418	11296
877.546	11372
877.674	11505
877.802	11448
877.93	11471
878.058	11566
878.185	11558
878.313	11661
878.441	11741
878.568	11707
878.696	11771
878.824	11828
878.951	11904
879.079	12072
879.206	12091
879.333	12007
879.461	11996
879.588	12053
879.715	12068
879.842	12182
879.97	12045
880.097	11821
880.224	11809
880.351	11855
880.478	11923
880.605	11821
880.732	11828
880.859	11977
880.986	11771
881.112	11805
881.239	11718
881.366	11695
881.493	11589
881.619	11543
881.746	11600
881.872	11512
881.999	11551
882.125	11501
882.252	11520
882.378	11547
882.505	11589
882.631	11296
882.757	11265
882.883	11242
883.01	11212
883.136	11178
883.262	11178
883.388	11083
883.514	11143
883.64	11201
883.766	11102
883.892	10976
884.018	11022
884.143	11041
884.269	11083
884.395	10900
884.52	10748
884.646	10694
884.772	10740
884.897	10637
885.023	10607
885.148	10691
885.274	10698
885.399	10755
885.524	10649
885.65	10618
885.775	10577
885.9	10596
886.025	10577
886.15	10588
886.275	10386
886.4	10394
886.525	10409
886.65	10356
886.775	10379
886.9	10421
887.025	10512
887.149	10432
887.274	10215
887.399	10158
887.523	10185
887.648	10181
887.773	10162
887.897	10181
888.021	10242
888.146	10105
888.27	10173
888.395	10147
888.519	10147
888.643	10169
888.767	10173
888.891	10040
889.015	10013
889.139	10021
889.263	9968
889.387	10067
889.511	10101
889.635	10055
889.759	9941
889.883	10040
890.006	9998
890.13	10032
890.254	9922
890.377	9953
890.501	9876
890.624	9785
890.748	9850
890.871	9850
890.995	9827
891.118	9720
891.241	9740
891.364	9709
891.488	9804
891.611	9694
891.734	9774
891.857	9747
891.98	9671
892.103	9793
892.226	9656
892.349	9599
892.471	9450
892.594	9549
892.717	9557
892.839	9599
892.962	9618
893.085	9648
893.207	9523
893.33	9542
893.452	9572
893.575	9667
893.697	9477
893.819	9599
893.941	9717
894.064	9584
894.186	9454
894.308	9428
894.43	9496
894.552	9526
894.674	9545
894.796	9397
894.918	9317
895.04	9325
895.161	9386
895.283	9359
895.405	9226
895.526	9317
895.648	9268
895.769	9283
895.891	9283
896.012	9268
896.134	9237
896.255	9146
896.376	9089
896.498	9176
896.619	9108
896.74	9081
896.861	9123
896.982	9291
897.103	9321
897.224	9245
897.345	9043
897.466	8941
897.587	8998
897.708	9055
897.828	9047
897.949	8899
898.07	8906
898.19	8876
898.311	8971
898.431	8861
898.552	8925
898.672	8975
898.792	8902
898.913	8921
899.033	8838
899.153	8689
899.273	8640
899.393	8720
899.513	8758
899.633	8678
899.753	8769
899.873	8693
899.993	8716
900.113	8674
900.232	8739
900.352	8648
900.472	8590
900.591	8560
900.711	8667
900.83	8568
900.95	8689
901.069	8735
901.189	8556
901.308	8370
901.427	8434
901.546	8442
901.665	8381
901.784	8431
901.904	8290
902.023	8336
902.141	8221
902.26	8172
902.379	8305
902.498	8225
902.617	8183
902.735	8271
902.854	8248
902.973	8229
903.091	8123
903.21	8119
903.328	8206
903.446	8077
903.565	8077
903.683	8149
903.801	7993
903.919	8092
904.038	8084
904.156	8008
904.274	8084
904.392	8054
904.51	8046
904.627	8081
904.745	8092
904.863	8073
904.981	7921
905.098	7871
905.216	7887
905.334	7951
905.451	7902
905.569	7852
905.686	7917
905.803	7928
905.921	7746
906.038	7841
906.155	7780
906.272	7704
906.389	7616
906.506	7685
906.623	7643
906.74	7578
906.857	7510
906.974	7636
907.091	7647
907.208	7757
907.324	7662
907.441	7624
907.557	7445
907.674	7434
907.79	7373
907.907	7373
908.023	7483
908.139	7502
908.256	7354
908.372	7305
908.488	7381
908.604	7274
908.72	7225
908.836	7236
908.952	7255
909.068	7343
909.184	7301
909.3	7240
909.415	7308
909.531	7293
909.647	7099
909.762	7129
909.878	7088
909.993	7152
910.108	7084
910.224	7042
910.339	7072
910.454	7038
910.57	7015
910.685	6928
910.8	7202
910.915	7084
911.03	7034
911.145	6924
911.259	6825
911.374	6837
911.489	6802
911.604	6745
911.718	6753
911.833	6772
911.947	6669
912.062	6578
912.176	6726
912.291	6658
912.405	6688
912.519	6760
912.633	6821
912.748	6722
912.862	6673
912.976	6604
913.09	6551
913.204	6559
913.318	6631
913.431	6639
913.545	6623
913.659	6711
913.772	6585
913.886	6563
914	6566
914.113	6555
914.226	6646
914.34	6563
914.453	6513
914.566	6642
914.68	6448
914.793	6498
914.906	6399
915.019	6426
915.132	6346
915.245	6399
915.358	6437
915.47	6471
915.583	6429
915.696	6399
915.809	6506
915.921	6475
916.034	6414
916.146	6452
916.259	6395
916.371	6490
916.483	6460
916.595	6384
916.708	6384
916.82	6384
916.932	6338
917.044	6418
917.156	6346
917.268	6281
917.38	6323
917.491	6311
917.603	6342
917.715	6391
917.826	6372
917.938	6372
918.049	6213
918.161	6350
918.272	6376
918.384	6460
918.495	6300
918.606	6228
918.717	6182
918.828	6254
918.939	6273
919.05	6220
919.161	6296
919.272	6121
919.383	6133
919.494	6353
919.604	6418
919.715	6262
919.826	6270
919.936	6254
920.047	6327
920.157	6247
920.267	6422
920.378	6338
920.488	6285
920.598	6456
920.708	6532
920.818	6502
920.928	6486
921.038	6612
921.148	6566
921.258	6315
921.368	6273
921.477	6159
921.587	6152
921.697	6030
921.806	6136
921.916	6098
922.025	5912
922.134	5859
922.244	5851
922.353	5885
922.462	5859
922.571	5798
922.68	5714
922.789	5722
922.898	5649
923.007	5600
923.116	5699
923.224	5596
923.333	5691
923.442	5604
923.55	5566
923.659	5577
923.767	5608
923.876	5501
923.984	5634
924.092	5512
924.201	5516
924.309	5547
924.417	5539
924.525	5455
924.633	5520
924.741	6213
924.849	5353
924.956	5520
925.064	5345
925.172	5288
925.279	5284
925.387	5322
925.494	5341
925.602	5406
925.709	5322
925.816	5296
925.924	5299
926.031	5307
926.138	5307
926.245	5254
926.352	5223
926.459	5273
926.566	5299
926.673	5235
926.779	5124
926.886	5105
926.993	5041
927.099	5010
927.206	4995
927.312	4934
927.419	5010
927.525	5006
927.631	4968
927.737	4896
927.843	4843
927.95	4801
928.056	4850
928.162	4862
928.267	4866
928.373	5269
928.479	4900
928.585	4710
928.69	4736
928.796	4763
928.901	4641
929.007	4615
929.112	4702
929.218	4656
929.323	4607
929.428	4630
929.533	4649
929.638	4493
929.743	4519
929.848	4546
929.953	4512
930.058	4432
930.163	4287
930.267	4337
930.372	4455
930.477	4344
930.581	4489
930.685	4344
930.79	4219
930.894	4246
930.998	4230
931.103	4356
931.207	4112
931.311	4082
931.415	4002
931.519	3918
931.623	3979
