Data from glass_V78500241_2568.txt Node
Date: Wed Sep 01 19:32:18 CST 2021
User: usil
Spectrometer: V785-0024
Trigger mode: 0
Integration Time (sec): 4.000000E-1
Scans to average: 1
Nonlinearity correction enabled: false
Boxcar width: 0
Storing dark spectrum: false
XAxis mode: Wavelengths
Number of Pixels in Spectrum: 1024
>>>>>Begin Spectral Data<<<<<
801.071	3728
801.214	3781
801.356	3682
801.499	3701
801.641	3755
801.783	3797
801.926	3812
802.068	3804
802.211	3827
802.353	3903
802.496	3819
802.638	3846
802.78	3892
802.923	3922
803.065	3854
803.208	3854
803.35	3854
803.492	3888
803.635	3922
803.777	3785
803.919	3899
804.061	4143
804.204	3941
804.346	3945
804.488	3941
804.63	4067
804.773	3975
804.915	4029
805.057	4124
805.199	3998
805.341	4093
805.483	4116
805.626	4131
805.768	4147
805.91	4223
806.052	4177
806.194	4192
806.336	4337
806.478	4166
806.62	4158
806.762	4192
806.904	4246
807.046	4344
807.188	4204
807.33	4192
807.472	4227
807.614	4204
807.756	4234
807.898	4207
808.04	4169
808.182	4280
808.324	4325
808.465	4375
808.607	4500
808.749	4398
808.891	4459
809.033	4500
809.174	4436
809.316	4280
809.458	4227
809.6	4169
809.741	4139
809.883	4105
810.025	4200
810.166	4200
810.308	4272
810.45	4207
810.591	4230
810.733	4295
810.875	4504
811.016	4797
811.158	5174
811.299	5288
811.441	5254
811.582	5056
811.724	4630
811.865	4459
812.007	4497
812.148	4436
812.29	4405
812.431	4390
812.573	4409
812.714	4341
812.855	4356
812.997	4428
813.138	4504
813.279	4428
813.421	4405
813.562	4383
813.703	4299
813.845	4337
813.986	4227
814.127	4192
814.268	4272
814.41	4287
814.551	4257
814.692	4310
814.833	4268
814.974	4272
815.115	4325
815.256	4238
815.397	4238
815.539	4265
815.68	4173
815.821	4261
815.962	4299
816.103	4253
816.244	4230
816.385	4181
816.526	4257
816.666	4196
816.807	4078
816.948	4143
817.089	4173
817.23	4082
817.371	4059
817.512	4017
817.653	4067
817.793	4044
817.934	4055
818.075	4143
818.216	4044
818.356	4071
818.497	3987
818.638	3911
818.778	3907
818.919	3880
819.06	3857
819.2	3941
819.341	3816
819.481	3823
819.622	3911
819.762	3983
819.903	3941
820.043	3850
820.184	3888
820.324	3831
820.465	3873
820.605	3835
820.746	3888
820.886	3797
821.026	3934
821.167	3915
821.307	3915
821.447	3975
821.588	3934
821.728	3941
821.868	3937
822.008	3865
822.149	3857
822.289	3896
822.429	3736
822.569	3759
822.709	3762
822.849	3713
822.99	3724
823.13	3732
823.27	3759
823.41	3694
823.55	3747
823.69	3690
823.83	3770
823.97	3648
824.11	3557
824.25	3587
824.389	3614
824.529	3709
824.669	3610
824.809	3724
824.949	3762
825.089	3781
825.228	3686
825.368	3584
825.508	3526
825.648	3595
825.787	3587
825.927	3599
826.067	3603
826.206	3622
826.346	3781
826.485	3854
826.625	3865
826.765	3911
826.904	3812
827.044	3599
827.183	3545
827.323	3454
827.462	3488
827.601	3393
827.741	3420
827.88	3447
828.02	3370
828.159	3450
828.298	3443
828.437	3530
828.577	3473
828.716	3599
828.855	3454
828.994	3370
829.134	3367
829.273	3370
829.412	3310
829.551	3310
829.69	3374
829.829	3416
829.968	3481
830.107	3401
830.246	3405
830.385	3367
830.524	3313
830.663	3321
830.802	3226
830.941	3188
831.08	3192
831.219	3268
831.357	3268
831.496	3397
831.635	3230
831.774	3192
831.913	3184
832.051	3112
832.19	3161
832.329	3195
832.467	3108
832.606	3116
832.744	3157
832.883	3192
833.022	3150
833.16	3233
833.299	3332
833.437	3367
833.576	3336
833.714	3389
833.852	3420
833.991	3412
834.129	3458
834.267	3424
834.406	3367
834.544	3412
834.682	3428
834.821	3374
834.959	3542
835.097	3393
835.235	3526
835.373	3507
835.511	3488
835.65	3431
835.788	3481
835.926	3416
836.064	3363
836.202	3393
836.34	3595
836.478	3580
836.615	3545
836.753	3606
836.891	3656
837.029	3595
837.167	3561
837.305	3572
837.443	3488
837.58	3492
837.718	3618
837.856	3538
837.993	3469
838.131	3576
838.269	3553
838.406	3553
838.544	3576
838.681	3466
838.819	3454
838.956	3397
839.094	3351
839.231	3420
839.369	3477
839.506	3682
839.643	3663
839.781	3469
839.918	3477
840.055	3538
840.193	3534
840.33	3511
840.467	3545
840.604	3557
840.742	3789
840.879	3553
841.016	3603
841.153	3576
841.29	3740
841.427	3720
841.564	3701
841.701	3679
841.838	3717
841.975	3641
842.112	3701
842.249	3648
842.385	3614
842.522	3797
842.659	3713
842.796	3648
842.933	3709
843.069	3679
843.206	3682
843.343	3808
843.479	3732
843.616	3808
843.752	3660
843.889	3671
844.025	3865
844.162	3732
844.298	3854
844.435	3740
844.571	3781
844.708	3896
844.844	3949
844.98	3983
845.117	3979
845.253	3953
845.389	3918
845.525	4002
845.661	3934
845.798	3911
845.934	3994
846.07	3945
846.206	4044
846.342	4082
846.478	4067
846.614	3975
846.75	3926
846.886	3918
847.022	4010
847.158	3983
847.294	3983
847.429	4010
847.565	4036
847.701	4207
847.837	3896
847.972	3850
848.108	3972
848.244	4010
848.379	3816
848.515	3762
848.65	3762
848.786	3816
848.921	3831
849.057	3865
849.192	3941
849.328	3835
849.463	3915
849.598	3892
849.734	3869
849.869	3831
850.004	3808
850.14	3797
850.275	3774
850.41	3755
850.545	3755
850.68	3736
850.815	3827
850.95	3797
851.085	3899
851.22	3896
851.355	3854
851.49	3785
851.625	3770
851.76	3800
851.895	3720
852.03	3717
852.165	3789
852.299	3880
852.434	3896
852.569	3808
852.703	3926
852.838	3865
852.973	3960
853.107	4002
853.242	3842
853.376	3838
853.511	3740
853.645	3808
853.78	4002
853.914	3896
854.048	3911
854.183	3892
854.317	3953
854.451	4013
854.585	3945
854.72	3949
854.854	4032
854.988	3937
855.122	3987
855.256	3937
855.39	3991
855.524	4048
855.658	4086
855.792	4135
855.926	4124
856.06	4128
856.194	4150
856.327	4128
856.461	4101
856.595	4109
856.729	4150
856.862	4287
856.996	4219
857.13	4344
857.263	4325
857.397	4367
857.53	4265
857.664	4348
857.797	4413
857.931	4383
858.064	4390
858.197	4443
858.331	4386
858.464	4367
858.597	4322
858.731	4405
858.864	4421
858.997	4455
859.13	4516
859.263	4542
859.396	4550
859.529	4504
859.662	4542
859.795	4489
859.928	4596
860.061	4702
860.194	4698
860.327	4672
860.46	4588
860.592	4710
860.725	4733
860.858	4790
860.99	4641
861.123	4717
861.256	4683
861.388	4774
861.521	5372
861.653	4679
861.786	4694
861.918	4748
862.05	4763
862.183	4824
862.315	4873
862.447	4911
862.58	4904
862.712	4793
862.844	4736
862.976	4889
863.108	4850
863.24	5166
863.372	4839
863.504	4873
863.636	4873
863.768	4991
863.9	5010
864.032	4904
864.164	4965
864.296	5052
864.428	5064
864.559	5075
864.691	5109
864.823	5105
864.954	5113
865.086	5079
865.217	5113
865.349	5075
865.48	5174
865.612	5189
865.743	5284
865.875	5178
866.006	5155
866.137	5250
866.269	5250
866.4	5299
866.531	5220
866.662	5258
866.793	5231
866.924	5246
867.055	5334
867.186	5246
867.317	5337
867.448	5334
867.579	5357
867.71	5349
867.841	5421
867.972	5486
868.103	5433
868.233	5501
868.364	5520
868.495	5532
868.625	5668
868.756	5794
868.886	5642
869.017	5688
869.147	5851
869.278	5866
869.408	5805
869.539	5783
869.669	5969
869.799	5882
869.929	6019
870.06	5999
870.19	6182
870.32	6197
870.45	6292
870.58	6319
870.71	6441
870.84	6410
870.97	6384
871.1	6452
871.23	6585
871.36	6650
871.489	6646
871.619	6768
871.749	6825
871.879	6848
872.008	6977
872.138	6985
872.267	7012
872.397	6951
872.526	7004
872.656	7057
872.785	7206
872.915	7308
873.044	7430
873.173	7620
873.303	7544
873.432	7723
873.561	7883
873.69	7967
873.819	8008
873.948	8206
874.077	8195
874.206	8324
874.335	8431
874.464	8568
874.593	8887
874.722	8872
874.851	9104
874.979	9241
875.108	9351
875.237	9416
875.365	9435
875.494	9663
875.623	9808
875.751	9781
875.88	10059
876.008	10154
876.136	10272
876.265	10474
876.393	10649
876.521	10706
876.65	10782
876.778	10771
876.906	10946
877.034	10968
877.162	11018
877.29	11193
877.418	11258
877.546	11322
877.674	11448
877.802	11467
877.93	11482
878.058	11478
878.185	11558
878.313	11745
878.441	11737
878.568	11710
878.696	11798
878.824	11836
878.951	11920
879.079	11961
879.206	12057
879.333	12030
879.461	12053
879.588	12129
879.715	12068
879.842	12235
879.97	12053
880.097	11813
880.224	11866
880.351	11885
880.478	11893
880.605	11851
880.732	11824
880.859	11923
880.986	11745
881.112	11878
881.239	11722
881.366	11688
881.493	11642
881.619	11562
881.746	11585
881.872	11573
881.999	11505
882.125	11429
882.252	11512
882.378	11482
882.505	11566
882.631	11372
882.757	11280
882.883	11318
883.01	11273
883.136	11105
883.262	11132
883.388	11052
883.514	11231
883.64	11075
883.766	11117
883.892	11033
884.018	11052
884.143	11094
884.269	11181
884.395	10805
884.52	10744
884.646	10672
884.772	10630
884.897	10656
885.023	10649
885.148	10672
885.274	10763
885.399	10679
885.524	10668
885.65	10626
885.775	10649
885.9	10523
886.025	10607
886.15	10497
886.275	10462
886.4	10348
886.525	10398
886.65	10341
886.775	10333
886.9	10500
887.025	10584
887.149	10382
887.274	10249
887.399	10295
887.523	10154
887.648	10124
887.773	10120
887.897	10230
888.021	10215
888.146	10093
888.27	10291
888.395	10287
888.519	10147
888.643	10158
888.767	10196
888.891	10036
889.015	10032
889.139	10021
889.263	9979
889.387	10074
889.511	10093
889.635	10090
889.759	9968
889.883	10025
890.006	9968
890.13	10071
890.254	9903
890.377	9930
890.501	9926
890.624	9846
890.748	9880
890.871	9770
890.995	9766
891.118	9698
891.241	9770
891.364	9781
891.488	9888
891.611	9663
891.734	9724
891.857	9804
891.98	9766
892.103	9724
892.226	9705
892.349	9644
892.471	9473
892.594	9553
892.717	9488
892.839	9599
892.962	9557
893.085	9637
893.207	9553
893.33	9511
893.452	9526
893.575	9614
893.697	9549
893.819	9671
893.941	9595
894.064	9576
894.186	9447
894.308	9382
894.43	9526
894.552	9580
894.674	9515
894.796	9458
894.918	9447
895.04	9363
895.161	9294
895.283	9359
895.405	9222
895.526	9203
895.648	9218
895.769	9237
895.891	9226
896.012	9264
896.134	9108
896.255	9173
896.376	9188
896.498	9169
896.619	9138
896.74	9089
896.861	9043
896.982	9226
897.103	9348
897.224	9127
897.345	9020
897.466	8975
897.587	9036
897.708	9104
897.828	9017
897.949	8925
898.07	8895
898.19	8845
898.311	8933
898.431	8902
898.552	8895
898.672	8975
898.792	8952
898.913	8899
899.033	8819
899.153	8781
899.273	8693
899.393	8678
899.513	8781
899.633	8712
899.753	8781
899.873	8693
899.993	8746
900.113	8663
900.232	8743
900.352	8663
900.472	8606
900.591	8545
900.711	8682
900.83	8560
900.95	8682
901.069	8686
901.189	8629
901.308	8473
901.427	8374
901.546	8446
901.665	8434
901.784	8530
901.904	8389
902.023	8332
902.141	8225
902.26	8210
902.379	8290
902.498	8229
902.617	8187
902.735	8263
902.854	8294
902.973	8221
903.091	8149
903.21	8062
903.328	8202
903.446	8134
903.565	8065
903.683	8058
903.801	7986
903.919	8164
904.038	8183
904.156	8084
904.274	8012
904.392	8043
904.51	8035
904.627	8001
904.745	8046
904.863	8054
904.981	7875
905.098	7795
905.216	7814
905.334	7936
905.451	7856
905.569	7860
905.686	7879
905.803	7894
905.921	7830
906.038	7879
906.155	7814
906.272	7742
906.389	7643
906.506	7605
906.623	7620
906.74	7670
906.857	7537
906.974	7613
907.091	7681
907.208	7723
907.324	7601
907.441	7559
907.557	7472
907.674	7457
907.79	7384
907.907	7396
908.023	7468
908.139	7400
908.256	7396
908.372	7324
908.488	7293
908.604	7221
908.72	7244
908.836	7244
908.952	7209
909.068	7259
909.184	7236
909.3	7168
909.415	7266
909.531	7255
909.647	7129
909.762	7103
909.878	7088
909.993	7133
910.108	7213
910.224	7031
910.339	7069
910.454	6989
910.57	6981
910.685	6970
910.8	7164
910.915	7118
911.03	7057
911.145	6871
911.259	6878
911.374	6875
911.489	6863
911.604	6730
911.718	6749
911.833	6719
911.947	6662
912.062	6589
912.176	6692
912.291	6639
912.405	6650
912.519	6791
912.633	6798
912.748	6681
912.862	6688
912.976	6642
913.09	6502
913.204	6642
913.318	6593
913.431	6669
913.545	6654
913.659	6692
913.772	6631
913.886	6536
914	6544
914.113	6608
914.226	6532
914.34	6570
914.453	6445
914.566	6620
914.68	6540
914.793	6467
914.906	6372
915.019	6384
915.132	6323
915.245	6403
915.358	6456
915.47	6445
915.583	6376
915.696	6418
915.809	6494
915.921	6494
916.034	6399
916.146	6407
916.259	6369
916.371	6429
916.483	6464
916.595	6395
916.708	6407
916.82	6407
916.932	6372
917.044	6391
917.156	6372
917.268	6300
917.38	6338
917.491	6331
917.603	6311
917.715	6399
917.826	6395
917.938	6361
918.049	6228
918.161	6346
918.272	6441
918.384	6467
918.495	6388
918.606	6258
918.717	6243
918.828	6251
918.939	6247
919.05	6235
919.161	6277
919.272	6091
919.383	6175
919.494	6281
919.604	6407
919.715	6277
919.826	6178
919.936	6258
920.047	6342
920.157	6296
920.267	6403
920.378	6334
920.488	6247
920.598	6464
920.708	6426
920.818	6483
920.928	6502
921.038	6570
921.148	6528
921.258	6380
921.368	6292
921.477	6182
921.587	6182
921.697	6087
921.806	6171
921.916	6049
922.025	5923
922.134	5939
922.244	5847
922.353	5965
922.462	5817
922.571	5726
922.68	5672
922.789	5665
922.898	5688
923.007	5604
923.116	5688
923.224	5649
923.333	5638
923.442	5490
923.55	5535
923.659	5581
923.767	5646
923.876	5558
923.984	5608
924.092	5535
924.201	5528
924.309	5554
924.417	5558
924.525	5482
924.633	5478
924.741	6247
924.849	5357
924.956	5512
925.064	5334
925.172	5235
925.279	5292
925.387	5284
925.494	5341
925.602	5414
925.709	5322
925.816	5284
925.924	5292
926.031	5376
926.138	5277
926.245	5299
926.352	5204
926.459	5326
926.566	5337
926.673	5155
926.779	5098
926.886	5159
926.993	4965
927.099	4991
927.206	4972
927.312	4953
927.419	5041
927.525	4946
927.631	4968
927.737	4885
927.843	4835
927.95	4778
928.056	4816
928.162	4831
928.267	4778
928.373	5261
928.479	4831
928.585	4660
928.69	4797
928.796	4771
928.901	4660
929.007	4573
929.112	4687
929.218	4668
929.323	4577
929.428	4527
929.533	4694
929.638	4466
929.743	4527
929.848	4546
929.953	4504
930.058	4428
930.163	4287
930.267	4325
930.372	4447
930.477	4227
930.581	4481
930.685	4329
930.79	4310
930.894	4268
930.998	4230
931.103	4344
931.207	4116
931.311	4086
931.415	4071
931.519	3930
931.623	3975
