Data from glass_V78500241_1305.txt Node
Date: Wed Sep 01 19:23:32 CST 2021
User: usil
Spectrometer: V785-0024
Trigger mode: 0
Integration Time (sec): 4.000000E-1
Scans to average: 1
Nonlinearity correction enabled: false
Boxcar width: 0
Storing dark spectrum: false
XAxis mode: Wavelengths
Number of Pixels in Spectrum: 1024
>>>>>Begin Spectral Data<<<<<
801.071	3736
801.214	3720
801.356	3759
801.499	3751
801.641	3728
801.783	3804
801.926	3857
802.068	3854
802.211	3861
802.353	3865
802.496	3865
802.638	3880
802.78	3915
802.923	3911
803.065	3892
803.208	3888
803.35	3892
803.492	3880
803.635	3911
803.777	3838
803.919	3899
804.061	4162
804.204	3991
804.346	3934
804.488	3884
804.63	4013
804.773	3960
804.915	4040
805.057	4131
805.199	4067
805.341	4105
805.483	4112
805.626	4097
805.768	4162
805.91	4207
806.052	4230
806.194	4162
806.336	4409
806.478	4215
806.62	4185
806.762	4234
806.904	4215
807.046	4325
807.188	4227
807.33	4154
807.472	4272
807.614	4177
807.756	4246
807.898	4162
808.04	4246
808.182	4249
808.324	4299
808.465	4409
808.607	4481
808.749	4447
808.891	4459
809.033	4584
809.174	4413
809.316	4318
809.458	4219
809.6	4154
809.741	4128
809.883	4147
810.025	4173
810.166	4257
810.308	4211
810.45	4284
810.591	4246
810.733	4303
810.875	4519
811.016	4839
811.158	5109
811.299	5227
811.441	5242
811.582	5102
811.724	4698
811.865	4447
812.007	4489
812.148	4443
812.29	4405
812.431	4417
812.573	4447
812.714	4405
812.855	4436
812.997	4413
813.138	4519
813.279	4440
813.421	4428
813.562	4348
813.703	4375
813.845	4367
813.986	4246
814.127	4215
814.268	4253
814.41	4318
814.551	4246
814.692	4322
814.833	4215
814.974	4329
815.115	4344
815.256	4284
815.397	4207
815.539	4265
815.68	4223
815.821	4219
815.962	4299
816.103	4295
816.244	4211
816.385	4268
816.526	4287
816.666	4185
816.807	4059
816.948	4204
817.089	4200
817.23	4135
817.371	4071
817.512	4051
817.653	4109
817.793	4006
817.934	4051
818.075	4082
818.216	4112
818.356	4086
818.497	3987
818.638	3937
818.778	3884
818.919	3896
819.06	3865
819.2	3926
819.341	3899
819.481	3831
819.622	3876
819.762	4032
819.903	3934
820.043	3838
820.184	3804
820.324	3838
820.465	3880
820.605	3911
820.746	3865
820.886	3865
821.026	3926
821.167	3911
821.307	4051
821.447	3964
821.588	4010
821.728	3964
821.868	3964
822.008	3857
822.149	3960
822.289	3934
822.429	3797
822.569	3759
822.709	3774
822.849	3644
822.99	3724
823.13	3797
823.27	3800
823.41	3713
823.55	3751
823.69	3770
823.83	3808
823.97	3747
824.11	3656
824.25	3576
824.389	3618
824.529	3690
824.669	3660
824.809	3755
824.949	3774
825.089	3713
825.228	3698
825.368	3599
825.508	3523
825.648	3599
825.787	3618
825.927	3644
826.067	3587
826.206	3663
826.346	3789
826.485	3835
826.625	3850
826.765	3983
826.904	3846
827.044	3599
827.183	3488
827.323	3409
827.462	3458
827.601	3458
827.741	3454
827.88	3462
828.02	3355
828.159	3485
828.298	3462
828.437	3534
828.577	3492
828.716	3606
828.855	3481
828.994	3382
829.134	3405
829.273	3431
829.412	3325
829.551	3348
829.69	3389
829.829	3393
829.968	3504
830.107	3443
830.246	3447
830.385	3374
830.524	3374
830.663	3302
830.802	3268
830.941	3218
831.08	3195
831.219	3306
831.357	3245
831.496	3389
831.635	3253
831.774	3165
831.913	3161
832.051	3116
832.19	3146
832.329	3195
832.467	3108
832.606	3100
832.744	3188
832.883	3176
833.022	3214
833.16	3279
833.299	3336
833.437	3336
833.576	3412
833.714	3409
833.852	3450
833.991	3454
834.129	3469
834.267	3439
834.406	3401
834.544	3431
834.682	3397
834.821	3401
834.959	3557
835.097	3443
835.235	3545
835.373	3492
835.511	3534
835.65	3500
835.788	3526
835.926	3397
836.064	3401
836.202	3393
836.34	3576
836.478	3648
836.615	3557
836.753	3599
836.891	3660
837.029	3637
837.167	3610
837.305	3576
837.443	3534
837.58	3515
837.718	3606
837.856	3561
837.993	3557
838.131	3629
838.269	3591
838.406	3595
838.544	3599
838.681	3469
838.819	3435
838.956	3370
839.094	3397
839.231	3462
839.369	3523
839.506	3747
839.643	3663
839.781	3504
839.918	3477
840.055	3519
840.193	3519
840.33	3504
840.467	3591
840.604	3641
840.742	3804
840.879	3542
841.016	3523
841.153	3629
841.29	3774
841.427	3732
841.564	3724
841.701	3740
841.838	3751
841.975	3713
842.112	3713
842.249	3663
842.385	3671
842.522	3793
842.659	3724
842.796	3652
842.933	3720
843.069	3686
843.206	3694
843.343	3797
843.479	3785
843.616	3816
843.752	3713
843.889	3641
844.025	3857
844.162	3690
844.298	3804
844.435	3800
844.571	3781
844.708	3922
844.844	3972
844.98	4002
845.117	4021
845.253	3915
845.389	3884
845.525	3979
845.661	4002
845.798	3888
845.934	4017
846.07	3949
846.206	4055
846.342	4116
846.478	4067
846.614	3975
846.75	3983
846.886	3918
847.022	4051
847.158	3941
847.294	3994
847.429	4032
847.565	4006
847.701	4227
847.837	3907
847.972	3884
848.108	3987
848.244	3979
848.379	3850
848.515	3816
848.65	3816
848.786	3835
848.921	3854
849.057	3956
849.192	3945
849.328	3903
849.463	3945
849.598	3896
849.734	3922
849.869	3819
850.004	3816
850.14	3819
850.275	3800
850.41	3728
850.545	3770
850.68	3766
850.815	3808
850.95	3812
851.085	3926
851.22	3892
851.355	3789
851.49	3789
851.625	3800
851.76	3804
851.895	3762
852.03	3732
852.165	3827
852.299	3846
852.434	3903
852.569	3869
852.703	3846
852.838	3945
852.973	4029
853.107	4006
853.242	3930
853.376	3823
853.511	3770
853.645	3812
853.78	3945
853.914	3892
854.048	3960
854.183	3911
854.317	3991
854.451	4063
854.585	3934
854.72	3956
854.854	4055
854.988	3979
855.122	4036
855.256	3911
855.39	4029
855.524	4090
855.658	4082
855.792	4082
855.926	4124
856.06	4181
856.194	4272
856.327	4147
856.461	4166
856.595	4124
856.729	4166
856.862	4303
856.996	4261
857.13	4356
857.263	4257
857.397	4390
857.53	4318
857.664	4360
857.797	4405
857.931	4443
858.064	4386
858.197	4447
858.331	4421
858.464	4405
858.597	4348
858.731	4421
858.864	4466
858.997	4481
859.13	4500
859.263	4474
859.396	4580
859.529	4470
859.662	4542
859.795	4542
859.928	4637
860.061	4752
860.194	4725
860.327	4630
860.46	4668
860.592	4755
860.725	4736
860.858	4767
860.99	4626
861.123	4714
861.256	4698
861.388	4809
861.521	5444
861.653	4702
861.786	4691
861.918	4744
862.05	4774
862.183	4828
862.315	4949
862.447	4957
862.58	4900
862.712	4782
862.844	4748
862.976	4892
863.108	4828
863.24	5189
863.372	4831
863.504	4942
863.636	4866
863.768	4972
863.9	4972
864.032	4949
864.164	4957
864.296	5037
864.428	5041
864.559	5075
864.691	5109
864.823	5109
864.954	5155
865.086	5162
865.217	5181
865.349	5094
865.48	5155
865.612	5216
865.743	5280
865.875	5201
866.006	5155
866.137	5212
866.269	5261
866.4	5227
866.531	5273
866.662	5265
866.793	5258
866.924	5330
867.055	5322
867.186	5318
867.317	5322
867.448	5337
867.579	5417
867.71	5383
867.841	5353
867.972	5433
868.103	5467
868.233	5471
868.364	5524
868.495	5452
868.625	5646
868.756	5813
868.886	5691
869.017	5707
869.147	5946
869.278	5889
869.408	5779
869.539	5828
869.669	5916
869.799	5950
869.929	6019
870.06	6007
870.19	6155
870.32	6239
870.45	6281
870.58	6380
870.71	6460
870.84	6467
870.97	6448
871.1	6448
871.23	6620
871.36	6658
871.489	6631
871.619	6779
871.749	6726
871.879	6878
872.008	6989
872.138	6970
872.267	7019
872.397	6966
872.526	7095
872.656	7084
872.785	7187
872.915	7369
873.044	7491
873.173	7544
873.303	7662
873.432	7723
873.561	7871
873.69	7875
873.819	7947
873.948	8183
874.077	8225
874.206	8347
874.335	8454
874.464	8651
874.593	8887
874.722	8925
874.851	9119
874.979	9268
875.108	9401
875.237	9450
875.365	9435
875.494	9686
875.623	9770
875.751	9861
875.88	9991
876.008	10082
876.136	10276
876.265	10535
876.393	10714
876.521	10694
876.65	10778
876.778	10885
876.906	10866
877.034	10999
877.162	11075
877.29	11235
877.418	11307
877.546	11356
877.674	11478
877.802	11505
877.93	11547
878.058	11573
878.185	11524
878.313	11653
878.441	11866
878.568	11710
878.696	11882
878.824	11794
878.951	11901
879.079	12079
879.206	12243
879.333	12011
879.461	11988
879.588	12007
879.715	12079
879.842	12148
879.97	12026
880.097	11973
880.224	11882
880.351	11813
880.478	11912
880.605	11813
880.732	11809
880.859	12022
880.986	11859
881.112	11885
881.239	11672
881.366	11600
881.493	11619
881.619	11501
881.746	11619
881.872	11566
881.999	11490
882.125	11501
882.252	11646
882.378	11459
882.505	11634
882.631	11360
882.757	11360
882.883	11436
883.01	11284
883.136	11140
883.262	11174
883.388	11060
883.514	11250
883.64	11147
883.766	11128
883.892	10919
884.018	10953
884.143	11064
884.269	11109
884.395	10885
884.52	10793
884.646	10790
884.772	10710
884.897	10683
885.023	10675
885.148	10767
885.274	10740
885.399	10755
885.524	10622
885.65	10615
885.775	10500
885.9	10573
886.025	10580
886.15	10516
886.275	10459
886.4	10367
886.525	10417
886.65	10421
886.775	10432
886.9	10459
887.025	10519
887.149	10337
887.274	10272
887.399	10147
887.523	10204
887.648	10162
887.773	10120
887.897	10265
888.021	10299
888.146	10105
888.27	10215
888.395	10242
888.519	10207
888.643	10207
888.767	10143
888.891	10036
889.015	10063
889.139	10097
889.263	10032
889.387	10082
889.511	10131
889.635	10025
889.759	9922
889.883	9979
890.006	10021
890.13	10040
890.254	9987
890.377	10078
890.501	9880
890.624	9869
890.748	9892
890.871	9816
890.995	9785
891.118	9713
891.241	9785
891.364	9762
891.488	9835
891.611	9747
891.734	9709
891.857	9823
891.98	9759
892.103	9823
892.226	9774
892.349	9682
892.471	9561
892.594	9561
892.717	9625
892.839	9553
892.962	9625
893.085	9682
893.207	9538
893.33	9492
893.452	9530
893.575	9614
893.697	9496
893.819	9584
893.941	9637
894.064	9610
894.186	9481
894.308	9408
894.43	9572
894.552	9549
894.674	9526
894.796	9424
894.918	9447
895.04	9367
895.161	9329
895.283	9321
895.405	9241
895.526	9302
895.648	9272
895.769	9249
895.891	9211
896.012	9272
896.134	9207
896.255	9203
896.376	9211
896.498	9176
896.619	9180
896.74	9100
896.861	9116
896.982	9245
897.103	9351
897.224	9180
897.345	9066
897.466	9062
897.587	9039
897.708	9127
897.828	9051
897.949	8906
898.07	8864
898.19	8944
898.311	9001
898.431	8975
898.552	8933
898.672	8956
898.792	8956
898.913	8960
899.033	8811
899.153	8739
899.273	8640
899.393	8682
899.513	8800
899.633	8720
899.753	8720
899.873	8708
899.993	8739
900.113	8769
900.232	8697
900.352	8667
900.472	8629
900.591	8552
900.711	8564
900.83	8549
900.95	8651
901.069	8674
901.189	8606
901.308	8480
901.427	8351
901.546	8434
901.665	8484
901.784	8549
901.904	8370
902.023	8362
902.141	8229
902.26	8221
902.379	8225
902.498	8244
902.617	8263
902.735	8317
902.854	8381
902.973	8328
903.091	8111
903.21	8123
903.328	8161
903.446	8054
903.565	8123
903.683	8069
903.801	8088
903.919	8134
904.038	8172
904.156	8100
904.274	8024
904.392	8016
904.51	8035
904.627	8043
904.745	8084
904.863	8046
904.981	7925
905.098	7818
905.216	7871
905.334	7894
905.451	7871
905.569	7868
905.686	7917
905.803	7913
905.921	7731
906.038	7906
906.155	7826
906.272	7700
906.389	7651
906.506	7624
906.623	7624
906.74	7582
906.857	7559
906.974	7632
907.091	7647
907.208	7719
907.324	7597
907.441	7605
907.557	7514
907.674	7415
907.79	7430
907.907	7407
908.023	7438
908.139	7476
908.256	7377
908.372	7422
908.488	7350
908.604	7263
908.72	7289
908.836	7301
908.952	7308
909.068	7221
909.184	7335
909.3	7263
909.415	7350
909.531	7228
909.647	7076
909.762	7099
909.878	7099
909.993	7107
910.108	7110
910.224	7122
910.339	7133
910.454	7042
910.57	7027
910.685	6905
910.8	7164
910.915	7072
911.03	7088
911.145	6943
911.259	6852
911.374	6905
911.489	6833
911.604	6783
911.718	6677
911.833	6741
911.947	6684
912.062	6582
912.176	6745
912.291	6703
912.405	6719
912.519	6844
912.633	6795
912.748	6745
912.862	6631
912.976	6639
913.09	6525
913.204	6623
913.318	6642
913.431	6654
913.545	6650
913.659	6734
913.772	6582
913.886	6559
914	6540
914.113	6574
914.226	6604
914.34	6627
914.453	6578
914.566	6585
914.68	6547
914.793	6506
914.906	6479
915.019	6452
915.132	6357
915.245	6456
915.358	6410
915.47	6452
915.583	6479
915.696	6547
915.809	6517
915.921	6513
916.034	6410
916.146	6391
916.259	6422
916.371	6460
916.483	6486
916.595	6422
916.708	6388
916.82	6403
916.932	6342
917.044	6426
917.156	6410
917.268	6327
917.38	6399
917.491	6300
917.603	6338
917.715	6407
917.826	6372
917.938	6323
918.049	6277
918.161	6365
918.272	6445
918.384	6433
918.495	6376
918.606	6258
918.717	6262
918.828	6239
918.939	6304
919.05	6243
919.161	6243
919.272	6129
919.383	6152
919.494	6311
919.604	6414
919.715	6376
919.826	6213
919.936	6289
920.047	6350
920.157	6254
920.267	6452
920.378	6319
920.488	6270
920.598	6429
920.708	6589
920.818	6452
920.928	6513
921.038	6627
921.148	6574
921.258	6376
921.368	6346
921.477	6243
921.587	6190
921.697	6091
921.806	6155
921.916	6034
922.025	5939
922.134	5855
922.244	5897
922.353	5961
922.462	5866
922.571	5805
922.68	5672
922.789	5680
922.898	5703
923.007	5649
923.116	5764
923.224	5680
923.333	5684
923.442	5638
923.55	5604
923.659	5589
923.767	5585
923.876	5577
923.984	5661
924.092	5585
924.201	5615
924.309	5493
924.417	5520
924.525	5528
924.633	5471
924.741	6197
924.849	5387
924.956	5493
925.064	5444
925.172	5303
925.279	5337
925.387	5410
925.494	5349
925.602	5364
925.709	5414
925.816	5258
925.924	5280
926.031	5387
926.138	5334
926.245	5349
926.352	5201
926.459	5357
926.566	5337
926.673	5185
926.779	5121
926.886	5151
926.993	5048
927.099	5033
927.206	4991
927.312	4957
927.419	5022
927.525	5033
927.631	5003
927.737	4866
927.843	4858
927.95	4729
928.056	4877
928.162	4831
928.267	4862
928.373	5326
928.479	4847
928.585	4687
928.69	4767
928.796	4759
928.901	4694
929.007	4584
929.112	4698
929.218	4611
929.323	4596
929.428	4554
929.533	4656
929.638	4569
929.743	4558
929.848	4531
929.953	4538
930.058	4405
930.163	4303
930.267	4348
930.372	4447
930.477	4291
930.581	4470
930.685	4363
930.79	4299
930.894	4295
930.998	4299
931.103	4409
931.207	4169
931.311	4082
931.415	4036
931.519	3987
931.623	3956
