Data from glass_V78500241_646.txt Node
Date: Wed Sep 01 19:18:58 CST 2021
User: usil
Spectrometer: V785-0024
Trigger mode: 0
Integration Time (sec): 4.000000E-1
Scans to average: 1
Nonlinearity correction enabled: false
Boxcar width: 0
Storing dark spectrum: false
XAxis mode: Wavelengths
Number of Pixels in Spectrum: 1024
>>>>>Begin Spectral Data<<<<<
801.071	3762
801.214	3808
801.356	3762
801.499	3743
801.641	3732
801.783	3800
801.926	3884
802.068	3819
802.211	3873
802.353	3888
802.496	3846
802.638	3846
802.78	3907
802.923	3918
803.065	3934
803.208	3876
803.35	3876
803.492	3869
803.635	3964
803.777	3827
803.919	3915
804.061	4185
804.204	3968
804.346	3934
804.488	3884
804.63	4063
804.773	3972
804.915	4013
805.057	4192
805.199	4071
805.341	4135
805.483	4181
805.626	4192
805.768	4147
805.91	4177
806.052	4291
806.194	4219
806.336	4322
806.478	4246
806.62	4215
806.762	4261
806.904	4303
807.046	4314
807.188	4185
807.33	4188
807.472	4253
807.614	4227
807.756	4272
807.898	4238
808.04	4242
808.182	4299
808.324	4371
808.465	4383
808.607	4462
808.749	4451
808.891	4459
809.033	4504
809.174	4390
809.316	4272
809.458	4253
809.6	4173
809.741	4162
809.883	4143
810.025	4166
810.166	4188
810.308	4242
810.45	4299
810.591	4181
810.733	4261
810.875	4531
811.016	4839
811.158	5166
811.299	5326
811.441	5326
811.582	5048
811.724	4698
811.865	4443
812.007	4542
812.148	4459
812.29	4390
812.431	4421
812.573	4459
812.714	4363
812.855	4417
812.997	4417
813.138	4516
813.279	4440
813.421	4451
813.562	4462
813.703	4344
813.845	4352
813.986	4310
814.127	4207
814.268	4284
814.41	4287
814.551	4280
814.692	4329
814.833	4276
814.974	4322
815.115	4367
815.256	4284
815.397	4238
815.539	4272
815.68	4185
815.821	4276
815.962	4310
816.103	4303
816.244	4280
816.385	4257
816.526	4249
816.666	4223
816.807	4105
816.948	4192
817.089	4223
817.23	4101
817.371	4090
817.512	4059
817.653	4063
817.793	4093
817.934	4093
818.075	4154
818.216	4112
818.356	4090
818.497	4017
818.638	3922
818.778	3953
818.919	3907
819.06	3831
819.2	3953
819.341	3888
819.481	3823
819.622	3945
819.762	4025
819.903	3964
820.043	3865
820.184	3846
820.324	3850
820.465	3892
820.605	3869
820.746	3903
820.886	3789
821.026	3937
821.167	3899
821.307	4051
821.447	3949
821.588	3945
821.728	3953
821.868	3918
822.008	3880
822.149	3949
822.289	3922
822.429	3812
822.569	3816
822.709	3819
822.849	3743
822.99	3720
823.13	3740
823.27	3808
823.41	3713
823.55	3747
823.69	3728
823.83	3774
823.97	3679
824.11	3622
824.25	3633
824.389	3682
824.529	3660
824.669	3667
824.809	3724
824.949	3724
825.089	3759
825.228	3701
825.368	3587
825.508	3584
825.648	3595
825.787	3622
825.927	3591
826.067	3610
826.206	3682
826.346	3800
826.485	3857
826.625	3861
826.765	3926
826.904	3873
827.044	3606
827.183	3557
827.323	3443
827.462	3481
827.601	3454
827.741	3431
827.88	3458
828.02	3355
828.159	3462
828.298	3496
828.437	3530
828.577	3466
828.716	3633
828.855	3549
828.994	3363
829.134	3374
829.273	3359
829.412	3359
829.551	3348
829.69	3378
829.829	3450
829.968	3526
830.107	3443
830.246	3469
830.385	3386
830.524	3363
830.663	3272
830.802	3256
830.941	3230
831.08	3188
831.219	3310
831.357	3268
831.496	3428
831.635	3241
831.774	3214
831.913	3253
832.051	3119
832.19	3169
832.329	3245
832.467	3142
832.606	3127
832.744	3188
832.883	3226
833.022	3214
833.16	3291
833.299	3344
833.437	3359
833.576	3386
833.714	3401
833.852	3439
833.991	3458
834.129	3473
834.267	3492
834.406	3409
834.544	3393
834.682	3435
834.821	3401
834.959	3534
835.097	3435
835.235	3595
835.373	3500
835.511	3526
835.65	3462
835.788	3485
835.926	3397
836.064	3389
836.202	3409
836.34	3549
836.478	3648
836.615	3523
836.753	3572
836.891	3671
837.029	3663
837.167	3595
837.305	3553
837.443	3564
837.58	3507
837.718	3580
837.856	3591
837.993	3553
838.131	3603
838.269	3576
838.406	3622
838.544	3564
838.681	3496
838.819	3469
838.956	3397
839.094	3439
839.231	3477
839.369	3534
839.506	3728
839.643	3690
839.781	3466
839.918	3526
840.055	3553
840.193	3572
840.33	3496
840.467	3580
840.604	3614
840.742	3785
840.879	3557
841.016	3576
841.153	3625
841.29	3755
841.427	3759
841.564	3732
841.701	3781
841.838	3690
841.975	3724
842.112	3736
842.249	3690
842.385	3641
842.522	3831
842.659	3694
842.796	3698
842.933	3762
843.069	3705
843.206	3736
843.343	3857
843.479	3800
843.616	3800
843.752	3648
843.889	3694
844.025	3854
844.162	3751
844.298	3869
844.435	3785
844.571	3812
844.708	3899
844.844	3998
844.98	4029
845.117	4002
845.253	3911
845.389	3934
845.525	3964
845.661	3949
845.798	3945
845.934	4040
846.07	3998
846.206	4048
846.342	4173
846.478	4078
846.614	3987
846.75	3930
846.886	3937
847.022	4055
847.158	3994
847.294	3998
847.429	4048
847.565	3956
847.701	4238
847.837	3854
847.972	3861
848.108	4017
848.244	3968
848.379	3854
848.515	3835
848.65	3823
848.786	3854
848.921	3907
849.057	3915
849.192	3960
849.328	3911
849.463	3934
849.598	3880
849.734	3869
849.869	3884
850.004	3793
850.14	3804
850.275	3793
850.41	3743
850.545	3774
850.68	3827
850.815	3831
850.95	3778
851.085	3975
851.22	3934
851.355	3869
851.49	3838
851.625	3774
851.76	3781
851.895	3751
852.03	3747
852.165	3808
852.299	3861
852.434	3899
852.569	3899
852.703	3899
852.838	3930
852.973	3987
853.107	3979
853.242	3873
853.376	3873
853.511	3759
853.645	3838
853.78	3994
853.914	3899
854.048	3956
854.183	3899
854.317	3953
854.451	4097
854.585	3937
854.72	3983
854.854	4082
854.988	3926
855.122	3983
855.256	3918
855.39	4082
855.524	4147
855.658	4109
855.792	4135
855.926	4200
856.06	4185
856.194	4242
856.327	4139
856.461	4112
856.595	4147
856.729	4169
856.862	4249
856.996	4299
857.13	4318
857.263	4344
857.397	4341
857.53	4310
857.664	4337
857.797	4417
857.931	4409
858.064	4432
858.197	4481
858.331	4417
858.464	4436
858.597	4344
858.731	4451
858.864	4489
858.997	4489
859.13	4565
859.263	4538
859.396	4523
859.529	4527
859.662	4561
859.795	4512
859.928	4618
860.061	4755
860.194	4774
860.327	4672
860.46	4683
860.592	4759
860.725	4767
860.858	4812
860.99	4691
861.123	4694
861.256	4714
861.388	4782
861.521	5296
861.653	4717
861.786	4759
861.918	4759
862.05	4828
862.183	4816
862.315	4892
862.447	4953
862.58	4949
862.712	4797
862.844	4778
862.976	4904
863.108	4839
863.24	5208
863.372	4854
863.504	4885
863.636	4927
863.768	4999
863.9	5010
864.032	4942
864.164	4987
864.296	5018
864.428	5056
864.559	5090
864.691	5121
864.823	5174
864.954	5090
865.086	5174
865.217	5113
865.349	5102
865.48	5185
865.612	5250
865.743	5334
865.875	5193
866.006	5193
866.137	5178
866.269	5227
866.4	5231
866.531	5258
866.662	5269
866.793	5273
866.924	5265
867.055	5406
867.186	5337
867.317	5391
867.448	5284
867.579	5376
867.71	5406
867.841	5429
867.972	5482
868.103	5501
868.233	5471
868.364	5535
868.495	5497
868.625	5642
868.756	5737
868.886	5688
869.017	5737
869.147	5866
869.278	5935
869.408	5817
869.539	5832
869.669	5958
869.799	5977
869.929	5969
870.06	5973
870.19	6171
870.32	6205
870.45	6281
870.58	6376
870.71	6429
870.84	6467
870.97	6426
871.1	6460
871.23	6620
871.36	6741
871.489	6692
871.619	6734
871.749	6852
871.879	6890
872.008	6981
872.138	6966
872.267	7031
872.397	7053
872.526	7023
872.656	7126
872.785	7194
872.915	7480
873.044	7499
873.173	7552
873.303	7681
873.432	7807
873.561	7902
873.69	7875
873.819	8050
873.948	8195
874.077	8248
874.206	8336
874.335	8499
874.464	8705
874.593	8891
874.722	8941
874.851	9150
874.979	9287
875.108	9332
875.237	9439
875.365	9519
875.494	9675
875.623	9838
875.751	9842
875.88	9964
876.008	10223
876.136	10325
876.265	10554
876.393	10816
876.521	10748
876.65	10847
876.778	10805
876.906	10976
877.034	10942
877.162	11083
877.29	11151
877.418	11391
877.546	11383
877.674	11512
877.802	11547
877.93	11543
878.058	11570
878.185	11619
878.313	11596
878.441	11707
878.568	11691
878.696	11836
878.824	11855
878.951	11863
879.079	12114
879.206	12129
879.333	12038
879.461	11973
879.588	12106
879.715	12026
879.842	12224
879.97	12019
880.097	11870
880.224	12007
880.351	11916
880.478	11847
880.605	11843
880.732	11790
880.859	11992
880.986	11866
881.112	11809
881.239	11775
881.366	11657
881.493	11634
881.619	11532
881.746	11566
881.872	11600
881.999	11509
882.125	11509
882.252	11608
882.378	11520
882.505	11596
882.631	11452
882.757	11307
882.883	11265
883.01	11296
883.136	11258
883.262	11105
883.388	11010
883.514	11132
883.64	11155
883.766	11117
883.892	10949
884.018	10999
884.143	11117
884.269	11041
884.395	10877
884.52	10752
884.646	10847
884.772	10691
884.897	10740
885.023	10694
885.148	10790
885.274	10805
885.399	10759
885.524	10584
885.65	10554
885.775	10649
885.9	10618
886.025	10622
886.15	10489
886.275	10508
886.4	10459
886.525	10459
886.65	10402
886.775	10333
886.9	10432
887.025	10500
887.149	10360
887.274	10204
887.399	10253
887.523	10124
887.648	10139
887.773	10143
887.897	10306
888.021	10242
888.146	10173
888.27	10211
888.395	10230
888.519	10154
888.643	10204
888.767	10116
888.891	10112
889.015	10025
889.139	10048
889.263	9983
889.387	10143
889.511	10207
889.635	10048
889.759	9975
889.883	10082
890.006	10021
890.13	10059
890.254	9979
890.377	9945
890.501	9846
890.624	9842
890.748	9861
890.871	9804
890.995	9724
891.118	9759
891.241	9842
891.364	9793
891.488	9880
891.611	9732
891.734	9819
891.857	9797
891.98	9724
892.103	9774
892.226	9709
892.349	9663
892.471	9572
892.594	9519
892.717	9618
892.839	9637
892.962	9580
893.085	9610
893.207	9656
893.33	9496
893.452	9504
893.575	9572
893.697	9534
893.819	9568
893.941	9568
894.064	9648
894.186	9420
894.308	9408
894.43	9568
894.552	9545
894.674	9576
894.796	9408
894.918	9393
895.04	9401
895.161	9389
895.283	9367
895.405	9283
895.526	9256
895.648	9264
895.769	9283
895.891	9241
896.012	9325
896.134	9268
896.255	9180
896.376	9230
896.498	9157
896.619	9176
896.74	9070
896.861	9089
896.982	9237
897.103	9321
897.224	9142
897.345	9123
897.466	8982
897.587	9001
897.708	9108
897.828	9024
897.949	8986
898.07	8899
898.19	8944
898.311	9032
898.431	8899
898.552	8941
898.672	9013
898.792	8960
898.913	8887
899.033	8849
899.153	8804
899.273	8705
899.393	8735
899.513	8708
899.633	8739
899.753	8746
899.873	8758
899.993	8731
900.113	8708
900.232	8712
900.352	8678
900.472	8667
900.591	8579
900.711	8640
900.83	8587
900.95	8716
901.069	8670
901.189	8610
901.308	8457
901.427	8404
901.546	8457
901.665	8434
901.784	8473
901.904	8366
902.023	8366
902.141	8233
902.26	8202
902.379	8332
902.498	8233
902.617	8225
902.735	8298
902.854	8229
902.973	8256
903.091	8126
903.21	8069
903.328	8218
903.446	8092
903.565	8092
903.683	8096
903.801	8111
903.919	8126
904.038	8191
904.156	8005
904.274	8100
904.392	8077
904.51	8024
904.627	8062
904.745	8054
904.863	8096
904.981	7993
905.098	7864
905.216	7928
905.334	7928
905.451	7940
905.569	7959
905.686	7868
905.803	7970
905.921	7803
906.038	7868
906.155	7814
906.272	7685
906.389	7647
906.506	7616
906.623	7643
906.74	7632
906.857	7529
906.974	7632
907.091	7662
907.208	7719
907.324	7616
907.441	7552
907.557	7476
907.674	7407
907.79	7396
907.907	7476
908.023	7403
908.139	7460
908.256	7358
908.372	7419
908.488	7407
908.604	7327
908.72	7168
908.836	7320
908.952	7263
909.068	7221
909.184	7331
909.3	7324
909.415	7312
909.531	7255
909.647	7103
909.762	7099
909.878	7103
909.993	7194
910.108	7171
910.224	7076
910.339	7103
910.454	7027
910.57	7023
910.685	6962
910.8	7145
910.915	7107
911.03	7095
911.145	6947
911.259	6844
911.374	6897
911.489	6837
911.604	6863
911.718	6703
911.833	6783
911.947	6654
912.062	6593
912.176	6662
912.291	6757
912.405	6711
912.519	6844
912.633	6852
912.748	6745
912.862	6722
912.976	6570
913.09	6532
913.204	6585
913.318	6593
913.431	6696
913.545	6715
913.659	6749
913.772	6669
913.886	6635
914	6623
914.113	6604
914.226	6642
914.34	6601
914.453	6513
914.566	6627
914.68	6532
914.793	6555
914.906	6422
915.019	6407
915.132	6418
915.245	6464
915.358	6517
915.47	6441
915.583	6498
915.696	6437
915.809	6585
915.921	6540
916.034	6437
916.146	6475
916.259	6342
916.371	6513
916.483	6486
916.595	6361
916.708	6410
916.82	6388
916.932	6437
917.044	6380
917.156	6486
917.268	6323
917.38	6331
917.491	6292
917.603	6395
917.715	6426
917.826	6467
917.938	6357
918.049	6216
918.161	6365
918.272	6475
918.384	6460
918.495	6372
918.606	6235
918.717	6247
918.828	6327
918.939	6285
919.05	6201
919.161	6300
919.272	6182
919.383	6136
919.494	6273
919.604	6437
919.715	6369
919.826	6273
919.936	6232
920.047	6338
920.157	6228
920.267	6448
920.378	6353
920.488	6323
920.598	6517
920.708	6532
920.818	6513
920.928	6525
921.038	6593
921.148	6585
921.258	6403
921.368	6270
921.477	6190
921.587	6182
921.697	6144
921.806	6167
921.916	6129
922.025	5961
922.134	5958
922.244	5889
922.353	5958
922.462	5912
922.571	5821
922.68	5729
922.789	5710
922.898	5748
923.007	5630
923.116	5710
923.224	5718
923.333	5627
923.442	5634
923.55	5611
923.659	5619
923.767	5653
923.876	5535
923.984	5665
924.092	5528
924.201	5585
924.309	5566
924.417	5589
924.525	5493
924.633	5467
924.741	6152
924.849	5357
924.956	5528
925.064	5376
925.172	5299
925.279	5318
925.387	5307
925.494	5398
925.602	5490
925.709	5368
925.816	5261
925.924	5239
926.031	5318
926.138	5303
926.245	5337
926.352	5239
926.459	5299
926.566	5345
926.673	5178
926.779	5159
926.886	5105
926.993	5025
927.099	5098
927.206	4938
927.312	4961
927.419	5067
927.525	4968
927.631	4995
927.737	4930
927.843	4911
927.95	4831
928.056	4839
928.162	4862
928.267	4824
928.373	5372
928.479	4854
928.585	4710
928.69	4786
928.796	4755
928.901	4710
929.007	4622
929.112	4698
929.218	4683
929.323	4645
929.428	4592
929.533	4664
929.638	4580
929.743	4538
929.848	4580
929.953	4535
930.058	4462
930.163	4352
930.267	4344
930.372	4462
930.477	4371
930.581	4474
930.685	4367
930.79	4284
930.894	4249
930.998	4280
931.103	4413
931.207	4131
931.311	4078
931.415	4036
931.519	4006
931.623	3949
