Data from glass_V78500241_220.txt Node
Date: Wed Sep 01 19:16:01 CST 2021
User: usil
Spectrometer: V785-0024
Trigger mode: 0
Integration Time (sec): 4.000000E-1
Scans to average: 1
Nonlinearity correction enabled: false
Boxcar width: 0
Storing dark spectrum: false
XAxis mode: Wavelengths
Number of Pixels in Spectrum: 1024
>>>>>Begin Spectral Data<<<<<
801.071	3762
801.214	3751
801.356	3709
801.499	3759
801.641	3724
801.783	3800
801.926	3892
802.068	3865
802.211	3888
802.353	3945
802.496	3842
802.638	3884
802.78	3896
802.923	3953
803.065	3994
803.208	3892
803.35	3873
803.492	3911
803.635	3934
803.777	3812
803.919	3911
804.061	4120
804.204	3941
804.346	3930
804.488	3945
804.63	4032
804.773	3979
804.915	4040
805.057	4200
805.199	4025
805.341	4143
805.483	4166
805.626	4162
805.768	4078
805.91	4215
806.052	4234
806.194	4223
806.336	4367
806.478	4238
806.62	4147
806.762	4204
806.904	4280
807.046	4375
807.188	4200
807.33	4169
807.472	4238
807.614	4215
807.756	4299
807.898	4219
808.04	4219
808.182	4360
808.324	4348
808.465	4383
808.607	4447
808.749	4462
808.891	4443
809.033	4531
809.174	4394
809.316	4219
809.458	4234
809.6	4162
809.741	4147
809.883	4188
810.025	4249
810.166	4215
810.308	4238
810.45	4249
810.591	4196
810.733	4348
810.875	4535
811.016	4835
811.158	5136
811.299	5326
811.441	5261
811.582	5056
811.724	4694
811.865	4474
812.007	4466
812.148	4470
812.29	4421
812.431	4443
812.573	4375
812.714	4394
812.855	4443
812.997	4428
813.138	4466
813.279	4417
813.421	4390
813.562	4402
813.703	4325
813.845	4318
813.986	4287
814.127	4253
814.268	4246
814.41	4318
814.551	4299
814.692	4348
814.833	4246
814.974	4337
815.115	4379
815.256	4276
815.397	4280
815.539	4284
815.68	4249
815.821	4223
815.962	4303
816.103	4284
816.244	4219
816.385	4325
816.526	4318
816.666	4230
816.807	4097
816.948	4177
817.089	4219
817.23	4124
817.371	4071
817.512	4048
817.653	4093
817.793	4059
817.934	4105
818.075	4158
818.216	4116
818.356	4120
818.497	3956
818.638	3884
818.778	3911
818.919	3922
819.06	3869
819.2	3956
819.341	3888
819.481	3903
819.622	3922
819.762	4017
819.903	3987
820.043	3892
820.184	3842
820.324	3800
820.465	3888
820.605	3911
820.746	3899
820.886	3797
821.026	3972
821.167	3975
821.307	3983
821.447	3975
821.588	3960
821.728	3949
821.868	3941
822.008	3899
822.149	3937
822.289	3960
822.429	3766
822.569	3778
822.709	3846
822.849	3717
822.99	3694
823.13	3774
823.27	3812
823.41	3743
823.55	3804
823.69	3759
823.83	3740
823.97	3732
824.11	3580
824.25	3622
824.389	3679
824.529	3713
824.669	3648
824.809	3701
824.949	3793
825.089	3740
825.228	3709
825.368	3587
825.508	3564
825.648	3557
825.787	3618
825.927	3648
826.067	3652
826.206	3705
826.346	3846
826.485	3873
826.625	3884
826.765	3960
826.904	3854
827.044	3595
827.183	3576
827.323	3420
827.462	3507
827.601	3439
827.741	3428
827.88	3462
828.02	3389
828.159	3424
828.298	3519
828.437	3538
828.577	3534
828.716	3667
828.855	3576
828.994	3431
829.134	3348
829.273	3412
829.412	3374
829.551	3370
829.69	3374
829.829	3469
829.968	3507
830.107	3462
830.246	3511
830.385	3386
830.524	3382
830.663	3344
830.802	3268
830.941	3211
831.08	3192
831.219	3302
831.357	3325
831.496	3397
831.635	3237
831.774	3188
831.913	3214
832.051	3116
832.19	3176
832.329	3207
832.467	3165
832.606	3070
832.744	3192
832.883	3138
833.022	3195
833.16	3256
833.299	3310
833.437	3340
833.576	3412
833.714	3435
833.852	3458
833.991	3469
834.129	3466
834.267	3431
834.406	3420
834.544	3458
834.682	3447
834.821	3462
834.959	3603
835.097	3409
835.235	3538
835.373	3488
835.511	3549
835.65	3488
835.788	3530
835.926	3420
836.064	3382
836.202	3409
836.34	3542
836.478	3641
836.615	3561
836.753	3656
836.891	3694
837.029	3679
837.167	3610
837.305	3553
837.443	3584
837.58	3515
837.718	3622
837.856	3595
837.993	3526
838.131	3591
838.269	3584
838.406	3641
838.544	3553
838.681	3469
838.819	3485
838.956	3355
839.094	3401
839.231	3473
839.369	3545
839.506	3743
839.643	3629
839.781	3542
839.918	3454
840.055	3572
840.193	3561
840.33	3538
840.467	3614
840.604	3637
840.742	3812
840.879	3557
841.016	3584
841.153	3625
841.29	3774
841.427	3732
841.564	3785
841.701	3759
841.838	3671
841.975	3713
842.112	3751
842.249	3618
842.385	3667
842.522	3812
842.659	3690
842.796	3690
842.933	3713
843.069	3701
843.206	3690
843.343	3831
843.479	3789
843.616	3842
843.752	3686
843.889	3713
844.025	3876
844.162	3720
844.298	3869
844.435	3842
844.571	3835
844.708	3937
844.844	4021
844.98	4025
845.117	4029
845.253	3941
845.389	3899
845.525	3987
845.661	4013
845.798	3934
845.934	4025
846.07	3975
846.206	4048
846.342	4131
846.478	4071
846.614	3975
846.75	3953
846.886	3956
847.022	4044
847.158	4010
847.294	4017
847.429	4036
847.565	4029
847.701	4276
847.837	3915
847.972	3873
848.108	3972
848.244	3945
848.379	3846
848.515	3873
848.65	3850
848.786	3884
848.921	3884
849.057	3960
849.192	3937
849.328	3907
849.463	3907
849.598	3922
849.734	3865
849.869	3854
850.004	3835
850.14	3827
850.275	3816
850.41	3724
850.545	3751
850.68	3755
850.815	3808
850.95	3762
851.085	3975
851.22	3865
851.355	3835
851.49	3804
851.625	3793
851.76	3785
851.895	3781
852.03	3789
852.165	3846
852.299	3865
852.434	3911
852.569	3838
852.703	3926
852.838	3949
852.973	4025
853.107	4013
853.242	3865
853.376	3857
853.511	3793
853.645	3865
853.78	3991
853.914	3960
854.048	3922
854.183	3876
854.317	3953
854.451	4120
854.585	3945
854.72	3949
854.854	4071
854.988	3975
855.122	4013
855.256	3983
855.39	4013
855.524	4162
855.658	4124
855.792	4086
855.926	4147
856.06	4223
856.194	4257
856.327	4177
856.461	4143
856.595	4173
856.729	4188
856.862	4341
856.996	4276
857.13	4261
857.263	4322
857.397	4363
857.53	4310
857.664	4303
857.797	4443
857.931	4436
858.064	4424
858.197	4474
858.331	4405
858.464	4360
858.597	4371
858.731	4440
858.864	4485
858.997	4538
859.13	4516
859.263	4554
859.396	4596
859.529	4512
859.662	4535
859.795	4535
859.928	4653
860.061	4767
860.194	4805
860.327	4645
860.46	4672
860.592	4752
860.725	4778
860.858	4763
860.99	4687
861.123	4736
861.256	4710
861.388	4740
861.521	5364
861.653	4755
861.786	4694
861.918	4801
862.05	4843
862.183	4847
862.315	4911
862.447	4991
862.58	4881
862.712	4850
862.844	4805
862.976	4885
863.108	4919
863.24	5178
863.372	4862
863.504	4949
863.636	4896
863.768	5018
863.9	5022
864.032	4980
864.164	4942
864.296	4999
864.428	5071
864.559	5113
864.691	5143
864.823	5132
864.954	5136
865.086	5124
865.217	5204
865.349	5128
865.48	5159
865.612	5231
865.743	5345
865.875	5212
866.006	5197
866.137	5235
866.269	5258
866.4	5208
866.531	5277
866.662	5284
866.793	5288
866.924	5311
867.055	5349
867.186	5414
867.317	5372
867.448	5299
867.579	5368
867.71	5349
867.841	5425
867.972	5433
868.103	5444
868.233	5474
868.364	5528
868.495	5585
868.625	5684
868.756	5733
868.886	5691
869.017	5767
869.147	5870
869.278	5878
869.408	5828
869.539	5863
869.669	5935
869.799	5988
869.929	6057
870.06	5950
870.19	6197
870.32	6175
870.45	6323
870.58	6410
870.71	6410
870.84	6490
870.97	6441
871.1	6445
871.23	6684
871.36	6753
871.489	6684
871.619	6719
871.749	6795
871.879	6897
872.008	7027
872.138	6966
872.267	7050
872.397	7004
872.526	7031
872.656	7080
872.785	7091
872.915	7335
873.044	7518
873.173	7559
873.303	7624
873.432	7818
873.561	7902
873.69	7917
873.819	7989
873.948	8100
874.077	8267
874.206	8279
874.335	8446
874.464	8602
874.593	8952
874.722	8971
874.851	9199
874.979	9283
875.108	9363
875.237	9447
875.365	9507
875.494	9641
875.623	9892
875.751	9804
875.88	10036
876.008	10242
876.136	10318
876.265	10504
876.393	10660
876.521	10729
876.65	10786
876.778	10930
876.906	10946
877.034	11041
877.162	11143
877.29	11185
877.418	11231
877.546	11406
877.674	11326
877.802	11482
877.93	11554
878.058	11520
878.185	11528
878.313	11657
878.441	11802
878.568	11653
878.696	11809
878.824	11920
878.951	11923
879.079	12072
879.206	12194
879.333	12060
879.461	11988
879.588	12201
879.715	12034
879.842	12277
879.97	12060
880.097	11840
880.224	11939
880.351	11859
880.478	11977
880.605	11851
880.732	11771
880.859	11927
880.986	11767
881.112	11878
881.239	11756
881.366	11668
881.493	11718
881.619	11501
881.746	11539
881.872	11509
881.999	11532
882.125	11516
882.252	11558
882.378	11516
882.505	11585
882.631	11337
882.757	11345
882.883	11391
883.01	11315
883.136	11204
883.262	11136
883.388	11124
883.514	11216
883.64	11220
883.766	11204
883.892	11025
884.018	11006
884.143	11045
884.269	11098
884.395	10782
884.52	10911
884.646	10782
884.772	10687
884.897	10653
885.023	10683
885.148	10683
885.274	10797
885.399	10687
885.524	10683
885.65	10538
885.775	10622
885.9	10607
886.025	10634
886.15	10542
886.275	10382
886.4	10398
886.525	10428
886.65	10428
886.775	10333
886.9	10443
887.025	10554
887.149	10386
887.274	10272
887.399	10230
887.523	10166
887.648	10200
887.773	10120
887.897	10230
888.021	10238
888.146	10185
888.27	10261
888.395	10249
888.519	10219
888.643	10249
888.767	10253
888.891	10059
889.015	10090
889.139	10051
889.263	10029
889.387	10059
889.511	10017
889.635	10109
889.759	10010
889.883	9895
890.006	9949
890.13	10196
890.254	9975
890.377	10036
890.501	9865
890.624	9835
890.748	9880
890.871	9854
890.995	9736
891.118	9679
891.241	9785
891.364	9720
891.488	9861
891.611	9766
891.734	9778
891.857	9804
891.98	9717
892.103	9781
892.226	9705
892.349	9644
892.471	9564
892.594	9595
892.717	9576
892.839	9682
892.962	9652
893.085	9648
893.207	9614
893.33	9530
893.452	9549
893.575	9679
893.697	9553
893.819	9698
893.941	9644
894.064	9652
894.186	9420
894.308	9458
894.43	9644
894.552	9572
894.674	9519
894.796	9374
894.918	9424
895.04	9424
895.161	9454
895.283	9370
895.405	9268
895.526	9287
895.648	9260
895.769	9249
895.891	9287
896.012	9325
896.134	9245
896.255	9264
896.376	9123
896.498	9142
896.619	9123
896.74	9085
896.861	9077
896.982	9214
897.103	9287
897.224	9116
897.345	9093
897.466	9051
897.587	9039
897.708	9077
897.828	9058
897.949	8933
898.07	8941
898.19	8910
898.311	9051
898.431	8971
898.552	8891
898.672	8979
898.792	8906
898.913	8883
899.033	8754
899.153	8777
899.273	8720
899.393	8720
899.513	8769
899.633	8788
899.753	8712
899.873	8693
899.993	8766
900.113	8823
900.232	8758
900.352	8602
900.472	8648
900.591	8568
900.711	8644
900.83	8602
900.95	8659
901.069	8663
901.189	8503
901.308	8450
901.427	8438
901.546	8374
901.665	8415
901.784	8469
901.904	8374
902.023	8358
902.141	8248
902.26	8199
902.379	8298
902.498	8290
902.617	8195
902.735	8404
902.854	8313
902.973	8309
903.091	8138
903.21	8172
903.328	8145
903.446	8142
903.565	8069
903.683	8065
903.801	8062
903.919	8123
904.038	8161
904.156	8031
904.274	8081
904.392	8058
904.51	8001
904.627	8073
904.745	8084
904.863	8092
904.981	7947
905.098	7845
905.216	7947
905.334	7894
905.451	7898
905.569	7913
905.686	7944
905.803	7955
905.921	7856
906.038	7833
906.155	7811
906.272	7761
906.389	7727
906.506	7594
906.623	7578
906.74	7597
906.857	7552
906.974	7575
907.091	7658
907.208	7693
907.324	7681
907.441	7556
907.557	7476
907.674	7468
907.79	7419
907.907	7331
908.023	7460
908.139	7407
908.256	7403
908.372	7316
908.488	7422
908.604	7282
908.72	7236
908.836	7343
908.952	7301
909.068	7236
909.184	7293
909.3	7324
909.415	7316
909.531	7350
909.647	7152
909.762	7072
909.878	7095
909.993	7114
910.108	7152
910.224	7091
910.339	7103
910.454	7031
910.57	7057
910.685	6913
910.8	7213
910.915	7103
911.03	7095
911.145	6894
911.259	6909
911.374	6920
911.489	6833
911.604	6852
911.718	6734
911.833	6749
911.947	6684
912.062	6597
912.176	6753
912.291	6688
912.405	6662
912.519	6802
912.633	6878
912.748	6787
912.862	6711
912.976	6631
913.09	6574
913.204	6555
913.318	6669
913.431	6669
913.545	6627
913.659	6753
913.772	6673
913.886	6620
914	6608
914.113	6627
914.226	6684
914.34	6601
914.453	6547
914.566	6620
914.68	6566
914.793	6540
914.906	6437
915.019	6429
915.132	6433
915.245	6448
915.358	6467
915.47	6437
915.583	6452
915.696	6448
915.809	6532
915.921	6585
916.034	6414
916.146	6407
916.259	6353
916.371	6513
916.483	6483
916.595	6429
916.708	6414
916.82	6429
916.932	6452
917.044	6391
917.156	6391
917.268	6342
917.38	6372
917.491	6334
917.603	6346
917.715	6353
917.826	6407
917.938	6342
918.049	6228
918.161	6338
918.272	6448
918.384	6479
918.495	6361
918.606	6235
918.717	6197
918.828	6292
918.939	6254
919.05	6247
919.161	6251
919.272	6117
919.383	6186
919.494	6315
919.604	6437
919.715	6262
919.826	6235
919.936	6277
920.047	6323
920.157	6194
920.267	6536
920.378	6334
920.488	6323
920.598	6506
920.708	6578
920.818	6426
920.928	6467
921.038	6563
921.148	6578
921.258	6380
921.368	6323
921.477	6209
921.587	6159
921.697	6171
921.806	6175
921.916	6095
922.025	6011
922.134	5969
922.244	5904
922.353	5923
922.462	5904
922.571	5832
922.68	5710
922.789	5733
922.898	5726
923.007	5684
923.116	5699
923.224	5710
923.333	5665
923.442	5604
923.55	5596
923.659	5611
923.767	5638
923.876	5520
923.984	5646
924.092	5585
924.201	5592
924.309	5551
924.417	5592
924.525	5493
924.633	5554
924.741	6285
924.849	5379
924.956	5547
925.064	5387
925.172	5258
925.279	5326
925.387	5402
925.494	5299
925.602	5421
925.709	5414
925.816	5284
925.924	5296
926.031	5402
926.138	5357
926.245	5322
926.352	5258
926.459	5288
926.566	5391
926.673	5181
926.779	5174
926.886	5109
926.993	5033
927.099	5056
927.206	4991
927.312	4984
927.419	5029
927.525	4968
927.631	5014
927.737	4896
927.843	4892
927.95	4786
928.056	4771
928.162	4873
928.267	4904
928.373	5277
928.479	4835
928.585	4683
928.69	4790
928.796	4801
928.901	4717
929.007	4603
929.112	4698
929.218	4664
929.323	4630
929.428	4554
929.533	4668
929.638	4531
929.743	4554
929.848	4519
929.953	4542
930.058	4459
930.163	4325
930.267	4367
930.372	4394
930.477	4310
930.581	4478
930.685	4413
930.79	4261
930.894	4314
930.998	4265
931.103	4443
931.207	4162
931.311	4143
931.415	4040
931.519	3918
931.623	3953
