Data from glass_V78500241_637.txt Node
Date: Wed Sep 01 19:18:54 CST 2021
User: usil
Spectrometer: V785-0024
Trigger mode: 0
Integration Time (sec): 4.000000E-1
Scans to average: 1
Nonlinearity correction enabled: false
Boxcar width: 0
Storing dark spectrum: false
XAxis mode: Wavelengths
Number of Pixels in Spectrum: 1024
>>>>>Begin Spectral Data<<<<<
801.071	3698
801.214	3774
801.356	3743
801.499	3770
801.641	3774
801.783	3797
801.926	3880
802.068	3846
802.211	3907
802.353	3892
802.496	3804
802.638	3857
802.78	3934
802.923	3987
803.065	3907
803.208	3861
803.35	3838
803.492	3899
803.635	3953
803.777	3804
803.919	3903
804.061	4173
804.204	3991
804.346	3968
804.488	3911
804.63	4055
804.773	3972
804.915	4029
805.057	4154
805.199	4029
805.341	4131
805.483	4120
805.626	4169
805.768	4124
805.91	4227
806.052	4230
806.194	4215
806.336	4386
806.478	4242
806.62	4192
806.762	4242
806.904	4303
807.046	4325
807.188	4227
807.33	4200
807.472	4303
807.614	4147
807.756	4223
807.898	4249
808.04	4268
808.182	4287
808.324	4295
808.465	4398
808.607	4481
808.749	4508
808.891	4455
809.033	4519
809.174	4466
809.316	4276
809.458	4253
809.6	4150
809.741	4150
809.883	4131
810.025	4196
810.166	4242
810.308	4238
810.45	4318
810.591	4280
810.733	4306
810.875	4542
811.016	4866
811.158	5193
811.299	5288
811.441	5318
811.582	5132
811.724	4725
811.865	4455
812.007	4500
812.148	4466
812.29	4405
812.431	4447
812.573	4459
812.714	4363
812.855	4386
812.997	4405
813.138	4504
813.279	4424
813.421	4413
813.562	4367
813.703	4284
813.845	4295
813.986	4253
814.127	4253
814.268	4257
814.41	4272
814.551	4284
814.692	4272
814.833	4276
814.974	4310
815.115	4383
815.256	4284
815.397	4272
815.539	4268
815.68	4196
815.821	4249
815.962	4329
816.103	4295
816.244	4230
816.385	4276
816.526	4280
816.666	4215
816.807	4109
816.948	4185
817.089	4185
817.23	4135
817.371	4074
817.512	4059
817.653	4090
817.793	4086
817.934	4017
818.075	4128
818.216	4116
818.356	4097
818.497	4036
818.638	3934
818.778	3926
818.919	3903
819.06	3899
819.2	3922
819.341	3884
819.481	3869
819.622	3915
819.762	4032
819.903	3953
820.043	3865
820.184	3846
820.324	3873
820.465	3873
820.605	3899
820.746	3884
820.886	3854
821.026	3949
821.167	3918
821.307	3937
821.447	3979
821.588	3964
821.728	3972
821.868	3945
822.008	3926
822.149	3934
822.289	3945
822.429	3819
822.569	3778
822.709	3819
822.849	3694
822.99	3755
823.13	3793
823.27	3808
823.41	3724
823.55	3766
823.69	3709
823.83	3743
823.97	3671
824.11	3629
824.25	3610
824.389	3637
824.529	3675
824.669	3652
824.809	3701
824.949	3778
825.089	3755
825.228	3709
825.368	3568
825.508	3572
825.648	3564
825.787	3614
825.927	3637
826.067	3644
826.206	3671
826.346	3819
826.485	3846
826.625	3873
826.765	3968
826.904	3838
827.044	3652
827.183	3523
827.323	3458
827.462	3481
827.601	3431
827.741	3431
827.88	3485
828.02	3370
828.159	3416
828.298	3530
828.437	3538
828.577	3496
828.716	3599
828.855	3519
828.994	3386
829.134	3401
829.273	3412
829.412	3332
829.551	3359
829.69	3424
829.829	3469
829.968	3564
830.107	3473
830.246	3477
830.385	3439
830.524	3389
830.663	3321
830.802	3272
830.941	3214
831.08	3184
831.219	3279
831.357	3294
831.496	3431
831.635	3245
831.774	3192
831.913	3195
832.051	3154
832.19	3184
832.329	3256
832.467	3150
832.606	3112
832.744	3161
832.883	3184
833.022	3245
833.16	3275
833.299	3332
833.437	3355
833.576	3389
833.714	3450
833.852	3409
833.991	3466
834.129	3477
834.267	3462
834.406	3386
834.544	3458
834.682	3420
834.821	3439
834.959	3576
835.097	3454
835.235	3511
835.373	3496
835.511	3515
835.65	3469
835.788	3477
835.926	3401
836.064	3401
836.202	3401
836.34	3526
836.478	3599
836.615	3545
836.753	3625
836.891	3644
837.029	3667
837.167	3648
837.305	3576
837.443	3576
837.58	3496
837.718	3648
837.856	3599
837.993	3568
838.131	3587
838.269	3603
838.406	3614
838.544	3625
838.681	3443
838.819	3488
838.956	3405
839.094	3382
839.231	3466
839.369	3515
839.506	3755
839.643	3713
839.781	3492
839.918	3496
840.055	3595
840.193	3523
840.33	3545
840.467	3584
840.604	3629
840.742	3819
840.879	3572
841.016	3587
841.153	3633
841.29	3770
841.427	3759
841.564	3743
841.701	3743
841.838	3705
841.975	3679
842.112	3740
842.249	3633
842.385	3663
842.522	3861
842.659	3709
842.796	3682
842.933	3751
843.069	3724
843.206	3713
843.343	3850
843.479	3812
843.616	3854
843.752	3698
843.889	3663
844.025	3842
844.162	3751
844.298	3850
844.435	3797
844.571	3800
844.708	3884
844.844	4006
844.98	4010
845.117	4044
845.253	3941
845.389	3926
845.525	3964
845.661	4010
845.798	3953
845.934	4029
846.07	3975
846.206	4093
846.342	4101
846.478	4063
846.614	3983
846.75	3949
846.886	3911
847.022	4029
847.158	3983
847.294	4036
847.429	4059
847.565	3960
847.701	4227
847.837	3899
847.972	3884
848.108	4040
848.244	3991
848.379	3888
848.515	3869
848.65	3804
848.786	3823
848.921	3899
849.057	3945
849.192	3926
849.328	3934
849.463	3937
849.598	3945
849.734	3896
849.869	3835
850.004	3838
850.14	3827
850.275	3766
850.41	3774
850.545	3751
850.68	3827
850.815	3789
850.95	3812
851.085	3968
851.22	3865
851.355	3835
851.49	3766
851.625	3819
851.76	3827
851.895	3755
852.03	3736
852.165	3831
852.299	3850
852.434	3926
852.569	3876
852.703	3873
852.838	3888
852.973	4044
853.107	4002
853.242	3896
853.376	3907
853.511	3819
853.645	3892
853.78	3991
853.914	3907
854.048	3884
854.183	3896
854.317	3994
854.451	4078
854.585	3991
854.72	3953
854.854	4051
854.988	3953
855.122	4017
855.256	3934
855.39	4082
855.524	4150
855.658	4074
855.792	4086
855.926	4162
856.06	4166
856.194	4242
856.327	4143
856.461	4131
856.595	4196
856.729	4158
856.862	4299
856.996	4272
857.13	4295
857.263	4356
857.397	4383
857.53	4280
857.664	4341
857.797	4405
857.931	4417
858.064	4451
858.197	4478
858.331	4424
858.464	4409
858.597	4299
858.731	4497
858.864	4470
858.997	4428
859.13	4512
859.263	4512
859.396	4596
859.529	4527
859.662	4546
859.795	4512
859.928	4596
860.061	4759
860.194	4736
860.327	4672
860.46	4656
860.592	4763
860.725	4816
860.858	4786
860.99	4733
861.123	4714
861.256	4694
861.388	4816
861.521	5284
861.653	4733
861.786	4694
861.918	4725
862.05	4843
862.183	4828
862.315	4919
862.447	4980
862.58	4953
862.712	4805
862.844	4786
862.976	4911
863.108	4873
863.24	5212
863.372	4847
863.504	4923
863.636	4934
863.768	4968
863.9	4972
864.032	4957
864.164	4991
864.296	5048
864.428	5151
864.559	5121
864.691	5178
864.823	5166
864.954	5086
865.086	5174
865.217	5132
865.349	5083
865.48	5201
865.612	5212
865.743	5303
865.875	5197
866.006	5204
866.137	5242
866.269	5223
866.4	5242
866.531	5239
866.662	5261
866.793	5277
866.924	5299
867.055	5322
867.186	5360
867.317	5341
867.448	5269
867.579	5383
867.71	5391
867.841	5395
867.972	5509
868.103	5505
868.233	5551
868.364	5520
868.495	5547
868.625	5665
868.756	5802
868.886	5695
869.017	5710
869.147	5847
869.278	5870
869.408	5847
869.539	5855
869.669	5973
869.799	5931
869.929	5988
870.06	6060
870.19	6205
870.32	6163
870.45	6311
870.58	6369
870.71	6426
870.84	6490
870.97	6426
871.1	6498
871.23	6642
871.36	6715
871.489	6608
871.619	6772
871.749	6821
871.879	6867
872.008	6943
872.138	6996
872.267	7008
872.397	6996
872.526	7053
872.656	7061
872.785	7171
872.915	7422
873.044	7521
873.173	7651
873.303	7685
873.432	7833
873.561	7879
873.69	7871
873.819	8084
873.948	8180
874.077	8206
874.206	8374
874.335	8396
874.464	8655
874.593	8891
874.722	8952
874.851	9157
874.979	9169
875.108	9382
875.237	9397
875.365	9481
875.494	9713
875.623	9835
875.751	9812
875.88	10055
876.008	10112
876.136	10299
876.265	10497
876.393	10729
876.521	10736
876.65	10835
876.778	10892
876.906	10976
877.034	11025
877.162	11178
877.29	11261
877.418	11337
877.546	11376
877.674	11482
877.802	11509
877.93	11573
878.058	11528
878.185	11581
878.313	11741
878.441	11767
878.568	11707
878.696	11764
878.824	11813
878.951	11946
879.079	12034
879.206	12121
879.333	12019
879.461	12121
879.588	12102
879.715	12026
879.842	12216
879.97	12129
880.097	11843
880.224	11901
880.351	11912
880.478	11920
880.605	11836
880.732	11855
880.859	12007
880.986	11805
881.112	11859
881.239	11836
881.366	11684
881.493	11600
881.619	11539
881.746	11627
881.872	11570
881.999	11509
882.125	11474
882.252	11524
882.378	11642
882.505	11661
882.631	11364
882.757	11223
882.883	11337
883.01	11258
883.136	11201
883.262	11128
883.388	11102
883.514	11117
883.64	11197
883.766	11143
883.892	11037
884.018	11033
884.143	11060
884.269	11102
884.395	10835
884.52	10831
884.646	10793
884.772	10694
884.897	10653
885.023	10645
885.148	10725
885.274	10725
885.399	10725
885.524	10622
885.65	10634
885.775	10599
885.9	10577
886.025	10634
886.15	10573
886.275	10455
886.4	10409
886.525	10402
886.65	10310
886.775	10356
886.9	10409
887.025	10504
887.149	10337
887.274	10227
887.399	10223
887.523	10124
887.648	10120
887.773	10086
887.897	10196
888.021	10223
888.146	10166
888.27	10227
888.395	10223
888.519	10177
888.643	10158
888.767	10242
888.891	10021
889.015	10021
889.139	10048
889.263	9983
889.387	10147
889.511	10166
889.635	10074
889.759	9994
889.883	9956
890.006	9975
890.13	10101
890.254	9937
890.377	10010
890.501	9899
890.624	9892
890.748	9899
890.871	9789
890.995	9793
891.118	9679
891.241	9770
891.364	9774
891.488	9850
891.611	9759
891.734	9732
891.857	9778
891.98	9660
892.103	9800
892.226	9736
892.349	9576
892.471	9663
892.594	9629
892.717	9679
892.839	9599
892.962	9603
893.085	9682
893.207	9580
893.33	9473
893.452	9553
893.575	9644
893.697	9523
893.819	9652
893.941	9584
894.064	9599
894.186	9492
894.308	9332
894.43	9576
894.552	9549
894.674	9591
894.796	9355
894.918	9408
895.04	9386
895.161	9416
895.283	9298
895.405	9260
895.526	9291
895.648	9203
895.769	9325
895.891	9313
896.012	9275
896.134	9256
896.255	9203
896.376	9138
896.498	9165
896.619	9100
896.74	9043
896.861	9085
896.982	9317
897.103	9298
897.224	9214
897.345	9009
897.466	9024
897.587	9017
897.708	9165
897.828	8982
897.949	8963
898.07	8872
898.19	8941
898.311	9020
898.431	8891
898.552	9028
898.672	9017
898.792	8933
898.913	8914
899.033	8777
899.153	8785
899.273	8701
899.393	8731
899.513	8792
899.633	8739
899.753	8773
899.873	8735
899.993	8804
900.113	8788
900.232	8743
900.352	8693
900.472	8682
900.591	8499
900.711	8670
900.83	8549
900.95	8610
901.069	8712
901.189	8575
901.308	8450
901.427	8377
901.546	8469
901.665	8492
901.784	8556
901.904	8358
902.023	8339
902.141	8259
902.26	8240
902.379	8336
902.498	8256
902.617	8229
902.735	8320
902.854	8313
902.973	8294
903.091	8138
903.21	8218
903.328	8199
903.446	8145
903.565	8107
903.683	8096
903.801	8073
903.919	8058
904.038	8081
904.156	8096
904.274	8115
904.392	8073
904.51	7993
904.627	8111
904.745	8077
904.863	8123
904.981	7955
905.098	7970
905.216	7887
905.334	7925
905.451	7944
905.569	7944
905.686	7963
905.803	7982
905.921	7731
906.038	7887
906.155	7761
906.272	7685
906.389	7715
906.506	7597
906.623	7575
906.74	7613
906.857	7563
906.974	7567
907.091	7658
907.208	7723
907.324	7708
907.441	7609
907.557	7502
907.674	7377
907.79	7422
907.907	7339
908.023	7445
908.139	7441
908.256	7396
908.372	7339
908.488	7434
908.604	7312
908.72	7255
908.836	7289
908.952	7198
909.068	7274
909.184	7373
909.3	7316
909.415	7331
909.531	7274
909.647	7110
909.762	7171
909.878	7065
909.993	7149
910.108	7080
910.224	7103
910.339	7110
910.454	7050
910.57	7053
910.685	7042
910.8	7160
910.915	7164
911.03	7076
911.145	6894
911.259	6928
911.374	6890
911.489	6863
911.604	6840
911.718	6711
911.833	6795
911.947	6684
912.062	6627
912.176	6719
912.291	6707
912.405	6707
912.519	6779
912.633	6856
912.748	6738
912.862	6726
912.976	6662
913.09	6483
913.204	6631
913.318	6642
913.431	6665
913.545	6684
913.659	6726
913.772	6696
913.886	6627
914	6566
914.113	6684
914.226	6627
914.34	6642
914.453	6608
914.566	6612
914.68	6547
914.793	6544
914.906	6422
915.019	6418
915.132	6414
915.245	6471
915.358	6502
915.47	6483
915.583	6509
915.696	6517
915.809	6570
915.921	6574
916.034	6448
916.146	6460
916.259	6399
916.371	6479
916.483	6486
916.595	6403
916.708	6433
916.82	6414
916.932	6346
917.044	6388
917.156	6376
917.268	6254
917.38	6304
917.491	6331
917.603	6342
917.715	6422
917.826	6437
917.938	6319
918.049	6285
918.161	6311
918.272	6357
918.384	6452
918.495	6376
918.606	6277
918.717	6232
918.828	6254
918.939	6205
919.05	6148
919.161	6277
919.272	6148
919.383	6171
919.494	6323
919.604	6422
919.715	6270
919.826	6209
919.936	6285
920.047	6445
920.157	6273
920.267	6502
920.378	6323
920.488	6311
920.598	6460
920.708	6513
920.818	6464
920.928	6532
921.038	6517
921.148	6547
921.258	6357
921.368	6346
921.477	6175
921.587	6171
921.697	6098
921.806	6224
921.916	6140
922.025	5958
922.134	5931
922.244	5855
922.353	5999
922.462	5863
922.571	5863
922.68	5737
922.789	5718
922.898	5691
923.007	5707
923.116	5741
923.224	5703
923.333	5695
923.442	5623
923.55	5604
923.659	5589
923.767	5638
923.876	5528
923.984	5638
924.092	5486
924.201	5623
924.309	5573
924.417	5554
924.525	5486
924.633	5509
924.741	6315
924.849	5383
924.956	5520
925.064	5368
925.172	5284
925.279	5337
925.387	5364
925.494	5353
925.602	5440
925.709	5360
925.816	5261
925.924	5334
926.031	5337
926.138	5318
926.245	5280
926.352	5208
926.459	5334
926.566	5379
926.673	5181
926.779	5151
926.886	5140
926.993	5079
927.099	5052
927.206	5033
927.312	4949
927.419	5029
927.525	5003
927.631	5006
927.737	4870
927.843	4896
927.95	4790
928.056	4866
928.162	4843
928.267	4870
928.373	5265
928.479	4812
928.585	4717
928.69	4729
928.796	4771
928.901	4729
929.007	4596
929.112	4683
929.218	4675
929.323	4634
929.428	4577
929.533	4630
929.638	4523
929.743	4580
929.848	4531
929.953	4512
930.058	4493
930.163	4322
930.267	4360
930.372	4470
930.477	4318
930.581	4478
930.685	4329
930.79	4249
930.894	4318
930.998	4272
931.103	4402
931.207	4131
931.311	4112
931.415	4082
931.519	3968
931.623	3994
