Data from glass_V78500241_2300.txt Node
Date: Wed Sep 01 19:30:26 CST 2021
User: usil
Spectrometer: V785-0024
Trigger mode: 0
Integration Time (sec): 4.000000E-1
Scans to average: 1
Nonlinearity correction enabled: false
Boxcar width: 0
Storing dark spectrum: false
XAxis mode: Wavelengths
Number of Pixels in Spectrum: 1024
>>>>>Begin Spectral Data<<<<<
801.071	3698
801.214	3762
801.356	3679
801.499	3709
801.641	3728
801.783	3781
801.926	3842
802.068	3842
802.211	3880
802.353	3873
802.496	3846
802.638	3896
802.78	3892
802.923	3911
803.065	3896
803.208	3816
803.35	3857
803.492	3915
803.635	3857
803.777	3800
803.919	3915
804.061	4128
804.204	3945
804.346	3945
804.488	3930
804.63	3979
804.773	3987
804.915	4010
805.057	4154
805.199	4051
805.341	4048
805.483	4162
805.626	4131
805.768	4135
805.91	4196
806.052	4272
806.194	4166
806.336	4363
806.478	4181
806.62	4207
806.762	4181
806.904	4211
807.046	4284
807.188	4211
807.33	4147
807.472	4234
807.614	4211
807.756	4238
807.898	4185
808.04	4238
808.182	4257
808.324	4314
808.465	4360
808.607	4504
808.749	4443
808.891	4478
809.033	4455
809.174	4436
809.316	4249
809.458	4227
809.6	4166
809.741	4192
809.883	4177
810.025	4185
810.166	4227
810.308	4192
810.45	4223
810.591	4257
810.733	4295
810.875	4497
811.016	4771
811.158	5121
811.299	5265
811.441	5277
811.582	5105
811.724	4721
811.865	4451
812.007	4500
812.148	4459
812.29	4424
812.431	4413
812.573	4375
812.714	4356
812.855	4413
812.997	4447
813.138	4523
813.279	4394
813.421	4383
813.562	4402
813.703	4322
813.845	4344
813.986	4215
814.127	4200
814.268	4287
814.41	4318
814.551	4257
814.692	4268
814.833	4215
814.974	4291
815.115	4322
815.256	4287
815.397	4230
815.539	4284
815.68	4238
815.821	4215
815.962	4303
816.103	4329
816.244	4196
816.385	4230
816.526	4291
816.666	4173
816.807	4051
816.948	4139
817.089	4154
817.23	4150
817.371	4063
817.512	4074
817.653	4093
817.793	4040
817.934	4032
818.075	4071
818.216	4067
818.356	4116
818.497	4013
818.638	3907
818.778	3865
818.919	3884
819.06	3892
819.2	3911
819.341	3835
819.481	3827
819.622	3876
819.762	4013
819.903	3941
820.043	3816
820.184	3846
820.324	3808
820.465	3873
820.605	3831
820.746	3831
820.886	3743
821.026	3922
821.167	3903
821.307	3960
821.447	4025
821.588	3941
821.728	3903
821.868	3949
822.008	3880
822.149	3911
822.289	3903
822.429	3785
822.569	3766
822.709	3797
822.849	3633
822.99	3701
823.13	3751
823.27	3781
823.41	3728
823.55	3667
823.69	3686
823.83	3755
823.97	3660
824.11	3587
824.25	3610
824.389	3591
824.529	3667
824.669	3618
824.809	3694
824.949	3751
825.089	3720
825.228	3682
825.368	3591
825.508	3542
825.648	3564
825.787	3599
825.927	3606
826.067	3644
826.206	3644
826.346	3808
826.485	3812
826.625	3857
826.765	3926
826.904	3838
827.044	3622
827.183	3492
827.323	3416
827.462	3454
827.601	3435
827.741	3431
827.88	3492
828.02	3355
828.159	3397
828.298	3469
828.437	3530
828.577	3462
828.716	3572
828.855	3500
828.994	3363
829.134	3370
829.273	3389
829.412	3374
829.551	3348
829.69	3340
829.829	3454
829.968	3515
830.107	3424
830.246	3443
830.385	3359
830.524	3363
830.663	3279
830.802	3272
830.941	3161
831.08	3203
831.219	3275
831.357	3222
831.496	3386
831.635	3226
831.774	3184
831.913	3218
832.051	3127
832.19	3165
832.329	3233
832.467	3161
832.606	3112
832.744	3142
832.883	3142
833.022	3176
833.16	3211
833.299	3329
833.437	3310
833.576	3359
833.714	3370
833.852	3443
833.991	3428
834.129	3431
834.267	3409
834.406	3370
834.544	3397
834.682	3393
834.821	3389
834.959	3557
835.097	3397
835.235	3473
835.373	3458
835.511	3500
835.65	3462
835.788	3473
835.926	3401
836.064	3348
836.202	3370
836.34	3584
836.478	3580
836.615	3530
836.753	3591
836.891	3629
837.029	3652
837.167	3610
837.305	3511
837.443	3523
837.58	3450
837.718	3622
837.856	3542
837.993	3534
838.131	3580
838.269	3561
838.406	3553
838.544	3568
838.681	3507
838.819	3469
838.956	3348
839.094	3405
839.231	3420
839.369	3492
839.506	3755
839.643	3610
839.781	3523
839.918	3477
840.055	3511
840.193	3530
840.33	3542
840.467	3538
840.604	3568
840.742	3774
840.879	3511
841.016	3538
841.153	3545
841.29	3747
841.427	3690
841.564	3686
841.701	3732
841.838	3675
841.975	3713
842.112	3694
842.249	3606
842.385	3606
842.522	3816
842.659	3663
842.796	3637
842.933	3705
843.069	3713
843.206	3682
843.343	3778
843.479	3781
843.616	3846
843.752	3667
843.889	3694
844.025	3861
844.162	3694
844.298	3838
844.435	3785
844.571	3846
844.708	3880
844.844	3979
844.98	4017
845.117	3994
845.253	3899
845.389	3896
845.525	3953
845.661	3949
845.798	3922
845.934	4010
846.07	3945
846.206	4025
846.342	4105
846.478	4044
846.614	3930
846.75	3949
846.886	3915
847.022	4071
847.158	3979
847.294	3987
847.429	4013
847.565	4040
847.701	4207
847.837	3842
847.972	3892
848.108	3960
848.244	3960
848.379	3827
848.515	3800
848.65	3778
848.786	3846
848.921	3854
849.057	3907
849.192	3983
849.328	3899
849.463	3918
849.598	3892
849.734	3869
849.869	3838
850.004	3755
850.14	3774
850.275	3774
850.41	3705
850.545	3717
850.68	3766
850.815	3823
850.95	3774
851.085	3956
851.22	3835
851.355	3781
851.49	3789
851.625	3800
851.76	3736
851.895	3762
852.03	3701
852.165	3781
852.299	3812
852.434	3884
852.569	3857
852.703	3896
852.838	3888
852.973	3975
853.107	3979
853.242	3903
853.376	3800
853.511	3770
853.645	3846
853.78	3918
853.914	3865
854.048	3896
854.183	3907
854.317	3991
854.451	4025
854.585	3911
854.72	3876
854.854	4021
854.988	3911
855.122	3983
855.256	3907
855.39	3994
855.524	4124
855.658	4090
855.792	4090
855.926	4139
856.06	4162
856.194	4188
856.327	4143
856.461	4105
856.595	4139
856.729	4181
856.862	4265
856.996	4192
857.13	4318
857.263	4337
857.397	4341
857.53	4261
857.664	4344
857.797	4363
857.931	4421
858.064	4367
858.197	4421
858.331	4386
858.464	4383
858.597	4333
858.731	4386
858.864	4466
858.997	4455
859.13	4504
859.263	4519
859.396	4558
859.529	4554
859.662	4508
859.795	4546
859.928	4588
860.061	4683
860.194	4759
860.327	4641
860.46	4622
860.592	4721
860.725	4733
860.858	4748
860.99	4668
861.123	4733
861.256	4717
861.388	4812
861.521	5349
861.653	4714
861.786	4687
861.918	4763
862.05	4809
862.183	4801
862.315	4873
862.447	4946
862.58	4835
862.712	4759
862.844	4771
862.976	4854
863.108	4847
863.24	5140
863.372	4801
863.504	4930
863.636	4839
863.768	4896
863.9	4987
864.032	4896
864.164	4934
864.296	5037
864.428	5083
864.559	5067
864.691	5105
864.823	5113
864.954	5128
865.086	5102
865.217	5121
865.349	5113
865.48	5143
865.612	5170
865.743	5277
865.875	5181
866.006	5189
866.137	5235
866.269	5212
866.4	5269
866.531	5261
866.662	5185
866.793	5277
866.924	5265
867.055	5284
867.186	5307
867.317	5288
867.448	5315
867.579	5376
867.71	5402
867.841	5360
867.972	5448
868.103	5425
868.233	5455
868.364	5493
868.495	5551
868.625	5661
868.756	5805
868.886	5691
869.017	5726
869.147	5798
869.278	5870
869.408	5832
869.539	5824
869.669	5882
869.799	5935
869.929	5984
870.06	5939
870.19	6144
870.32	6197
870.45	6239
870.58	6361
870.71	6437
870.84	6445
870.97	6380
871.1	6376
871.23	6597
871.36	6703
871.489	6692
871.619	6764
871.749	6837
871.879	6821
872.008	6947
872.138	6954
872.267	7012
872.397	6985
872.526	7031
872.656	7084
872.785	7221
872.915	7331
873.044	7480
873.173	7537
873.303	7609
873.432	7776
873.561	7818
873.69	7879
873.819	8012
873.948	8126
874.077	8275
874.206	8298
874.335	8446
874.464	8667
874.593	8880
874.722	8925
874.851	9085
874.979	9272
875.108	9389
875.237	9443
875.365	9443
875.494	9603
875.623	9869
875.751	9724
875.88	9964
876.008	10109
876.136	10204
876.265	10497
876.393	10733
876.521	10660
876.65	10831
876.778	10843
876.906	10877
877.034	10984
877.162	11060
877.29	11197
877.418	11277
877.546	11330
877.674	11467
877.802	11490
877.93	11554
878.058	11512
878.185	11585
878.313	11623
878.441	11710
878.568	11638
878.696	11733
878.824	11809
878.951	11885
879.079	12038
879.206	12136
879.333	12076
879.461	11961
879.588	12068
879.715	11999
879.842	12220
879.97	12022
880.097	11988
880.224	11840
880.351	11866
880.478	11904
880.605	11870
880.732	11752
880.859	11954
880.986	11870
881.112	11855
881.239	11729
881.366	11638
881.493	11627
881.619	11558
881.746	11539
881.872	11547
881.999	11547
882.125	11478
882.252	11554
882.378	11520
882.505	11512
882.631	11337
882.757	11330
882.883	11269
883.01	11280
883.136	11246
883.262	11208
883.388	11098
883.514	11189
883.64	11098
883.766	11064
883.892	11014
884.018	11003
884.143	11128
884.269	11056
884.395	10835
884.52	10714
884.646	10771
884.772	10710
884.897	10584
885.023	10622
885.148	10733
885.274	10755
885.399	10687
885.524	10656
885.65	10561
885.775	10577
885.9	10462
886.025	10599
886.15	10538
886.275	10428
886.4	10352
886.525	10363
886.65	10314
886.775	10306
886.9	10493
887.025	10573
887.149	10310
887.274	10181
887.399	10124
887.523	10150
887.648	10086
887.773	10010
887.897	10234
888.021	10246
888.146	10109
888.27	10204
888.395	10249
888.519	10227
888.643	10173
888.767	10154
888.891	10071
889.015	9994
889.139	10074
889.263	9949
889.387	10086
889.511	10090
889.635	9991
889.759	9972
889.883	10017
890.006	10021
890.13	10059
890.254	9941
890.377	9945
890.501	9835
890.624	9888
890.748	9876
890.871	9797
890.995	9717
891.118	9701
891.241	9766
891.364	9774
891.488	9762
891.611	9713
891.734	9663
891.857	9713
891.98	9694
892.103	9724
892.226	9690
892.349	9648
892.471	9466
892.594	9591
892.717	9526
892.839	9538
892.962	9591
893.085	9671
893.207	9618
893.33	9496
893.452	9568
893.575	9545
893.697	9450
893.819	9637
893.941	9576
894.064	9606
894.186	9397
894.308	9428
894.43	9450
894.552	9519
894.674	9420
894.796	9344
894.918	9412
895.04	9298
895.161	9374
895.283	9367
895.405	9253
895.526	9264
895.648	9203
895.769	9336
895.891	9310
896.012	9355
896.134	9272
896.255	9100
896.376	9165
896.498	9131
896.619	9070
896.74	9020
896.861	9055
896.982	9283
897.103	9325
897.224	9097
897.345	9085
897.466	8982
897.587	9020
897.708	9173
897.828	9066
897.949	8982
898.07	8845
898.19	8895
898.311	8986
898.431	8906
898.552	8925
898.672	8971
898.792	8944
898.913	8876
899.033	8720
899.153	8659
899.273	8632
899.393	8769
899.513	8705
899.633	8697
899.753	8788
899.873	8716
899.993	8777
900.113	8720
900.232	8678
900.352	8667
900.472	8602
900.591	8507
900.711	8564
900.83	8476
900.95	8655
901.069	8693
901.189	8526
901.308	8461
901.427	8419
901.546	8454
901.665	8488
901.784	8404
901.904	8339
902.023	8339
902.141	8237
902.26	8202
902.379	8237
902.498	8187
902.617	8229
902.735	8301
902.854	8282
902.973	8248
903.091	8081
903.21	8168
903.328	8130
903.446	8149
903.565	8103
903.683	8062
903.801	8043
903.919	8149
904.038	8126
904.156	8062
904.274	8092
904.392	8027
904.51	7986
904.627	8016
904.745	8058
904.863	8043
904.981	7890
905.098	7906
905.216	7849
905.334	7887
905.451	7902
905.569	7875
905.686	7951
905.803	7906
905.921	7792
906.038	7864
906.155	7776
906.272	7616
906.389	7727
906.506	7643
906.623	7597
906.74	7552
906.857	7586
906.974	7605
907.091	7586
907.208	7708
907.324	7666
907.441	7597
907.557	7434
907.674	7453
907.79	7350
907.907	7316
908.023	7453
908.139	7407
908.256	7358
908.372	7354
908.488	7350
908.604	7278
908.72	7244
908.836	7282
908.952	7232
909.068	7175
909.184	7289
909.3	7221
909.415	7259
909.531	7305
909.647	7118
909.762	7080
909.878	7057
909.993	7110
910.108	7145
910.224	7053
910.339	7080
910.454	6993
910.57	7000
910.685	6947
910.8	7156
910.915	7080
911.03	7122
911.145	6844
911.259	6863
911.374	6916
911.489	6848
911.604	6810
911.718	6734
911.833	6798
911.947	6673
912.062	6597
912.176	6734
912.291	6700
912.405	6700
912.519	6818
912.633	6837
912.748	6726
912.862	6635
912.976	6627
913.09	6559
913.204	6616
913.318	6589
913.431	6646
913.545	6620
913.659	6741
913.772	6646
913.886	6517
914	6521
914.113	6589
914.226	6620
914.34	6578
914.453	6540
914.566	6582
914.68	6498
914.793	6513
914.906	6433
915.019	6452
915.132	6289
915.245	6357
915.358	6376
915.47	6429
915.583	6475
915.696	6483
915.809	6532
915.921	6532
916.034	6445
916.146	6426
916.259	6296
916.371	6433
916.483	6437
916.595	6369
916.708	6399
916.82	6388
916.932	6410
917.044	6388
917.156	6350
917.268	6338
917.38	6319
917.491	6338
917.603	6338
917.715	6384
917.826	6410
917.938	6304
918.049	6228
918.161	6323
918.272	6395
918.384	6456
918.495	6338
918.606	6277
918.717	6190
918.828	6190
918.939	6235
919.05	6213
919.161	6243
919.272	6144
919.383	6125
919.494	6262
919.604	6384
919.715	6235
919.826	6232
919.936	6197
920.047	6311
920.157	6277
920.267	6479
920.378	6311
920.488	6251
920.598	6460
920.708	6555
920.818	6429
920.928	6433
921.038	6532
921.148	6536
921.258	6399
921.368	6262
921.477	6155
921.587	6182
921.697	6125
921.806	6140
921.916	6091
922.025	5996
922.134	5859
922.244	5870
922.353	5950
922.462	5813
922.571	5794
922.68	5668
922.789	5691
922.898	5665
923.007	5600
923.116	5726
923.224	5642
923.333	5684
923.442	5600
923.55	5566
923.659	5630
923.767	5615
923.876	5543
923.984	5551
924.092	5505
924.201	5562
924.309	5577
924.417	5543
924.525	5402
924.633	5490
924.741	6247
924.849	5360
924.956	5478
925.064	5299
925.172	5307
925.279	5280
925.387	5379
925.494	5360
925.602	5417
925.709	5391
925.816	5242
925.924	5288
926.031	5315
926.138	5258
926.245	5242
926.352	5235
926.459	5311
926.566	5322
926.673	5178
926.779	5098
926.886	5056
926.993	5018
927.099	5018
927.206	4976
927.312	4961
927.419	4957
927.525	4984
927.631	5025
927.737	4896
927.843	4831
927.95	4725
928.056	4809
928.162	4782
928.267	4843
928.373	5299
928.479	4858
928.585	4714
928.69	4763
928.796	4763
928.901	4706
929.007	4596
929.112	4706
929.218	4634
929.323	4603
929.428	4596
929.533	4634
929.638	4474
929.743	4485
929.848	4531
929.953	4508
930.058	4409
930.163	4344
930.267	4333
930.372	4432
930.477	4295
930.581	4455
930.685	4360
930.79	4261
930.894	4306
930.998	4272
931.103	4356
931.207	4086
931.311	4112
931.415	4017
931.519	3960
931.623	3926
