Data from glass_V78500241_21.txt Node
Date: Wed Sep 01 19:14:38 CST 2021
User: usil
Spectrometer: V785-0024
Trigger mode: 0
Integration Time (sec): 4.000000E-1
Scans to average: 1
Nonlinearity correction enabled: false
Boxcar width: 0
Storing dark spectrum: false
XAxis mode: Wavelengths
Number of Pixels in Spectrum: 1024
>>>>>Begin Spectral Data<<<<<
801.071	3778
801.214	3751
801.356	3720
801.499	3770
801.641	3724
801.783	3770
801.926	3876
802.068	3861
802.211	3850
802.353	3926
802.496	3873
802.638	3911
802.78	3888
802.923	3964
803.065	3937
803.208	3861
803.35	3896
803.492	3922
803.635	3926
803.777	3789
803.919	3922
804.061	4192
804.204	3987
804.346	3956
804.488	3918
804.63	4063
804.773	3960
804.915	4040
805.057	4192
805.199	4105
805.341	4120
805.483	4139
805.626	4192
805.768	4135
805.91	4219
806.052	4234
806.194	4234
806.336	4405
806.478	4223
806.62	4207
806.762	4238
806.904	4284
807.046	4371
807.188	4219
807.33	4185
807.472	4230
807.614	4173
807.756	4234
807.898	4192
808.04	4223
808.182	4280
808.324	4348
808.465	4371
808.607	4481
808.749	4489
808.891	4478
809.033	4508
809.174	4402
809.316	4287
809.458	4219
809.6	4147
809.741	4181
809.883	4177
810.025	4230
810.166	4230
810.308	4227
810.45	4234
810.591	4253
810.733	4318
810.875	4538
811.016	4896
811.158	5140
811.299	5303
811.441	5280
811.582	5056
811.724	4729
811.865	4516
812.007	4478
812.148	4459
812.29	4398
812.431	4413
812.573	4402
812.714	4367
812.855	4451
812.997	4474
813.138	4519
813.279	4417
813.421	4424
813.562	4383
813.703	4341
813.845	4333
813.986	4303
814.127	4227
814.268	4295
814.41	4272
814.551	4272
814.692	4356
814.833	4253
814.974	4291
815.115	4360
815.256	4272
815.397	4257
815.539	4303
815.68	4200
815.821	4234
815.962	4337
816.103	4268
816.244	4265
816.385	4268
816.526	4295
816.666	4200
816.807	4093
816.948	4192
817.089	4188
817.23	4109
817.371	4048
817.512	4101
817.653	4086
817.793	4040
817.934	4055
818.075	4150
818.216	4082
818.356	4112
818.497	3994
818.638	3926
818.778	3968
818.919	3857
819.06	3869
819.2	3960
819.341	3899
819.481	3857
819.622	3945
819.762	4036
819.903	3937
820.043	3880
820.184	3854
820.324	3804
820.465	3918
820.605	3918
820.746	3880
820.886	3850
821.026	3945
821.167	3903
821.307	4025
821.447	3987
821.588	3956
821.728	3968
821.868	3964
822.008	3880
822.149	3960
822.289	3953
822.429	3785
822.569	3808
822.709	3804
822.849	3740
822.99	3720
823.13	3740
823.27	3789
823.41	3736
823.55	3743
823.69	3747
823.83	3774
823.97	3698
824.11	3629
824.25	3595
824.389	3648
824.529	3686
824.669	3637
824.809	3743
824.949	3747
825.089	3709
825.228	3720
825.368	3614
825.508	3545
825.648	3580
825.787	3637
825.927	3629
826.067	3656
826.206	3675
826.346	3838
826.485	3873
826.625	3896
826.765	3983
826.904	3854
827.044	3644
827.183	3572
827.323	3462
827.462	3492
827.601	3412
827.741	3458
827.88	3492
828.02	3370
828.159	3454
828.298	3485
828.437	3534
828.577	3515
828.716	3610
828.855	3549
828.994	3439
829.134	3405
829.273	3428
829.412	3348
829.551	3355
829.69	3389
829.829	3450
829.968	3538
830.107	3488
830.246	3450
830.385	3389
830.524	3378
830.663	3325
830.802	3291
830.941	3226
831.08	3218
831.219	3279
831.357	3283
831.496	3397
831.635	3260
831.774	3253
831.913	3218
832.051	3165
832.19	3169
832.329	3245
832.467	3112
832.606	3146
832.744	3169
832.883	3214
833.022	3203
833.16	3275
833.299	3321
833.437	3386
833.576	3378
833.714	3424
833.852	3439
833.991	3469
834.129	3500
834.267	3424
834.406	3420
834.544	3428
834.682	3424
834.821	3409
834.959	3614
835.097	3450
835.235	3542
835.373	3504
835.511	3504
835.65	3504
835.788	3519
835.926	3386
836.064	3370
836.202	3428
836.34	3614
836.478	3622
836.615	3568
836.753	3629
836.891	3660
837.029	3641
837.167	3591
837.305	3572
837.443	3519
837.58	3538
837.718	3625
837.856	3622
837.993	3564
838.131	3618
838.269	3564
838.406	3606
838.544	3587
838.681	3526
838.819	3462
838.956	3386
839.094	3439
839.231	3477
839.369	3526
839.506	3766
839.643	3652
839.781	3545
839.918	3466
840.055	3557
840.193	3561
840.33	3545
840.467	3599
840.604	3637
840.742	3819
840.879	3572
841.016	3591
841.153	3587
841.29	3770
841.427	3675
841.564	3762
841.701	3759
841.838	3717
841.975	3698
842.112	3732
842.249	3637
842.385	3690
842.522	3854
842.659	3701
842.796	3667
842.933	3682
843.069	3713
843.206	3762
843.343	3819
843.479	3827
843.616	3850
843.752	3698
843.889	3720
844.025	3892
844.162	3774
844.298	3865
844.435	3774
844.571	3778
844.708	3918
844.844	3964
844.98	3991
845.117	4044
845.253	3983
845.389	3953
845.525	3968
845.661	3975
845.798	3953
845.934	4044
846.07	3987
846.206	4036
846.342	4173
846.478	4074
846.614	3953
846.75	3930
846.886	3926
847.022	4063
847.158	3994
847.294	4048
847.429	4074
847.565	4013
847.701	4242
847.837	3911
847.972	3873
848.108	4006
848.244	4010
848.379	3876
848.515	3892
848.65	3838
848.786	3888
848.921	3888
849.057	3964
849.192	3987
849.328	3880
849.463	3972
849.598	3876
849.734	3873
849.869	3842
850.004	3785
850.14	3838
850.275	3827
850.41	3797
850.545	3770
850.68	3793
850.815	3812
850.95	3797
851.085	3911
851.22	3861
851.355	3850
851.49	3819
851.625	3812
851.76	3762
851.895	3747
852.03	3800
852.165	3823
852.299	3857
852.434	3918
852.569	3907
852.703	3953
852.838	3926
852.973	4055
853.107	3998
853.242	3911
853.376	3865
853.511	3793
853.645	3861
853.78	4029
853.914	3918
854.048	3896
854.183	3873
854.317	3945
854.451	4078
854.585	3964
854.72	3949
854.854	4044
854.988	3979
855.122	4044
855.256	3934
855.39	4067
855.524	4112
855.658	4074
855.792	4112
855.926	4169
856.06	4177
856.194	4173
856.327	4196
856.461	4139
856.595	4147
856.729	4181
856.862	4272
856.996	4272
857.13	4325
857.263	4383
857.397	4413
857.53	4318
857.664	4371
857.797	4413
857.931	4459
858.064	4402
858.197	4413
858.331	4432
858.464	4386
858.597	4383
858.731	4409
858.864	4481
858.997	4459
859.13	4569
859.263	4535
859.396	4630
859.529	4516
859.662	4535
859.795	4485
859.928	4630
860.061	4672
860.194	4809
860.327	4679
860.46	4664
860.592	4744
860.725	4759
860.858	4793
860.99	4771
861.123	4698
861.256	4725
861.388	4801
861.521	5406
861.653	4714
861.786	4733
861.918	4816
862.05	4816
862.183	4858
862.315	4930
862.447	4980
862.58	4892
862.712	4797
862.844	4793
862.976	4877
863.108	4919
863.24	5212
863.372	4831
863.504	4961
863.636	4908
863.768	4991
863.9	4953
864.032	4927
864.164	5056
864.296	5048
864.428	5060
864.559	5067
864.691	5201
864.823	5170
864.954	5136
865.086	5162
865.217	5140
865.349	5117
865.48	5181
865.612	5166
865.743	5315
865.875	5162
866.006	5220
866.137	5277
866.269	5277
866.4	5239
866.531	5212
866.662	5254
866.793	5315
866.924	5357
867.055	5315
867.186	5364
867.317	5406
867.448	5326
867.579	5345
867.71	5410
867.841	5395
867.972	5463
868.103	5429
868.233	5478
868.364	5505
868.495	5577
868.625	5707
868.756	5813
868.886	5649
869.017	5794
869.147	5885
869.278	5893
869.408	5866
869.539	5813
869.669	5904
869.799	5897
869.929	6030
870.06	6030
870.19	6216
870.32	6197
870.45	6235
870.58	6327
870.71	6467
870.84	6536
870.97	6426
871.1	6452
871.23	6616
871.36	6749
871.489	6604
871.619	6730
871.749	6859
871.879	6871
872.008	6966
872.138	6943
872.267	7046
872.397	7057
872.526	7053
872.656	7095
872.785	7251
872.915	7400
873.044	7590
873.173	7556
873.303	7685
873.432	7864
873.561	7917
873.69	7932
873.819	8031
873.948	8145
874.077	8214
874.206	8339
874.335	8454
874.464	8727
874.593	8861
874.722	8998
874.851	9150
874.979	9275
875.108	9473
875.237	9458
875.365	9473
875.494	9595
875.623	9918
875.751	9892
875.88	9949
876.008	10181
876.136	10238
876.265	10577
876.393	10698
876.521	10733
876.65	10767
876.778	10824
876.906	10934
877.034	10968
877.162	11128
877.29	11109
877.418	11265
877.546	11337
877.674	11417
877.802	11478
877.93	11516
878.058	11615
878.185	11524
878.313	11684
878.441	11798
878.568	11733
878.696	11821
878.824	11851
878.951	11889
879.079	12095
879.206	12178
879.333	12049
879.461	12038
879.588	12117
879.715	12091
879.842	12273
879.97	12034
880.097	11878
880.224	11950
880.351	11840
880.478	11961
880.605	11912
880.732	11836
880.859	12007
880.986	11821
881.112	11840
881.239	11684
881.366	11638
881.493	11672
881.619	11562
881.746	11585
881.872	11532
881.999	11551
882.125	11440
882.252	11611
882.378	11501
882.505	11566
882.631	11459
882.757	11318
882.883	11292
883.01	11201
883.136	11151
883.262	11159
883.388	11124
883.514	11227
883.64	11227
883.766	11098
883.892	11037
884.018	11041
884.143	11003
884.269	11075
884.395	10866
884.52	10744
884.646	10801
884.772	10812
884.897	10607
885.023	10714
885.148	10820
885.274	10733
885.399	10717
885.524	10618
885.65	10630
885.775	10550
885.9	10592
886.025	10634
886.15	10611
886.275	10424
886.4	10390
886.525	10443
886.65	10409
886.775	10280
886.9	10421
887.025	10516
887.149	10295
887.274	10268
887.399	10219
887.523	10188
887.648	10253
887.773	10166
887.897	10284
888.021	10227
888.146	10131
888.27	10299
888.395	10234
888.519	10204
888.643	10215
888.767	10188
888.891	10067
889.015	10044
889.139	10048
889.263	10002
889.387	10131
889.511	10158
889.635	10002
889.759	9960
889.883	10010
890.006	9960
890.13	10097
890.254	9930
890.377	9968
890.501	9835
890.624	9873
890.748	9934
890.871	9842
890.995	9789
891.118	9709
891.241	9751
891.364	9781
891.488	9770
891.611	9709
891.734	9766
891.857	9747
891.98	9698
892.103	9804
892.226	9732
892.349	9682
892.471	9534
892.594	9595
892.717	9660
892.839	9606
892.962	9618
893.085	9652
893.207	9625
893.33	9462
893.452	9568
893.575	9637
893.697	9500
893.819	9675
893.941	9614
894.064	9663
894.186	9431
894.308	9420
894.43	9542
894.552	9633
894.674	9504
894.796	9363
894.918	9458
895.04	9408
895.161	9431
895.283	9332
895.405	9237
895.526	9256
895.648	9313
895.769	9268
895.891	9165
896.012	9272
896.134	9260
896.255	9218
896.376	9116
896.498	9154
896.619	9165
896.74	9123
896.861	9135
896.982	9302
897.103	9378
897.224	9192
897.345	9089
897.466	9089
897.587	8979
897.708	9112
897.828	9039
897.949	8963
898.07	8891
898.19	8902
898.311	8948
898.431	8952
898.552	9036
898.672	8975
898.792	8990
898.913	8963
899.033	8773
899.153	8750
899.273	8655
899.393	8720
899.513	8750
899.633	8781
899.753	8686
899.873	8689
899.993	8697
900.113	8678
900.232	8708
900.352	8617
900.472	8663
900.591	8610
900.711	8587
900.83	8545
900.95	8686
901.069	8648
901.189	8613
901.308	8454
901.427	8374
901.546	8514
901.665	8469
901.784	8488
901.904	8423
902.023	8347
902.141	8263
902.26	8275
902.379	8233
902.498	8221
902.617	8259
902.735	8282
902.854	8263
902.973	8237
903.091	8130
903.21	8161
903.328	8103
903.446	8134
903.565	8107
903.683	8176
903.801	8119
903.919	8092
904.038	8111
904.156	8043
904.274	8130
904.392	8031
904.51	8043
904.627	8126
904.745	8092
904.863	8180
904.981	7940
905.098	7811
905.216	8020
905.334	7887
905.451	7852
905.569	7970
905.686	7947
905.803	7963
905.921	7807
906.038	7868
906.155	7826
906.272	7681
906.389	7727
906.506	7647
906.623	7677
906.74	7609
906.857	7575
906.974	7552
907.091	7651
907.208	7784
907.324	7700
907.441	7609
907.557	7468
907.674	7445
907.79	7419
907.907	7445
908.023	7411
908.139	7468
908.256	7407
908.372	7381
908.488	7358
908.604	7305
908.72	7289
908.836	7240
908.952	7282
909.068	7251
909.184	7331
909.3	7247
909.415	7312
909.531	7301
909.647	7160
909.762	7110
909.878	7099
909.993	7137
910.108	7080
910.224	7122
910.339	7091
910.454	7027
910.57	7091
910.685	6981
910.8	7126
910.915	7152
911.03	7046
911.145	6962
911.259	6943
911.374	6916
911.489	6833
911.604	6837
911.718	6783
911.833	6703
911.947	6684
912.062	6608
912.176	6711
912.291	6783
912.405	6696
912.519	6890
912.633	6798
912.748	6757
912.862	6776
912.976	6612
913.09	6494
913.204	6616
913.318	6662
913.431	6692
913.545	6692
913.659	6730
913.772	6646
913.886	6635
914	6627
914.113	6627
914.226	6681
914.34	6639
914.453	6551
914.566	6620
914.68	6513
914.793	6601
914.906	6426
915.019	6422
915.132	6372
915.245	6437
915.358	6452
915.47	6437
915.583	6528
915.696	6483
915.809	6570
915.921	6559
916.034	6448
916.146	6452
916.259	6441
916.371	6486
916.483	6433
916.595	6456
916.708	6410
916.82	6464
916.932	6475
917.044	6353
917.156	6452
917.268	6304
917.38	6338
917.491	6304
917.603	6308
917.715	6414
917.826	6426
917.938	6391
918.049	6300
918.161	6350
918.272	6479
918.384	6384
918.495	6422
918.606	6251
918.717	6266
918.828	6235
918.939	6289
919.05	6281
919.161	6273
919.272	6136
919.383	6148
919.494	6308
919.604	6448
919.715	6285
919.826	6254
919.936	6220
920.047	6331
920.157	6304
920.267	6479
920.378	6304
920.488	6319
920.598	6490
920.708	6536
920.818	6521
920.928	6483
921.038	6597
921.148	6642
921.258	6311
921.368	6308
921.477	6254
921.587	6190
921.697	6144
921.806	6178
921.916	6171
922.025	5969
922.134	6007
922.244	5935
922.353	5958
922.462	5813
922.571	5836
922.68	5729
922.789	5688
922.898	5741
923.007	5672
923.116	5760
923.224	5691
923.333	5684
923.442	5646
923.55	5608
923.659	5592
923.767	5596
923.876	5577
923.984	5657
924.092	5509
924.201	5592
924.309	5562
924.417	5592
924.525	5493
924.633	5524
924.741	6357
924.849	5391
924.956	5509
925.064	5387
925.172	5303
925.279	5273
925.387	5379
925.494	5398
925.602	5463
925.709	5376
925.816	5334
925.924	5345
926.031	5383
926.138	5292
926.245	5349
926.352	5269
926.459	5299
926.566	5315
926.673	5227
926.779	5143
926.886	5109
926.993	5045
927.099	5014
927.206	4987
927.312	4984
927.419	5033
927.525	4972
927.631	5014
927.737	4904
927.843	4850
927.95	4748
928.056	4858
928.162	4828
928.267	4900
928.373	5364
928.479	4927
928.585	4668
928.69	4805
928.796	4740
928.901	4752
929.007	4599
929.112	4698
929.218	4664
929.323	4607
929.428	4573
929.533	4660
929.638	4478
929.743	4569
929.848	4599
929.953	4493
930.058	4447
930.163	4310
930.267	4348
930.372	4462
930.477	4363
930.581	4508
930.685	4417
930.79	4287
930.894	4314
930.998	4253
931.103	4383
931.207	4120
931.311	4078
931.415	4040
931.519	3915
931.623	3930
