Data from glass_V78500241_740.txt Node
Date: Wed Sep 01 19:19:37 CST 2021
User: usil
Spectrometer: V785-0024
Trigger mode: 0
Integration Time (sec): 4.000000E-1
Scans to average: 1
Nonlinearity correction enabled: false
Boxcar width: 0
Storing dark spectrum: false
XAxis mode: Wavelengths
Number of Pixels in Spectrum: 1024
>>>>>Begin Spectral Data<<<<<
801.071	3789
801.214	3793
801.356	3724
801.499	3774
801.641	3728
801.783	3816
801.926	3869
802.068	3831
802.211	3873
802.353	3850
802.496	3857
802.638	3888
802.78	3945
802.923	3937
803.065	3930
803.208	3781
803.35	3869
803.492	3960
803.635	3922
803.777	3827
803.919	3907
804.061	4147
804.204	4013
804.346	4010
804.488	3876
804.63	4086
804.773	3983
804.915	4048
805.057	4147
805.199	4078
805.341	4090
805.483	4188
805.626	4101
805.768	4131
805.91	4234
806.052	4227
806.194	4238
806.336	4360
806.478	4207
806.62	4181
806.762	4215
806.904	4268
807.046	4341
807.188	4223
807.33	4204
807.472	4284
807.614	4230
807.756	4303
807.898	4246
808.04	4207
808.182	4284
808.324	4314
808.465	4352
808.607	4436
808.749	4436
808.891	4470
809.033	4497
809.174	4409
809.316	4329
809.458	4280
809.6	4120
809.741	4185
809.883	4207
810.025	4192
810.166	4223
810.308	4265
810.45	4257
810.591	4219
810.733	4287
810.875	4531
811.016	4889
811.158	5151
811.299	5280
811.441	5292
811.582	5067
811.724	4736
811.865	4481
812.007	4500
812.148	4409
812.29	4386
812.431	4398
812.573	4409
812.714	4341
812.855	4390
812.997	4421
813.138	4470
813.279	4417
813.421	4386
813.562	4417
813.703	4314
813.845	4413
813.986	4249
814.127	4242
814.268	4341
814.41	4314
814.551	4280
814.692	4360
814.833	4261
814.974	4314
815.115	4360
815.256	4276
815.397	4329
815.539	4265
815.68	4207
815.821	4188
815.962	4257
816.103	4299
816.244	4215
816.385	4211
816.526	4268
816.666	4246
816.807	4150
816.948	4181
817.089	4192
817.23	4124
817.371	4063
817.512	4097
817.653	4090
817.793	4067
817.934	4044
818.075	4109
818.216	4059
818.356	4097
818.497	3983
818.638	3892
818.778	3934
818.919	3896
819.06	3869
819.2	3907
819.341	3880
819.481	3838
819.622	3907
819.762	4029
819.903	3975
820.043	3865
820.184	3846
820.324	3842
820.465	3876
820.605	3873
820.746	3907
820.886	3808
821.026	3865
821.167	3941
821.307	3968
821.447	4025
821.588	3934
821.728	3945
821.868	3983
822.008	3896
822.149	3941
822.289	3937
822.429	3797
822.569	3774
822.709	3808
822.849	3690
822.99	3766
823.13	3762
823.27	3793
823.41	3724
823.55	3747
823.69	3732
823.83	3713
823.97	3698
824.11	3618
824.25	3603
824.389	3652
824.529	3648
824.669	3614
824.809	3713
824.949	3797
825.089	3751
825.228	3709
825.368	3610
825.508	3561
825.648	3606
825.787	3641
825.927	3641
826.067	3633
826.206	3686
826.346	3804
826.485	3846
826.625	3892
826.765	3903
826.904	3831
827.044	3679
827.183	3526
827.323	3458
827.462	3511
827.601	3469
827.741	3481
827.88	3428
828.02	3378
828.159	3473
828.298	3523
828.437	3515
828.577	3492
828.716	3622
828.855	3511
828.994	3370
829.134	3367
829.273	3435
829.412	3348
829.551	3397
829.69	3374
829.829	3447
829.968	3504
830.107	3481
830.246	3450
830.385	3378
830.524	3363
830.663	3336
830.802	3233
830.941	3230
831.08	3237
831.219	3245
831.357	3253
831.496	3420
831.635	3226
831.774	3173
831.913	3237
832.051	3131
832.19	3154
832.329	3230
832.467	3165
832.606	3135
832.744	3192
832.883	3192
833.022	3207
833.16	3279
833.299	3291
833.437	3351
833.576	3386
833.714	3439
833.852	3435
833.991	3469
834.129	3488
834.267	3443
834.406	3424
834.544	3393
834.682	3435
834.821	3454
834.959	3625
835.097	3443
835.235	3564
835.373	3500
835.511	3564
835.65	3485
835.788	3519
835.926	3428
836.064	3382
836.202	3382
836.34	3576
836.478	3648
836.615	3553
836.753	3603
836.891	3637
837.029	3644
837.167	3625
837.305	3580
837.443	3553
837.58	3511
837.718	3599
837.856	3576
837.993	3564
838.131	3633
838.269	3580
838.406	3584
838.544	3572
838.681	3492
838.819	3450
838.956	3424
839.094	3428
839.231	3488
839.369	3523
839.506	3724
839.643	3614
839.781	3557
839.918	3458
840.055	3530
840.193	3530
840.33	3485
840.467	3610
840.604	3610
840.742	3835
840.879	3618
841.016	3557
841.153	3568
841.29	3762
841.427	3705
841.564	3770
841.701	3755
841.838	3732
841.975	3686
842.112	3743
842.249	3648
842.385	3675
842.522	3800
842.659	3667
842.796	3648
842.933	3679
843.069	3732
843.206	3732
843.343	3808
843.479	3789
843.616	3812
843.752	3701
843.889	3682
844.025	3865
844.162	3755
844.298	3876
844.435	3774
844.571	3831
844.708	3861
844.844	4044
844.98	3972
845.117	4067
845.253	3937
845.389	3949
845.525	3960
845.661	3953
845.798	3941
845.934	3991
846.07	4029
846.206	4063
846.342	4154
846.478	4093
846.614	3968
846.75	3956
846.886	3899
847.022	4017
847.158	3991
847.294	4017
847.429	3991
847.565	4044
847.701	4249
847.837	3842
847.972	3896
848.108	4017
848.244	3968
848.379	3907
848.515	3831
848.65	3816
848.786	3861
848.921	3880
849.057	3960
849.192	3930
849.328	3918
849.463	3911
849.598	3846
849.734	3876
849.869	3873
850.004	3835
850.14	3838
850.275	3789
850.41	3762
850.545	3804
850.68	3747
850.815	3808
850.95	3797
851.085	3937
851.22	3896
851.355	3831
851.49	3755
851.625	3831
851.76	3850
851.895	3736
852.03	3762
852.165	3819
852.299	3876
852.434	3880
852.569	3857
852.703	3911
852.838	3930
852.973	4059
853.107	3998
853.242	3876
853.376	3880
853.511	3812
853.645	3800
853.78	4010
853.914	3964
854.048	3911
854.183	3953
854.317	3972
854.451	4086
854.585	3945
854.72	3953
854.854	4029
854.988	3937
855.122	4036
855.256	3922
855.39	4048
855.524	4116
855.658	4055
855.792	4169
855.926	4112
856.06	4227
856.194	4196
856.327	4185
856.461	4150
856.595	4128
856.729	4196
856.862	4318
856.996	4227
857.13	4318
857.263	4276
857.397	4337
857.53	4268
857.664	4314
857.797	4417
857.931	4421
858.064	4413
858.197	4436
858.331	4413
858.464	4447
858.597	4348
858.731	4443
858.864	4424
858.997	4447
859.13	4519
859.263	4550
859.396	4615
859.529	4493
859.662	4519
859.795	4565
859.928	4615
860.061	4675
860.194	4771
860.327	4721
860.46	4656
860.592	4736
860.725	4759
860.858	4759
860.99	4706
861.123	4630
861.256	4714
861.388	4748
861.521	5395
861.653	4744
861.786	4702
861.918	4763
862.05	4793
862.183	4862
862.315	4862
862.447	4946
862.58	4946
862.712	4824
862.844	4740
862.976	4934
863.108	4870
863.24	5227
863.372	4805
863.504	4870
863.636	4919
863.768	4965
863.9	5022
864.032	4930
864.164	4984
864.296	5060
864.428	5113
864.559	5124
864.691	5124
864.823	5151
864.954	5178
865.086	5140
865.217	5166
865.349	5079
865.48	5204
865.612	5204
865.743	5273
865.875	5162
866.006	5178
866.137	5326
866.269	5288
866.4	5280
866.531	5273
866.662	5261
866.793	5242
866.924	5299
867.055	5345
867.186	5330
867.317	5337
867.448	5296
867.579	5410
867.71	5353
867.841	5395
867.972	5520
868.103	5459
868.233	5467
868.364	5528
868.495	5520
868.625	5657
868.756	5794
868.886	5718
869.017	5733
869.147	5851
869.278	5840
869.408	5756
869.539	5870
869.669	5939
869.799	5935
869.929	6007
870.06	6030
870.19	6235
870.32	6175
870.45	6251
870.58	6304
870.71	6445
870.84	6471
870.97	6456
871.1	6521
871.23	6608
871.36	6669
871.489	6650
871.619	6738
871.749	6829
871.879	6901
872.008	6993
872.138	6966
872.267	7034
872.397	7012
872.526	7042
872.656	7091
872.785	7202
872.915	7365
873.044	7575
873.173	7548
873.303	7632
873.432	7719
873.561	7936
873.69	7959
873.819	8084
873.948	8157
874.077	8252
874.206	8332
874.335	8503
874.464	8667
874.593	8902
874.722	8944
874.851	9108
874.979	9199
875.108	9313
875.237	9454
875.365	9534
875.494	9526
875.623	9793
875.751	9838
875.88	9911
876.008	10166
876.136	10246
876.265	10535
876.393	10675
876.521	10683
876.65	10786
876.778	10824
876.906	10953
877.034	10995
877.162	11105
877.29	11189
877.418	11273
877.546	11383
877.674	11455
877.802	11532
877.93	11493
878.058	11497
878.185	11535
878.313	11722
878.441	11767
878.568	11718
878.696	11756
878.824	11828
878.951	12030
879.079	11996
879.206	12228
879.333	12125
879.461	11999
879.588	12091
879.715	12087
879.842	12251
879.97	12064
880.097	11870
880.224	11889
880.351	11870
880.478	11927
880.605	11870
880.732	11954
880.859	12003
880.986	11843
881.112	11882
881.239	11729
881.366	11661
881.493	11600
881.619	11566
881.746	11524
881.872	11516
881.999	11520
882.125	11493
882.252	11535
882.378	11497
882.505	11497
882.631	11353
882.757	11280
882.883	11326
883.01	11296
883.136	11204
883.262	11098
883.388	11079
883.514	11269
883.64	11151
883.766	11117
883.892	10923
884.018	10911
884.143	11151
884.269	11117
884.395	10847
884.52	10812
884.646	10748
884.772	10630
884.897	10694
885.023	10656
885.148	10729
885.274	10721
885.399	10694
885.524	10653
885.65	10615
885.775	10550
885.9	10512
886.025	10660
886.15	10561
886.275	10523
886.4	10417
886.525	10405
886.65	10382
886.775	10329
886.9	10451
887.025	10485
887.149	10436
887.274	10261
887.399	10219
887.523	10207
887.648	10185
887.773	10154
887.897	10265
888.021	10238
888.146	10131
888.27	10131
888.395	10280
888.519	10196
888.643	10124
888.767	10166
888.891	10101
889.015	10101
889.139	9972
889.263	9949
889.387	10105
889.511	10181
889.635	10090
889.759	9968
889.883	10055
890.006	9953
890.13	10101
890.254	9964
890.377	9922
890.501	9934
890.624	9979
890.748	9911
890.871	9812
890.995	9766
891.118	9717
891.241	9747
891.364	9740
891.488	9861
891.611	9766
891.734	9759
891.857	9759
891.98	9759
892.103	9785
892.226	9713
892.349	9584
892.471	9549
892.594	9587
892.717	9667
892.839	9534
892.962	9561
893.085	9736
893.207	9644
893.33	9595
893.452	9466
893.575	9618
893.697	9526
893.819	9652
893.941	9625
894.064	9644
894.186	9477
894.308	9469
894.43	9595
894.552	9557
894.674	9462
894.796	9397
894.918	9435
895.04	9325
895.161	9367
895.283	9348
895.405	9321
895.526	9287
895.648	9275
895.769	9222
895.891	9218
896.012	9207
896.134	9241
896.255	9203
896.376	9169
896.498	9138
896.619	9165
896.74	9066
896.861	9142
896.982	9237
897.103	9382
897.224	9230
897.345	9089
897.466	9036
897.587	9036
897.708	9043
897.828	9070
897.949	8979
898.07	8807
898.19	8975
898.311	9009
898.431	8960
898.552	8960
898.672	8990
898.792	8872
898.913	8975
899.033	8876
899.153	8762
899.273	8674
899.393	8788
899.513	8670
899.633	8712
899.753	8724
899.873	8644
899.993	8758
900.113	8754
900.232	8743
900.352	8644
900.472	8636
900.591	8579
900.711	8629
900.83	8571
900.95	8625
901.069	8773
901.189	8545
901.308	8488
901.427	8385
901.546	8442
901.665	8408
901.784	8488
901.904	8488
902.023	8351
902.141	8282
902.26	8271
902.379	8328
902.498	8164
902.617	8275
902.735	8290
902.854	8313
902.973	8370
903.091	8161
903.21	8100
903.328	8164
903.446	8157
903.565	8092
903.683	8088
903.801	8020
903.919	8081
904.038	8145
904.156	8103
904.274	8073
904.392	8046
904.51	8062
904.627	8126
904.745	8039
904.863	8092
904.981	7986
905.098	7944
905.216	7833
905.334	7894
905.451	7925
905.569	7894
905.686	7932
905.803	7925
905.921	7776
906.038	7894
906.155	7818
906.272	7852
906.389	7696
906.506	7632
906.623	7670
906.74	7620
906.857	7521
906.974	7567
907.091	7590
907.208	7765
907.324	7632
907.441	7594
907.557	7521
907.674	7400
907.79	7415
907.907	7441
908.023	7457
908.139	7434
908.256	7388
908.372	7346
908.488	7327
908.604	7266
908.72	7274
908.836	7270
908.952	7274
909.068	7225
909.184	7354
909.3	7316
909.415	7316
909.531	7289
909.647	7107
909.762	7175
909.878	7126
909.993	7152
910.108	7137
910.224	7160
910.339	7110
910.454	7023
910.57	7008
910.685	6958
910.8	7141
910.915	7129
911.03	6985
911.145	6913
911.259	6844
911.374	6905
911.489	6890
911.604	6791
911.718	6776
911.833	6696
911.947	6627
912.062	6646
912.176	6730
912.291	6719
912.405	6688
912.519	6798
912.633	6791
912.748	6730
912.862	6703
912.976	6566
913.09	6479
913.204	6566
913.318	6650
913.431	6707
913.545	6688
913.659	6730
913.772	6616
913.886	6612
914	6502
914.113	6662
914.226	6696
914.34	6612
914.453	6525
914.566	6620
914.68	6559
914.793	6544
914.906	6445
915.019	6391
915.132	6369
915.245	6479
915.358	6433
915.47	6464
915.583	6403
915.696	6456
915.809	6578
915.921	6551
916.034	6407
916.146	6418
916.259	6448
916.371	6433
916.483	6486
916.595	6456
916.708	6357
916.82	6410
916.932	6429
917.044	6388
917.156	6426
917.268	6296
917.38	6369
917.491	6350
917.603	6334
917.715	6445
917.826	6422
917.938	6350
918.049	6247
918.161	6372
918.272	6422
918.384	6471
918.495	6433
918.606	6289
918.717	6266
918.828	6266
918.939	6300
919.05	6159
919.161	6270
919.272	6133
919.383	6167
919.494	6311
919.604	6414
919.715	6296
919.826	6251
919.936	6247
920.047	6338
920.157	6300
920.267	6471
920.378	6296
920.488	6254
920.598	6403
920.708	6555
920.818	6532
920.928	6460
921.038	6650
921.148	6597
921.258	6353
921.368	6296
921.477	6201
921.587	6209
921.697	6114
921.806	6186
921.916	6049
922.025	5920
922.134	5954
922.244	5885
922.353	5950
922.462	5809
922.571	5813
922.68	5672
922.789	5688
922.898	5722
923.007	5638
923.116	5691
923.224	5684
923.333	5642
923.442	5638
923.55	5589
923.659	5630
923.767	5649
923.876	5539
923.984	5657
924.092	5509
924.201	5551
924.309	5566
924.417	5535
924.525	5520
924.633	5501
924.741	6232
924.849	5406
924.956	5535
925.064	5387
925.172	5303
925.279	5296
925.387	5337
925.494	5330
925.602	5429
925.709	5433
925.816	5334
925.924	5360
926.031	5421
926.138	5330
926.245	5349
926.352	5212
926.459	5326
926.566	5284
926.673	5193
926.779	5140
926.886	5143
926.993	5071
927.099	5010
927.206	4987
927.312	4965
927.419	4999
927.525	4999
927.631	5014
927.737	4904
927.843	4870
927.95	4797
928.056	4790
928.162	4847
928.267	4854
928.373	5368
928.479	4889
928.585	4736
928.69	4835
928.796	4767
928.901	4706
929.007	4637
929.112	4710
929.218	4672
929.323	4603
929.428	4558
929.533	4698
929.638	4481
929.743	4569
929.848	4580
929.953	4512
930.058	4417
930.163	4341
930.267	4398
930.372	4440
930.477	4333
930.581	4455
930.685	4375
930.79	4284
930.894	4299
930.998	4261
931.103	4424
931.207	4150
931.311	4071
931.415	4044
931.519	3899
931.623	3907
