Data from glass_V78500241_806.txt Node
Date: Wed Sep 01 19:20:05 CST 2021
User: usil
Spectrometer: V785-0024
Trigger mode: 0
Integration Time (sec): 4.000000E-1
Scans to average: 1
Nonlinearity correction enabled: false
Boxcar width: 0
Storing dark spectrum: false
XAxis mode: Wavelengths
Number of Pixels in Spectrum: 1024
>>>>>Begin Spectral Data<<<<<
801.071	3774
801.214	3755
801.356	3736
801.499	3743
801.641	3755
801.783	3827
801.926	3861
802.068	3854
802.211	3888
802.353	3869
802.496	3838
802.638	3892
802.78	3956
802.923	3994
803.065	3850
803.208	3842
803.35	3918
803.492	3949
803.635	3949
803.777	3861
803.919	3911
804.061	4173
804.204	3972
804.346	3960
804.488	3960
804.63	4044
804.773	3994
804.915	4051
805.057	4162
805.199	4059
805.341	4093
805.483	4173
805.626	4147
805.768	4109
805.91	4238
806.052	4295
806.194	4196
806.336	4402
806.478	4234
806.62	4162
806.762	4173
806.904	4242
807.046	4363
807.188	4227
807.33	4188
807.472	4204
807.614	4242
807.756	4284
807.898	4242
808.04	4200
808.182	4306
808.324	4398
808.465	4371
808.607	4516
808.749	4447
808.891	4470
809.033	4500
809.174	4348
809.316	4230
809.458	4322
809.6	4185
809.741	4169
809.883	4188
810.025	4223
810.166	4166
810.308	4249
810.45	4242
810.591	4280
810.733	4303
810.875	4504
811.016	4866
811.158	5121
811.299	5254
811.441	5265
811.582	5083
811.724	4733
811.865	4504
812.007	4421
812.148	4466
812.29	4424
812.431	4428
812.573	4363
812.714	4428
812.855	4470
812.997	4451
813.138	4466
813.279	4485
813.421	4455
813.562	4367
813.703	4341
813.845	4337
813.986	4314
814.127	4238
814.268	4253
814.41	4303
814.551	4261
814.692	4344
814.833	4287
814.974	4325
815.115	4363
815.256	4265
815.397	4261
815.539	4242
815.68	4154
815.821	4230
815.962	4306
816.103	4215
816.244	4265
816.385	4268
816.526	4303
816.666	4253
816.807	4071
816.948	4173
817.089	4169
817.23	4105
817.371	4086
817.512	4048
817.653	4086
817.793	4032
817.934	4086
818.075	4124
818.216	4086
818.356	4109
818.497	4017
818.638	3922
818.778	3922
818.919	3930
819.06	3873
819.2	3930
819.341	3835
819.481	3831
819.622	3903
819.762	4036
819.903	3972
820.043	3873
820.184	3873
820.324	3804
820.465	3911
820.605	3899
820.746	3884
820.886	3838
821.026	3960
821.167	3922
821.307	4010
821.447	3987
821.588	3949
821.728	3983
821.868	3899
822.008	3903
822.149	3926
822.289	3918
822.429	3827
822.569	3774
822.709	3808
822.849	3743
822.99	3720
823.13	3770
823.27	3793
823.41	3747
823.55	3793
823.69	3724
823.83	3762
823.97	3675
824.11	3599
824.25	3625
824.389	3648
824.529	3660
824.669	3595
824.809	3720
824.949	3766
825.089	3751
825.228	3713
825.368	3614
825.508	3580
825.648	3584
825.787	3606
825.927	3591
826.067	3618
826.206	3667
826.346	3804
826.485	3854
826.625	3835
826.765	3892
826.904	3873
827.044	3671
827.183	3523
827.323	3477
827.462	3511
827.601	3428
827.741	3428
827.88	3469
828.02	3409
828.159	3431
828.298	3458
828.437	3561
828.577	3477
828.716	3637
828.855	3526
828.994	3409
829.134	3382
829.273	3348
829.412	3340
829.551	3359
829.69	3397
829.829	3443
829.968	3507
830.107	3462
830.246	3439
830.385	3378
830.524	3374
830.663	3321
830.802	3233
830.941	3169
831.08	3203
831.219	3306
831.357	3283
831.496	3454
831.635	3260
831.774	3199
831.913	3180
832.051	3150
832.19	3165
832.329	3218
832.467	3119
832.606	3104
832.744	3127
832.883	3195
833.022	3207
833.16	3272
833.299	3306
833.437	3351
833.576	3351
833.714	3435
833.852	3435
833.991	3481
834.129	3466
834.267	3488
834.406	3401
834.544	3409
834.682	3409
834.821	3393
834.959	3568
835.097	3412
835.235	3561
835.373	3507
835.511	3542
835.65	3485
835.788	3507
835.926	3431
836.064	3397
836.202	3450
836.34	3576
836.478	3648
836.615	3553
836.753	3595
836.891	3686
837.029	3625
837.167	3644
837.305	3557
837.443	3561
837.58	3515
837.718	3599
837.856	3576
837.993	3549
838.131	3652
838.269	3591
838.406	3599
838.544	3557
838.681	3469
838.819	3515
838.956	3389
839.094	3435
839.231	3485
839.369	3542
839.506	3766
839.643	3584
839.781	3557
839.918	3469
840.055	3519
840.193	3542
840.33	3549
840.467	3553
840.604	3625
840.742	3838
840.879	3557
841.016	3584
841.153	3618
841.29	3766
841.427	3698
841.564	3717
841.701	3781
841.838	3690
841.975	3682
842.112	3709
842.249	3618
842.385	3625
842.522	3823
842.659	3701
842.796	3671
842.933	3701
843.069	3713
843.206	3728
843.343	3854
843.479	3762
843.616	3785
843.752	3675
843.889	3690
844.025	3842
844.162	3720
844.298	3823
844.435	3759
844.571	3808
844.708	3907
844.844	3960
844.98	4048
845.117	3994
845.253	3987
845.389	3865
845.525	3979
845.661	3972
845.798	3949
845.934	4044
846.07	3937
846.206	4078
846.342	4120
846.478	4074
846.614	4010
846.75	3941
846.886	3918
847.022	4010
847.158	3972
847.294	3956
847.429	4010
847.565	3979
847.701	4276
847.837	3907
847.972	3854
848.108	4010
848.244	3964
848.379	3869
848.515	3797
848.65	3827
848.786	3804
848.921	3861
849.057	3907
849.192	3972
849.328	3937
849.463	3926
849.598	3915
849.734	3880
849.869	3808
850.004	3793
850.14	3800
850.275	3816
850.41	3762
850.545	3743
850.68	3755
850.815	3842
850.95	3785
851.085	3937
851.22	3896
851.355	3865
851.49	3793
851.625	3781
851.76	3797
851.895	3766
852.03	3751
852.165	3770
852.299	3857
852.434	3922
852.569	3934
852.703	3945
852.838	3922
852.973	4006
853.107	3991
853.242	3899
853.376	3869
853.511	3781
853.645	3873
853.78	3968
853.914	3880
854.048	3926
854.183	3888
854.317	3983
854.451	4086
854.585	3987
854.72	3949
854.854	4059
854.988	3930
855.122	4032
855.256	3934
855.39	4059
855.524	4097
855.658	4105
855.792	4109
855.926	4173
856.06	4185
856.194	4219
856.327	4101
856.461	4120
856.595	4147
856.729	4162
856.862	4284
856.996	4246
857.13	4295
857.263	4314
857.397	4356
857.53	4344
857.664	4356
857.797	4451
857.931	4386
858.064	4398
858.197	4428
858.331	4371
858.464	4436
858.597	4390
858.731	4455
858.864	4432
858.997	4451
859.13	4519
859.263	4508
859.396	4599
859.529	4592
859.662	4538
859.795	4558
859.928	4577
860.061	4710
860.194	4755
860.327	4618
860.46	4664
860.592	4725
860.725	4740
860.858	4805
860.99	4744
861.123	4694
861.256	4698
861.388	4782
861.521	5429
861.653	4748
861.786	4729
861.918	4767
862.05	4778
862.183	4816
862.315	4915
862.447	4953
862.58	4873
862.712	4763
862.844	4767
862.976	4873
863.108	4870
863.24	5315
863.372	4850
863.504	4885
863.636	4904
863.768	4984
863.9	5010
864.032	4980
864.164	4930
864.296	5079
864.428	5090
864.559	5079
864.691	5083
864.823	5124
864.954	5060
865.086	5178
865.217	5140
865.349	5117
865.48	5170
865.612	5170
865.743	5337
865.875	5246
866.006	5227
866.137	5250
866.269	5254
866.4	5265
866.531	5258
866.662	5261
866.793	5307
866.924	5265
867.055	5376
867.186	5337
867.317	5311
867.448	5368
867.579	5421
867.71	5368
867.841	5402
867.972	5471
868.103	5497
868.233	5516
868.364	5558
868.495	5649
868.625	5688
868.756	5760
868.886	5672
869.017	5775
869.147	5870
869.278	5901
869.408	5775
869.539	5786
869.669	5939
869.799	5885
869.929	6019
870.06	5988
870.19	6205
870.32	6213
870.45	6205
870.58	6433
870.71	6441
870.84	6445
870.97	6414
871.1	6437
871.23	6616
871.36	6711
871.489	6639
871.619	6715
871.749	6833
871.879	6962
872.008	6985
872.138	6989
872.267	7012
872.397	7023
872.526	7015
872.656	7065
872.785	7194
872.915	7365
873.044	7552
873.173	7620
873.303	7704
873.432	7715
873.561	7902
873.69	7917
873.819	8069
873.948	8096
874.077	8240
874.206	8339
874.335	8511
874.464	8678
874.593	8910
874.722	8933
874.851	9161
874.979	9214
875.108	9374
875.237	9492
875.365	9488
875.494	9637
875.623	9854
875.751	9846
875.88	10032
876.008	10196
876.136	10299
876.265	10466
876.393	10740
876.521	10717
876.65	10831
876.778	10854
876.906	10911
877.034	11041
877.162	11083
877.29	11098
877.418	11269
877.546	11429
877.674	11387
877.802	11402
877.93	11535
878.058	11535
878.185	11482
878.313	11676
878.441	11699
878.568	11661
878.696	11802
878.824	11950
878.951	12015
879.079	12106
879.206	12106
879.333	12091
879.461	12030
879.588	12102
879.715	12049
879.842	12220
879.97	12049
880.097	11859
880.224	11790
880.351	11824
880.478	11935
880.605	11840
880.732	11824
880.859	12049
880.986	11832
881.112	11832
881.239	11733
881.366	11608
881.493	11615
881.619	11524
881.746	11573
881.872	11554
881.999	11581
882.125	11490
882.252	11554
882.378	11577
882.505	11539
882.631	11421
882.757	11364
882.883	11311
883.01	11250
883.136	11140
883.262	11064
883.388	11155
883.514	11197
883.64	11189
883.766	11079
883.892	11003
884.018	11014
884.143	11048
884.269	11136
884.395	10847
884.52	10809
884.646	10782
884.772	10675
884.897	10691
885.023	10645
885.148	10778
885.274	10801
885.399	10725
885.524	10561
885.65	10561
885.775	10569
885.9	10527
886.025	10702
886.15	10561
886.275	10447
886.4	10386
886.525	10462
886.65	10314
886.775	10310
886.9	10470
887.025	10641
887.149	10375
887.274	10196
887.399	10211
887.523	10280
887.648	10188
887.773	10124
887.897	10268
888.021	10204
888.146	10200
888.27	10234
888.395	10227
888.519	10166
888.643	10192
888.767	10223
888.891	10124
889.015	10021
889.139	10112
889.263	9968
889.387	10059
889.511	10147
889.635	10074
889.759	9956
889.883	9975
890.006	10021
890.13	10074
890.254	9956
890.377	9922
890.501	9759
890.624	9876
890.748	9930
890.871	9804
890.995	9709
891.118	9751
891.241	9717
891.364	9717
891.488	9793
891.611	9747
891.734	9709
891.857	9842
891.98	9800
892.103	9724
892.226	9751
892.349	9622
892.471	9553
892.594	9644
892.717	9648
892.839	9728
892.962	9625
893.085	9713
893.207	9610
893.33	9458
893.452	9538
893.575	9606
893.697	9584
893.819	9629
893.941	9663
894.064	9656
894.186	9317
894.308	9374
894.43	9473
894.552	9553
894.674	9530
894.796	9374
894.918	9382
895.04	9393
895.161	9439
895.283	9397
895.405	9336
895.526	9211
895.648	9237
895.769	9222
895.891	9275
896.012	9287
896.134	9180
896.255	9233
896.376	9112
896.498	9180
896.619	9104
896.74	9108
896.861	9176
896.982	9233
897.103	9325
897.224	9188
897.345	9150
897.466	8971
897.587	8982
897.708	9142
897.828	9051
897.949	8952
898.07	8819
898.19	8929
898.311	9024
898.431	8967
898.552	8963
898.672	8948
898.792	8910
898.913	8914
899.033	8853
899.153	8697
899.273	8674
899.393	8785
899.513	8746
899.633	8777
899.753	8716
899.873	8682
899.993	8766
900.113	8670
900.232	8735
900.352	8686
900.472	8636
900.591	8613
900.711	8564
900.83	8602
900.95	8651
901.069	8640
901.189	8667
901.308	8427
901.427	8415
901.546	8446
901.665	8480
901.784	8438
901.904	8488
902.023	8347
902.141	8244
902.26	8206
902.379	8298
902.498	8183
902.617	8172
902.735	8317
902.854	8259
902.973	8309
903.091	8115
903.21	8145
903.328	8149
903.446	8111
903.565	8073
903.683	8107
903.801	8107
903.919	8168
904.038	8119
904.156	7993
904.274	8126
904.392	8084
904.51	7978
904.627	7970
904.745	8111
904.863	8115
904.981	7986
905.098	7883
905.216	7940
905.334	7849
905.451	7890
905.569	7849
905.686	7978
905.803	7932
905.921	7841
906.038	7913
906.155	7795
906.272	7738
906.389	7666
906.506	7677
906.623	7601
906.74	7597
906.857	7571
906.974	7556
907.091	7674
907.208	7772
907.324	7677
907.441	7578
907.557	7521
907.674	7415
907.79	7403
907.907	7381
908.023	7426
908.139	7403
908.256	7415
908.372	7419
908.488	7407
908.604	7240
908.72	7278
908.836	7259
908.952	7255
909.068	7263
909.184	7335
909.3	7194
909.415	7285
909.531	7343
909.647	7118
909.762	7122
909.878	7057
909.993	7114
910.108	7141
910.224	7080
910.339	7103
910.454	7031
910.57	7015
910.685	6894
910.8	7156
910.915	7156
911.03	7019
911.145	6954
911.259	6924
911.374	6894
911.489	6802
911.604	6821
911.718	6779
911.833	6734
911.947	6673
912.062	6650
912.176	6703
912.291	6738
912.405	6749
912.519	6825
912.633	6856
912.748	6715
912.862	6707
912.976	6673
913.09	6593
913.204	6627
913.318	6585
913.431	6726
913.545	6745
913.659	6741
913.772	6642
913.886	6616
914	6578
914.113	6631
914.226	6684
914.34	6662
914.453	6506
914.566	6646
914.68	6544
914.793	6528
914.906	6475
915.019	6372
915.132	6338
915.245	6433
915.358	6483
915.47	6464
915.583	6448
915.696	6429
915.809	6551
915.921	6525
916.034	6418
916.146	6475
916.259	6437
916.371	6452
916.483	6483
916.595	6376
916.708	6448
916.82	6361
916.932	6319
917.044	6403
917.156	6395
917.268	6319
917.38	6353
917.491	6338
917.603	6308
917.715	6452
917.826	6426
917.938	6292
918.049	6304
918.161	6346
918.272	6407
918.384	6467
918.495	6357
918.606	6273
918.717	6235
918.828	6285
918.939	6277
919.05	6197
919.161	6254
919.272	6102
919.383	6186
919.494	6277
919.604	6418
919.715	6281
919.826	6292
919.936	6197
920.047	6353
920.157	6311
920.267	6452
920.378	6376
920.488	6304
920.598	6445
920.708	6506
920.818	6467
920.928	6509
921.038	6604
921.148	6593
921.258	6319
921.368	6296
921.477	6235
921.587	6228
921.697	6117
921.806	6148
921.916	6083
922.025	5931
922.134	5927
922.244	5866
922.353	5935
922.462	5889
922.571	5821
922.68	5729
922.789	5653
922.898	5707
923.007	5649
923.116	5695
923.224	5653
923.333	5627
923.442	5638
923.55	5627
923.659	5585
923.767	5623
923.876	5581
923.984	5688
924.092	5497
924.201	5638
924.309	5604
924.417	5516
924.525	5497
924.633	5539
924.741	6144
924.849	5368
924.956	5528
925.064	5387
925.172	5296
925.279	5341
925.387	5322
925.494	5357
925.602	5459
925.709	5474
925.816	5284
925.924	5307
926.031	5406
926.138	5330
926.245	5292
926.352	5235
926.459	5357
926.566	5345
926.673	5223
926.779	5189
926.886	5136
926.993	5067
927.099	4995
927.206	4957
927.312	4965
927.419	5041
927.525	5003
927.631	4968
927.737	4904
927.843	4870
927.95	4824
928.056	4782
928.162	4790
928.267	4862
928.373	5341
928.479	4828
928.585	4744
928.69	4778
928.796	4812
928.901	4675
929.007	4565
929.112	4645
929.218	4664
929.323	4592
929.428	4596
929.533	4729
929.638	4535
929.743	4558
929.848	4554
929.953	4535
930.058	4478
930.163	4325
930.267	4386
930.372	4432
930.477	4329
930.581	4409
930.685	4367
930.79	4257
930.894	4257
930.998	4230
931.103	4417
931.207	4097
931.311	4097
931.415	4021
931.519	3953
931.623	3949
