Data from glass_V78500241_2029.txt Node
Date: Wed Sep 01 19:28:33 CST 2021
User: usil
Spectrometer: V785-0024
Trigger mode: 0
Integration Time (sec): 4.000000E-1
Scans to average: 1
Nonlinearity correction enabled: false
Boxcar width: 0
Storing dark spectrum: false
XAxis mode: Wavelengths
Number of Pixels in Spectrum: 1024
>>>>>Begin Spectral Data<<<<<
801.071	3770
801.214	3740
801.356	3701
801.499	3717
801.641	3766
801.783	3778
801.926	3865
802.068	3800
802.211	3857
802.353	3861
802.496	3857
802.638	3880
802.78	3899
802.923	3922
803.065	3865
803.208	3831
803.35	3842
803.492	3892
803.635	3911
803.777	3816
803.919	3884
804.061	4120
804.204	3915
804.346	3987
804.488	3907
804.63	4025
804.773	3994
804.915	4013
805.057	4166
805.199	4063
805.341	4074
805.483	4109
805.626	4090
805.768	4082
805.91	4227
806.052	4215
806.194	4223
806.336	4367
806.478	4230
806.62	4169
806.762	4162
806.904	4268
807.046	4344
807.188	4211
807.33	4177
807.472	4246
807.614	4162
807.756	4238
807.898	4173
808.04	4227
808.182	4257
808.324	4318
808.465	4390
808.607	4417
808.749	4421
808.891	4436
809.033	4504
809.174	4360
809.316	4280
809.458	4219
809.6	4173
809.741	4162
809.883	4143
810.025	4219
810.166	4158
810.308	4207
810.45	4219
810.591	4280
810.733	4299
810.875	4523
811.016	4805
811.158	5117
811.299	5303
811.441	5265
811.582	5086
811.724	4691
811.865	4474
812.007	4493
812.148	4409
812.29	4409
812.431	4443
812.573	4379
812.714	4360
812.855	4432
812.997	4390
813.138	4500
813.279	4386
813.421	4375
813.562	4348
813.703	4306
813.845	4348
813.986	4234
814.127	4257
814.268	4306
814.41	4291
814.551	4249
814.692	4363
814.833	4295
814.974	4325
815.115	4363
815.256	4227
815.397	4219
815.539	4188
815.68	4169
815.821	4227
815.962	4325
816.103	4306
816.244	4227
816.385	4227
816.526	4303
816.666	4207
816.807	4120
816.948	4162
817.089	4143
817.23	4071
817.371	4029
817.512	4055
817.653	4025
817.793	3994
817.934	4036
818.075	4109
818.216	4093
818.356	4078
818.497	3994
818.638	3865
818.778	3941
818.919	3911
819.06	3842
819.2	3880
819.341	3861
819.481	3854
819.622	3922
819.762	3991
819.903	3960
820.043	3838
820.184	3854
820.324	3778
820.465	3835
820.605	3892
820.746	3896
820.886	3812
821.026	3934
821.167	3934
821.307	3987
821.447	3979
821.588	3972
821.728	3945
821.868	3956
822.008	3873
822.149	3903
822.289	3907
822.429	3743
822.569	3713
822.709	3800
822.849	3660
822.99	3671
823.13	3732
823.27	3804
823.41	3698
823.55	3736
823.69	3720
823.83	3701
823.97	3675
824.11	3625
824.25	3614
824.389	3694
824.529	3633
824.669	3633
824.809	3701
824.949	3766
825.089	3743
825.228	3675
825.368	3557
825.508	3545
825.648	3599
825.787	3587
825.927	3629
826.067	3622
826.206	3686
826.346	3781
826.485	3800
826.625	3850
826.765	3930
826.904	3865
827.044	3606
827.183	3519
827.323	3431
827.462	3504
827.601	3416
827.741	3428
827.88	3428
828.02	3389
828.159	3458
828.298	3477
828.437	3485
828.577	3504
828.716	3591
828.855	3469
828.994	3386
829.134	3351
829.273	3363
829.412	3359
829.551	3321
829.69	3344
829.829	3462
829.968	3511
830.107	3443
830.246	3435
830.385	3367
830.524	3348
830.663	3287
830.802	3249
830.941	3211
831.08	3222
831.219	3275
831.357	3233
831.496	3389
831.635	3222
831.774	3192
831.913	3214
832.051	3112
832.19	3165
832.329	3214
832.467	3116
832.606	3104
832.744	3188
832.883	3146
833.022	3184
833.16	3272
833.299	3294
833.437	3329
833.576	3359
833.714	3397
833.852	3420
833.991	3439
834.129	3431
834.267	3481
834.406	3397
834.544	3428
834.682	3447
834.821	3397
834.959	3534
835.097	3412
835.235	3534
835.373	3492
835.511	3500
835.65	3435
835.788	3504
835.926	3378
836.064	3367
836.202	3405
836.34	3545
836.478	3610
836.615	3576
836.753	3622
836.891	3637
837.029	3644
837.167	3591
837.305	3549
837.443	3538
837.58	3538
837.718	3545
837.856	3511
837.993	3507
838.131	3610
838.269	3549
838.406	3561
838.544	3587
838.681	3447
838.819	3462
838.956	3393
839.094	3382
839.231	3439
839.369	3511
839.506	3720
839.643	3606
839.781	3481
839.918	3431
840.055	3523
840.193	3530
840.33	3515
840.467	3534
840.604	3595
840.742	3823
840.879	3542
841.016	3534
841.153	3576
841.29	3751
841.427	3705
841.564	3778
841.701	3705
841.838	3705
841.975	3679
842.112	3701
842.249	3587
842.385	3587
842.522	3861
842.659	3663
842.796	3694
842.933	3667
843.069	3694
843.206	3717
843.343	3831
843.479	3804
843.616	3819
843.752	3671
843.889	3663
844.025	3869
844.162	3679
844.298	3835
844.435	3755
844.571	3804
844.708	3869
844.844	3964
844.98	4063
845.117	4021
845.253	3911
845.389	3922
845.525	3964
845.661	3930
845.798	3930
845.934	3972
846.07	3975
846.206	4025
846.342	4112
846.478	4074
846.614	3972
846.75	3934
846.886	3926
847.022	4017
847.158	3975
847.294	4036
847.429	4002
847.565	3979
847.701	4242
847.837	3880
847.972	3861
848.108	4002
848.244	3960
848.379	3854
848.515	3800
848.65	3846
848.786	3797
848.921	3861
849.057	3876
849.192	3915
849.328	3896
849.463	3937
849.598	3838
849.734	3861
849.869	3846
850.004	3789
850.14	3812
850.275	3804
850.41	3743
850.545	3778
850.68	3732
850.815	3778
850.95	3785
851.085	3903
851.22	3880
851.355	3835
851.49	3800
851.625	3743
851.76	3816
851.895	3701
852.03	3732
852.165	3812
852.299	3800
852.434	3884
852.569	3854
852.703	3911
852.838	3945
852.973	4013
853.107	3972
853.242	3899
853.376	3842
853.511	3797
853.645	3816
853.78	3987
853.914	3915
854.048	3861
854.183	3823
854.317	3956
854.451	4055
854.585	3949
854.72	3926
854.854	4021
854.988	3876
855.122	4044
855.256	3934
855.39	4006
855.524	4059
855.658	4086
855.792	4093
855.926	4143
856.06	4177
856.194	4200
856.327	4120
856.461	4135
856.595	4173
856.729	4204
856.862	4246
856.996	4230
857.13	4253
857.263	4322
857.397	4379
857.53	4295
857.664	4344
857.797	4390
857.931	4409
858.064	4322
858.197	4417
858.331	4352
858.464	4333
858.597	4299
858.731	4440
858.864	4424
858.997	4451
859.13	4489
859.263	4527
859.396	4554
859.529	4478
859.662	4493
859.795	4493
859.928	4580
860.061	4744
860.194	4744
860.327	4675
860.46	4634
860.592	4740
860.725	4778
860.858	4736
860.99	4740
861.123	4687
861.256	4668
861.388	4725
861.521	5383
861.653	4759
861.786	4694
861.918	4733
862.05	4831
862.183	4858
862.315	4889
862.447	4927
862.58	4850
862.712	4774
862.844	4759
862.976	4881
863.108	4866
863.24	5124
863.372	4858
863.504	4965
863.636	4870
863.768	4972
863.9	4961
864.032	4908
864.164	4919
864.296	5041
864.428	5105
864.559	5098
864.691	5117
864.823	5098
864.954	5079
865.086	5105
865.217	5166
865.349	5060
865.48	5102
865.612	5166
865.743	5299
865.875	5181
866.006	5204
866.137	5258
866.269	5204
866.4	5296
866.531	5231
866.662	5193
866.793	5292
866.924	5292
867.055	5364
867.186	5315
867.317	5345
867.448	5296
867.579	5395
867.71	5395
867.841	5379
867.972	5463
868.103	5501
868.233	5459
868.364	5509
868.495	5532
868.625	5589
868.756	5748
868.886	5657
869.017	5726
869.147	5821
869.278	5821
869.408	5790
869.539	5836
869.669	5874
869.799	5923
869.929	6022
870.06	5992
870.19	6178
870.32	6167
870.45	6277
870.58	6281
870.71	6418
870.84	6467
870.97	6407
871.1	6471
871.23	6627
871.36	6753
871.489	6620
871.619	6692
871.749	6741
871.879	6837
872.008	6962
872.138	6962
872.267	6973
872.397	7019
872.526	7023
872.656	7118
872.785	7152
872.915	7426
873.044	7495
873.173	7525
873.303	7670
873.432	7727
873.561	7875
873.69	7928
873.819	7986
873.948	8138
874.077	8290
874.206	8343
874.335	8465
874.464	8648
874.593	8750
874.722	8979
874.851	9127
874.979	9226
875.108	9302
875.237	9378
875.365	9412
875.494	9622
875.623	9800
875.751	9797
875.88	10013
876.008	10105
876.136	10291
876.265	10504
876.393	10618
876.521	10721
876.65	10854
876.778	10873
876.906	10866
877.034	11037
877.162	11060
877.29	11174
877.418	11269
877.546	11334
877.674	11368
877.802	11425
877.93	11558
878.058	11490
878.185	11524
878.313	11585
878.441	11703
878.568	11649
878.696	11714
878.824	11809
878.951	11935
879.079	12095
879.206	12076
879.333	12083
879.461	11942
879.588	12140
879.715	12114
879.842	12262
879.97	12110
880.097	11809
880.224	11908
880.351	11904
880.478	11988
880.605	11855
880.732	11813
880.859	12057
880.986	11786
881.112	11809
881.239	11729
881.366	11790
881.493	11573
881.619	11528
881.746	11528
881.872	11543
881.999	11474
882.125	11436
882.252	11558
882.378	11570
882.505	11596
882.631	11360
882.757	11280
882.883	11379
883.01	11299
883.136	11086
883.262	11185
883.388	11086
883.514	11143
883.64	11193
883.766	11033
883.892	10980
884.018	10995
884.143	11105
884.269	11136
884.395	10930
884.52	10873
884.646	10748
884.772	10653
884.897	10702
885.023	10706
885.148	10714
885.274	10767
885.399	10736
885.524	10702
885.65	10592
885.775	10538
885.9	10611
886.025	10561
886.15	10538
886.275	10379
886.4	10314
886.525	10382
886.65	10371
886.775	10367
886.9	10436
887.025	10493
887.149	10402
887.274	10246
887.399	10230
887.523	10185
887.648	10234
887.773	10181
887.897	10230
888.021	10227
888.146	10143
888.27	10257
888.395	10196
888.519	10185
888.643	10135
888.767	10268
888.891	10082
889.015	10002
889.139	9998
889.263	9983
889.387	10071
889.511	10101
889.635	10032
889.759	9994
889.883	10036
890.006	10055
890.13	10074
890.254	9884
890.377	9930
890.501	9793
890.624	9823
890.748	9884
890.871	9755
890.995	9701
891.118	9641
891.241	9667
891.364	9732
891.488	9876
891.611	9740
891.734	9740
891.857	9717
891.98	9675
892.103	9827
892.226	9709
892.349	9694
892.471	9523
892.594	9553
892.717	9580
892.839	9580
892.962	9587
893.085	9652
893.207	9610
893.33	9454
893.452	9519
893.575	9603
893.697	9523
893.819	9572
893.941	9660
894.064	9595
894.186	9469
894.308	9329
894.43	9542
894.552	9538
894.674	9545
894.796	9355
894.918	9317
895.04	9302
895.161	9389
895.283	9447
895.405	9233
895.526	9302
895.648	9226
895.769	9180
895.891	9317
896.012	9233
896.134	9169
896.255	9211
896.376	9085
896.498	9180
896.619	9119
896.74	9093
896.861	9119
896.982	9207
897.103	9275
897.224	9150
897.345	9066
897.466	8960
897.587	8998
897.708	9138
897.828	9081
897.949	8944
898.07	8826
898.19	8880
898.311	9005
898.431	8948
898.552	8948
898.672	9013
898.792	8982
898.913	8902
899.033	8857
899.153	8773
899.273	8659
899.393	8705
899.513	8735
899.633	8667
899.753	8731
899.873	8739
899.993	8724
900.113	8655
900.232	8743
900.352	8667
900.472	8590
900.591	8575
900.711	8594
900.83	8446
900.95	8686
901.069	8648
901.189	8621
901.308	8400
901.427	8339
901.546	8385
901.665	8415
901.784	8495
901.904	8366
902.023	8355
902.141	8271
902.26	8191
902.379	8271
902.498	8259
902.617	8294
902.735	8286
902.854	8294
902.973	8225
903.091	8088
903.21	8096
903.328	8103
903.446	8088
903.565	8046
903.683	8096
903.801	8001
903.919	8142
904.038	8126
904.156	8077
904.274	8016
904.392	8039
904.51	8001
904.627	8005
904.745	8069
904.863	8111
904.981	7849
905.098	7860
905.216	7807
905.334	7932
905.451	7902
905.569	7864
905.686	7974
905.803	7940
905.921	7776
906.038	7864
906.155	7833
906.272	7719
906.389	7712
906.506	7594
906.623	7620
906.74	7628
906.857	7525
906.974	7658
907.091	7685
907.208	7689
907.324	7616
907.441	7521
907.557	7487
907.674	7434
907.79	7434
907.907	7411
908.023	7499
908.139	7422
908.256	7384
908.372	7392
908.488	7327
908.604	7274
908.72	7232
908.836	7285
908.952	7232
909.068	7217
909.184	7285
909.3	7263
909.415	7335
909.531	7274
909.647	7164
909.762	7137
909.878	7065
909.993	7088
910.108	7099
910.224	7099
910.339	7110
910.454	7027
910.57	6989
910.685	6943
910.8	7114
910.915	7088
911.03	6970
911.145	6924
911.259	6848
911.374	6852
911.489	6848
911.604	6821
911.718	6673
911.833	6684
911.947	6585
912.062	6582
912.176	6684
912.291	6703
912.405	6757
912.519	6825
912.633	6795
912.748	6768
912.862	6684
912.976	6700
913.09	6479
913.204	6608
913.318	6578
913.431	6662
913.545	6654
913.659	6760
913.772	6620
913.886	6544
914	6574
914.113	6540
914.226	6601
914.34	6681
914.453	6479
914.566	6650
914.68	6517
914.793	6532
914.906	6407
915.019	6407
915.132	6395
915.245	6357
915.358	6410
915.47	6486
915.583	6445
915.696	6433
915.809	6528
915.921	6521
916.034	6414
916.146	6445
916.259	6292
916.371	6471
916.483	6429
916.595	6304
916.708	6433
916.82	6410
916.932	6399
917.044	6403
917.156	6410
917.268	6331
917.38	6331
917.491	6292
917.603	6422
917.715	6418
917.826	6376
917.938	6304
918.049	6262
918.161	6281
918.272	6426
918.384	6391
918.495	6346
918.606	6270
918.717	6201
918.828	6247
918.939	6277
919.05	6205
919.161	6216
919.272	6117
919.383	6167
919.494	6243
919.604	6422
919.715	6304
919.826	6216
919.936	6235
920.047	6311
920.157	6258
920.267	6452
920.378	6289
920.488	6262
920.598	6410
920.708	6540
920.818	6448
920.928	6456
921.038	6582
921.148	6547
921.258	6342
921.368	6308
921.477	6235
921.587	6178
921.697	6076
921.806	6205
921.916	6041
922.025	5935
922.134	5889
922.244	5882
922.353	5927
922.462	5802
922.571	5809
922.68	5733
922.789	5695
922.898	5684
923.007	5695
923.116	5737
923.224	5733
923.333	5642
923.442	5608
923.55	5585
923.659	5604
923.767	5592
923.876	5524
923.984	5562
924.092	5471
924.201	5547
924.309	5532
924.417	5577
924.525	5455
924.633	5493
924.741	6289
924.849	5395
924.956	5463
925.064	5341
925.172	5360
925.279	5318
925.387	5395
925.494	5337
925.602	5379
925.709	5368
925.816	5322
925.924	5299
926.031	5307
926.138	5303
926.245	5318
926.352	5166
926.459	5307
926.566	5334
926.673	5197
926.779	5132
926.886	5140
926.993	5037
927.099	4999
927.206	4938
927.312	4953
927.419	4991
927.525	5014
927.631	4927
927.737	4885
927.843	4858
927.95	4812
928.056	4839
928.162	4873
928.267	4843
928.373	5265
928.479	4854
928.585	4717
928.69	4782
928.796	4767
928.901	4702
929.007	4584
929.112	4599
929.218	4596
929.323	4603
929.428	4538
929.533	4641
929.638	4519
929.743	4531
929.848	4565
929.953	4516
930.058	4428
930.163	4333
930.267	4363
930.372	4432
930.477	4257
930.581	4474
930.685	4352
930.79	4249
930.894	4276
930.998	4284
931.103	4341
931.207	4147
931.311	4048
931.415	4032
931.519	3930
931.623	3918
