Data from glass_V78500241_686.txt Node
Date: Wed Sep 01 19:19:15 CST 2021
User: usil
Spectrometer: V785-0024
Trigger mode: 0
Integration Time (sec): 4.000000E-1
Scans to average: 1
Nonlinearity correction enabled: false
Boxcar width: 0
Storing dark spectrum: false
XAxis mode: Wavelengths
Number of Pixels in Spectrum: 1024
>>>>>Begin Spectral Data<<<<<
801.071	3717
801.214	3804
801.356	3705
801.499	3747
801.641	3732
801.783	3740
801.926	3861
802.068	3888
802.211	3880
802.353	3903
802.496	3884
802.638	3816
802.78	3926
802.923	3937
803.065	3926
803.208	3907
803.35	3915
803.492	3888
803.635	3915
803.777	3823
803.919	3945
804.061	4150
804.204	3968
804.346	3968
804.488	3953
804.63	4048
804.773	3949
804.915	4044
805.057	4154
805.199	4063
805.341	4097
805.483	4200
805.626	4124
805.768	4158
805.91	4219
806.052	4265
806.194	4211
806.336	4329
806.478	4223
806.62	4128
806.762	4181
806.904	4306
807.046	4367
807.188	4192
807.33	4185
807.472	4299
807.614	4188
807.756	4310
807.898	4268
808.04	4268
808.182	4287
808.324	4360
808.465	4421
808.607	4443
808.749	4497
808.891	4489
809.033	4504
809.174	4436
809.316	4299
809.458	4272
809.6	4177
809.741	4150
809.883	4154
810.025	4230
810.166	4215
810.308	4181
810.45	4276
810.591	4227
810.733	4318
810.875	4538
811.016	4816
811.158	5143
811.299	5261
811.441	5280
811.582	5094
811.724	4729
811.865	4481
812.007	4466
812.148	4451
812.29	4398
812.431	4371
812.573	4447
812.714	4409
812.855	4402
812.997	4440
813.138	4512
813.279	4436
813.421	4424
813.562	4375
813.703	4333
813.845	4329
813.986	4227
814.127	4219
814.268	4272
814.41	4276
814.551	4276
814.692	4280
814.833	4249
814.974	4329
815.115	4363
815.256	4303
815.397	4261
815.539	4265
815.68	4200
815.821	4238
815.962	4352
816.103	4287
816.244	4246
816.385	4276
816.526	4322
816.666	4261
816.807	4105
816.948	4188
817.089	4227
817.23	4173
817.371	4101
817.512	4051
817.653	4093
817.793	4032
817.934	4074
818.075	4131
818.216	4120
818.356	4101
818.497	4002
818.638	3915
818.778	3945
818.919	3876
819.06	3869
819.2	3915
819.341	3842
819.481	3884
819.622	3949
819.762	4032
819.903	3945
820.043	3857
820.184	3831
820.324	3842
820.465	3907
820.605	3861
820.746	3926
820.886	3838
821.026	3964
821.167	3888
821.307	3972
821.447	3945
821.588	3975
821.728	3960
821.868	3972
822.008	3861
822.149	3941
822.289	3915
822.429	3785
822.569	3743
822.709	3785
822.849	3709
822.99	3751
823.13	3751
823.27	3766
823.41	3743
823.55	3736
823.69	3762
823.83	3740
823.97	3701
824.11	3625
824.25	3584
824.389	3660
824.529	3686
824.669	3663
824.809	3759
824.949	3747
825.089	3751
825.228	3717
825.368	3603
825.508	3595
825.648	3523
825.787	3595
825.927	3671
826.067	3633
826.206	3720
826.346	3766
826.485	3835
826.625	3876
826.765	3949
826.904	3854
827.044	3606
827.183	3545
827.323	3435
827.462	3519
827.601	3447
827.741	3454
827.88	3469
828.02	3370
828.159	3443
828.298	3477
828.437	3526
828.577	3496
828.716	3644
828.855	3519
828.994	3428
829.134	3424
829.273	3401
829.412	3359
829.551	3382
829.69	3370
829.829	3485
829.968	3507
830.107	3458
830.246	3469
830.385	3344
830.524	3355
830.663	3340
830.802	3253
830.941	3226
831.08	3203
831.219	3253
831.357	3260
831.496	3439
831.635	3283
831.774	3165
831.913	3230
832.051	3123
832.19	3157
832.329	3214
832.467	3146
832.606	3108
832.744	3173
832.883	3195
833.022	3176
833.16	3230
833.299	3329
833.437	3348
833.576	3397
833.714	3416
833.852	3443
833.991	3458
834.129	3485
834.267	3481
834.406	3439
834.544	3405
834.682	3431
834.821	3409
834.959	3576
835.097	3424
835.235	3519
835.373	3511
835.511	3515
835.65	3473
835.788	3507
835.926	3389
836.064	3405
836.202	3389
836.34	3564
836.478	3629
836.615	3584
836.753	3595
836.891	3629
837.029	3622
837.167	3629
837.305	3587
837.443	3568
837.58	3507
837.718	3667
837.856	3568
837.993	3549
838.131	3553
838.269	3572
838.406	3622
838.544	3603
838.681	3466
838.819	3488
838.956	3370
839.094	3420
839.231	3492
839.369	3519
839.506	3755
839.643	3656
839.781	3523
839.918	3481
840.055	3561
840.193	3572
840.33	3545
840.467	3530
840.604	3603
840.742	3838
840.879	3538
841.016	3561
841.153	3606
841.29	3797
841.427	3740
841.564	3709
841.701	3762
841.838	3701
841.975	3694
842.112	3709
842.249	3652
842.385	3614
842.522	3797
842.659	3705
842.796	3671
842.933	3694
843.069	3720
843.206	3724
843.343	3846
843.479	3774
843.616	3861
843.752	3633
843.889	3713
844.025	3884
844.162	3728
844.298	3850
844.435	3797
844.571	3766
844.708	3941
844.844	3983
844.98	4048
845.117	4086
845.253	3953
845.389	3903
845.525	3975
845.661	3972
845.798	3960
845.934	3994
846.07	3979
846.206	4040
846.342	4101
846.478	4093
846.614	3983
846.75	3953
846.886	3926
847.022	4078
847.158	4013
847.294	4006
847.429	4063
847.565	3983
847.701	4196
847.837	3922
847.972	3884
848.108	3998
848.244	3991
848.379	3876
848.515	3800
848.65	3819
848.786	3861
848.921	3888
849.057	3892
849.192	3934
849.328	3888
849.463	3941
849.598	3888
849.734	3892
849.869	3854
850.004	3827
850.14	3854
850.275	3800
850.41	3785
850.545	3762
850.68	3785
850.815	3770
850.95	3838
851.085	3922
851.22	3880
851.355	3884
851.49	3835
851.625	3793
851.76	3804
851.895	3766
852.03	3743
852.165	3812
852.299	3857
852.434	3918
852.569	3880
852.703	3880
852.838	3956
852.973	4048
853.107	3956
853.242	3911
853.376	3899
853.511	3835
853.645	3861
853.78	4017
853.914	3937
854.048	3915
854.183	3884
854.317	3949
854.451	4090
854.585	3964
854.72	3926
854.854	4063
854.988	3964
855.122	3998
855.256	3953
855.39	4040
855.524	4074
855.658	4082
855.792	4078
855.926	4116
856.06	4188
856.194	4238
856.327	4105
856.461	4185
856.595	4207
856.729	4200
856.862	4284
856.996	4261
857.13	4314
857.263	4310
857.397	4363
857.53	4303
857.664	4394
857.797	4432
857.931	4451
858.064	4428
858.197	4462
858.331	4398
858.464	4394
858.597	4402
858.731	4481
858.864	4519
858.997	4451
859.13	4531
859.263	4565
859.396	4569
859.529	4478
859.662	4561
859.795	4558
859.928	4630
860.061	4744
860.194	4820
860.327	4698
860.46	4668
860.592	4778
860.725	4797
860.858	4782
860.99	4679
861.123	4706
861.256	4721
861.388	4755
861.521	5254
861.653	4748
861.786	4698
861.918	4771
862.05	4828
862.183	4862
862.315	4854
862.447	4953
862.58	4908
862.712	4805
862.844	4793
862.976	4923
863.108	4885
863.24	5258
863.372	4816
863.504	4904
863.636	4839
863.768	4953
863.9	4995
864.032	4927
864.164	4915
864.296	5003
864.428	5083
864.559	5105
864.691	5124
864.823	5109
864.954	5128
865.086	5121
865.217	5136
865.349	5124
865.48	5151
865.612	5273
865.743	5315
865.875	5220
866.006	5155
866.137	5254
866.269	5284
866.4	5189
866.531	5288
866.662	5201
866.793	5261
866.924	5292
867.055	5398
867.186	5337
867.317	5318
867.448	5357
867.579	5322
867.71	5398
867.841	5391
867.972	5509
868.103	5463
868.233	5482
868.364	5543
868.495	5570
868.625	5718
868.756	5809
868.886	5680
869.017	5748
869.147	5904
869.278	5855
869.408	5805
869.539	5813
869.669	5897
869.799	5916
869.929	5950
870.06	6034
870.19	6235
870.32	6213
870.45	6247
870.58	6334
870.71	6395
870.84	6429
870.97	6471
871.1	6418
871.23	6681
871.36	6700
871.489	6703
871.619	6791
871.749	6856
871.879	6890
872.008	7008
872.138	6973
872.267	7019
872.397	6993
872.526	7000
872.656	7110
872.785	7282
872.915	7407
873.044	7521
873.173	7548
873.303	7636
873.432	7757
873.561	7894
873.69	7917
873.819	8043
873.948	8206
874.077	8244
874.206	8290
874.335	8461
874.464	8670
874.593	8857
874.722	8883
874.851	9116
874.979	9310
875.108	9389
875.237	9454
875.365	9492
875.494	9599
875.623	9861
875.751	9857
875.88	9937
876.008	10192
876.136	10246
876.265	10500
876.393	10744
876.521	10668
876.65	10854
876.778	10820
876.906	10991
877.034	11041
877.162	11117
877.29	11124
877.418	11303
877.546	11410
877.674	11524
877.802	11440
877.93	11467
878.058	11516
878.185	11539
878.313	11589
878.441	11741
878.568	11707
878.696	11813
878.824	11897
878.951	12003
879.079	12057
879.206	12148
879.333	12087
879.461	11996
879.588	12026
879.715	12144
879.842	12327
879.97	12098
880.097	11939
880.224	11916
880.351	11916
880.478	11893
880.605	11927
880.732	11882
880.859	11954
880.986	11798
881.112	11794
881.239	11691
881.366	11665
881.493	11638
881.619	11558
881.746	11551
881.872	11486
881.999	11444
882.125	11573
882.252	11577
882.378	11490
882.505	11604
882.631	11364
882.757	11303
882.883	11288
883.01	11277
883.136	11231
883.262	11155
883.388	11071
883.514	11174
883.64	11189
883.766	11109
883.892	10965
884.018	11041
884.143	11105
884.269	11117
884.395	10774
884.52	10778
884.646	10831
884.772	10763
884.897	10698
885.023	10618
885.148	10752
885.274	10774
885.399	10656
885.524	10664
885.65	10523
885.775	10599
885.9	10618
886.025	10630
886.15	10611
886.275	10402
886.4	10413
886.525	10447
886.65	10421
886.775	10455
886.9	10459
887.025	10500
887.149	10432
887.274	10306
887.399	10253
887.523	10215
887.648	10128
887.773	10162
887.897	10314
888.021	10253
888.146	10158
888.27	10234
888.395	10242
888.519	10230
888.643	10177
888.767	10192
888.891	10105
889.015	10021
889.139	10082
889.263	10017
889.387	10059
889.511	10268
889.635	10071
889.759	10040
889.883	9972
890.006	9991
890.13	10166
890.254	9930
890.377	10032
890.501	9770
890.624	9850
890.748	9846
890.871	9781
890.995	9778
891.118	9759
891.241	9812
891.364	9717
891.488	9816
891.611	9747
891.734	9709
891.857	9766
891.98	9781
892.103	9686
892.226	9652
892.349	9720
892.471	9492
892.594	9587
892.717	9637
892.839	9557
892.962	9671
893.085	9686
893.207	9641
893.33	9530
893.452	9591
893.575	9549
893.697	9606
893.819	9652
893.941	9705
894.064	9584
894.186	9397
894.308	9397
894.43	9553
894.552	9610
894.674	9488
894.796	9374
894.918	9374
895.04	9344
895.161	9401
895.283	9332
895.405	9214
895.526	9256
895.648	9237
895.769	9253
895.891	9294
896.012	9382
896.134	9169
896.255	9161
896.376	9055
896.498	9157
896.619	9176
896.74	9074
896.861	9108
896.982	9306
897.103	9317
897.224	9173
897.345	9089
897.466	8971
897.587	9047
897.708	9142
897.828	9024
897.949	8971
898.07	8918
898.19	8845
898.311	9001
898.431	8948
898.552	8963
898.672	8979
898.792	8960
898.913	8986
899.033	8842
899.153	8766
899.273	8651
899.393	8724
899.513	8785
899.633	8769
899.753	8769
899.873	8758
899.993	8720
900.113	8693
900.232	8693
900.352	8655
900.472	8655
900.591	8568
900.711	8659
900.83	8598
900.95	8648
901.069	8640
901.189	8640
901.308	8419
901.427	8374
901.546	8465
901.665	8454
901.784	8484
901.904	8362
902.023	8324
902.141	8252
902.26	8202
902.379	8294
902.498	8199
902.617	8244
902.735	8343
902.854	8294
902.973	8358
903.091	8100
903.21	8187
903.328	8153
903.446	8149
903.565	8081
903.683	8103
903.801	8024
903.919	8161
904.038	8183
904.156	8073
904.274	8069
904.392	7986
904.51	8020
904.627	7989
904.745	8138
904.863	8058
904.981	7963
905.098	7868
905.216	7909
905.334	7940
905.451	7890
905.569	7913
905.686	7978
905.803	7913
905.921	7784
906.038	7883
906.155	7757
906.272	7738
906.389	7727
906.506	7590
906.623	7757
906.74	7647
906.857	7575
906.974	7636
907.091	7727
907.208	7734
907.324	7685
907.441	7677
907.557	7514
907.674	7457
907.79	7434
907.907	7464
908.023	7495
908.139	7460
908.256	7411
908.372	7411
908.488	7354
908.604	7327
908.72	7266
908.836	7343
908.952	7293
909.068	7247
909.184	7373
909.3	7206
909.415	7282
909.531	7316
909.647	7137
909.762	7213
909.878	7080
909.993	7175
910.108	7061
910.224	7129
910.339	7080
910.454	7023
910.57	7023
910.685	6981
910.8	7187
910.915	7152
911.03	7046
911.145	6886
911.259	6886
911.374	6935
911.489	6875
911.604	6787
911.718	6734
911.833	6715
911.947	6700
912.062	6608
912.176	6707
912.291	6738
912.405	6707
912.519	6787
912.633	6882
912.748	6757
912.862	6726
912.976	6631
913.09	6513
913.204	6646
913.318	6654
913.431	6627
913.545	6662
913.659	6749
913.772	6623
913.886	6547
914	6589
914.113	6677
914.226	6707
914.34	6623
914.453	6467
914.566	6654
914.68	6570
914.793	6490
914.906	6403
915.019	6403
915.132	6391
915.245	6418
915.358	6452
915.47	6452
915.583	6483
915.696	6456
915.809	6578
915.921	6623
916.034	6464
916.146	6422
916.259	6365
916.371	6486
916.483	6483
916.595	6452
916.708	6418
916.82	6388
916.932	6414
917.044	6410
917.156	6429
917.268	6331
917.38	6403
917.491	6331
917.603	6372
917.715	6388
917.826	6426
917.938	6338
918.049	6292
918.161	6342
918.272	6388
918.384	6441
918.495	6365
918.606	6273
918.717	6239
918.828	6209
918.939	6342
919.05	6201
919.161	6285
919.272	6216
919.383	6182
919.494	6243
919.604	6475
919.715	6296
919.826	6224
919.936	6216
920.047	6323
920.157	6247
920.267	6426
920.378	6300
920.488	6292
920.598	6483
920.708	6601
920.818	6566
920.928	6471
921.038	6593
921.148	6559
921.258	6331
921.368	6353
921.477	6285
921.587	6239
921.697	6049
921.806	6224
921.916	6068
922.025	5999
922.134	5977
922.244	5946
922.353	5950
922.462	5893
922.571	5790
922.68	5752
922.789	5699
922.898	5649
923.007	5714
923.116	5722
923.224	5710
923.333	5672
923.442	5592
923.55	5585
923.659	5611
923.767	5688
923.876	5554
923.984	5581
924.092	5512
924.201	5516
924.309	5619
924.417	5528
924.525	5471
924.633	5528
924.741	6098
924.849	5387
924.956	5436
925.064	5376
925.172	5318
925.279	5273
925.387	5429
925.494	5318
925.602	5433
925.709	5372
925.816	5337
925.924	5280
926.031	5345
926.138	5330
926.245	5322
926.352	5265
926.459	5364
926.566	5296
926.673	5212
926.779	5140
926.886	5143
926.993	5033
927.099	5014
927.206	4965
927.312	4984
927.419	5060
927.525	4949
927.631	5037
927.737	4896
927.843	4877
927.95	4782
928.056	4801
928.162	4828
928.267	4862
928.373	5318
928.479	4915
928.585	4714
928.69	4710
928.796	4805
928.901	4717
929.007	4550
929.112	4714
929.218	4668
929.323	4580
929.428	4596
929.533	4687
929.638	4531
929.743	4550
929.848	4523
929.953	4500
930.058	4405
930.163	4337
930.267	4360
930.372	4413
930.477	4322
930.581	4485
930.685	4379
930.79	4272
930.894	4303
930.998	4284
931.103	4379
931.207	4101
931.311	4093
931.415	4067
931.519	3926
931.623	3972
