Data from glass_V78500241_982.txt Node
Date: Wed Sep 01 19:21:18 CST 2021
User: usil
Spectrometer: V785-0024
Trigger mode: 0
Integration Time (sec): 4.000000E-1
Scans to average: 1
Nonlinearity correction enabled: false
Boxcar width: 0
Storing dark spectrum: false
XAxis mode: Wavelengths
Number of Pixels in Spectrum: 1024
>>>>>Begin Spectral Data<<<<<
801.071	3755
801.214	3755
801.356	3724
801.499	3751
801.641	3736
801.783	3793
801.926	3888
802.068	3861
802.211	3854
802.353	3911
802.496	3861
802.638	3876
802.78	3896
802.923	3930
803.065	3876
803.208	3865
803.35	3911
803.492	3880
803.635	3926
803.777	3819
803.919	3911
804.061	4120
804.204	3998
804.346	3934
804.488	3907
804.63	4078
804.773	3983
804.915	4051
805.057	4143
805.199	4051
805.341	4071
805.483	4154
805.626	4139
805.768	4143
805.91	4230
806.052	4253
806.194	4223
806.336	4352
806.478	4215
806.62	4158
806.762	4238
806.904	4329
807.046	4379
807.188	4253
807.33	4207
807.472	4219
807.614	4185
807.756	4261
807.898	4227
808.04	4219
808.182	4276
808.324	4322
808.465	4367
808.607	4474
808.749	4470
808.891	4508
809.033	4474
809.174	4421
809.316	4291
809.458	4291
809.6	4143
809.741	4143
809.883	4147
810.025	4211
810.166	4181
810.308	4223
810.45	4246
810.591	4238
810.733	4291
810.875	4519
811.016	4854
811.158	5140
811.299	5273
811.441	5315
811.582	5128
811.724	4706
811.865	4527
812.007	4451
812.148	4485
812.29	4417
812.431	4383
812.573	4402
812.714	4409
812.855	4417
812.997	4455
813.138	4485
813.279	4436
813.421	4379
813.562	4375
813.703	4352
813.845	4375
813.986	4280
814.127	4196
814.268	4287
814.41	4318
814.551	4253
814.692	4265
814.833	4287
814.974	4352
815.115	4344
815.256	4261
815.397	4253
815.539	4261
815.68	4211
815.821	4265
815.962	4303
816.103	4242
816.244	4322
816.385	4246
816.526	4356
816.666	4166
816.807	4101
816.948	4200
817.089	4192
817.23	4135
817.371	4055
817.512	4055
817.653	4109
817.793	4025
817.934	4002
818.075	4116
818.216	4067
818.356	4071
818.497	3968
818.638	3926
818.778	3903
818.919	3888
819.06	3873
819.2	3915
819.341	3892
819.481	3816
819.622	3880
819.762	4010
819.903	3956
820.043	3831
820.184	3861
820.324	3823
820.465	3876
820.605	3926
820.746	3888
820.886	3774
821.026	3930
821.167	3960
821.307	3953
821.447	3987
821.588	4002
821.728	3960
821.868	3930
822.008	3865
822.149	3918
822.289	3937
822.429	3785
822.569	3740
822.709	3797
822.849	3743
822.99	3728
823.13	3759
823.27	3793
823.41	3724
823.55	3732
823.69	3698
823.83	3766
823.97	3709
824.11	3622
824.25	3614
824.389	3652
824.529	3717
824.669	3656
824.809	3755
824.949	3823
825.089	3751
825.228	3701
825.368	3595
825.508	3549
825.648	3564
825.787	3656
825.927	3641
826.067	3584
826.206	3690
826.346	3827
826.485	3827
826.625	3896
826.765	3960
826.904	3831
827.044	3618
827.183	3530
827.323	3412
827.462	3458
827.601	3462
827.741	3424
827.88	3462
828.02	3359
828.159	3428
828.298	3511
828.437	3561
828.577	3519
828.716	3614
828.855	3511
828.994	3405
829.134	3359
829.273	3420
829.412	3382
829.551	3329
829.69	3370
829.829	3409
829.968	3526
830.107	3477
830.246	3412
830.385	3370
830.524	3344
830.663	3310
830.802	3268
830.941	3199
831.08	3188
831.219	3256
831.357	3287
831.496	3435
831.635	3260
831.774	3199
831.913	3184
832.051	3119
832.19	3123
832.329	3214
832.467	3157
832.606	3093
832.744	3157
832.883	3192
833.022	3180
833.16	3283
833.299	3275
833.437	3336
833.576	3393
833.714	3431
833.852	3450
833.991	3458
834.129	3469
834.267	3412
834.406	3382
834.544	3447
834.682	3450
834.821	3412
834.959	3561
835.097	3473
835.235	3561
835.373	3492
835.511	3488
835.65	3458
835.788	3496
835.926	3428
836.064	3374
836.202	3428
836.34	3584
836.478	3584
836.615	3545
836.753	3629
836.891	3618
837.029	3648
837.167	3576
837.305	3580
837.443	3568
837.58	3519
837.718	3595
837.856	3587
837.993	3580
838.131	3545
838.269	3595
838.406	3584
838.544	3576
838.681	3469
838.819	3435
838.956	3367
839.094	3420
839.231	3439
839.369	3557
839.506	3762
839.643	3641
839.781	3538
839.918	3492
840.055	3530
840.193	3530
840.33	3534
840.467	3591
840.604	3625
840.742	3838
840.879	3572
841.016	3603
841.153	3603
841.29	3804
841.427	3713
841.564	3747
841.701	3743
841.838	3717
841.975	3648
842.112	3701
842.249	3633
842.385	3622
842.522	3812
842.659	3740
842.796	3720
842.933	3679
843.069	3743
843.206	3736
843.343	3804
843.479	3816
843.616	3778
843.752	3694
843.889	3686
844.025	3865
844.162	3720
844.298	3861
844.435	3797
844.571	3804
844.708	3915
844.844	4017
844.98	4029
845.117	4021
845.253	3926
845.389	3918
845.525	3994
845.661	4017
845.798	3937
845.934	4006
846.07	3953
846.206	4086
846.342	4105
846.478	4059
846.614	3968
846.75	3937
846.886	3922
847.022	4032
847.158	3930
847.294	4006
847.429	4036
847.565	4032
847.701	4246
847.837	3850
847.972	3884
848.108	3991
848.244	3941
848.379	3842
848.515	3835
848.65	3793
848.786	3850
848.921	3884
849.057	3956
849.192	3956
849.328	3968
849.463	3937
849.598	3884
849.734	3930
849.869	3823
850.004	3778
850.14	3827
850.275	3793
850.41	3759
850.545	3789
850.68	3808
850.815	3835
850.95	3838
851.085	3968
851.22	3884
851.355	3873
851.49	3816
851.625	3816
851.76	3842
851.895	3720
852.03	3778
852.165	3781
852.299	3907
852.434	3937
852.569	3869
852.703	3888
852.838	3934
852.973	3991
853.107	3983
853.242	3915
853.376	3850
853.511	3797
853.645	3819
853.78	4006
853.914	3915
854.048	3888
854.183	3869
854.317	3953
854.451	4082
854.585	3972
854.72	3937
854.854	4040
854.988	3960
855.122	4040
855.256	3918
855.39	4010
855.524	4124
855.658	4044
855.792	4128
855.926	4158
856.06	4097
856.194	4188
856.327	4105
856.461	4135
856.595	4162
856.729	4173
856.862	4265
856.996	4215
857.13	4325
857.263	4348
857.397	4360
857.53	4303
857.664	4341
857.797	4375
857.931	4413
858.064	4367
858.197	4478
858.331	4443
858.464	4402
858.597	4341
858.731	4470
858.864	4447
858.997	4481
859.13	4523
859.263	4599
859.396	4592
859.529	4535
859.662	4493
859.795	4584
859.928	4630
860.061	4683
860.194	4759
860.327	4660
860.46	4717
860.592	4790
860.725	4744
860.858	4812
860.99	4717
861.123	4729
861.256	4710
861.388	4748
861.521	5490
861.653	4771
861.786	4717
861.918	4752
862.05	4866
862.183	4824
862.315	4858
862.447	4930
862.58	4896
862.712	4786
862.844	4778
862.976	4850
863.108	4881
863.24	5235
863.372	4820
863.504	4900
863.636	4831
863.768	4919
863.9	4987
864.032	4927
864.164	4999
864.296	5029
864.428	5098
864.559	5113
864.691	5151
864.823	5143
864.954	5143
865.086	5102
865.217	5124
865.349	5147
865.48	5189
865.612	5193
865.743	5303
865.875	5185
866.006	5204
866.137	5269
866.269	5277
866.4	5273
866.531	5265
866.662	5208
866.793	5280
866.924	5261
867.055	5360
867.186	5326
867.317	5383
867.448	5250
867.579	5345
867.71	5330
867.841	5417
867.972	5467
868.103	5478
868.233	5535
868.364	5467
868.495	5535
868.625	5649
868.756	5786
868.886	5707
869.017	5752
869.147	5847
869.278	5904
869.408	5870
869.539	5832
869.669	5901
869.799	5916
869.929	5946
870.06	6030
870.19	6205
870.32	6213
870.45	6270
870.58	6445
870.71	6441
870.84	6464
870.97	6399
871.1	6464
871.23	6700
871.36	6707
871.489	6688
871.619	6757
871.749	6863
871.879	6856
872.008	7008
872.138	7027
872.267	6993
872.397	7038
872.526	6989
872.656	7213
872.785	7194
872.915	7407
873.044	7544
873.173	7567
873.303	7616
873.432	7761
873.561	7852
873.69	7955
873.819	8005
873.948	8176
874.077	8237
874.206	8336
874.335	8404
874.464	8663
874.593	8883
874.722	8941
874.851	9112
874.979	9237
875.108	9428
875.237	9405
875.365	9477
875.494	9618
875.623	9850
875.751	9895
875.88	9960
876.008	10124
876.136	10314
876.265	10470
876.393	10698
876.521	10767
876.65	10850
876.778	10896
876.906	10923
877.034	10976
877.162	11185
877.29	11113
877.418	11330
877.546	11364
877.674	11414
877.802	11463
877.93	11528
878.058	11604
878.185	11596
878.313	11661
878.441	11741
878.568	11676
878.696	11836
878.824	11863
878.951	12022
879.079	12072
879.206	12098
879.333	11939
879.461	12125
879.588	12076
879.715	12125
879.842	12194
879.97	12060
880.097	11935
880.224	11855
880.351	11897
880.478	11889
880.605	11927
880.732	11805
880.859	11999
880.986	11813
881.112	11840
881.239	11760
881.366	11657
881.493	11600
881.619	11684
881.746	11592
881.872	11566
881.999	11501
882.125	11463
882.252	11551
882.378	11551
882.505	11600
882.631	11421
882.757	11311
882.883	11292
883.01	11345
883.136	11189
883.262	11105
883.388	11064
883.514	11250
883.64	11128
883.766	11147
883.892	10987
884.018	11056
884.143	11056
884.269	11147
884.395	10771
884.52	10782
884.646	10736
884.772	10782
884.897	10702
885.023	10710
885.148	10721
885.274	10733
885.399	10759
885.524	10645
885.65	10599
885.775	10584
885.9	10573
886.025	10596
886.15	10504
886.275	10447
886.4	10398
886.525	10341
886.65	10402
886.775	10382
886.9	10474
887.025	10546
887.149	10348
887.274	10234
887.399	10158
887.523	10215
887.648	10177
887.773	10082
887.897	10272
888.021	10272
888.146	10192
888.27	10135
888.395	10177
888.519	10219
888.643	10105
888.767	10242
888.891	10116
889.015	10025
889.139	10078
889.263	9979
889.387	10150
889.511	10086
889.635	10029
889.759	9987
889.883	10006
890.006	10128
890.13	10029
890.254	9979
890.377	9884
890.501	9899
890.624	9899
890.748	9892
890.871	9819
890.995	9759
891.118	9751
891.241	9770
891.364	9747
891.488	9846
891.611	9728
891.734	9785
891.857	9819
891.98	9831
892.103	9781
892.226	9667
892.349	9660
892.471	9500
892.594	9595
892.717	9595
892.839	9534
892.962	9652
893.085	9652
893.207	9625
893.33	9488
893.452	9530
893.575	9591
893.697	9572
893.819	9595
893.941	9667
894.064	9633
894.186	9534
894.308	9378
894.43	9481
894.552	9606
894.674	9504
894.796	9340
894.918	9367
895.04	9393
895.161	9359
895.283	9325
895.405	9264
895.526	9321
895.648	9272
895.769	9275
895.891	9306
896.012	9222
896.134	9173
896.255	9150
896.376	9081
896.498	9142
896.619	9100
896.74	9077
896.861	9131
896.982	9291
897.103	9355
897.224	9165
897.345	9081
897.466	8998
897.587	9043
897.708	9127
897.828	9104
897.949	9058
898.07	8906
898.19	8921
898.311	9047
898.431	8910
898.552	8921
898.672	9013
898.792	8929
898.913	8941
899.033	8872
899.153	8815
899.273	8697
899.393	8743
899.513	8716
899.633	8746
899.753	8758
899.873	8754
899.993	8701
900.113	8758
900.232	8724
900.352	8594
900.472	8708
900.591	8583
900.711	8590
900.83	8549
900.95	8667
901.069	8636
901.189	8613
901.308	8389
901.427	8328
901.546	8454
901.665	8499
901.784	8583
901.904	8396
902.023	8385
902.141	8206
902.26	8256
902.379	8298
902.498	8225
902.617	8214
902.735	8355
902.854	8313
902.973	8263
903.091	8081
903.21	8115
903.328	8130
903.446	8069
903.565	8065
903.683	8123
903.801	8050
903.919	8206
904.038	8046
904.156	8035
904.274	8161
904.392	8073
904.51	8046
904.627	8103
904.745	8130
904.863	8119
904.981	7925
905.098	7856
905.216	7925
905.334	7883
905.451	7894
905.569	7925
905.686	7940
905.803	7982
905.921	7693
906.038	7845
906.155	7845
906.272	7792
906.389	7704
906.506	7632
906.623	7613
906.74	7647
906.857	7571
906.974	7636
907.091	7685
907.208	7658
907.324	7704
907.441	7548
907.557	7453
907.674	7499
907.79	7392
907.907	7422
908.023	7457
908.139	7438
908.256	7377
908.372	7377
908.488	7335
908.604	7285
908.72	7301
908.836	7312
908.952	7293
909.068	7228
909.184	7327
909.3	7327
909.415	7335
909.531	7225
909.647	7152
909.762	7145
909.878	7061
909.993	7149
910.108	7088
910.224	7027
910.339	7061
910.454	7061
910.57	7072
910.685	6958
910.8	7118
910.915	7095
911.03	6920
911.145	6863
911.259	6875
911.374	6939
911.489	6886
911.604	6848
911.718	6772
911.833	6734
911.947	6639
912.062	6608
912.176	6741
912.291	6753
912.405	6696
912.519	6844
912.633	6795
912.748	6726
912.862	6738
912.976	6623
913.09	6513
913.204	6585
913.318	6631
913.431	6707
913.545	6665
913.659	6795
913.772	6677
913.886	6585
914	6563
914.113	6642
914.226	6623
914.34	6608
914.453	6494
914.566	6547
914.68	6582
914.793	6513
914.906	6403
915.019	6327
915.132	6418
915.245	6467
915.358	6479
915.47	6471
915.583	6441
915.696	6490
915.809	6536
915.921	6506
916.034	6445
916.146	6426
916.259	6410
916.371	6513
916.483	6445
916.595	6308
916.708	6464
916.82	6384
916.932	6323
917.044	6437
917.156	6456
917.268	6277
917.38	6365
917.491	6323
917.603	6331
917.715	6369
917.826	6384
917.938	6365
918.049	6300
918.161	6338
918.272	6422
918.384	6384
918.495	6342
918.606	6273
918.717	6228
918.828	6308
918.939	6323
919.05	6296
919.161	6243
919.272	6148
919.383	6129
919.494	6281
919.604	6429
919.715	6258
919.826	6201
919.936	6224
920.047	6388
920.157	6277
920.267	6448
920.378	6350
920.488	6273
920.598	6429
920.708	6570
920.818	6479
920.928	6403
921.038	6616
921.148	6597
921.258	6422
921.368	6331
921.477	6220
921.587	6186
921.697	6117
921.806	6171
921.916	6076
922.025	5977
922.134	5931
922.244	5866
922.353	5965
922.462	5821
922.571	5802
922.68	5752
922.789	5771
922.898	5630
923.007	5642
923.116	5737
923.224	5672
923.333	5672
923.442	5566
923.55	5611
923.659	5551
923.767	5608
923.876	5532
923.984	5611
924.092	5520
924.201	5570
924.309	5532
924.417	5554
924.525	5455
924.633	5566
924.741	6167
924.849	5387
924.956	5440
925.064	5357
925.172	5357
925.279	5284
925.387	5318
925.494	5337
925.602	5440
925.709	5425
925.816	5299
925.924	5326
926.031	5383
926.138	5318
926.245	5326
926.352	5269
926.459	5318
926.566	5341
926.673	5254
926.779	5181
926.886	5178
926.993	5079
927.099	4980
927.206	4984
927.312	5022
927.419	5064
927.525	5033
927.631	4972
927.737	4904
927.843	4919
927.95	4774
928.056	4881
928.162	4843
928.267	4862
928.373	5345
928.479	4889
928.585	4706
928.69	4752
928.796	4774
928.901	4706
929.007	4630
929.112	4679
929.218	4634
929.323	4611
929.428	4523
929.533	4656
929.638	4519
929.743	4519
929.848	4584
929.953	4527
930.058	4455
930.163	4329
930.267	4303
930.372	4398
930.477	4333
930.581	4493
930.685	4318
930.79	4284
930.894	4314
930.998	4276
931.103	4455
931.207	4124
931.311	4109
931.415	4025
931.519	3926
931.623	4010
