Data from glass_V78500241_2786.txt Node
Date: Wed Sep 01 19:33:48 CST 2021
User: usil
Spectrometer: V785-0024
Trigger mode: 0
Integration Time (sec): 4.000000E-1
Scans to average: 1
Nonlinearity correction enabled: false
Boxcar width: 0
Storing dark spectrum: false
XAxis mode: Wavelengths
Number of Pixels in Spectrum: 1024
>>>>>Begin Spectral Data<<<<<
801.071	3743
801.214	3747
801.356	3701
801.499	3736
801.641	3747
801.783	3766
801.926	3857
802.068	3804
802.211	3800
802.353	3854
802.496	3854
802.638	3854
802.78	3873
802.923	3922
803.065	3899
803.208	3842
803.35	3869
803.492	3835
803.635	3857
803.777	3800
803.919	3850
804.061	4097
804.204	3907
804.346	3972
804.488	3896
804.63	4040
804.773	3956
804.915	4025
805.057	4120
805.199	4044
805.341	4071
805.483	4120
805.626	4051
805.768	4063
805.91	4219
806.052	4204
806.194	4177
806.336	4325
806.478	4200
806.62	4162
806.762	4166
806.904	4253
807.046	4291
807.188	4223
807.33	4143
807.472	4192
807.614	4185
807.756	4257
807.898	4192
808.04	4192
808.182	4234
808.324	4344
808.465	4322
808.607	4489
808.749	4470
808.891	4440
809.033	4474
809.174	4363
809.316	4215
809.458	4196
809.6	4135
809.741	4105
809.883	4150
810.025	4166
810.166	4177
810.308	4207
810.45	4207
810.591	4215
810.733	4284
810.875	4466
811.016	4820
811.158	5140
811.299	5216
811.441	5261
811.582	5052
811.724	4691
811.865	4451
812.007	4432
812.148	4424
812.29	4356
812.431	4356
812.573	4398
812.714	4390
812.855	4436
812.997	4428
813.138	4481
813.279	4409
813.421	4386
813.562	4405
813.703	4295
813.845	4325
813.986	4238
814.127	4196
814.268	4261
814.41	4249
814.551	4223
814.692	4299
814.833	4234
814.974	4299
815.115	4322
815.256	4295
815.397	4223
815.539	4188
815.68	4204
815.821	4230
815.962	4303
816.103	4303
816.244	4242
816.385	4196
816.526	4219
816.666	4177
816.807	4101
816.948	4147
817.089	4143
817.23	4093
817.371	4040
817.512	4017
817.653	4055
817.793	4013
817.934	4002
818.075	4101
818.216	4093
818.356	4059
818.497	4025
818.638	3865
818.778	3861
818.919	3873
819.06	3880
819.2	3899
819.341	3854
819.481	3835
819.622	3869
819.762	3968
819.903	3907
820.043	3842
820.184	3816
820.324	3804
820.465	3876
820.605	3842
820.746	3835
820.886	3819
821.026	3880
821.167	3865
821.307	3968
821.447	3972
821.588	3953
821.728	3903
821.868	3926
822.008	3823
822.149	3926
822.289	3850
822.429	3766
822.569	3766
822.709	3785
822.849	3682
822.99	3709
823.13	3740
823.27	3747
823.41	3679
823.55	3679
823.69	3701
823.83	3732
823.97	3667
824.11	3603
824.25	3553
824.389	3663
824.529	3671
824.669	3633
824.809	3686
824.949	3690
825.089	3709
825.228	3694
825.368	3568
825.508	3496
825.648	3564
825.787	3576
825.927	3618
826.067	3614
826.206	3610
826.346	3766
826.485	3846
826.625	3838
826.765	3934
826.904	3793
827.044	3587
827.183	3523
827.323	3473
827.462	3511
827.601	3412
827.741	3466
827.88	3424
828.02	3317
828.159	3447
828.298	3488
828.437	3500
828.577	3443
828.716	3572
828.855	3492
828.994	3359
829.134	3351
829.273	3325
829.412	3340
829.551	3359
829.69	3363
829.829	3420
829.968	3485
830.107	3405
830.246	3405
830.385	3367
830.524	3325
830.663	3245
830.802	3245
830.941	3195
831.08	3176
831.219	3253
831.357	3237
831.496	3355
831.635	3226
831.774	3184
831.913	3211
832.051	3123
832.19	3116
832.329	3203
832.467	3127
832.606	3104
832.744	3131
832.883	3165
833.022	3188
833.16	3260
833.299	3294
833.437	3317
833.576	3359
833.714	3401
833.852	3405
833.991	3431
834.129	3473
834.267	3405
834.406	3355
834.544	3424
834.682	3431
834.821	3405
834.959	3595
835.097	3397
835.235	3549
835.373	3458
835.511	3412
835.65	3469
835.788	3504
835.926	3332
836.064	3367
836.202	3420
836.34	3504
836.478	3603
836.615	3599
836.753	3584
836.891	3618
837.029	3587
837.167	3549
837.305	3538
837.443	3530
837.58	3469
837.718	3591
837.856	3530
837.993	3507
838.131	3580
838.269	3595
838.406	3595
838.544	3534
838.681	3447
838.819	3431
838.956	3374
839.094	3386
839.231	3431
839.369	3504
839.506	3728
839.643	3587
839.781	3542
839.918	3450
840.055	3481
840.193	3488
840.33	3542
840.467	3534
840.604	3599
840.742	3766
840.879	3526
841.016	3545
841.153	3599
841.29	3766
841.427	3686
841.564	3690
841.701	3720
841.838	3698
841.975	3637
842.112	3736
842.249	3618
842.385	3606
842.522	3785
842.659	3656
842.796	3633
842.933	3641
843.069	3690
843.206	3709
843.343	3808
843.479	3762
843.616	3785
843.752	3698
843.889	3671
844.025	3793
844.162	3667
844.298	3819
844.435	3778
844.571	3759
844.708	3903
844.844	4010
844.98	3975
845.117	3964
845.253	3941
845.389	3865
845.525	3960
845.661	3953
845.798	3899
845.934	3983
846.07	3915
846.206	4013
846.342	4021
846.478	4032
846.614	3956
846.75	3953
846.886	3861
847.022	4029
847.158	3926
847.294	4059
847.429	3998
847.565	4025
847.701	4227
847.837	3876
847.972	3812
848.108	3987
848.244	3987
848.379	3823
848.515	3808
848.65	3804
848.786	3827
848.921	3842
849.057	3941
849.192	3956
849.328	3892
849.463	3857
849.598	3876
849.734	3876
849.869	3819
850.004	3778
850.14	3789
850.275	3789
850.41	3762
850.545	3751
850.68	3770
850.815	3804
850.95	3797
851.085	3896
851.22	3850
851.355	3800
851.49	3778
851.625	3736
851.76	3793
851.895	3724
852.03	3709
852.165	3740
852.299	3808
852.434	3854
852.569	3846
852.703	3819
852.838	3934
852.973	3968
853.107	3987
853.242	3865
853.376	3838
853.511	3774
853.645	3823
853.78	3922
853.914	3888
854.048	3884
854.183	3861
854.317	3915
854.451	4048
854.585	3972
854.72	3926
854.854	4017
854.988	3926
855.122	3979
855.256	3953
855.39	3998
855.524	4109
855.658	4063
855.792	4071
855.926	4063
856.06	4173
856.194	4181
856.327	4109
856.461	4124
856.595	4166
856.729	4139
856.862	4234
856.996	4234
857.13	4253
857.263	4363
857.397	4303
857.53	4253
857.664	4303
857.797	4352
857.931	4394
858.064	4394
858.197	4436
858.331	4390
858.464	4341
858.597	4341
858.731	4398
858.864	4443
858.997	4443
859.13	4497
859.263	4569
859.396	4558
859.529	4508
859.662	4519
859.795	4535
859.928	4588
860.061	4675
860.194	4721
860.327	4626
860.46	4672
860.592	4733
860.725	4816
860.858	4721
860.99	4664
861.123	4675
861.256	4668
861.388	4725
861.521	5284
861.653	4740
861.786	4691
861.918	4744
862.05	4790
862.183	4820
862.315	4904
862.447	4877
862.58	4908
862.712	4786
862.844	4733
862.976	4881
863.108	4873
863.24	5170
863.372	4774
863.504	4877
863.636	4816
863.768	4923
863.9	4984
864.032	4892
864.164	4927
864.296	5025
864.428	5041
864.559	5083
864.691	5105
864.823	5064
864.954	5113
865.086	5117
865.217	5109
865.349	5083
865.48	5170
865.612	5201
865.743	5277
865.875	5140
866.006	5155
866.137	5239
866.269	5242
866.4	5223
866.531	5204
866.662	5181
866.793	5261
866.924	5261
867.055	5349
867.186	5341
867.317	5261
867.448	5299
867.579	5364
867.71	5398
867.841	5368
867.972	5482
868.103	5471
868.233	5467
868.364	5505
868.495	5512
868.625	5608
868.756	5752
868.886	5668
869.017	5760
869.147	5798
869.278	5851
869.408	5764
869.539	5817
869.669	5870
869.799	5916
869.929	6015
870.06	5988
870.19	6178
870.32	6201
870.45	6262
870.58	6311
870.71	6407
870.84	6479
870.97	6395
871.1	6448
871.23	6604
871.36	6642
871.489	6665
871.619	6753
871.749	6779
871.879	6871
872.008	6916
872.138	7004
872.267	6996
872.397	6947
872.526	6996
872.656	7099
872.785	7190
872.915	7346
873.044	7510
873.173	7521
873.303	7689
873.432	7723
873.561	7860
873.69	7852
873.819	8031
873.948	8111
874.077	8214
874.206	8290
874.335	8465
874.464	8617
874.593	8819
874.722	8891
874.851	9055
874.979	9253
875.108	9363
875.237	9374
875.365	9485
875.494	9618
875.623	9808
875.751	9857
875.88	10021
876.008	10162
876.136	10268
876.265	10485
876.393	10694
876.521	10672
876.65	10812
876.778	10862
876.906	10816
877.034	11045
877.162	11060
877.29	11204
877.418	11212
877.546	11231
877.674	11448
877.802	11463
877.93	11547
878.058	11600
878.185	11455
878.313	11608
878.441	11710
878.568	11657
878.696	11794
878.824	11832
878.951	11874
879.079	11954
879.206	12178
879.333	12049
879.461	11961
879.588	12041
879.715	12060
879.842	12228
879.97	12121
880.097	11935
880.224	11752
880.351	11878
880.478	11923
880.605	11756
880.732	11836
880.859	11999
880.986	11752
881.112	11859
881.239	11665
881.366	11672
881.493	11676
881.619	11474
881.746	11566
881.872	11558
881.999	11395
882.125	11490
882.252	11501
882.378	11467
882.505	11516
882.631	11326
882.757	11258
882.883	11239
883.01	11220
883.136	11174
883.262	11117
883.388	11090
883.514	11098
883.64	11090
883.766	11086
883.892	11006
884.018	10984
884.143	11033
884.269	11181
884.395	10835
884.52	10816
884.646	10790
884.772	10702
884.897	10580
885.023	10694
885.148	10816
885.274	10786
885.399	10679
885.524	10656
885.65	10580
885.775	10470
885.9	10481
886.025	10626
886.15	10538
886.275	10512
886.4	10382
886.525	10424
886.65	10371
886.775	10337
886.9	10470
887.025	10500
887.149	10303
887.274	10238
887.399	10135
887.523	10150
887.648	10185
887.773	10097
887.897	10158
888.021	10173
888.146	10124
888.27	10181
888.395	10234
888.519	10196
888.643	10150
888.767	10215
888.891	10074
889.015	9953
889.139	10055
889.263	9991
889.387	10055
889.511	10025
889.635	10044
889.759	9994
889.883	10017
890.006	9960
890.13	10086
890.254	9869
890.377	9880
890.501	9785
890.624	9846
890.748	9903
890.871	9774
890.995	9740
891.118	9675
891.241	9747
891.364	9679
891.488	9854
891.611	9755
891.734	9747
891.857	9747
891.98	9690
892.103	9778
892.226	9740
892.349	9698
892.471	9466
892.594	9572
892.717	9644
892.839	9519
892.962	9595
893.085	9534
893.207	9584
893.33	9504
893.452	9488
893.575	9538
893.697	9393
893.819	9526
893.941	9641
894.064	9576
894.186	9397
894.308	9443
894.43	9504
894.552	9542
894.674	9477
894.796	9416
894.918	9408
895.04	9317
895.161	9340
895.283	9310
895.405	9241
895.526	9207
895.648	9237
895.769	9253
895.891	9199
896.012	9226
896.134	9142
896.255	9165
896.376	9184
896.498	9093
896.619	9154
896.74	9093
896.861	9108
896.982	9302
897.103	9272
897.224	9154
897.345	9039
897.466	8933
897.587	9058
897.708	9093
897.828	9066
897.949	8941
898.07	8883
898.19	8853
898.311	8998
898.431	8853
898.552	8948
898.672	9005
898.792	8948
898.913	8857
899.033	8735
899.153	8674
899.273	8613
899.393	8712
899.513	8720
899.633	8712
899.753	8731
899.873	8701
899.993	8689
900.113	8629
900.232	8724
900.352	8693
900.472	8545
900.591	8610
900.711	8606
900.83	8522
900.95	8708
901.069	8644
901.189	8568
901.308	8423
901.427	8431
901.546	8351
901.665	8442
901.784	8518
901.904	8419
902.023	8301
902.141	8176
902.26	8138
902.379	8248
902.498	8183
902.617	8187
902.735	8301
902.854	8237
902.973	8286
903.091	8081
903.21	8172
903.328	8168
903.446	8077
903.565	8062
903.683	8069
903.801	8081
903.919	8195
904.038	8126
904.156	8062
904.274	8024
904.392	8054
904.51	7989
904.627	7986
904.745	8119
904.863	8088
904.981	8008
905.098	7887
905.216	7833
905.334	7864
905.451	7936
905.569	7807
905.686	7875
905.803	7860
905.921	7784
906.038	7833
906.155	7803
906.272	7712
906.389	7685
906.506	7601
906.623	7609
906.74	7582
906.857	7533
906.974	7567
907.091	7616
907.208	7677
907.324	7647
907.441	7616
907.557	7403
907.674	7445
907.79	7377
907.907	7426
908.023	7426
908.139	7403
908.256	7327
908.372	7312
908.488	7369
908.604	7263
908.72	7259
908.836	7232
908.952	7202
909.068	7225
909.184	7308
909.3	7198
909.415	7316
909.531	7274
909.647	7175
909.762	7061
909.878	7053
909.993	7065
910.108	7137
910.224	7095
910.339	7103
910.454	7046
910.57	7027
910.685	6856
910.8	7194
910.915	7091
911.03	6985
911.145	6897
911.259	6852
911.374	6837
911.489	6840
911.604	6814
911.718	6726
911.833	6654
911.947	6646
912.062	6566
912.176	6669
912.291	6669
912.405	6635
912.519	6760
912.633	6783
912.748	6681
912.862	6650
912.976	6585
913.09	6544
913.204	6559
913.318	6490
913.431	6654
913.545	6665
913.659	6684
913.772	6570
913.886	6555
914	6490
914.113	6650
914.226	6692
914.34	6646
914.453	6559
914.566	6578
914.68	6521
914.793	6506
914.906	6403
915.019	6429
915.132	6342
915.245	6422
915.358	6384
915.47	6429
915.583	6376
915.696	6506
915.809	6578
915.921	6479
916.034	6331
916.146	6369
916.259	6346
916.371	6464
916.483	6441
916.595	6452
916.708	6365
916.82	6384
916.932	6369
917.044	6445
917.156	6365
917.268	6342
917.38	6342
917.491	6296
917.603	6331
917.715	6323
917.826	6464
917.938	6266
918.049	6285
918.161	6285
918.272	6365
918.384	6384
918.495	6304
918.606	6251
918.717	6167
918.828	6251
918.939	6239
919.05	6167
919.161	6251
919.272	6102
919.383	6102
919.494	6281
919.604	6372
919.715	6285
919.826	6182
919.936	6285
920.047	6251
920.157	6311
920.267	6437
920.378	6315
920.488	6270
920.598	6407
920.708	6559
920.818	6361
920.928	6433
921.038	6582
921.148	6620
921.258	6334
921.368	6289
921.477	6186
921.587	6175
921.697	6076
921.806	6175
921.916	6034
922.025	5885
922.134	5874
922.244	5844
922.353	5939
922.462	5866
922.571	5779
922.68	5695
922.789	5661
922.898	5718
923.007	5627
923.116	5615
923.224	5672
923.333	5592
923.442	5539
923.55	5600
923.659	5566
923.767	5608
923.876	5486
923.984	5585
924.092	5471
924.201	5573
924.309	5535
924.417	5509
924.525	5452
924.633	5516
924.741	6254
924.849	5357
924.956	5455
925.064	5345
925.172	5360
925.279	5277
925.387	5345
925.494	5318
925.602	5364
925.709	5318
925.816	5341
925.924	5288
926.031	5341
926.138	5360
926.245	5277
926.352	5261
926.459	5284
926.566	5269
926.673	5201
926.779	5117
926.886	5086
926.993	5098
927.099	4972
927.206	4965
927.312	4892
927.419	4995
927.525	4965
927.631	4995
927.737	4873
927.843	4816
927.95	4767
928.056	4801
928.162	4816
928.267	4816
928.373	5334
928.479	4797
928.585	4634
928.69	4752
928.796	4725
928.901	4672
929.007	4596
929.112	4664
929.218	4622
929.323	4626
929.428	4580
929.533	4668
929.638	4531
929.743	4478
929.848	4565
929.953	4523
930.058	4440
930.163	4310
930.267	4363
930.372	4383
930.477	4265
930.581	4481
930.685	4303
930.79	4234
930.894	4249
930.998	4246
931.103	4348
931.207	4124
931.311	4078
931.415	4040
931.519	3945
931.623	3880
