Data from glass_V78500241_1281.txt Node
Date: Wed Sep 01 19:23:22 CST 2021
User: usil
Spectrometer: V785-0024
Trigger mode: 0
Integration Time (sec): 4.000000E-1
Scans to average: 1
Nonlinearity correction enabled: false
Boxcar width: 0
Storing dark spectrum: false
XAxis mode: Wavelengths
Number of Pixels in Spectrum: 1024
>>>>>Begin Spectral Data<<<<<
801.071	3747
801.214	3804
801.356	3724
801.499	3778
801.641	3717
801.783	3804
801.926	3857
802.068	3831
802.211	3892
802.353	3899
802.496	3842
802.638	3873
802.78	3888
802.923	3949
803.065	3945
803.208	3842
803.35	3922
803.492	3892
803.635	3907
803.777	3804
803.919	3869
804.061	4166
804.204	3960
804.346	3964
804.488	3941
804.63	4036
804.773	3983
804.915	4048
805.057	4120
805.199	4040
805.341	4128
805.483	4147
805.626	4143
805.768	4116
805.91	4162
806.052	4238
806.194	4188
806.336	4329
806.478	4207
806.62	4181
806.762	4211
806.904	4234
807.046	4333
807.188	4234
807.33	4192
807.472	4276
807.614	4207
807.756	4280
807.898	4265
808.04	4204
808.182	4306
808.324	4325
808.465	4409
808.607	4485
808.749	4470
808.891	4459
809.033	4497
809.174	4379
809.316	4303
809.458	4261
809.6	4147
809.741	4173
809.883	4112
810.025	4230
810.166	4230
810.308	4242
810.45	4257
810.591	4284
810.733	4348
810.875	4546
811.016	4828
811.158	5181
811.299	5231
811.441	5277
811.582	5064
811.724	4702
811.865	4455
812.007	4497
812.148	4478
812.29	4436
812.431	4436
812.573	4421
812.714	4367
812.855	4428
812.997	4443
813.138	4481
813.279	4436
813.421	4436
813.562	4371
813.703	4363
813.845	4310
813.986	4253
814.127	4238
814.268	4238
814.41	4291
814.551	4257
814.692	4295
814.833	4276
814.974	4268
815.115	4344
815.256	4211
815.397	4219
815.539	4261
815.68	4169
815.821	4215
815.962	4344
816.103	4318
816.244	4234
816.385	4265
816.526	4306
816.666	4147
816.807	4074
816.948	4173
817.089	4173
817.23	4131
817.371	4025
817.512	4021
817.653	4097
817.793	4051
817.934	4044
818.075	4086
818.216	4109
818.356	4093
818.497	3983
818.638	3899
818.778	3930
818.919	3899
819.06	3854
819.2	3922
819.341	3812
819.481	3850
819.622	3880
819.762	4002
819.903	3949
820.043	3899
820.184	3846
820.324	3835
820.465	3865
820.605	3880
820.746	3899
820.886	3857
821.026	3945
821.167	3892
821.307	3956
821.447	3975
821.588	3953
821.728	3949
821.868	3972
822.008	3896
822.149	3896
822.289	3907
822.429	3762
822.569	3751
822.709	3808
822.849	3713
822.99	3747
823.13	3747
823.27	3823
823.41	3759
823.55	3705
823.69	3717
823.83	3743
823.97	3682
824.11	3618
824.25	3660
824.389	3675
824.529	3705
824.669	3644
824.809	3724
824.949	3709
825.089	3728
825.228	3770
825.368	3587
825.508	3576
825.648	3584
825.787	3606
825.927	3622
826.067	3618
826.206	3675
826.346	3793
826.485	3838
826.625	3880
826.765	3911
826.904	3907
827.044	3622
827.183	3534
827.323	3428
827.462	3515
827.601	3431
827.741	3389
827.88	3485
828.02	3386
828.159	3485
828.298	3454
828.437	3542
828.577	3477
828.716	3591
828.855	3515
828.994	3389
829.134	3367
829.273	3405
829.412	3382
829.551	3359
829.69	3378
829.829	3424
829.968	3542
830.107	3439
830.246	3447
830.385	3374
830.524	3405
830.663	3317
830.802	3245
830.941	3192
831.08	3199
831.219	3241
831.357	3325
831.496	3416
831.635	3199
831.774	3157
831.913	3165
832.051	3135
832.19	3161
832.329	3192
832.467	3116
832.606	3123
832.744	3176
832.883	3218
833.022	3203
833.16	3283
833.299	3306
833.437	3382
833.576	3355
833.714	3435
833.852	3469
833.991	3450
834.129	3485
834.267	3443
834.406	3401
834.544	3439
834.682	3412
834.821	3389
834.959	3568
835.097	3443
835.235	3545
835.373	3492
835.511	3477
835.65	3496
835.788	3481
835.926	3401
836.064	3386
836.202	3420
836.34	3568
836.478	3625
836.615	3549
836.753	3603
836.891	3641
837.029	3618
837.167	3572
837.305	3530
837.443	3534
837.58	3504
837.718	3591
837.856	3564
837.993	3549
838.131	3603
838.269	3606
838.406	3576
838.544	3576
838.681	3469
838.819	3469
838.956	3412
839.094	3401
839.231	3443
839.369	3557
839.506	3713
839.643	3629
839.781	3488
839.918	3466
840.055	3549
840.193	3538
840.33	3553
840.467	3580
840.604	3614
840.742	3816
840.879	3561
841.016	3584
841.153	3599
841.29	3732
841.427	3717
841.564	3747
841.701	3774
841.838	3667
841.975	3652
842.112	3732
842.249	3660
842.385	3641
842.522	3804
842.659	3724
842.796	3698
842.933	3694
843.069	3747
843.206	3732
843.343	3816
843.479	3804
843.616	3861
843.752	3686
843.889	3675
844.025	3854
844.162	3717
844.298	3823
844.435	3789
844.571	3774
844.708	3892
844.844	4010
844.98	3983
845.117	4017
845.253	3930
845.389	3896
845.525	3972
845.661	3960
845.798	3930
845.934	4025
846.07	3991
846.206	4063
846.342	4173
846.478	4074
846.614	4025
846.75	3907
846.886	3941
847.022	4078
847.158	3945
847.294	4006
847.429	4025
847.565	3994
847.701	4230
847.837	3884
847.972	3838
848.108	3991
848.244	3964
848.379	3880
848.515	3800
848.65	3808
848.786	3831
848.921	3865
849.057	3953
849.192	3987
849.328	3907
849.463	3934
849.598	3869
849.734	3865
849.869	3835
850.004	3789
850.14	3797
850.275	3770
850.41	3732
850.545	3755
850.68	3755
850.815	3819
850.95	3808
851.085	3945
851.22	3869
851.355	3797
851.49	3766
851.625	3743
851.76	3812
851.895	3743
852.03	3717
852.165	3804
852.299	3876
852.434	3869
852.569	3861
852.703	3873
852.838	3968
852.973	3994
853.107	4002
853.242	3888
853.376	3873
853.511	3785
853.645	3831
853.78	3926
853.914	3930
854.048	3907
854.183	3869
854.317	3979
854.451	4063
854.585	3937
854.72	3941
854.854	4029
854.988	3896
855.122	4025
855.256	3968
855.39	4048
855.524	4097
855.658	4086
855.792	4074
855.926	4158
856.06	4177
856.194	4219
856.327	4124
856.461	4109
856.595	4169
856.729	4207
856.862	4322
856.996	4223
857.13	4310
857.263	4337
857.397	4379
857.53	4303
857.664	4379
857.797	4417
857.931	4409
858.064	4432
858.197	4447
858.331	4379
858.464	4432
858.597	4363
858.731	4462
858.864	4466
858.997	4478
859.13	4481
859.263	4527
859.396	4641
859.529	4535
859.662	4573
859.795	4542
859.928	4599
860.061	4710
860.194	4759
860.327	4683
860.46	4668
860.592	4725
860.725	4763
860.858	4763
860.99	4675
861.123	4694
861.256	4702
861.388	4778
861.521	5357
861.653	4725
861.786	4702
861.918	4793
862.05	4805
862.183	4866
862.315	4923
862.447	4900
862.58	4934
862.712	4812
862.844	4740
862.976	4896
863.108	4881
863.24	5208
863.372	4816
863.504	4911
863.636	4930
863.768	4965
863.9	4972
864.032	4942
864.164	4934
864.296	5025
864.428	5060
864.559	5086
864.691	5098
864.823	5143
864.954	5105
865.086	5105
865.217	5094
865.349	5117
865.48	5178
865.612	5159
865.743	5315
865.875	5261
866.006	5140
866.137	5254
866.269	5254
866.4	5220
866.531	5254
866.662	5242
866.793	5280
866.924	5288
867.055	5360
867.186	5376
867.317	5330
867.448	5372
867.579	5345
867.71	5398
867.841	5414
867.972	5459
868.103	5417
868.233	5471
868.364	5486
868.495	5516
868.625	5634
868.756	5821
868.886	5668
869.017	5710
869.147	5847
869.278	5889
869.408	5855
869.539	5908
869.669	5950
869.799	5893
869.929	5965
870.06	6007
870.19	6178
870.32	6209
870.45	6254
870.58	6361
870.71	6445
870.84	6460
870.97	6456
871.1	6467
871.23	6650
871.36	6623
871.489	6726
871.619	6719
871.749	6833
871.879	6901
872.008	7027
872.138	7019
872.267	7023
872.397	6989
872.526	6985
872.656	7126
872.785	7213
872.915	7426
873.044	7506
873.173	7556
873.303	7651
873.432	7780
873.561	7833
873.69	7940
873.819	8081
873.948	8168
874.077	8256
874.206	8434
874.335	8423
874.464	8651
874.593	8834
874.722	8971
874.851	9150
874.979	9268
875.108	9389
875.237	9469
875.365	9580
875.494	9625
875.623	9850
875.751	9804
875.88	10025
876.008	10101
876.136	10337
876.265	10504
876.393	10698
876.521	10736
876.65	10908
876.778	10904
876.906	10892
877.034	10984
877.162	11094
877.29	11147
877.418	11242
877.546	11387
877.674	11478
877.802	11425
877.93	11577
878.058	11558
878.185	11611
878.313	11676
878.441	11783
878.568	11653
878.696	11824
878.824	11863
878.951	11954
879.079	12049
879.206	12182
879.333	11939
879.461	11996
879.588	12114
879.715	12129
879.842	12270
879.97	12064
880.097	11870
880.224	11927
880.351	11904
880.478	11851
880.605	11855
880.732	11843
880.859	11935
880.986	11843
881.112	11832
881.239	11783
881.366	11665
881.493	11649
881.619	11547
881.746	11573
881.872	11627
881.999	11474
882.125	11448
882.252	11581
882.378	11532
882.505	11611
882.631	11273
882.757	11345
882.883	11231
883.01	11261
883.136	11132
883.262	11159
883.388	11025
883.514	11261
883.64	11197
883.766	11102
883.892	11029
884.018	11014
884.143	11029
884.269	11162
884.395	10869
884.52	10828
884.646	10767
884.772	10649
884.897	10656
885.023	10767
885.148	10763
885.274	10714
885.399	10687
885.524	10653
885.65	10573
885.775	10649
885.9	10550
886.025	10649
886.15	10531
886.275	10466
886.4	10371
886.525	10402
886.65	10413
886.775	10344
886.9	10481
887.025	10493
887.149	10356
887.274	10215
887.399	10249
887.523	10177
887.648	10173
887.773	10169
887.897	10265
888.021	10242
888.146	10131
888.27	10276
888.395	10147
888.519	10128
888.643	10185
888.767	10238
888.891	10059
889.015	10055
889.139	10063
889.263	10006
889.387	10082
889.511	10120
889.635	10017
889.759	9956
889.883	9983
890.006	10025
890.13	10120
890.254	10013
890.377	9903
890.501	9869
890.624	9892
890.748	9907
890.871	9823
890.995	9778
891.118	9778
891.241	9740
891.364	9778
891.488	9861
891.611	9751
891.734	9755
891.857	9831
891.98	9759
892.103	9793
892.226	9720
892.349	9713
892.471	9485
892.594	9599
892.717	9584
892.839	9561
892.962	9591
893.085	9751
893.207	9652
893.33	9519
893.452	9553
893.575	9538
893.697	9523
893.819	9614
893.941	9720
894.064	9618
894.186	9466
894.308	9477
894.43	9492
894.552	9545
894.674	9511
894.796	9378
894.918	9420
895.04	9370
895.161	9275
895.283	9363
895.405	9237
895.526	9283
895.648	9245
895.769	9253
895.891	9287
896.012	9294
896.134	9245
896.255	9260
896.376	9226
896.498	9169
896.619	9138
896.74	9100
896.861	9127
896.982	9298
897.103	9264
897.224	9203
897.345	9135
897.466	9028
897.587	9005
897.708	9055
897.828	8967
897.949	8956
898.07	8960
898.19	8910
898.311	8998
898.431	8834
898.552	8971
898.672	8948
898.792	8979
898.913	8906
899.033	8853
899.153	8731
899.273	8686
899.393	8716
899.513	8769
899.633	8743
899.753	8785
899.873	8739
899.993	8785
900.113	8712
900.232	8716
900.352	8663
900.472	8663
900.591	8583
900.711	8575
900.83	8560
900.95	8689
901.069	8613
901.189	8602
901.308	8457
901.427	8396
901.546	8374
901.665	8442
901.784	8492
901.904	8419
902.023	8362
902.141	8240
902.26	8218
902.379	8290
902.498	8225
902.617	8233
902.735	8294
902.854	8320
902.973	8240
903.091	8172
903.21	8134
903.328	8191
903.446	8107
903.565	8062
903.683	8138
903.801	8046
903.919	8119
904.038	8168
904.156	8088
904.274	8134
904.392	8069
904.51	8065
904.627	8046
904.745	8016
904.863	8107
904.981	7955
905.098	7898
905.216	7849
905.334	7833
905.451	7944
905.569	7917
905.686	7928
905.803	7947
905.921	7811
906.038	7849
906.155	7772
906.272	7681
906.389	7750
906.506	7651
906.623	7609
906.74	7601
906.857	7559
906.974	7521
907.091	7655
907.208	7727
907.324	7651
907.441	7563
907.557	7422
907.674	7445
907.79	7358
907.907	7343
908.023	7468
908.139	7441
908.256	7449
908.372	7320
908.488	7369
908.604	7297
908.72	7221
908.836	7327
908.952	7194
909.068	7251
909.184	7362
909.3	7266
909.415	7251
909.531	7232
909.647	7126
909.762	7122
909.878	7164
909.993	7137
910.108	7118
910.224	7080
910.339	7080
910.454	7091
910.57	7038
910.685	7023
910.8	7160
910.915	7084
911.03	7050
911.145	6905
911.259	6863
911.374	6863
911.489	6856
911.604	6844
911.718	6726
911.833	6768
911.947	6673
912.062	6601
912.176	6700
912.291	6722
912.405	6726
912.519	6802
912.633	6837
912.748	6741
912.862	6707
912.976	6604
913.09	6521
913.204	6627
913.318	6616
913.431	6646
913.545	6696
913.659	6730
913.772	6677
913.886	6559
914	6563
914.113	6623
914.226	6650
914.34	6650
914.453	6540
914.566	6589
914.68	6513
914.793	6486
914.906	6433
915.019	6429
915.132	6369
915.245	6418
915.358	6456
915.47	6380
915.583	6502
915.696	6494
915.809	6486
915.921	6582
916.034	6429
916.146	6441
916.259	6429
916.371	6486
916.483	6467
916.595	6445
916.708	6403
916.82	6388
916.932	6342
917.044	6388
917.156	6418
917.268	6285
917.38	6319
917.491	6353
917.603	6315
917.715	6437
917.826	6331
917.938	6270
918.049	6277
918.161	6338
918.272	6365
918.384	6414
918.495	6357
918.606	6311
918.717	6281
918.828	6228
918.939	6232
919.05	6140
919.161	6285
919.272	6083
919.383	6159
919.494	6308
919.604	6456
919.715	6281
919.826	6194
919.936	6243
920.047	6361
920.157	6315
920.267	6509
920.378	6429
920.488	6243
920.598	6429
920.708	6559
920.818	6486
920.928	6460
921.038	6566
921.148	6555
921.258	6388
921.368	6304
921.477	6235
921.587	6155
921.697	6087
921.806	6144
921.916	6110
922.025	5969
922.134	5916
922.244	5973
922.353	5965
922.462	5851
922.571	5824
922.68	5703
922.789	5646
922.898	5684
923.007	5649
923.116	5680
923.224	5710
923.333	5657
923.442	5535
923.55	5577
923.659	5630
923.767	5630
923.876	5493
923.984	5661
924.092	5562
924.201	5573
924.309	5630
924.417	5600
924.525	5505
924.633	5509
924.741	6296
924.849	5406
924.956	5493
925.064	5357
925.172	5330
925.279	5334
925.387	5417
925.494	5284
925.602	5383
925.709	5402
925.816	5296
925.924	5330
926.031	5345
926.138	5280
926.245	5349
926.352	5258
926.459	5318
926.566	5334
926.673	5269
926.779	5143
926.886	5159
926.993	5048
927.099	4995
927.206	5014
927.312	4961
927.419	5052
927.525	4972
927.631	4968
927.737	4881
927.843	4881
927.95	4801
928.056	4828
928.162	4816
928.267	4866
928.373	5372
928.479	4881
928.585	4660
928.69	4774
928.796	4797
928.901	4683
929.007	4596
929.112	4710
929.218	4660
929.323	4577
929.428	4516
929.533	4660
929.638	4478
929.743	4565
929.848	4558
929.953	4516
930.058	4459
930.163	4325
930.267	4314
930.372	4424
930.477	4291
930.581	4493
930.685	4379
930.79	4230
930.894	4303
930.998	4276
931.103	4402
931.207	4181
931.311	4071
931.415	3991
931.519	3968
931.623	3945
