Data from glass_V78500241_443.txt Node
Date: Wed Sep 01 19:17:34 CST 2021
User: usil
Spectrometer: V785-0024
Trigger mode: 0
Integration Time (sec): 4.000000E-1
Scans to average: 1
Nonlinearity correction enabled: false
Boxcar width: 0
Storing dark spectrum: false
XAxis mode: Wavelengths
Number of Pixels in Spectrum: 1024
>>>>>Begin Spectral Data<<<<<
801.071	3755
801.214	3747
801.356	3732
801.499	3781
801.641	3724
801.783	3789
801.926	3896
802.068	3835
802.211	3842
802.353	3911
802.496	3892
802.638	3907
802.78	3953
802.923	3945
803.065	3930
803.208	3854
803.35	3861
803.492	3865
803.635	3968
803.777	3797
803.919	3915
804.061	4135
804.204	4002
804.346	3979
804.488	3979
804.63	4040
804.773	3956
804.915	4048
805.057	4162
805.199	4067
805.341	4120
805.483	4135
805.626	4135
805.768	4135
805.91	4215
806.052	4246
806.194	4173
806.336	4375
806.478	4211
806.62	4169
806.762	4166
806.904	4272
807.046	4322
807.188	4227
807.33	4181
807.472	4238
807.614	4257
807.756	4318
807.898	4257
808.04	4246
808.182	4325
808.324	4314
808.465	4375
808.607	4470
808.749	4485
808.891	4504
809.033	4489
809.174	4398
809.316	4261
809.458	4280
809.6	4158
809.741	4173
809.883	4131
810.025	4200
810.166	4215
810.308	4291
810.45	4234
810.591	4253
810.733	4276
810.875	4573
811.016	4835
811.158	5121
811.299	5208
811.441	5273
811.582	5079
811.724	4694
811.865	4481
812.007	4451
812.148	4432
812.29	4432
812.431	4466
812.573	4413
812.714	4386
812.855	4443
812.997	4421
813.138	4504
813.279	4455
813.421	4402
813.562	4421
813.703	4367
813.845	4360
813.986	4238
814.127	4230
814.268	4238
814.41	4268
814.551	4310
814.692	4318
814.833	4261
814.974	4329
815.115	4348
815.256	4303
815.397	4246
815.539	4242
815.68	4169
815.821	4158
815.962	4291
816.103	4265
816.244	4185
816.385	4230
816.526	4295
816.666	4268
816.807	4139
816.948	4219
817.089	4169
817.23	4162
817.371	4109
817.512	4082
817.653	4143
817.793	4025
817.934	4082
818.075	4090
818.216	4078
818.356	4105
818.497	4013
818.638	3945
818.778	3926
818.919	3888
819.06	3869
819.2	3903
819.341	3884
819.481	3838
819.622	3937
819.762	4032
819.903	3979
820.043	3896
820.184	3831
820.324	3838
820.465	3896
820.605	3850
820.746	3896
820.886	3835
821.026	3987
821.167	3945
821.307	4006
821.447	4055
821.588	3975
821.728	3953
821.868	3953
822.008	3903
822.149	3915
822.289	3937
822.429	3785
822.569	3751
822.709	3838
822.849	3682
822.99	3713
823.13	3728
823.27	3793
823.41	3740
823.55	3797
823.69	3740
823.83	3747
823.97	3675
824.11	3656
824.25	3603
824.389	3663
824.529	3675
824.669	3625
824.809	3728
824.949	3785
825.089	3740
825.228	3705
825.368	3618
825.508	3603
825.648	3644
825.787	3610
825.927	3671
826.067	3652
826.206	3717
826.346	3804
826.485	3873
826.625	3876
826.765	3930
826.904	3850
827.044	3652
827.183	3519
827.323	3420
827.462	3473
827.601	3477
827.741	3439
827.88	3473
828.02	3374
828.159	3462
828.298	3507
828.437	3515
828.577	3477
828.716	3610
828.855	3488
828.994	3405
829.134	3348
829.273	3412
829.412	3359
829.551	3351
829.69	3382
829.829	3435
829.968	3507
830.107	3428
830.246	3454
830.385	3409
830.524	3351
830.663	3325
830.802	3245
830.941	3211
831.08	3211
831.219	3279
831.357	3275
831.496	3420
831.635	3264
831.774	3222
831.913	3214
832.051	3169
832.19	3165
832.329	3218
832.467	3112
832.606	3081
832.744	3154
832.883	3192
833.022	3180
833.16	3256
833.299	3302
833.437	3344
833.576	3393
833.714	3416
833.852	3458
833.991	3477
834.129	3477
834.267	3447
834.406	3382
834.544	3443
834.682	3428
834.821	3382
834.959	3622
835.097	3393
835.235	3511
835.373	3500
835.511	3530
835.65	3504
835.788	3492
835.926	3378
836.064	3409
836.202	3416
836.34	3591
836.478	3618
836.615	3557
836.753	3625
836.891	3614
837.029	3667
837.167	3584
837.305	3561
837.443	3576
837.58	3545
837.718	3679
837.856	3545
837.993	3564
838.131	3584
838.269	3603
838.406	3584
838.544	3584
838.681	3481
838.819	3504
838.956	3367
839.094	3424
839.231	3454
839.369	3538
839.506	3709
839.643	3625
839.781	3526
839.918	3481
840.055	3572
840.193	3545
840.33	3580
840.467	3606
840.604	3618
840.742	3842
840.879	3542
841.016	3553
841.153	3587
841.29	3755
841.427	3736
841.564	3720
841.701	3728
841.838	3694
841.975	3698
842.112	3717
842.249	3679
842.385	3656
842.522	3842
842.659	3698
842.796	3682
842.933	3690
843.069	3743
843.206	3709
843.343	3778
843.479	3743
843.616	3861
843.752	3759
843.889	3690
844.025	3854
844.162	3743
844.298	3819
844.435	3785
844.571	3793
844.708	3911
844.844	3983
844.98	3987
845.117	4006
845.253	3934
845.389	3896
845.525	3930
845.661	3991
845.798	3896
845.934	4002
846.07	3968
846.206	4082
846.342	4116
846.478	4105
846.614	3953
846.75	3987
846.886	3922
847.022	4097
847.158	3960
847.294	4025
847.429	4006
847.565	4021
847.701	4227
847.837	3930
847.972	3884
848.108	3998
848.244	3987
848.379	3873
848.515	3823
848.65	3842
848.786	3831
848.921	3896
849.057	3892
849.192	3994
849.328	3903
849.463	3926
849.598	3934
849.734	3884
849.869	3857
850.004	3774
850.14	3857
850.275	3816
850.41	3766
850.545	3831
850.68	3793
850.815	3812
850.95	3793
851.085	3956
851.22	3873
851.355	3838
851.49	3793
851.625	3835
851.76	3808
851.895	3743
852.03	3713
852.165	3816
852.299	3857
852.434	3941
852.569	3869
852.703	3854
852.838	3922
852.973	4017
853.107	4013
853.242	3892
853.376	3876
853.511	3808
853.645	3838
853.78	4010
853.914	3888
854.048	3930
854.183	3907
854.317	3975
854.451	4109
854.585	3991
854.72	3899
854.854	4078
854.988	3934
855.122	4021
855.256	3964
855.39	3998
855.524	4120
855.658	4097
855.792	4101
855.926	4150
856.06	4211
856.194	4230
856.327	4158
856.461	4162
856.595	4162
856.729	4166
856.862	4314
856.996	4257
857.13	4341
857.263	4356
857.397	4375
857.53	4253
857.664	4363
857.797	4341
857.931	4413
858.064	4405
858.197	4451
858.331	4440
858.464	4383
858.597	4344
858.731	4481
858.864	4478
858.997	4443
859.13	4489
859.263	4569
859.396	4577
859.529	4523
859.662	4538
859.795	4531
859.928	4588
860.061	4740
860.194	4755
860.327	4668
860.46	4668
860.592	4694
860.725	4782
860.858	4748
860.99	4721
861.123	4672
861.256	4725
861.388	4748
861.521	5452
861.653	4740
861.786	4729
861.918	4702
862.05	4797
862.183	4858
862.315	4881
862.447	4968
862.58	4942
862.712	4812
862.844	4828
862.976	4892
863.108	4858
863.24	5227
863.372	4824
863.504	4938
863.636	4900
863.768	4980
863.9	5010
864.032	4949
864.164	4930
864.296	5056
864.428	5147
864.559	5124
864.691	5105
864.823	5128
864.954	5132
865.086	5193
865.217	5075
865.349	5132
865.48	5159
865.612	5178
865.743	5250
865.875	5277
866.006	5216
866.137	5258
866.269	5220
866.4	5227
866.531	5250
866.662	5231
866.793	5299
866.924	5265
867.055	5353
867.186	5379
867.317	5341
867.448	5288
867.579	5402
867.71	5379
867.841	5429
867.972	5440
868.103	5482
868.233	5497
868.364	5570
868.495	5554
868.625	5699
868.756	5779
868.886	5649
869.017	5707
869.147	5889
869.278	5901
869.408	5863
869.539	5859
869.669	5927
869.799	5942
869.929	5999
870.06	6022
870.19	6194
870.32	6235
870.45	6243
870.58	6365
870.71	6441
870.84	6452
870.97	6418
871.1	6395
871.23	6639
871.36	6696
871.489	6719
871.619	6741
871.749	6859
871.879	6913
872.008	7053
872.138	6985
872.267	7031
872.397	6966
872.526	7069
872.656	7110
872.785	7156
872.915	7358
873.044	7491
873.173	7597
873.303	7639
873.432	7765
873.561	7879
873.69	7940
873.819	7963
873.948	8168
874.077	8259
874.206	8320
874.335	8381
874.464	8659
874.593	8815
874.722	8906
874.851	9104
874.979	9268
875.108	9408
875.237	9481
875.365	9462
875.494	9690
875.623	9789
875.751	9857
875.88	10029
876.008	10082
876.136	10306
876.265	10466
876.393	10733
876.521	10736
876.65	10831
876.778	10930
876.906	10892
877.034	10972
877.162	11189
877.29	11166
877.418	11326
877.546	11372
877.674	11353
877.802	11562
877.93	11547
878.058	11554
878.185	11532
878.313	11714
878.441	11714
878.568	11653
878.696	11813
878.824	11939
878.951	12091
879.079	12007
879.206	12175
879.333	12076
879.461	12026
879.588	12041
879.715	12102
879.842	12258
879.97	11973
880.097	11866
880.224	11855
880.351	11923
880.478	11904
880.605	11904
880.732	11813
880.859	11992
880.986	11783
881.112	11821
881.239	11676
881.366	11688
881.493	11623
881.619	11505
881.746	11558
881.872	11505
881.999	11547
882.125	11414
882.252	11543
882.378	11486
882.505	11562
882.631	11391
882.757	11311
882.883	11292
883.01	11311
883.136	11174
883.262	11098
883.388	11109
883.514	11181
883.64	11170
883.766	11185
883.892	11014
884.018	10968
884.143	11109
884.269	11105
884.395	10831
884.52	10763
884.646	10729
884.772	10710
884.897	10710
885.023	10744
885.148	10706
885.274	10744
885.399	10748
885.524	10542
885.65	10634
885.775	10500
885.9	10637
886.025	10653
886.15	10588
886.275	10432
886.4	10390
886.525	10451
886.65	10314
886.775	10344
886.9	10459
887.025	10546
887.149	10375
887.274	10223
887.399	10299
887.523	10158
887.648	10207
887.773	10131
887.897	10234
888.021	10215
888.146	10207
888.27	10211
888.395	10215
888.519	10257
888.643	10173
888.767	10287
888.891	10105
889.015	10032
889.139	10029
889.263	9972
889.387	10116
889.511	10143
889.635	10067
889.759	9945
889.883	10048
890.006	9972
890.13	10169
890.254	9991
890.377	10021
890.501	9888
890.624	9854
890.748	9903
890.871	9827
890.995	9835
891.118	9709
891.241	9694
891.364	9759
891.488	9835
891.611	9740
891.734	9816
891.857	9823
891.98	9751
892.103	9823
892.226	9785
892.349	9705
892.471	9519
892.594	9538
892.717	9603
892.839	9587
892.962	9572
893.085	9728
893.207	9587
893.33	9561
893.452	9603
893.575	9633
893.697	9507
893.819	9568
893.941	9660
894.064	9671
894.186	9469
894.308	9397
894.43	9538
894.552	9496
894.674	9500
894.796	9424
894.918	9378
895.04	9370
895.161	9412
895.283	9355
895.405	9233
895.526	9249
895.648	9291
895.769	9241
895.891	9287
896.012	9294
896.134	9195
896.255	9165
896.376	9150
896.498	9127
896.619	9077
896.74	9097
896.861	9104
896.982	9336
897.103	9332
897.224	9176
897.345	9074
897.466	9070
897.587	9001
897.708	9142
897.828	9077
897.949	8994
898.07	8792
898.19	8899
898.311	9058
898.431	8941
898.552	8963
898.672	8982
898.792	8967
898.913	8979
899.033	8834
899.153	8773
899.273	8697
899.393	8678
899.513	8720
899.633	8693
899.753	8769
899.873	8766
899.993	8727
900.113	8769
900.232	8746
900.352	8689
900.472	8625
900.591	8587
900.711	8640
900.83	8530
900.95	8667
901.069	8716
901.189	8610
901.308	8454
901.427	8408
901.546	8404
901.665	8427
901.784	8476
901.904	8374
902.023	8339
902.141	8240
902.26	8088
902.379	8347
902.498	8183
902.617	8225
902.735	8259
902.854	8259
902.973	8259
903.091	8107
903.21	8157
903.328	8164
903.446	8195
903.565	8111
903.683	8172
903.801	8062
903.919	8145
904.038	8161
904.156	8005
904.274	8107
904.392	8050
904.51	8046
904.627	8020
904.745	8081
904.863	8062
904.981	7955
905.098	7887
905.216	7833
905.334	7890
905.451	7986
905.569	7864
905.686	7879
905.803	7913
905.921	7772
906.038	7890
906.155	7852
906.272	7693
906.389	7746
906.506	7662
906.623	7647
906.74	7624
906.857	7567
906.974	7620
907.091	7632
907.208	7643
907.324	7693
907.441	7590
907.557	7495
907.674	7449
907.79	7369
907.907	7384
908.023	7491
908.139	7480
908.256	7396
908.372	7358
908.488	7400
908.604	7232
908.72	7244
908.836	7324
908.952	7266
909.068	7236
909.184	7301
909.3	7259
909.415	7274
909.531	7255
909.647	7069
909.762	7118
909.878	7110
909.993	7137
910.108	7069
910.224	7088
910.339	7118
910.454	7050
910.57	7008
910.685	6954
910.8	7122
910.915	7072
911.03	7076
911.145	6924
911.259	6901
911.374	6871
911.489	6840
911.604	6840
911.718	6696
911.833	6795
911.947	6715
912.062	6654
912.176	6787
912.291	6738
912.405	6669
912.519	6852
912.633	6802
912.748	6760
912.862	6791
912.976	6578
913.09	6566
913.204	6612
913.318	6604
913.431	6726
913.545	6707
913.659	6673
913.772	6681
913.886	6578
914	6544
914.113	6654
914.226	6669
914.34	6601
914.453	6540
914.566	6589
914.68	6513
914.793	6559
914.906	6422
915.019	6422
915.132	6365
915.245	6441
915.358	6388
915.47	6418
915.583	6456
915.696	6506
915.809	6570
915.921	6563
916.034	6422
916.146	6441
916.259	6407
916.371	6471
916.483	6445
916.595	6380
916.708	6471
916.82	6452
916.932	6441
917.044	6384
917.156	6384
917.268	6281
917.38	6414
917.491	6353
917.603	6369
917.715	6407
917.826	6380
917.938	6327
918.049	6205
918.161	6365
918.272	6407
918.384	6452
918.495	6380
918.606	6228
918.717	6224
918.828	6327
918.939	6315
919.05	6197
919.161	6247
919.272	6182
919.383	6167
919.494	6319
919.604	6441
919.715	6273
919.826	6190
919.936	6205
920.047	6338
920.157	6334
920.267	6547
920.378	6357
920.488	6311
920.598	6517
920.708	6532
920.818	6391
920.928	6490
921.038	6639
921.148	6555
921.258	6311
921.368	6292
921.477	6254
921.587	6197
921.697	6098
921.806	6167
921.916	6102
922.025	5988
922.134	5965
922.244	5904
922.353	5942
922.462	5863
922.571	5824
922.68	5752
922.789	5668
922.898	5741
923.007	5611
923.116	5722
923.224	5684
923.333	5680
923.442	5634
923.55	5589
923.659	5570
923.767	5646
923.876	5554
923.984	5592
924.092	5497
924.201	5589
924.309	5551
924.417	5562
924.525	5474
924.633	5486
924.741	6300
924.849	5387
924.956	5551
925.064	5330
925.172	5334
925.279	5292
925.387	5341
925.494	5395
925.602	5433
925.709	5414
925.816	5307
925.924	5296
926.031	5360
926.138	5353
926.245	5303
926.352	5223
926.459	5322
926.566	5364
926.673	5223
926.779	5178
926.886	5136
926.993	5071
927.099	5018
927.206	4957
927.312	4949
927.419	5045
927.525	5018
927.631	4987
927.737	4923
927.843	4892
927.95	4801
928.056	4801
928.162	4820
928.267	4927
928.373	5322
928.479	4881
928.585	4691
928.69	4782
928.796	4752
928.901	4736
929.007	4622
929.112	4675
929.218	4645
929.323	4649
929.428	4607
929.533	4706
929.638	4504
929.743	4569
929.848	4599
929.953	4561
930.058	4459
930.163	4386
930.267	4363
930.372	4470
930.477	4306
930.581	4516
930.685	4417
930.79	4261
930.894	4348
930.998	4284
931.103	4367
931.207	4158
931.311	4090
931.415	4078
931.519	3956
931.623	3956
