Data from glass_V78500241_672.txt Node
Date: Wed Sep 01 19:19:09 CST 2021
User: usil
Spectrometer: V785-0024
Trigger mode: 0
Integration Time (sec): 4.000000E-1
Scans to average: 1
Nonlinearity correction enabled: false
Boxcar width: 0
Storing dark spectrum: false
XAxis mode: Wavelengths
Number of Pixels in Spectrum: 1024
>>>>>Begin Spectral Data<<<<<
801.071	3762
801.214	3804
801.356	3713
801.499	3793
801.641	3724
801.783	3804
801.926	3838
802.068	3842
802.211	3804
802.353	3903
802.496	3846
802.638	3892
802.78	3926
802.923	3968
803.065	3896
803.208	3827
803.35	3896
803.492	3892
803.635	3922
803.777	3812
803.919	3899
804.061	4131
804.204	3956
804.346	3983
804.488	3907
804.63	4044
804.773	4017
804.915	4021
805.057	4101
805.199	4048
805.341	4086
805.483	4162
805.626	4124
805.768	4154
805.91	4200
806.052	4230
806.194	4238
806.336	4341
806.478	4211
806.62	4188
806.762	4204
806.904	4291
807.046	4371
807.188	4246
807.33	4230
807.472	4261
807.614	4215
807.756	4284
807.898	4188
808.04	4242
808.182	4284
808.324	4310
808.465	4344
808.607	4481
808.749	4455
808.891	4485
809.033	4535
809.174	4402
809.316	4310
809.458	4242
809.6	4181
809.741	4135
809.883	4109
810.025	4242
810.166	4230
810.308	4253
810.45	4268
810.591	4207
810.733	4310
810.875	4550
811.016	4831
811.158	5121
811.299	5280
811.441	5296
811.582	5079
811.724	4714
811.865	4466
812.007	4462
812.148	4432
812.29	4421
812.431	4405
812.573	4398
812.714	4405
812.855	4447
812.997	4405
813.138	4519
813.279	4398
813.421	4383
813.562	4386
813.703	4386
813.845	4360
813.986	4337
814.127	4234
814.268	4280
814.41	4230
814.551	4276
814.692	4367
814.833	4287
814.974	4322
815.115	4303
815.256	4272
815.397	4227
815.539	4215
815.68	4234
815.821	4249
815.962	4306
816.103	4265
816.244	4242
816.385	4238
816.526	4276
816.666	4219
816.807	4074
816.948	4188
817.089	4173
817.23	4131
817.371	4051
817.512	4044
817.653	4059
817.793	4051
817.934	4055
818.075	4143
818.216	4090
818.356	4090
818.497	4055
818.638	3972
818.778	3960
818.919	3922
819.06	3888
819.2	3930
819.341	3876
819.481	3865
819.622	3956
819.762	4040
819.903	4013
820.043	3899
820.184	3865
820.324	3850
820.465	3922
820.605	3892
820.746	3850
820.886	3778
821.026	3968
821.167	3922
821.307	3998
821.447	3964
821.588	3991
821.728	3956
821.868	3934
822.008	3899
822.149	3915
822.289	3941
822.429	3770
822.569	3793
822.709	3785
822.849	3724
822.99	3713
823.13	3781
823.27	3804
823.41	3720
823.55	3740
823.69	3759
823.83	3778
823.97	3698
824.11	3652
824.25	3633
824.389	3629
824.529	3675
824.669	3648
824.809	3717
824.949	3778
825.089	3770
825.228	3701
825.368	3584
825.508	3561
825.648	3595
825.787	3637
825.927	3660
826.067	3663
826.206	3686
826.346	3774
826.485	3850
826.625	3880
826.765	3953
826.904	3835
827.044	3618
827.183	3549
827.323	3409
827.462	3515
827.601	3454
827.741	3393
827.88	3507
828.02	3458
828.159	3412
828.298	3496
828.437	3526
828.577	3485
828.716	3603
828.855	3477
828.994	3386
829.134	3344
829.273	3428
829.412	3329
829.551	3378
829.69	3393
829.829	3420
829.968	3496
830.107	3450
830.246	3447
830.385	3409
830.524	3351
830.663	3329
830.802	3275
830.941	3203
831.08	3226
831.219	3279
831.357	3275
831.496	3439
831.635	3233
831.774	3218
831.913	3226
832.051	3146
832.19	3157
832.329	3233
832.467	3123
832.606	3116
832.744	3184
832.883	3199
833.022	3214
833.16	3260
833.299	3317
833.437	3336
833.576	3412
833.714	3397
833.852	3428
833.991	3458
834.129	3488
834.267	3412
834.406	3420
834.544	3424
834.682	3401
834.821	3439
834.959	3606
835.097	3405
835.235	3511
835.373	3500
835.511	3481
835.65	3481
835.788	3576
835.926	3405
836.064	3367
836.202	3435
836.34	3614
836.478	3595
836.615	3538
836.753	3584
836.891	3644
837.029	3660
837.167	3564
837.305	3580
837.443	3542
837.58	3511
837.718	3637
837.856	3526
837.993	3572
838.131	3568
838.269	3591
838.406	3606
838.544	3538
838.681	3462
838.819	3488
838.956	3370
839.094	3405
839.231	3439
839.369	3526
839.506	3724
839.643	3679
839.781	3534
839.918	3481
840.055	3545
840.193	3557
840.33	3545
840.467	3553
840.604	3641
840.742	3823
840.879	3542
841.016	3587
841.153	3656
841.29	3823
841.427	3736
841.564	3766
841.701	3759
841.838	3698
841.975	3679
842.112	3751
842.249	3663
842.385	3656
842.522	3812
842.659	3682
842.796	3717
842.933	3705
843.069	3709
843.206	3724
843.343	3819
843.479	3808
843.616	3842
843.752	3663
843.889	3713
844.025	3846
844.162	3762
844.298	3838
844.435	3797
844.571	3759
844.708	3899
844.844	4025
844.98	4059
845.117	4067
845.253	3953
845.389	3945
845.525	3949
845.661	3975
845.798	3964
845.934	4006
846.07	3934
846.206	4048
846.342	4143
846.478	4086
846.614	3975
846.75	3956
846.886	3945
847.022	4071
847.158	3987
847.294	4025
847.429	4036
847.565	3991
847.701	4227
847.837	3876
847.972	3880
848.108	4013
848.244	3979
848.379	3888
848.515	3873
848.65	3823
848.786	3892
848.921	3865
849.057	3907
849.192	3934
849.328	3911
849.463	3934
849.598	3892
849.734	3884
849.869	3835
850.004	3770
850.14	3827
850.275	3781
850.41	3774
850.545	3762
850.68	3762
850.815	3770
850.95	3789
851.085	3945
851.22	3873
851.355	3819
851.49	3831
851.625	3842
851.76	3778
851.895	3728
852.03	3728
852.165	3823
852.299	3854
852.434	3899
852.569	3869
852.703	3911
852.838	3964
852.973	4002
853.107	3998
853.242	3941
853.376	3857
853.511	3808
853.645	3865
853.78	3941
853.914	3880
854.048	3934
854.183	3892
854.317	3956
854.451	4086
854.585	3991
854.72	3972
854.854	4029
854.988	3941
855.122	4036
855.256	3884
855.39	4059
855.524	4124
855.658	4105
855.792	4162
855.926	4139
856.06	4150
856.194	4204
856.327	4150
856.461	4055
856.595	4147
856.729	4246
856.862	4329
856.996	4276
857.13	4329
857.263	4329
857.397	4322
857.53	4310
857.664	4325
857.797	4398
857.931	4493
858.064	4413
858.197	4470
858.331	4405
858.464	4405
858.597	4356
858.731	4432
858.864	4451
858.997	4421
859.13	4538
859.263	4527
859.396	4550
859.529	4504
859.662	4523
859.795	4489
859.928	4592
860.061	4740
860.194	4744
860.327	4702
860.46	4656
860.592	4748
860.725	4729
860.858	4805
860.99	4694
861.123	4698
861.256	4714
861.388	4778
861.521	5273
861.653	4812
861.786	4744
861.918	4759
862.05	4843
862.183	4858
862.315	4904
862.447	4946
862.58	4908
862.712	4778
862.844	4774
862.976	4873
863.108	4896
863.24	5265
863.372	4847
863.504	4885
863.636	4900
863.768	5010
863.9	4938
864.032	4957
864.164	4949
864.296	5029
864.428	5109
864.559	5086
864.691	5132
864.823	5143
864.954	5147
865.086	5201
865.217	5178
865.349	5140
865.48	5178
865.612	5258
865.743	5330
865.875	5250
866.006	5204
866.137	5212
866.269	5227
866.4	5250
866.531	5261
866.662	5273
866.793	5299
866.924	5315
867.055	5372
867.186	5334
867.317	5318
867.448	5353
867.579	5376
867.71	5364
867.841	5440
867.972	5486
868.103	5490
868.233	5516
868.364	5528
868.495	5551
868.625	5695
868.756	5813
868.886	5638
869.017	5714
869.147	5916
869.278	5859
869.408	5893
869.539	5840
869.669	5885
869.799	5904
869.929	5996
870.06	6030
870.19	6273
870.32	6159
870.45	6247
870.58	6327
870.71	6448
870.84	6433
870.97	6448
871.1	6486
871.23	6681
871.36	6684
871.489	6673
871.619	6764
871.749	6787
871.879	6886
872.008	6973
872.138	7015
872.267	6958
872.397	7099
872.526	7034
872.656	7095
872.785	7278
872.915	7343
873.044	7548
873.173	7567
873.303	7662
873.432	7769
873.561	7868
873.69	7898
873.819	8005
873.948	8199
874.077	8282
874.206	8305
874.335	8461
874.464	8663
874.593	8895
874.722	8952
874.851	9074
874.979	9233
875.108	9367
875.237	9469
875.365	9538
875.494	9629
875.623	9892
875.751	9831
875.88	9991
876.008	10093
876.136	10246
876.265	10493
876.393	10714
876.521	10717
876.65	10862
876.778	10961
876.906	10904
877.034	11014
877.162	11025
877.29	11147
877.418	11353
877.546	11406
877.674	11444
877.802	11493
877.93	11566
878.058	11585
878.185	11512
878.313	11634
878.441	11714
878.568	11691
878.696	11824
878.824	11832
878.951	12026
879.079	12060
879.206	12121
879.333	12072
879.461	12015
879.588	12167
879.715	12034
879.842	12243
879.97	12019
880.097	11942
880.224	11859
880.351	11923
880.478	11920
880.605	11961
880.732	11821
880.859	12015
880.986	11832
881.112	11920
881.239	11775
881.366	11661
881.493	11680
881.619	11478
881.746	11570
881.872	11627
881.999	11532
882.125	11467
882.252	11630
882.378	11539
882.505	11570
882.631	11360
882.757	11307
882.883	11296
883.01	11307
883.136	11235
883.262	11143
883.388	11098
883.514	11216
883.64	11185
883.766	11128
883.892	10949
884.018	10976
884.143	11067
884.269	11102
884.395	10854
884.52	10824
884.646	10816
884.772	10641
884.897	10656
885.023	10691
885.148	10702
885.274	10744
885.399	10599
885.524	10729
885.65	10672
885.775	10626
885.9	10626
886.025	10535
886.15	10672
886.275	10489
886.4	10421
886.525	10375
886.65	10409
886.775	10348
886.9	10470
887.025	10478
887.149	10409
887.274	10234
887.399	10261
887.523	10158
887.648	10101
887.773	10219
887.897	10249
888.021	10230
888.146	10173
888.27	10204
888.395	10219
888.519	10204
888.643	10234
888.767	10230
888.891	10116
889.015	10044
889.139	10078
889.263	9968
889.387	10124
889.511	10166
889.635	10139
889.759	9941
889.883	10051
890.006	9956
890.13	10082
890.254	9930
890.377	9998
890.501	9842
890.624	9876
890.748	9899
890.871	9804
890.995	9797
891.118	9770
891.241	9766
891.364	9743
891.488	9789
891.611	9717
891.734	9797
891.857	9865
891.98	9717
892.103	9804
892.226	9717
892.349	9701
892.471	9523
892.594	9587
892.717	9663
892.839	9599
892.962	9614
893.085	9656
893.207	9542
893.33	9545
893.452	9538
893.575	9549
893.697	9500
893.819	9591
893.941	9625
894.064	9595
894.186	9416
894.308	9397
894.43	9500
894.552	9515
894.674	9511
894.796	9431
894.918	9378
895.04	9351
895.161	9321
895.283	9359
895.405	9313
895.526	9329
895.648	9268
895.769	9237
895.891	9321
896.012	9344
896.134	9260
896.255	9180
896.376	9138
896.498	9131
896.619	9150
896.74	9116
896.861	9131
896.982	9332
897.103	9447
897.224	9165
897.345	9032
897.466	9020
897.587	9077
897.708	9104
897.828	8986
897.949	8910
898.07	8868
898.19	8952
898.311	8956
898.431	8937
898.552	8963
898.672	9028
898.792	8963
898.913	8921
899.033	8842
899.153	8777
899.273	8640
899.393	8697
899.513	8739
899.633	8792
899.753	8758
899.873	8689
899.993	8735
900.113	8766
900.232	8746
900.352	8651
900.472	8689
900.591	8636
900.711	8583
900.83	8499
900.95	8686
901.069	8720
901.189	8552
901.308	8423
901.427	8469
901.546	8442
901.665	8396
901.784	8545
901.904	8370
902.023	8324
902.141	8225
902.26	8271
902.379	8298
902.498	8275
902.617	8290
902.735	8320
902.854	8282
902.973	8244
903.091	8187
903.21	8149
903.328	8187
903.446	8153
903.565	8142
903.683	8149
903.801	8073
903.919	8115
904.038	8191
904.156	8065
904.274	8084
904.392	8043
904.51	8069
904.627	8027
904.745	8138
904.863	8092
904.981	7921
905.098	7928
905.216	7875
905.334	7940
905.451	7917
905.569	7883
905.686	7921
905.803	8005
905.921	7757
906.038	7951
906.155	7811
906.272	7776
906.389	7784
906.506	7639
906.623	7670
906.74	7605
906.857	7586
906.974	7616
907.091	7647
907.208	7715
907.324	7632
907.441	7540
907.557	7480
907.674	7449
907.79	7339
907.907	7438
908.023	7434
908.139	7438
908.256	7407
908.372	7384
908.488	7358
908.604	7305
908.72	7305
908.836	7278
908.952	7285
909.068	7289
909.184	7365
909.3	7255
909.415	7400
909.531	7293
909.647	7152
909.762	7179
909.878	7099
909.993	7149
910.108	7110
910.224	7065
910.339	7069
910.454	7072
910.57	6985
910.685	6981
910.8	7164
910.915	7152
911.03	7050
911.145	6920
911.259	6890
911.374	6913
911.489	6833
911.604	6810
911.718	6764
911.833	6783
911.947	6677
912.062	6612
912.176	6719
912.291	6703
912.405	6631
912.519	6840
912.633	6810
912.748	6711
912.862	6635
912.976	6589
913.09	6566
913.204	6570
913.318	6658
913.431	6684
913.545	6688
913.659	6703
913.772	6662
913.886	6578
914	6544
914.113	6616
914.226	6665
914.34	6578
914.453	6494
914.566	6635
914.68	6445
914.793	6521
914.906	6361
915.019	6399
915.132	6342
915.245	6437
915.358	6437
915.47	6433
915.583	6471
915.696	6490
915.809	6563
915.921	6547
916.034	6456
916.146	6445
916.259	6399
916.371	6448
916.483	6494
916.595	6403
916.708	6422
916.82	6448
916.932	6350
917.044	6429
917.156	6391
917.268	6323
917.38	6365
917.491	6239
917.603	6342
917.715	6403
917.826	6407
917.938	6304
918.049	6304
918.161	6342
918.272	6456
918.384	6437
918.495	6357
918.606	6228
918.717	6205
918.828	6304
918.939	6262
919.05	6254
919.161	6308
919.272	6117
919.383	6136
919.494	6361
919.604	6407
919.715	6308
919.826	6273
919.936	6262
920.047	6331
920.157	6300
920.267	6464
920.378	6365
920.488	6285
920.598	6418
920.708	6551
920.818	6547
920.928	6563
921.038	6635
921.148	6563
921.258	6346
921.368	6292
921.477	6205
921.587	6216
921.697	6175
921.806	6197
921.916	6076
922.025	5961
922.134	5958
922.244	5863
922.353	5988
922.462	5828
922.571	5805
922.68	5688
922.789	5668
922.898	5741
923.007	5619
923.116	5775
923.224	5680
923.333	5630
923.442	5596
923.55	5623
923.659	5600
923.767	5642
923.876	5547
923.984	5577
924.092	5505
924.201	5570
924.309	5596
924.417	5573
924.525	5512
924.633	5455
924.741	6159
924.849	5379
924.956	5493
925.064	5330
925.172	5315
925.279	5337
925.387	5387
925.494	5345
925.602	5463
925.709	5383
925.816	5296
925.924	5322
926.031	5326
926.138	5303
926.245	5311
926.352	5212
926.459	5299
926.566	5307
926.673	5204
926.779	5166
926.886	5140
926.993	5083
927.099	5018
927.206	4972
927.312	5006
927.419	5071
927.525	5018
927.631	5010
927.737	4908
927.843	4831
927.95	4755
928.056	4847
928.162	4854
928.267	4843
928.373	5364
928.479	4847
928.585	4740
928.69	4824
928.796	4801
928.901	4641
929.007	4622
929.112	4702
929.218	4607
929.323	4626
929.428	4607
929.533	4717
929.638	4561
929.743	4546
929.848	4592
929.953	4573
930.058	4440
930.163	4310
930.267	4352
930.372	4462
930.477	4329
930.581	4516
930.685	4360
930.79	4265
930.894	4287
930.998	4276
931.103	4405
931.207	4120
931.311	4105
931.415	4048
931.519	3937
931.623	3930
