Data from glass_V78500241_1347.txt Node
Date: Wed Sep 01 19:23:50 CST 2021
User: usil
Spectrometer: V785-0024
Trigger mode: 0
Integration Time (sec): 4.000000E-1
Scans to average: 1
Nonlinearity correction enabled: false
Boxcar width: 0
Storing dark spectrum: false
XAxis mode: Wavelengths
Number of Pixels in Spectrum: 1024
>>>>>Begin Spectral Data<<<<<
801.071	3743
801.214	3743
801.356	3701
801.499	3778
801.641	3724
801.783	3743
801.926	3854
802.068	3861
802.211	3850
802.353	3892
802.496	3827
802.638	3888
802.78	3911
802.923	3945
803.065	3918
803.208	3869
803.35	3857
803.492	3926
803.635	3975
803.777	3827
803.919	3888
804.061	4162
804.204	3956
804.346	3983
804.488	3926
804.63	4055
804.773	3918
804.915	4059
805.057	4188
805.199	4040
805.341	4120
805.483	4131
805.626	4116
805.768	4143
805.91	4215
806.052	4238
806.194	4196
806.336	4341
806.478	4223
806.62	4188
806.762	4242
806.904	4291
807.046	4325
807.188	4234
807.33	4173
807.472	4238
807.614	4207
807.756	4291
807.898	4238
808.04	4249
808.182	4284
808.324	4352
808.465	4333
808.607	4436
808.749	4462
808.891	4470
809.033	4466
809.174	4375
809.316	4276
809.458	4223
809.6	4158
809.741	4143
809.883	4147
810.025	4207
810.166	4219
810.308	4200
810.45	4284
810.591	4230
810.733	4322
810.875	4519
811.016	4824
811.158	5113
811.299	5315
811.441	5299
811.582	5045
811.724	4687
811.865	4489
812.007	4474
812.148	4428
812.29	4428
812.431	4428
812.573	4386
812.714	4375
812.855	4379
812.997	4466
813.138	4523
813.279	4417
813.421	4413
813.562	4352
813.703	4383
813.845	4325
813.986	4219
814.127	4227
814.268	4246
814.41	4318
814.551	4246
814.692	4344
814.833	4287
814.974	4280
815.115	4432
815.256	4287
815.397	4249
815.539	4291
815.68	4154
815.821	4234
815.962	4322
816.103	4303
816.244	4223
816.385	4227
816.526	4280
816.666	4249
816.807	4112
816.948	4192
817.089	4177
817.23	4082
817.371	4036
817.512	4090
817.653	4097
817.793	4025
817.934	4002
818.075	4078
818.216	4086
818.356	4078
818.497	3941
818.638	3892
818.778	3899
818.919	3884
819.06	3861
819.2	3945
819.341	3899
819.481	3846
819.622	3922
819.762	4025
819.903	3926
820.043	3884
820.184	3850
820.324	3819
820.465	3888
820.605	3861
820.746	3869
820.886	3808
821.026	3926
821.167	3937
821.307	3975
821.447	3975
821.588	3983
821.728	3960
821.868	3937
822.008	3876
822.149	3915
822.289	3956
822.429	3778
822.569	3774
822.709	3804
822.849	3732
822.99	3701
823.13	3770
823.27	3804
823.41	3770
823.55	3732
823.69	3755
823.83	3732
823.97	3686
824.11	3625
824.25	3644
824.389	3656
824.529	3690
824.669	3641
824.809	3720
824.949	3717
825.089	3751
825.228	3690
825.368	3587
825.508	3580
825.648	3564
825.787	3679
825.927	3629
826.067	3591
826.206	3652
826.346	3778
826.485	3861
826.625	3854
826.765	3968
826.904	3827
827.044	3648
827.183	3504
827.323	3416
827.462	3454
827.601	3412
827.741	3435
827.88	3496
828.02	3386
828.159	3443
828.298	3477
828.437	3519
828.577	3477
828.716	3576
828.855	3504
828.994	3374
829.134	3389
829.273	3416
829.412	3313
829.551	3370
829.69	3367
829.829	3428
829.968	3515
830.107	3458
830.246	3466
830.385	3378
830.524	3306
830.663	3272
830.802	3279
830.941	3173
831.08	3218
831.219	3256
831.357	3260
831.496	3401
831.635	3260
831.774	3173
831.913	3199
832.051	3142
832.19	3138
832.329	3222
832.467	3119
832.606	3097
832.744	3150
832.883	3203
833.022	3180
833.16	3256
833.299	3272
833.437	3374
833.576	3382
833.714	3393
833.852	3409
833.991	3466
834.129	3469
834.267	3420
834.406	3386
834.544	3412
834.682	3469
834.821	3378
834.959	3564
835.097	3450
835.235	3507
835.373	3534
835.511	3469
835.65	3492
835.788	3492
835.926	3401
836.064	3351
836.202	3409
836.34	3561
836.478	3629
836.615	3538
836.753	3561
836.891	3622
837.029	3641
837.167	3610
837.305	3606
837.443	3511
837.58	3553
837.718	3625
837.856	3549
837.993	3557
838.131	3618
838.269	3603
838.406	3591
838.544	3557
838.681	3477
838.819	3466
838.956	3389
839.094	3424
839.231	3450
839.369	3504
839.506	3732
839.643	3644
839.781	3492
839.918	3477
840.055	3530
840.193	3557
840.33	3538
840.467	3572
840.604	3618
840.742	3831
840.879	3519
841.016	3572
841.153	3599
841.29	3785
841.427	3728
841.564	3740
841.701	3743
841.838	3705
841.975	3705
842.112	3751
842.249	3644
842.385	3618
842.522	3819
842.659	3671
842.796	3671
842.933	3732
843.069	3705
843.206	3717
843.343	3808
843.479	3751
843.616	3816
843.752	3690
843.889	3667
844.025	3873
844.162	3705
844.298	3846
844.435	3774
844.571	3785
844.708	3903
844.844	3987
844.98	3956
845.117	4051
845.253	3907
845.389	3873
845.525	3926
845.661	4013
845.798	3899
845.934	4002
846.07	3979
846.206	4036
846.342	4055
846.478	4093
846.614	3972
846.75	3949
846.886	3899
847.022	4040
847.158	3964
847.294	4025
847.429	4032
847.565	3998
847.701	4268
847.837	3865
847.972	3865
848.108	4013
848.244	3915
848.379	3876
848.515	3854
848.65	3854
848.786	3808
848.921	3861
849.057	3949
849.192	3956
849.328	3892
849.463	3911
849.598	3926
849.734	3876
849.869	3827
850.004	3785
850.14	3861
850.275	3797
850.41	3720
850.545	3755
850.68	3728
850.815	3793
850.95	3762
851.085	3926
851.22	3903
851.355	3850
851.49	3785
851.625	3766
851.76	3789
851.895	3755
852.03	3755
852.165	3808
852.299	3876
852.434	3953
852.569	3869
852.703	3907
852.838	3915
852.973	4010
853.107	3937
853.242	3918
853.376	3915
853.511	3770
853.645	3865
853.78	4017
853.914	3869
854.048	3876
854.183	3884
854.317	3953
854.451	4063
854.585	3960
854.72	3979
854.854	4067
854.988	3960
855.122	4036
855.256	3911
855.39	4032
855.524	4101
855.658	4116
855.792	4109
855.926	4139
856.06	4211
856.194	4188
856.327	4090
856.461	4101
856.595	4150
856.729	4181
856.862	4303
856.996	4230
857.13	4306
857.263	4333
857.397	4367
857.53	4272
857.664	4344
857.797	4405
857.931	4402
858.064	4371
858.197	4447
858.331	4413
858.464	4398
858.597	4325
858.731	4436
858.864	4474
858.997	4451
859.13	4516
859.263	4550
859.396	4599
859.529	4519
859.662	4550
859.795	4527
859.928	4569
860.061	4691
860.194	4710
860.327	4683
860.46	4649
860.592	4752
860.725	4755
860.858	4801
860.99	4664
861.123	4679
861.256	4694
861.388	4774
861.521	5474
861.653	4725
861.786	4706
861.918	4828
862.05	4828
862.183	4831
862.315	4870
862.447	4953
862.58	4877
862.712	4805
862.844	4752
862.976	4896
863.108	4892
863.24	5197
863.372	4870
863.504	4923
863.636	4885
863.768	4930
863.9	4938
864.032	4968
864.164	4984
864.296	5018
864.428	5071
864.559	5075
864.691	5071
864.823	5128
864.954	5086
865.086	5067
865.217	5159
865.349	5147
865.48	5189
865.612	5204
865.743	5292
865.875	5201
866.006	5166
866.137	5216
866.269	5265
866.4	5181
866.531	5258
866.662	5265
866.793	5318
866.924	5311
867.055	5288
867.186	5357
867.317	5357
867.448	5334
867.579	5383
867.71	5387
867.841	5364
867.972	5471
868.103	5467
868.233	5505
868.364	5501
868.495	5554
868.625	5668
868.756	5817
868.886	5665
869.017	5737
869.147	5855
869.278	5870
869.408	5824
869.539	5885
869.669	5920
869.799	5893
869.929	5969
870.06	6011
870.19	6144
870.32	6197
870.45	6270
870.58	6361
870.71	6422
870.84	6475
870.97	6380
871.1	6445
871.23	6639
871.36	6639
871.489	6734
871.619	6802
871.749	6810
871.879	6859
872.008	7000
872.138	6966
872.267	6985
872.397	6996
872.526	7038
872.656	7069
872.785	7251
872.915	7343
873.044	7533
873.173	7540
873.303	7605
873.432	7818
873.561	7845
873.69	7875
873.819	8058
873.948	8183
874.077	8271
874.206	8282
874.335	8415
874.464	8667
874.593	8834
874.722	8986
874.851	9119
874.979	9211
875.108	9431
875.237	9458
875.365	9515
875.494	9580
875.623	9850
875.751	9770
875.88	10040
876.008	10078
876.136	10265
876.265	10542
876.393	10786
876.521	10687
876.65	10824
876.778	10915
876.906	10877
877.034	10976
877.162	11071
877.29	11128
877.418	11341
877.546	11402
877.674	11478
877.802	11436
877.93	11509
878.058	11551
878.185	11623
878.313	11642
878.441	11710
878.568	11668
878.696	11809
878.824	11824
878.951	11836
879.079	12034
879.206	12205
879.333	12121
879.461	11950
879.588	12133
879.715	12095
879.842	12197
879.97	12064
880.097	11920
880.224	11870
880.351	11893
880.478	11859
880.605	11821
880.732	11824
880.859	12068
880.986	11889
881.112	11893
881.239	11760
881.366	11630
881.493	11691
881.619	11596
881.746	11592
881.872	11501
881.999	11463
882.125	11391
882.252	11547
882.378	11486
882.505	11551
882.631	11372
882.757	11250
882.883	11326
883.01	11269
883.136	11250
883.262	11098
883.388	11166
883.514	11155
883.64	11147
883.766	11189
883.892	10965
884.018	11045
884.143	11079
884.269	11071
884.395	10866
884.52	10778
884.646	10824
884.772	10660
884.897	10592
885.023	10687
885.148	10725
885.274	10687
885.399	10672
885.524	10618
885.65	10550
885.775	10565
885.9	10561
886.025	10622
886.15	10538
886.275	10436
886.4	10466
886.525	10363
886.65	10379
886.775	10337
886.9	10428
887.025	10523
887.149	10341
887.274	10291
887.399	10192
887.523	10181
887.648	10154
887.773	10078
887.897	10169
888.021	10265
888.146	10188
888.27	10173
888.395	10295
888.519	10234
888.643	10227
888.767	10268
888.891	10067
889.015	10025
889.139	10029
889.263	10029
889.387	10112
889.511	10036
889.635	10040
889.759	9972
889.883	9972
890.006	9987
890.13	10059
890.254	9964
890.377	9949
890.501	9979
890.624	9854
890.748	9873
890.871	9842
890.995	9743
891.118	9740
891.241	9770
891.364	9736
891.488	9743
891.611	9835
891.734	9701
891.857	9705
891.98	9740
892.103	9819
892.226	9675
892.349	9667
892.471	9481
892.594	9549
892.717	9534
892.839	9629
892.962	9576
893.085	9576
893.207	9564
893.33	9534
893.452	9580
893.575	9564
893.697	9500
893.819	9629
893.941	9660
894.064	9587
894.186	9428
894.308	9367
894.43	9564
894.552	9576
894.674	9526
894.796	9340
894.918	9405
895.04	9424
895.161	9370
895.283	9298
895.405	9275
895.526	9313
895.648	9245
895.769	9272
895.891	9291
896.012	9253
896.134	9138
896.255	9199
896.376	9154
896.498	9169
896.619	9066
896.74	9058
896.861	9100
896.982	9241
897.103	9302
897.224	9226
897.345	9089
897.466	8982
897.587	9077
897.708	9112
897.828	9062
897.949	8963
898.07	8861
898.19	8849
898.311	9047
898.431	8876
898.552	8868
898.672	8994
898.792	8986
898.913	8925
899.033	8796
899.153	8766
899.273	8689
899.393	8762
899.513	8746
899.633	8792
899.753	8716
899.873	8781
899.993	8743
900.113	8705
900.232	8735
900.352	8644
900.472	8682
900.591	8514
900.711	8533
900.83	8537
900.95	8674
901.069	8693
901.189	8632
901.308	8507
901.427	8408
901.546	8438
901.665	8476
901.784	8552
901.904	8362
902.023	8419
902.141	8271
902.26	8210
902.379	8256
902.498	8256
902.617	8145
902.735	8259
902.854	8271
902.973	8328
903.091	8123
903.21	8088
903.328	8149
903.446	8100
903.565	8035
903.683	8084
903.801	8031
903.919	8111
904.038	8210
904.156	7947
904.274	8103
904.392	8008
904.51	8039
904.627	8043
904.745	8088
904.863	8092
904.981	7932
905.098	7875
905.216	7871
905.334	7928
905.451	7940
905.569	7811
905.686	7967
905.803	7909
905.921	7727
906.038	7818
906.155	7799
906.272	7700
906.389	7670
906.506	7628
906.623	7647
906.74	7632
906.857	7453
906.974	7556
907.091	7704
907.208	7712
907.324	7685
907.441	7518
907.557	7464
907.674	7411
907.79	7426
907.907	7400
908.023	7502
908.139	7426
908.256	7381
908.372	7331
908.488	7384
908.604	7274
908.72	7285
908.836	7236
908.952	7213
909.068	7236
909.184	7335
909.3	7236
909.415	7331
909.531	7324
909.647	7160
909.762	7118
909.878	7118
909.993	7114
910.108	7099
910.224	7137
910.339	7084
910.454	7034
910.57	7000
910.685	6981
910.8	7145
910.915	7126
911.03	7019
911.145	6852
911.259	6867
911.374	6890
911.489	6829
911.604	6829
911.718	6738
911.833	6738
911.947	6646
912.062	6623
912.176	6703
912.291	6669
912.405	6673
912.519	6760
912.633	6806
912.748	6692
912.862	6703
912.976	6658
913.09	6544
913.204	6612
913.318	6601
913.431	6684
913.545	6696
913.659	6753
913.772	6623
913.886	6563
914	6585
914.113	6627
914.226	6601
914.34	6521
914.453	6422
914.566	6616
914.68	6498
914.793	6536
914.906	6388
915.019	6422
915.132	6391
915.245	6437
915.358	6494
915.47	6467
915.583	6429
915.696	6467
915.809	6540
915.921	6551
916.034	6426
916.146	6448
916.259	6380
916.371	6456
916.483	6410
916.595	6429
916.708	6410
916.82	6433
916.932	6407
917.044	6331
917.156	6388
917.268	6384
917.38	6384
917.491	6357
917.603	6365
917.715	6418
917.826	6445
917.938	6311
918.049	6285
918.161	6452
918.272	6452
918.384	6410
918.495	6407
918.606	6239
918.717	6186
918.828	6235
918.939	6311
919.05	6243
919.161	6292
919.272	6140
919.383	6129
919.494	6350
919.604	6422
919.715	6285
919.826	6232
919.936	6239
920.047	6323
920.157	6277
920.267	6452
920.378	6315
920.488	6315
920.598	6414
920.708	6551
920.818	6433
920.928	6509
921.038	6608
921.148	6574
921.258	6376
921.368	6258
921.477	6232
921.587	6190
921.697	6106
921.806	6190
921.916	6171
922.025	5954
922.134	5950
922.244	5885
922.353	5942
922.462	5878
922.571	5836
922.68	5707
922.789	5676
922.898	5703
923.007	5665
923.116	5699
923.224	5665
923.333	5699
923.442	5566
923.55	5558
923.659	5577
923.767	5649
923.876	5535
923.984	5619
924.092	5516
924.201	5554
924.309	5566
924.417	5532
924.525	5505
924.633	5497
924.741	6281
924.849	5357
924.956	5524
925.064	5349
925.172	5299
925.279	5379
925.387	5322
925.494	5318
925.602	5448
925.709	5387
925.816	5235
925.924	5280
926.031	5318
926.138	5311
926.245	5318
926.352	5284
926.459	5292
926.566	5326
926.673	5254
926.779	5071
926.886	5113
926.993	5067
927.099	4984
927.206	4961
927.312	4976
927.419	5086
927.525	4980
927.631	4991
927.737	4873
927.843	4839
927.95	4816
928.056	4812
928.162	4866
928.267	4812
928.373	5349
928.479	4839
928.585	4721
928.69	4759
928.796	4793
928.901	4710
929.007	4618
929.112	4675
929.218	4607
929.323	4634
929.428	4630
929.533	4668
929.638	4565
929.743	4550
929.848	4531
929.953	4493
930.058	4466
930.163	4329
930.267	4379
930.372	4417
930.477	4310
930.581	4474
930.685	4379
930.79	4261
930.894	4280
930.998	4287
931.103	4383
931.207	4124
931.311	4116
931.415	4013
931.519	3915
931.623	3972
