Data from glass_V78500241_89.txt Node
Date: Wed Sep 01 19:15:06 CST 2021
User: usil
Spectrometer: V785-0024
Trigger mode: 0
Integration Time (sec): 4.000000E-1
Scans to average: 1
Nonlinearity correction enabled: false
Boxcar width: 0
Storing dark spectrum: false
XAxis mode: Wavelengths
Number of Pixels in Spectrum: 1024
>>>>>Begin Spectral Data<<<<<
801.071	3762
801.214	3774
801.356	3671
801.499	3778
801.641	3781
801.783	3797
801.926	3869
802.068	3823
802.211	3857
802.353	3930
802.496	3861
802.638	3926
802.78	3903
802.923	3979
803.065	3926
803.208	3873
803.35	3918
803.492	3911
803.635	3949
803.777	3800
803.919	3937
804.061	4173
804.204	3945
804.346	3979
804.488	3899
804.63	4040
804.773	3991
804.915	4036
805.057	4131
805.199	4040
805.341	4097
805.483	4131
805.626	4135
805.768	4128
805.91	4207
806.052	4268
806.194	4234
806.336	4371
806.478	4223
806.62	4207
806.762	4185
806.904	4280
807.046	4337
807.188	4242
807.33	4207
807.472	4249
807.614	4215
807.756	4268
807.898	4230
808.04	4238
808.182	4299
808.324	4303
808.465	4424
808.607	4481
808.749	4481
808.891	4478
809.033	4546
809.174	4363
809.316	4310
809.458	4291
809.6	4135
809.741	4204
809.883	4154
810.025	4200
810.166	4211
810.308	4257
810.45	4272
810.591	4230
810.733	4310
810.875	4542
811.016	4820
811.158	5201
811.299	5280
811.441	5299
811.582	5098
811.724	4721
811.865	4523
812.007	4497
812.148	4459
812.29	4489
812.431	4440
812.573	4398
812.714	4424
812.855	4470
812.997	4398
813.138	4500
813.279	4459
813.421	4409
813.562	4341
813.703	4325
813.845	4341
813.986	4265
814.127	4276
814.268	4219
814.41	4322
814.551	4227
814.692	4310
814.833	4337
814.974	4318
815.115	4390
815.256	4303
815.397	4246
815.539	4272
815.68	4173
815.821	4268
815.962	4322
816.103	4325
816.244	4242
816.385	4227
816.526	4329
816.666	4238
816.807	4093
816.948	4181
817.089	4219
817.23	4128
817.371	4093
817.512	4120
817.653	4078
817.793	4025
817.934	4036
818.075	4105
818.216	4093
818.356	4139
818.497	4006
818.638	3934
818.778	3892
818.919	3854
819.06	3876
819.2	3930
819.341	3907
819.481	3865
819.622	3953
819.762	4040
819.903	3987
820.043	3884
820.184	3854
820.324	3835
820.465	3880
820.605	3873
820.746	3880
820.886	3835
821.026	3930
821.167	3884
821.307	4010
821.447	4002
821.588	3983
821.728	4021
821.868	3945
822.008	3930
822.149	3926
822.289	3968
822.429	3800
822.569	3781
822.709	3812
822.849	3720
822.99	3759
823.13	3781
823.27	3774
823.41	3751
823.55	3762
823.69	3770
823.83	3743
823.97	3667
824.11	3660
824.25	3625
824.389	3667
824.529	3648
824.669	3633
824.809	3698
824.949	3736
825.089	3778
825.228	3728
825.368	3591
825.508	3584
825.648	3599
825.787	3629
825.927	3652
826.067	3614
826.206	3690
826.346	3781
826.485	3846
826.625	3869
826.765	3975
826.904	3835
827.044	3686
827.183	3526
827.323	3454
827.462	3542
827.601	3485
827.741	3450
827.88	3526
828.02	3409
828.159	3469
828.298	3526
828.437	3542
828.577	3469
828.716	3595
828.855	3542
828.994	3397
829.134	3405
829.273	3416
829.412	3389
829.551	3393
829.69	3420
829.829	3431
829.968	3485
830.107	3466
830.246	3450
830.385	3386
830.524	3393
830.663	3272
830.802	3283
830.941	3211
831.08	3218
831.219	3253
831.357	3287
831.496	3416
831.635	3253
831.774	3188
831.913	3218
832.051	3150
832.19	3157
832.329	3211
832.467	3188
832.606	3119
832.744	3195
832.883	3192
833.022	3203
833.16	3264
833.299	3321
833.437	3329
833.576	3382
833.714	3431
833.852	3431
833.991	3435
834.129	3488
834.267	3481
834.406	3439
834.544	3424
834.682	3462
834.821	3405
834.959	3545
835.097	3409
835.235	3564
835.373	3469
835.511	3496
835.65	3401
835.788	3538
835.926	3389
836.064	3367
836.202	3416
836.34	3606
836.478	3633
836.615	3530
836.753	3644
836.891	3641
837.029	3644
837.167	3606
837.305	3561
837.443	3507
837.58	3511
837.718	3644
837.856	3534
837.993	3580
838.131	3606
838.269	3625
838.406	3656
838.544	3606
838.681	3504
838.819	3469
838.956	3393
839.094	3412
839.231	3488
839.369	3530
839.506	3766
839.643	3656
839.781	3511
839.918	3485
840.055	3568
840.193	3549
840.33	3515
840.467	3576
840.604	3633
840.742	3800
840.879	3561
841.016	3549
841.153	3610
841.29	3732
841.427	3759
841.564	3675
841.701	3732
841.838	3682
841.975	3720
842.112	3720
842.249	3660
842.385	3637
842.522	3838
842.659	3717
842.796	3698
842.933	3743
843.069	3720
843.206	3709
843.343	3827
843.479	3816
843.616	3808
843.752	3663
843.889	3713
844.025	3842
844.162	3736
844.298	3896
844.435	3797
844.571	3823
844.708	3960
844.844	4044
844.98	4051
845.117	4055
845.253	3991
845.389	3918
845.525	4006
845.661	3979
845.798	3880
845.934	3972
846.07	3937
846.206	4090
846.342	4128
846.478	4105
846.614	3968
846.75	3945
846.886	3926
847.022	4101
847.158	4063
847.294	4025
847.429	4055
847.565	3987
847.701	4295
847.837	3915
847.972	3922
848.108	4025
848.244	3972
848.379	3873
848.515	3854
848.65	3850
848.786	3896
848.921	3903
849.057	3941
849.192	3949
849.328	3880
849.463	3994
849.598	3911
849.734	3953
849.869	3857
850.004	3781
850.14	3789
850.275	3797
850.41	3774
850.545	3743
850.68	3778
850.815	3827
850.95	3823
851.085	3987
851.22	3937
851.355	3823
851.49	3774
851.625	3827
851.76	3827
851.895	3759
852.03	3751
852.165	3816
852.299	3865
852.434	3926
852.569	3892
852.703	3907
852.838	3911
852.973	4044
853.107	4021
853.242	3911
853.376	3896
853.511	3793
853.645	3842
853.78	3987
853.914	3903
854.048	3926
854.183	3937
854.317	3979
854.451	4078
854.585	3972
854.72	3987
854.854	4071
854.988	3930
855.122	4017
855.256	3911
855.39	4032
855.524	4109
855.658	4082
855.792	4147
855.926	4150
856.06	4200
856.194	4223
856.327	4147
856.461	4139
856.595	4166
856.729	4200
856.862	4284
856.996	4272
857.13	4314
857.263	4322
857.397	4356
857.53	4341
857.664	4337
857.797	4413
857.931	4398
858.064	4451
858.197	4485
858.331	4386
858.464	4341
858.597	4348
858.731	4481
858.864	4474
858.997	4455
859.13	4588
859.263	4565
859.396	4561
859.529	4516
859.662	4596
859.795	4550
859.928	4653
860.061	4714
860.194	4733
860.327	4668
860.46	4694
860.592	4710
860.725	4755
860.858	4767
860.99	4675
861.123	4706
861.256	4744
861.388	4820
861.521	5589
861.653	4721
861.786	4725
861.918	4801
862.05	4828
862.183	4828
862.315	4946
862.447	4934
862.58	4934
862.712	4839
862.844	4748
862.976	4927
863.108	4915
863.24	5269
863.372	4835
863.504	4923
863.636	4911
863.768	4980
863.9	4953
864.032	4885
864.164	4915
864.296	5041
864.428	5113
864.559	5143
864.691	5189
864.823	5189
864.954	5079
865.086	5102
865.217	5132
865.349	5102
865.48	5166
865.612	5159
865.743	5307
865.875	5231
866.006	5174
866.137	5223
866.269	5265
866.4	5288
866.531	5258
866.662	5239
866.793	5265
866.924	5307
867.055	5391
867.186	5334
867.317	5261
867.448	5299
867.579	5360
867.71	5398
867.841	5345
867.972	5414
868.103	5471
868.233	5497
868.364	5459
868.495	5551
868.625	5691
868.756	5813
868.886	5695
869.017	5752
869.147	5874
869.278	5859
869.408	5840
869.539	5813
869.669	5984
869.799	5882
869.929	5996
870.06	5999
870.19	6144
870.32	6239
870.45	6266
870.58	6407
870.71	6422
870.84	6445
870.97	6471
871.1	6498
871.23	6585
871.36	6692
871.489	6681
871.619	6734
871.749	6825
871.879	6829
872.008	7012
872.138	7023
872.267	7012
872.397	7012
872.526	7069
872.656	7137
872.785	7141
872.915	7381
873.044	7499
873.173	7605
873.303	7620
873.432	7731
873.561	7894
873.69	7925
873.819	7955
873.948	8187
874.077	8305
874.206	8324
874.335	8423
874.464	8655
874.593	8785
874.722	8880
874.851	9157
874.979	9272
875.108	9408
875.237	9496
875.365	9534
875.494	9580
875.623	9770
875.751	9892
875.88	10002
876.008	10143
876.136	10246
876.265	10489
876.393	10744
876.521	10782
876.65	10843
876.778	10919
876.906	10862
877.034	11010
877.162	11151
877.29	11170
877.418	11265
877.546	11307
877.674	11478
877.802	11566
877.93	11440
878.058	11547
878.185	11619
878.313	11653
878.441	11794
878.568	11672
878.696	11809
878.824	11779
878.951	12003
879.079	12030
879.206	12152
879.333	12136
879.461	12049
879.588	12167
879.715	12117
879.842	12285
879.97	12175
880.097	11847
880.224	11920
880.351	11977
880.478	11851
880.605	11901
880.732	11874
880.859	12041
880.986	11786
881.112	11882
881.239	11726
881.366	11726
881.493	11657
881.619	11619
881.746	11551
881.872	11551
881.999	11524
882.125	11497
882.252	11512
882.378	11570
882.505	11634
882.631	11341
882.757	11364
882.883	11337
883.01	11212
883.136	11284
883.262	11174
883.388	11136
883.514	11220
883.64	11239
883.766	11174
883.892	10991
884.018	10968
884.143	11060
884.269	11090
884.395	10831
884.52	10824
884.646	10755
884.772	10748
884.897	10626
885.023	10672
885.148	10687
885.274	10816
885.399	10675
885.524	10733
885.65	10603
885.775	10527
885.9	10550
886.025	10569
886.15	10573
886.275	10470
886.4	10341
886.525	10447
886.65	10481
886.775	10379
886.9	10447
887.025	10615
887.149	10291
887.274	10215
887.399	10185
887.523	10078
887.648	10200
887.773	10185
887.897	10257
888.021	10246
888.146	10082
888.27	10257
888.395	10234
888.519	10249
888.643	10173
888.767	10223
888.891	10090
889.015	10029
889.139	10097
889.263	10048
889.387	10082
889.511	10097
889.635	10090
889.759	9907
889.883	9983
890.006	9991
890.13	10150
890.254	9994
890.377	9949
890.501	9846
890.624	9884
890.748	9865
890.871	9797
890.995	9785
891.118	9812
891.241	9652
891.364	9736
891.488	9846
891.611	9797
891.734	9762
891.857	9766
891.98	9759
892.103	9720
892.226	9747
892.349	9736
892.471	9580
892.594	9641
892.717	9694
892.839	9633
892.962	9682
893.085	9720
893.207	9648
893.33	9507
893.452	9515
893.575	9641
893.697	9526
893.819	9660
893.941	9698
894.064	9682
894.186	9496
894.308	9424
894.43	9625
894.552	9549
894.674	9614
894.796	9382
894.918	9428
895.04	9310
895.161	9340
895.283	9336
895.405	9256
895.526	9298
895.648	9241
895.769	9180
895.891	9332
896.012	9245
896.134	9329
896.255	9214
896.376	9188
896.498	9199
896.619	9142
896.74	9081
896.861	9108
896.982	9241
897.103	9302
897.224	9119
897.345	9070
897.466	9039
897.587	9001
897.708	9024
897.828	9058
897.949	8998
898.07	8868
898.19	8960
898.311	9077
898.431	8872
898.552	8933
898.672	8990
898.792	8887
898.913	8895
899.033	8777
899.153	8720
899.273	8682
899.393	8800
899.513	8838
899.633	8701
899.753	8682
899.873	8766
899.993	8758
900.113	8659
900.232	8689
900.352	8678
900.472	8632
900.591	8571
900.711	8632
900.83	8659
900.95	8705
901.069	8712
901.189	8613
901.308	8480
901.427	8480
901.546	8446
901.665	8450
901.784	8522
901.904	8377
902.023	8336
902.141	8267
902.26	8153
902.379	8275
902.498	8180
902.617	8256
902.735	8320
902.854	8301
902.973	8244
903.091	8111
903.21	8096
903.328	8130
903.446	8088
903.565	8111
903.683	8138
903.801	8073
903.919	8103
904.038	8157
904.156	8115
904.274	8111
904.392	8001
904.51	8046
904.627	8020
904.745	8100
904.863	8058
904.981	7959
905.098	7898
905.216	7868
905.334	7879
905.451	7913
905.569	7940
905.686	7940
905.803	7909
905.921	7757
906.038	7898
906.155	7833
906.272	7746
906.389	7727
906.506	7559
906.623	7571
906.74	7616
906.857	7521
906.974	7597
907.091	7696
907.208	7750
907.324	7670
907.441	7590
907.557	7525
907.674	7441
907.79	7430
907.907	7415
908.023	7499
908.139	7426
908.256	7396
908.372	7305
908.488	7312
908.604	7259
908.72	7247
908.836	7301
908.952	7278
909.068	7228
909.184	7308
909.3	7228
909.415	7316
909.531	7312
909.647	7194
909.762	7171
909.878	7084
909.993	7129
910.108	7107
910.224	7057
910.339	7118
910.454	7088
910.57	6993
910.685	6920
910.8	7194
910.915	7110
911.03	7027
911.145	6909
911.259	6806
911.374	6977
911.489	6806
911.604	6810
911.718	6768
911.833	6749
911.947	6684
912.062	6616
912.176	6715
912.291	6764
912.405	6741
912.519	6798
912.633	6844
912.748	6715
912.862	6703
912.976	6608
913.09	6532
913.204	6536
913.318	6639
913.431	6703
913.545	6715
913.659	6738
913.772	6696
913.886	6601
914	6585
914.113	6616
914.226	6688
914.34	6616
914.453	6509
914.566	6574
914.68	6456
914.793	6574
914.906	6448
915.019	6426
915.132	6323
915.245	6437
915.358	6490
915.47	6544
915.583	6486
915.696	6509
915.809	6509
915.921	6506
916.034	6441
916.146	6422
916.259	6384
916.371	6479
916.483	6448
916.595	6380
916.708	6422
916.82	6395
916.932	6464
917.044	6384
917.156	6399
917.268	6338
917.38	6327
917.491	6319
917.603	6410
917.715	6399
917.826	6422
917.938	6327
918.049	6285
918.161	6399
918.272	6414
918.384	6422
918.495	6319
918.606	6258
918.717	6209
918.828	6296
918.939	6273
919.05	6163
919.161	6254
919.272	6140
919.383	6186
919.494	6346
919.604	6452
919.715	6273
919.826	6266
919.936	6270
920.047	6361
920.157	6304
920.267	6445
920.378	6372
920.488	6334
920.598	6532
920.708	6563
920.818	6559
920.928	6517
921.038	6681
921.148	6551
921.258	6395
921.368	6323
921.477	6213
921.587	6163
921.697	6140
921.806	6190
921.916	6117
922.025	5992
922.134	5912
922.244	5847
922.353	6030
922.462	5790
922.571	5809
922.68	5714
922.789	5745
922.898	5676
923.007	5627
923.116	5699
923.224	5657
923.333	5707
923.442	5600
923.55	5543
923.659	5611
923.767	5649
923.876	5554
923.984	5570
924.092	5486
924.201	5573
924.309	5589
924.417	5547
924.525	5478
924.633	5497
924.741	6292
924.849	5383
924.956	5520
925.064	5353
925.172	5307
925.279	5330
925.387	5349
925.494	5364
925.602	5436
925.709	5395
925.816	5288
925.924	5349
926.031	5387
926.138	5322
926.245	5334
926.352	5231
926.459	5364
926.566	5330
926.673	5201
926.779	5143
926.886	5128
926.993	5025
927.099	4995
927.206	4961
927.312	4972
927.419	5003
927.525	4999
927.631	5033
927.737	4854
927.843	4870
927.95	4767
928.056	4862
928.162	4831
928.267	4843
928.373	5353
928.479	4908
928.585	4763
928.69	4771
928.796	4793
928.901	4717
929.007	4637
929.112	4740
929.218	4649
929.323	4599
929.428	4584
929.533	4672
929.638	4523
929.743	4588
929.848	4580
929.953	4481
930.058	4466
930.163	4329
930.267	4325
930.372	4443
930.477	4337
930.581	4493
930.685	4390
930.79	4356
930.894	4291
930.998	4299
931.103	4428
931.207	4135
931.311	4086
931.415	4048
931.519	3930
931.623	3930
