Data from glass_V78500241_1171.txt Node
Date: Wed Sep 01 19:22:37 CST 2021
User: usil
Spectrometer: V785-0024
Trigger mode: 0
Integration Time (sec): 4.000000E-1
Scans to average: 1
Nonlinearity correction enabled: false
Boxcar width: 0
Storing dark spectrum: false
XAxis mode: Wavelengths
Number of Pixels in Spectrum: 1024
>>>>>Begin Spectral Data<<<<<
801.071	3766
801.214	3789
801.356	3720
801.499	3736
801.641	3743
801.783	3793
801.926	3880
802.068	3823
802.211	3819
802.353	3884
802.496	3876
802.638	3896
802.78	3926
802.923	3941
803.065	3888
803.208	3850
803.35	3937
803.492	3915
803.635	3960
803.777	3800
803.919	3911
804.061	4169
804.204	3945
804.346	3930
804.488	3934
804.63	4078
804.773	3994
804.915	4013
805.057	4158
805.199	4097
805.341	4135
805.483	4166
805.626	4147
805.768	4090
805.91	4230
806.052	4265
806.194	4204
806.336	4371
806.478	4219
806.62	4150
806.762	4227
806.904	4242
807.046	4325
807.188	4242
807.33	4158
807.472	4257
807.614	4219
807.756	4276
807.898	4204
808.04	4234
808.182	4249
808.324	4348
808.465	4360
808.607	4459
808.749	4421
808.891	4424
809.033	4474
809.174	4390
809.316	4268
809.458	4215
809.6	4150
809.741	4139
809.883	4158
810.025	4211
810.166	4246
810.308	4204
810.45	4238
810.591	4230
810.733	4322
810.875	4481
811.016	4793
811.158	5162
811.299	5296
811.441	5242
811.582	5071
811.724	4656
811.865	4421
812.007	4443
812.148	4455
812.29	4409
812.431	4428
812.573	4379
812.714	4394
812.855	4405
812.997	4375
813.138	4447
813.279	4421
813.421	4360
813.562	4344
813.703	4363
813.845	4360
813.986	4276
814.127	4215
814.268	4265
814.41	4295
814.551	4242
814.692	4318
814.833	4242
814.974	4360
815.115	4306
815.256	4249
815.397	4261
815.539	4314
815.68	4188
815.821	4215
815.962	4333
816.103	4306
816.244	4253
816.385	4253
816.526	4246
816.666	4196
816.807	4128
816.948	4192
817.089	4211
817.23	4109
817.371	4040
817.512	4071
817.653	4082
817.793	4071
817.934	4032
818.075	4078
818.216	4143
818.356	4078
818.497	4013
818.638	3876
818.778	3903
818.919	3892
819.06	3899
819.2	3953
819.341	3873
819.481	3876
819.622	3930
819.762	4021
819.903	3918
820.043	3899
820.184	3876
820.324	3812
820.465	3876
820.605	3865
820.746	3896
820.886	3797
821.026	3964
821.167	3896
821.307	3960
821.447	3960
821.588	3972
821.728	3918
821.868	3953
822.008	3842
822.149	3934
822.289	3945
822.429	3827
822.569	3736
822.709	3835
822.849	3743
822.99	3701
823.13	3819
823.27	3804
823.41	3694
823.55	3743
823.69	3743
823.83	3740
823.97	3675
824.11	3637
824.25	3648
824.389	3667
824.529	3663
824.669	3641
824.809	3740
824.949	3774
825.089	3759
825.228	3724
825.368	3587
825.508	3606
825.648	3557
825.787	3610
825.927	3599
826.067	3629
826.206	3644
826.346	3808
826.485	3819
826.625	3899
826.765	3930
826.904	3819
827.044	3637
827.183	3542
827.323	3401
827.462	3500
827.601	3458
827.741	3462
827.88	3481
828.02	3370
828.159	3439
828.298	3458
828.437	3519
828.577	3485
828.716	3606
828.855	3469
828.994	3378
829.134	3386
829.273	3416
829.412	3351
829.551	3332
829.69	3370
829.829	3473
829.968	3523
830.107	3454
830.246	3500
830.385	3420
830.524	3355
830.663	3298
830.802	3253
830.941	3192
831.08	3233
831.219	3279
831.357	3291
831.496	3431
831.635	3253
831.774	3214
831.913	3157
832.051	3112
832.19	3138
832.329	3241
832.467	3119
832.606	3131
832.744	3188
832.883	3150
833.022	3214
833.16	3237
833.299	3272
833.437	3344
833.576	3370
833.714	3412
833.852	3454
833.991	3420
834.129	3469
834.267	3401
834.406	3428
834.544	3435
834.682	3443
834.821	3431
834.959	3553
835.097	3424
835.235	3564
835.373	3496
835.511	3500
835.65	3462
835.788	3500
835.926	3420
836.064	3370
836.202	3401
836.34	3568
836.478	3603
836.615	3507
836.753	3625
836.891	3629
837.029	3603
837.167	3591
837.305	3545
837.443	3534
837.58	3481
837.718	3584
837.856	3545
837.993	3523
838.131	3660
838.269	3622
838.406	3622
838.544	3549
838.681	3454
838.819	3488
838.956	3393
839.094	3420
839.231	3500
839.369	3488
839.506	3720
839.643	3656
839.781	3515
839.918	3515
840.055	3530
840.193	3542
840.33	3534
840.467	3561
840.604	3599
840.742	3835
840.879	3584
841.016	3610
841.153	3610
841.29	3755
841.427	3720
841.564	3698
841.701	3759
841.838	3701
841.975	3671
842.112	3720
842.249	3663
842.385	3652
842.522	3831
842.659	3713
842.796	3671
842.933	3751
843.069	3736
843.206	3732
843.343	3835
843.479	3816
843.616	3819
843.752	3671
843.889	3724
844.025	3888
844.162	3766
844.298	3876
844.435	3800
844.571	3793
844.708	3907
844.844	3998
844.98	4055
845.117	4002
845.253	3918
845.389	3941
845.525	3972
845.661	3972
845.798	3926
845.934	3994
846.07	3960
846.206	3998
846.342	4150
846.478	4074
846.614	4017
846.75	3953
846.886	3907
847.022	4036
847.158	4002
847.294	3983
847.429	4044
847.565	4032
847.701	4207
847.837	3945
847.972	3888
848.108	4025
848.244	3953
848.379	3896
848.515	3766
848.65	3827
848.786	3842
848.921	3876
849.057	3918
849.192	3930
849.328	3896
849.463	3953
849.598	3892
849.734	3903
849.869	3827
850.004	3770
850.14	3835
850.275	3762
850.41	3774
850.545	3762
850.68	3827
850.815	3808
850.95	3793
851.085	3983
851.22	3854
851.355	3854
851.49	3789
851.625	3804
851.76	3816
851.895	3747
852.03	3698
852.165	3804
852.299	3880
852.434	3899
852.569	3896
852.703	3876
852.838	3960
852.973	4006
853.107	4032
853.242	3899
853.376	3876
853.511	3774
853.645	3838
853.78	3945
853.914	3922
854.048	3896
854.183	3926
854.317	4006
854.451	4074
854.585	3975
854.72	3953
854.854	4044
854.988	3960
855.122	3934
855.256	3968
855.39	4082
855.524	4105
855.658	4112
855.792	4124
855.926	4188
856.06	4185
856.194	4230
856.327	4135
856.461	4105
856.595	4162
856.729	4166
856.862	4306
856.996	4261
857.13	4314
857.263	4322
857.397	4337
857.53	4280
857.664	4348
857.797	4379
857.931	4459
858.064	4455
858.197	4504
858.331	4432
858.464	4371
858.597	4360
858.731	4451
858.864	4451
858.997	4512
859.13	4519
859.263	4569
859.396	4622
859.529	4538
859.662	4565
859.795	4504
859.928	4649
860.061	4733
860.194	4744
860.327	4683
860.46	4656
860.592	4717
860.725	4786
860.858	4774
860.99	4675
861.123	4717
861.256	4660
861.388	4755
861.521	5410
861.653	4702
861.786	4725
861.918	4710
862.05	4786
862.183	4847
862.315	4900
862.447	4908
862.58	4881
862.712	4805
862.844	4812
862.976	4908
863.108	4866
863.24	5193
863.372	4816
863.504	4911
863.636	4908
863.768	4980
863.9	4930
864.032	4949
864.164	4919
864.296	5071
864.428	5083
864.559	5124
864.691	5094
864.823	5147
864.954	5113
865.086	5140
865.217	5117
865.349	5067
865.48	5185
865.612	5239
865.743	5318
865.875	5193
866.006	5197
866.137	5284
866.269	5216
866.4	5254
866.531	5242
866.662	5242
866.793	5239
866.924	5303
867.055	5326
867.186	5303
867.317	5337
867.448	5288
867.579	5391
867.71	5330
867.841	5360
867.972	5474
868.103	5493
868.233	5497
868.364	5478
868.495	5570
868.625	5688
868.756	5821
868.886	5672
869.017	5726
869.147	5836
869.278	5851
869.408	5794
869.539	5885
869.669	5920
869.799	5923
869.929	5996
870.06	6068
870.19	6258
870.32	6167
870.45	6289
870.58	6395
870.71	6418
870.84	6498
870.97	6410
871.1	6486
871.23	6700
871.36	6722
871.489	6681
871.619	6745
871.749	6814
871.879	6867
872.008	6966
872.138	7008
872.267	6989
872.397	6970
872.526	7046
872.656	7129
872.785	7202
872.915	7297
873.044	7487
873.173	7514
873.303	7700
873.432	7750
873.561	7875
873.69	7951
873.819	7993
873.948	8157
874.077	8290
874.206	8377
874.335	8427
874.464	8655
874.593	8906
874.722	8925
874.851	9062
874.979	9264
875.108	9382
875.237	9405
875.365	9458
875.494	9656
875.623	9835
875.751	9793
875.88	9911
876.008	10071
876.136	10337
876.265	10489
876.393	10672
876.521	10679
876.65	10793
876.778	10869
876.906	10904
877.034	10938
877.162	11113
877.29	11113
877.418	11326
877.546	11372
877.674	11364
877.802	11372
877.93	11573
878.058	11463
878.185	11573
878.313	11688
878.441	11779
878.568	11783
878.696	11779
878.824	11904
878.951	11931
879.079	11992
879.206	12148
879.333	12011
879.461	11946
879.588	12079
879.715	12019
879.842	12270
879.97	12072
880.097	11950
880.224	11874
880.351	11908
880.478	11889
880.605	11859
880.732	11855
880.859	11942
880.986	11832
881.112	11790
881.239	11767
881.366	11714
881.493	11665
881.619	11501
881.746	11623
881.872	11543
881.999	11520
882.125	11528
882.252	11524
882.378	11535
882.505	11497
882.631	11368
882.757	11231
882.883	11296
883.01	11212
883.136	11193
883.262	11155
883.388	11147
883.514	11265
883.64	11216
883.766	11109
883.892	11025
884.018	11067
884.143	11102
884.269	11128
884.395	10812
884.52	10801
884.646	10782
884.772	10672
884.897	10634
885.023	10771
885.148	10721
885.274	10755
885.399	10630
885.524	10592
885.65	10653
885.775	10634
885.9	10569
886.025	10580
886.15	10519
886.275	10565
886.4	10386
886.525	10508
886.65	10382
886.775	10344
886.9	10527
887.025	10519
887.149	10390
887.274	10238
887.399	10238
887.523	10219
887.648	10204
887.773	10067
887.897	10291
888.021	10185
888.146	10059
888.27	10207
888.395	10303
888.519	10238
888.643	10173
888.767	10166
888.891	10109
889.015	10067
889.139	10013
889.263	9964
889.387	10051
889.511	10173
889.635	10044
889.759	9937
889.883	10036
890.006	10021
890.13	10173
890.254	9960
890.377	9964
890.501	9831
890.624	9960
890.748	9941
890.871	9762
890.995	9728
891.118	9682
891.241	9812
891.364	9762
891.488	9857
891.611	9812
891.734	9675
891.857	9751
891.98	9698
892.103	9804
892.226	9663
892.349	9724
892.471	9591
892.594	9660
892.717	9641
892.839	9629
892.962	9694
893.085	9614
893.207	9633
893.33	9511
893.452	9504
893.575	9629
893.697	9450
893.819	9629
893.941	9595
894.064	9561
894.186	9431
894.308	9412
894.43	9500
894.552	9633
894.674	9549
894.796	9401
894.918	9405
895.04	9363
895.161	9412
895.283	9348
895.405	9279
895.526	9332
895.648	9279
895.769	9336
895.891	9203
896.012	9279
896.134	9317
896.255	9226
896.376	9070
896.498	9161
896.619	9142
896.74	9100
896.861	9146
896.982	9302
897.103	9291
897.224	9214
897.345	9028
897.466	9017
897.587	9013
897.708	9146
897.828	9039
897.949	9001
898.07	8906
898.19	8952
898.311	8998
898.431	8918
898.552	8902
898.672	9020
898.792	8975
898.913	8887
899.033	8807
899.153	8746
899.273	8727
899.393	8773
899.513	8785
899.633	8785
899.753	8670
899.873	8697
899.993	8731
900.113	8735
900.232	8663
900.352	8667
900.472	8617
900.591	8598
900.711	8594
900.83	8476
900.95	8724
901.069	8644
901.189	8556
901.308	8488
901.427	8408
901.546	8419
901.665	8450
901.784	8484
901.904	8454
902.023	8343
902.141	8172
902.26	8123
902.379	8294
902.498	8225
902.617	8252
902.735	8294
902.854	8240
902.973	8286
903.091	8103
903.21	8123
903.328	8138
903.446	8183
903.565	8111
903.683	8062
903.801	8054
903.919	8092
904.038	8130
904.156	8008
904.274	8111
904.392	8050
904.51	8039
904.627	8073
904.745	8138
904.863	8130
904.981	7902
905.098	7955
905.216	7890
905.334	7879
905.451	7932
905.569	7902
905.686	7879
905.803	7871
905.921	7795
906.038	7833
906.155	7772
906.272	7708
906.389	7712
906.506	7639
906.623	7632
906.74	7605
906.857	7548
906.974	7556
907.091	7670
907.208	7746
907.324	7643
907.441	7605
907.557	7483
907.674	7506
907.79	7441
907.907	7381
908.023	7426
908.139	7449
908.256	7396
908.372	7430
908.488	7324
908.604	7320
908.72	7194
908.836	7320
908.952	7228
909.068	7305
909.184	7335
909.3	7183
909.415	7358
909.531	7305
909.647	7175
909.762	7137
909.878	7133
909.993	7141
910.108	7114
910.224	7141
910.339	7110
910.454	7110
910.57	7015
910.685	6958
910.8	7149
910.915	7141
911.03	6977
911.145	6890
911.259	6875
911.374	6886
911.489	6882
911.604	6814
911.718	6696
911.833	6757
911.947	6662
912.062	6578
912.176	6639
912.291	6719
912.405	6730
912.519	6852
912.633	6802
912.748	6719
912.862	6787
912.976	6597
913.09	6532
913.204	6616
913.318	6608
913.431	6779
913.545	6715
913.659	6730
913.772	6669
913.886	6597
914	6525
914.113	6646
914.226	6654
914.34	6612
914.453	6555
914.566	6585
914.68	6536
914.793	6536
914.906	6471
915.019	6323
915.132	6365
915.245	6509
915.358	6509
915.47	6479
915.583	6410
915.696	6475
915.809	6544
915.921	6574
916.034	6407
916.146	6464
916.259	6422
916.371	6475
916.483	6490
916.595	6422
916.708	6414
916.82	6350
916.932	6369
917.044	6380
917.156	6418
917.268	6346
917.38	6353
917.491	6300
917.603	6399
917.715	6429
917.826	6437
917.938	6376
918.049	6296
918.161	6338
918.272	6448
918.384	6437
918.495	6353
918.606	6247
918.717	6190
918.828	6232
918.939	6270
919.05	6216
919.161	6266
919.272	6110
919.383	6190
919.494	6277
919.604	6433
919.715	6342
919.826	6197
919.936	6273
920.047	6315
920.157	6334
920.267	6456
920.378	6285
920.488	6315
920.598	6494
920.708	6517
920.818	6483
920.928	6555
921.038	6658
921.148	6597
921.258	6384
921.368	6311
921.477	6194
921.587	6186
921.697	6079
921.806	6201
921.916	6045
922.025	5992
922.134	5935
922.244	5889
922.353	5980
922.462	5885
922.571	5809
922.68	5741
922.789	5737
922.898	5699
923.007	5699
923.116	5680
923.224	5718
923.333	5676
923.442	5592
923.55	5668
923.659	5596
923.767	5619
923.876	5592
923.984	5665
924.092	5490
924.201	5600
924.309	5524
924.417	5573
924.525	5463
924.633	5455
924.741	6308
924.849	5383
924.956	5512
925.064	5368
925.172	5318
925.279	5364
925.387	5376
925.494	5337
925.602	5455
925.709	5368
925.816	5330
925.924	5372
926.031	5337
926.138	5273
926.245	5353
926.352	5178
926.459	5277
926.566	5322
926.673	5288
926.779	5143
926.886	5128
926.993	5064
927.099	5014
927.206	5006
927.312	4968
927.419	5037
927.525	4942
927.631	4999
927.737	4915
927.843	4915
927.95	4839
928.056	4858
928.162	4847
928.267	4828
928.373	5383
928.479	4866
928.585	4691
928.69	4771
928.796	4843
928.901	4694
929.007	4577
929.112	4637
929.218	4630
929.323	4607
929.428	4558
929.533	4668
929.638	4573
929.743	4554
929.848	4584
929.953	4504
930.058	4504
930.163	4306
930.267	4318
930.372	4436
930.477	4303
930.581	4436
930.685	4367
930.79	4242
930.894	4303
930.998	4284
931.103	4428
931.207	4086
931.311	4074
931.415	4013
931.519	3926
931.623	3991
