Data from glass_V78500241_2120.txt Node
Date: Wed Sep 01 19:29:11 CST 2021
User: usil
Spectrometer: V785-0024
Trigger mode: 0
Integration Time (sec): 4.000000E-1
Scans to average: 1
Nonlinearity correction enabled: false
Boxcar width: 0
Storing dark spectrum: false
XAxis mode: Wavelengths
Number of Pixels in Spectrum: 1024
>>>>>Begin Spectral Data<<<<<
801.071	3759
801.214	3766
801.356	3740
801.499	3743
801.641	3701
801.783	3766
801.926	3854
802.068	3800
802.211	3850
802.353	3876
802.496	3857
802.638	3884
802.78	3915
802.923	3960
803.065	3922
803.208	3873
803.35	3842
803.492	3888
803.635	3861
803.777	3789
803.919	3915
804.061	4131
804.204	3949
804.346	3968
804.488	3896
804.63	4059
804.773	3994
804.915	4021
805.057	4112
805.199	4051
805.341	4093
805.483	4162
805.626	4150
805.768	4128
805.91	4169
806.052	4196
806.194	4207
806.336	4379
806.478	4196
806.62	4177
806.762	4223
806.904	4219
807.046	4314
807.188	4192
807.33	4169
807.472	4196
807.614	4207
807.756	4238
807.898	4207
808.04	4192
808.182	4322
808.324	4272
808.465	4383
808.607	4440
808.749	4466
808.891	4466
809.033	4451
809.174	4405
809.316	4287
809.458	4227
809.6	4139
809.741	4177
809.883	4131
810.025	4188
810.166	4238
810.308	4246
810.45	4230
810.591	4227
810.733	4299
810.875	4546
811.016	4847
811.158	5181
811.299	5280
811.441	5280
811.582	5025
811.724	4702
811.865	4481
812.007	4504
812.148	4421
812.29	4386
812.431	4409
812.573	4394
812.714	4367
812.855	4386
812.997	4337
813.138	4470
813.279	4466
813.421	4417
813.562	4371
813.703	4303
813.845	4310
813.986	4276
814.127	4185
814.268	4303
814.41	4291
814.551	4230
814.692	4371
814.833	4276
814.974	4268
815.115	4367
815.256	4276
815.397	4188
815.539	4234
815.68	4204
815.821	4219
815.962	4306
816.103	4322
816.244	4280
816.385	4219
816.526	4276
816.666	4196
816.807	4082
816.948	4147
817.089	4154
817.23	4093
817.371	4036
817.512	4082
817.653	4082
817.793	4032
817.934	4051
818.075	4086
818.216	4105
818.356	4090
818.497	3983
818.638	3915
818.778	3884
818.919	3869
819.06	3869
819.2	3896
819.341	3850
819.481	3861
819.622	3884
819.762	4013
819.903	3945
820.043	3869
820.184	3850
820.324	3819
820.465	3850
820.605	3869
820.746	3861
820.886	3808
821.026	3903
821.167	3880
821.307	3953
821.447	3949
821.588	3926
821.728	3934
821.868	3941
822.008	3869
822.149	3892
822.289	3903
822.429	3766
822.569	3789
822.709	3816
822.849	3728
822.99	3671
823.13	3774
823.27	3747
823.41	3690
823.55	3743
823.69	3705
823.83	3724
823.97	3637
824.11	3610
824.25	3606
824.389	3641
824.529	3656
824.669	3648
824.809	3690
824.949	3724
825.089	3682
825.228	3679
825.368	3568
825.508	3564
825.648	3542
825.787	3576
825.927	3606
826.067	3603
826.206	3637
826.346	3800
826.485	3816
826.625	3808
826.765	3896
826.904	3800
827.044	3599
827.183	3538
827.323	3397
827.462	3519
827.601	3370
827.741	3378
827.88	3481
828.02	3329
828.159	3439
828.298	3473
828.437	3534
828.577	3488
828.716	3591
828.855	3473
828.994	3317
829.134	3374
829.273	3378
829.412	3382
829.551	3351
829.69	3393
829.829	3412
829.968	3507
830.107	3401
830.246	3416
830.385	3370
830.524	3363
830.663	3302
830.802	3245
830.941	3184
831.08	3184
831.219	3245
831.357	3260
831.496	3348
831.635	3241
831.774	3154
831.913	3176
832.051	3097
832.19	3173
832.329	3192
832.467	3150
832.606	3119
832.744	3176
832.883	3176
833.022	3195
833.16	3272
833.299	3310
833.437	3332
833.576	3378
833.714	3378
833.852	3409
833.991	3462
834.129	3462
834.267	3454
834.406	3374
834.544	3435
834.682	3431
834.821	3412
834.959	3545
835.097	3382
835.235	3561
835.373	3462
835.511	3488
835.65	3469
835.788	3473
835.926	3367
836.064	3340
836.202	3424
836.34	3580
836.478	3629
836.615	3504
836.753	3610
836.891	3671
837.029	3576
837.167	3564
837.305	3553
837.443	3511
837.58	3477
837.718	3603
837.856	3584
837.993	3538
838.131	3614
838.269	3587
838.406	3610
838.544	3591
838.681	3416
838.819	3447
838.956	3386
839.094	3412
839.231	3439
839.369	3500
839.506	3705
839.643	3618
839.781	3534
839.918	3454
840.055	3553
840.193	3545
840.33	3542
840.467	3572
840.604	3622
840.742	3808
840.879	3534
841.016	3610
841.153	3584
841.29	3717
841.427	3713
841.564	3720
841.701	3720
841.838	3701
841.975	3698
842.112	3736
842.249	3641
842.385	3656
842.522	3838
842.659	3705
842.796	3671
842.933	3743
843.069	3679
843.206	3675
843.343	3823
843.479	3797
843.616	3827
843.752	3663
843.889	3709
844.025	3819
844.162	3698
844.298	3857
844.435	3819
844.571	3800
844.708	3930
844.844	4006
844.98	4025
845.117	4032
845.253	3915
845.389	3838
845.525	3975
845.661	3991
845.798	3907
845.934	4032
846.07	3960
846.206	4029
846.342	4128
846.478	4010
846.614	4006
846.75	3964
846.886	3880
847.022	4021
847.158	3960
847.294	3972
847.429	3998
847.565	3964
847.701	4242
847.837	3865
847.972	3850
848.108	3994
848.244	3949
848.379	3842
848.515	3823
848.65	3812
848.786	3823
848.921	3899
849.057	3960
849.192	3941
849.328	3869
849.463	3934
849.598	3865
849.734	3838
849.869	3827
850.004	3766
850.14	3838
850.275	3766
850.41	3740
850.545	3717
850.68	3781
850.815	3789
850.95	3781
851.085	3945
851.22	3857
851.355	3838
851.49	3759
851.625	3766
851.76	3774
851.895	3720
852.03	3705
852.165	3793
852.299	3869
852.434	3937
852.569	3865
852.703	3873
852.838	3911
852.973	4029
853.107	3937
853.242	3907
853.376	3857
853.511	3755
853.645	3831
853.78	3968
853.914	3869
854.048	3892
854.183	3892
854.317	3930
854.451	4029
854.585	3960
854.72	3926
854.854	4040
854.988	3922
855.122	3937
855.256	3888
855.39	4044
855.524	4074
855.658	4082
855.792	4090
855.926	4154
856.06	4169
856.194	4215
856.327	4124
856.461	4090
856.595	4143
856.729	4158
856.862	4253
856.996	4227
857.13	4276
857.263	4341
857.397	4341
857.53	4280
857.664	4363
857.797	4371
857.931	4413
858.064	4428
858.197	4371
858.331	4398
858.464	4329
858.597	4344
858.731	4436
858.864	4443
858.997	4462
859.13	4493
859.263	4554
859.396	4577
859.529	4527
859.662	4550
859.795	4478
859.928	4618
860.061	4721
860.194	4748
860.327	4660
860.46	4596
860.592	4748
860.725	4763
860.858	4755
860.99	4675
861.123	4664
861.256	4668
861.388	4790
861.521	5448
861.653	4736
861.786	4687
861.918	4755
862.05	4790
862.183	4835
862.315	4892
862.447	4885
862.58	4927
862.712	4759
862.844	4793
862.976	4847
863.108	4885
863.24	5181
863.372	4828
863.504	4873
863.636	4904
863.768	4965
863.9	4957
864.032	4946
864.164	4965
864.296	5006
864.428	5086
864.559	5060
864.691	5094
864.823	5105
864.954	5117
865.086	5174
865.217	5105
865.349	5094
865.48	5174
865.612	5151
865.743	5277
865.875	5204
866.006	5197
866.137	5235
866.269	5223
866.4	5273
866.531	5235
866.662	5212
866.793	5231
866.924	5296
867.055	5322
867.186	5326
867.317	5296
867.448	5296
867.579	5357
867.71	5345
867.841	5372
867.972	5448
868.103	5463
868.233	5471
868.364	5516
868.495	5562
868.625	5680
868.756	5756
868.886	5699
869.017	5764
869.147	5802
869.278	5828
869.408	5840
869.539	5847
869.669	5882
869.799	5863
869.929	5969
870.06	6030
870.19	6201
870.32	6228
870.45	6216
870.58	6331
870.71	6490
870.84	6532
870.97	6410
871.1	6414
871.23	6650
871.36	6673
871.489	6639
871.619	6662
871.749	6818
871.879	6821
872.008	6939
872.138	6977
872.267	6973
872.397	6981
872.526	7015
872.656	7103
872.785	7198
872.915	7400
873.044	7472
873.173	7556
873.303	7658
873.432	7765
873.561	7871
873.69	7951
873.819	8012
873.948	8168
874.077	8279
874.206	8279
874.335	8400
874.464	8678
874.593	8830
874.722	8990
874.851	9100
874.979	9173
875.108	9302
875.237	9488
875.365	9488
875.494	9610
875.623	9785
875.751	9838
875.88	10029
876.008	10059
876.136	10261
876.265	10489
876.393	10714
876.521	10824
876.65	10793
876.778	10873
876.906	10896
877.034	10949
877.162	11105
877.29	11117
877.418	11330
877.546	11288
877.674	11471
877.802	11440
877.93	11474
878.058	11512
878.185	11505
878.313	11680
878.441	11710
878.568	11619
878.696	11802
878.824	11824
878.951	11950
879.079	12026
879.206	12110
879.333	12068
879.461	11999
879.588	12091
879.715	12102
879.842	12216
879.97	12030
880.097	11878
880.224	11923
880.351	11882
880.478	11843
880.605	11901
880.732	11748
880.859	12091
880.986	11786
881.112	11866
881.239	11699
881.366	11668
881.493	11634
881.619	11486
881.746	11558
881.872	11532
881.999	11539
882.125	11501
882.252	11535
882.378	11448
882.505	11581
882.631	11376
882.757	11307
882.883	11349
883.01	11376
883.136	11212
883.262	11159
883.388	11147
883.514	11220
883.64	11185
883.766	11128
883.892	10999
884.018	11006
884.143	11056
884.269	11067
884.395	10847
884.52	10793
884.646	10778
884.772	10767
884.897	10622
885.023	10729
885.148	10660
885.274	10706
885.399	10710
885.524	10615
885.65	10607
885.775	10561
885.9	10542
886.025	10599
886.15	10519
886.275	10443
886.4	10421
886.525	10379
886.65	10382
886.775	10352
886.9	10500
887.025	10462
887.149	10337
887.274	10227
887.399	10147
887.523	10131
887.648	10173
887.773	10086
887.897	10223
888.021	10230
888.146	10154
888.27	10204
888.395	10325
888.519	10150
888.643	10188
888.767	10291
888.891	10177
889.015	10002
889.139	9983
889.263	9922
889.387	10086
889.511	10109
889.635	10124
889.759	9972
889.883	9979
890.006	10010
890.13	10071
890.254	9922
890.377	9964
890.501	9804
890.624	9888
890.748	9911
890.871	9740
890.995	9766
891.118	9789
891.241	9778
891.364	9762
891.488	9842
891.611	9728
891.734	9720
891.857	9774
891.98	9846
892.103	9690
892.226	9720
892.349	9682
892.471	9507
892.594	9561
892.717	9572
892.839	9572
892.962	9701
893.085	9671
893.207	9553
893.33	9534
893.452	9447
893.575	9564
893.697	9523
893.819	9625
893.941	9648
894.064	9568
894.186	9504
894.308	9454
894.43	9481
894.552	9511
894.674	9534
894.796	9306
894.918	9378
895.04	9393
895.161	9378
895.283	9321
895.405	9253
895.526	9298
895.648	9260
895.769	9272
895.891	9199
896.012	9283
896.134	9214
896.255	9222
896.376	9100
896.498	9093
896.619	9169
896.74	9032
896.861	9123
896.982	9275
897.103	9199
897.224	9169
897.345	9081
897.466	8899
897.587	9032
897.708	9085
897.828	8990
897.949	8994
898.07	8792
898.19	8883
898.311	9013
898.431	8891
898.552	8857
898.672	8918
898.792	8944
898.913	8941
899.033	8807
899.153	8693
899.273	8602
899.393	8769
899.513	8731
899.633	8697
899.753	8689
899.873	8682
899.993	8697
900.113	8659
900.232	8705
900.352	8659
900.472	8564
900.591	8598
900.711	8610
900.83	8514
900.95	8648
901.069	8689
901.189	8587
901.308	8434
901.427	8324
901.546	8415
901.665	8423
901.784	8476
901.904	8362
902.023	8336
902.141	8252
902.26	8199
902.379	8256
902.498	8248
902.617	8248
902.735	8275
902.854	8229
902.973	8252
903.091	8183
903.21	8142
903.328	8119
903.446	8126
903.565	8084
903.683	8054
903.801	8054
903.919	8134
904.038	8157
904.156	7967
904.274	8134
904.392	8035
904.51	8016
904.627	8024
904.745	8084
904.863	8153
904.981	7917
905.098	7811
905.216	7845
905.334	7928
905.451	7974
905.569	7890
905.686	7894
905.803	7928
905.921	7753
906.038	7864
906.155	7761
906.272	7750
906.389	7715
906.506	7632
906.623	7647
906.74	7624
906.857	7476
906.974	7502
907.091	7662
907.208	7742
907.324	7563
907.441	7563
907.557	7518
907.674	7441
907.79	7400
907.907	7403
908.023	7438
908.139	7419
908.256	7419
908.372	7320
908.488	7297
908.604	7232
908.72	7217
908.836	7316
908.952	7171
909.068	7289
909.184	7354
909.3	7289
909.415	7221
909.531	7274
909.647	7168
909.762	7129
909.878	7084
909.993	7107
910.108	7084
910.224	7050
910.339	7091
910.454	7000
910.57	7000
910.685	7008
910.8	7206
910.915	7095
911.03	7004
911.145	6897
911.259	6909
911.374	6886
911.489	6852
911.604	6779
911.718	6760
911.833	6707
911.947	6639
912.062	6597
912.176	6711
912.291	6719
912.405	6711
912.519	6859
912.633	6840
912.748	6772
912.862	6734
912.976	6601
913.09	6528
913.204	6559
913.318	6612
913.431	6684
913.545	6646
913.659	6741
913.772	6669
913.886	6574
914	6525
914.113	6589
914.226	6639
914.34	6585
914.453	6528
914.566	6570
914.68	6547
914.793	6513
914.906	6399
915.019	6414
915.132	6407
915.245	6403
915.358	6433
915.47	6471
915.583	6418
915.696	6532
915.809	6559
915.921	6536
916.034	6471
916.146	6422
916.259	6376
916.371	6483
916.483	6456
916.595	6418
916.708	6369
916.82	6369
916.932	6399
917.044	6365
917.156	6399
917.268	6334
917.38	6376
917.491	6228
917.603	6319
917.715	6429
917.826	6422
917.938	6338
918.049	6197
918.161	6315
918.272	6407
918.384	6475
918.495	6353
918.606	6292
918.717	6254
918.828	6243
918.939	6258
919.05	6167
919.161	6247
919.272	6095
919.383	6114
919.494	6315
919.604	6422
919.715	6292
919.826	6205
919.936	6281
920.047	6315
920.157	6285
920.267	6395
920.378	6281
920.488	6308
920.598	6433
920.708	6528
920.818	6494
920.928	6494
921.038	6578
921.148	6544
921.258	6414
921.368	6266
921.477	6213
921.587	6186
921.697	6110
921.806	6159
921.916	6053
922.025	5942
922.134	5908
922.244	5893
922.353	5942
922.462	5790
922.571	5813
922.68	5691
922.789	5695
922.898	5710
923.007	5634
923.116	5699
923.224	5634
923.333	5688
923.442	5611
923.55	5554
923.659	5600
923.767	5589
923.876	5539
923.984	5535
924.092	5486
924.201	5524
924.309	5577
924.417	5528
924.525	5505
924.633	5501
924.741	6243
924.849	5322
924.956	5528
925.064	5387
925.172	5265
925.279	5303
925.387	5334
925.494	5322
925.602	5376
925.709	5379
925.816	5280
925.924	5284
926.031	5315
926.138	5296
926.245	5341
926.352	5189
926.459	5307
926.566	5349
926.673	5242
926.779	5071
926.886	5117
926.993	5102
927.099	4984
927.206	4980
927.312	4896
927.419	4980
927.525	4987
927.631	5010
927.737	4881
927.843	4870
927.95	4816
928.056	4831
928.162	4820
928.267	4858
928.373	5345
928.479	4812
928.585	4694
928.69	4786
928.796	4752
928.901	4698
929.007	4599
929.112	4668
929.218	4626
929.323	4637
929.428	4561
929.533	4683
929.638	4519
929.743	4546
929.848	4561
929.953	4516
930.058	4428
930.163	4348
930.267	4379
930.372	4436
930.477	4272
930.581	4485
930.685	4344
930.79	4272
930.894	4253
930.998	4249
931.103	4383
931.207	4063
931.311	4101
931.415	4048
931.519	3937
931.623	3975
