Data from glass_V78500241_1506.txt Node
Date: Wed Sep 01 19:24:56 CST 2021
User: usil
Spectrometer: V785-0024
Trigger mode: 0
Integration Time (sec): 4.000000E-1
Scans to average: 1
Nonlinearity correction enabled: false
Boxcar width: 0
Storing dark spectrum: false
XAxis mode: Wavelengths
Number of Pixels in Spectrum: 1024
>>>>>Begin Spectral Data<<<<<
801.071	3736
801.214	3713
801.356	3747
801.499	3751
801.641	3751
801.783	3835
801.926	3884
802.068	3831
802.211	3869
802.353	3903
802.496	3816
802.638	3876
802.78	3876
802.923	3964
803.065	3896
803.208	3838
803.35	3892
803.492	3922
803.635	3903
803.777	3838
803.919	3918
804.061	4177
804.204	3930
804.346	3987
804.488	3899
804.63	4025
804.773	3953
804.915	4055
805.057	4169
805.199	4025
805.341	4120
805.483	4139
805.626	4143
805.768	4105
805.91	4272
806.052	4257
806.194	4188
806.336	4318
806.478	4204
806.62	4169
806.762	4169
806.904	4299
807.046	4306
807.188	4238
807.33	4158
807.472	4276
807.614	4211
807.756	4246
807.898	4185
808.04	4257
808.182	4337
808.324	4314
808.465	4383
808.607	4508
808.749	4500
808.891	4409
809.033	4554
809.174	4421
809.316	4265
809.458	4272
809.6	4154
809.741	4158
809.883	4128
810.025	4230
810.166	4234
810.308	4211
810.45	4272
810.591	4204
810.733	4333
810.875	4527
811.016	4809
811.158	5159
811.299	5246
811.441	5322
811.582	5022
811.724	4710
811.865	4481
812.007	4500
812.148	4436
812.29	4417
812.431	4421
812.573	4424
812.714	4352
812.855	4375
812.997	4402
813.138	4451
813.279	4478
813.421	4398
813.562	4356
813.703	4344
813.845	4322
813.986	4276
814.127	4246
814.268	4261
814.41	4306
814.551	4265
814.692	4325
814.833	4284
814.974	4295
815.115	4356
815.256	4257
815.397	4219
815.539	4204
815.68	4211
815.821	4249
815.962	4341
816.103	4261
816.244	4238
816.385	4238
816.526	4265
816.666	4196
816.807	4101
816.948	4196
817.089	4143
817.23	4097
817.371	4048
817.512	4044
817.653	4086
817.793	4063
817.934	4032
818.075	4078
818.216	4078
818.356	4090
818.497	3979
818.638	3884
818.778	3945
818.919	3876
819.06	3857
819.2	3930
819.341	3915
819.481	3827
819.622	3896
819.762	3987
819.903	3998
820.043	3869
820.184	3857
820.324	3808
820.465	3873
820.605	3892
820.746	3869
820.886	3838
821.026	3937
821.167	3937
821.307	4017
821.447	3994
821.588	3941
821.728	3918
821.868	3941
822.008	3911
822.149	3903
822.289	3949
822.429	3774
822.569	3766
822.709	3793
822.849	3740
822.99	3701
823.13	3751
823.27	3747
823.41	3709
823.55	3736
823.69	3755
823.83	3755
823.97	3732
824.11	3614
824.25	3587
824.389	3633
824.529	3652
824.669	3679
824.809	3740
824.949	3740
825.089	3751
825.228	3686
825.368	3553
825.508	3568
825.648	3610
825.787	3633
825.927	3633
826.067	3648
826.206	3679
826.346	3785
826.485	3831
826.625	3865
826.765	3915
826.904	3823
827.044	3652
827.183	3530
827.323	3454
827.462	3481
827.601	3416
827.741	3431
827.88	3454
828.02	3393
828.159	3477
828.298	3504
828.437	3542
828.577	3504
828.716	3599
828.855	3485
828.994	3412
829.134	3378
829.273	3389
829.412	3336
829.551	3332
829.69	3367
829.829	3450
829.968	3519
830.107	3435
830.246	3431
830.385	3363
830.524	3374
830.663	3298
830.802	3256
830.941	3256
831.08	3214
831.219	3256
831.357	3253
831.496	3397
831.635	3249
831.774	3176
831.913	3157
832.051	3138
832.19	3138
832.329	3207
832.467	3116
832.606	3093
832.744	3195
832.883	3184
833.022	3192
833.16	3291
833.299	3321
833.437	3329
833.576	3389
833.714	3424
833.852	3405
833.991	3424
834.129	3454
834.267	3481
834.406	3405
834.544	3401
834.682	3466
834.821	3412
834.959	3572
835.097	3428
835.235	3576
835.373	3538
835.511	3519
835.65	3477
835.788	3473
835.926	3378
836.064	3348
836.202	3378
836.34	3580
836.478	3564
836.615	3557
836.753	3584
836.891	3629
837.029	3568
837.167	3599
837.305	3561
837.443	3553
837.58	3504
837.718	3648
837.856	3545
837.993	3477
838.131	3591
838.269	3568
838.406	3553
838.544	3576
838.681	3469
838.819	3481
838.956	3374
839.094	3389
839.231	3412
839.369	3507
839.506	3747
839.643	3595
839.781	3534
839.918	3443
840.055	3515
840.193	3504
840.33	3526
840.467	3568
840.604	3603
840.742	3842
840.879	3511
841.016	3572
841.153	3614
841.29	3747
841.427	3713
841.564	3717
841.701	3766
841.838	3720
841.975	3679
842.112	3709
842.249	3660
842.385	3618
842.522	3835
842.659	3671
842.796	3679
842.933	3736
843.069	3686
843.206	3736
843.343	3808
843.479	3808
843.616	3835
843.752	3637
843.889	3698
844.025	3876
844.162	3728
844.298	3835
844.435	3785
844.571	3778
844.708	3899
844.844	3991
844.98	4013
845.117	3998
845.253	3960
845.389	3899
845.525	3918
845.661	3956
845.798	3918
845.934	3991
846.07	3964
846.206	4059
846.342	4105
846.478	4044
846.614	3964
846.75	3899
846.886	3842
847.022	4036
847.158	3987
847.294	3994
847.429	3998
847.565	3979
847.701	4188
847.837	3873
847.972	3857
848.108	3941
848.244	4006
848.379	3846
848.515	3819
848.65	3808
848.786	3873
848.921	3861
849.057	3956
849.192	3964
849.328	3903
849.463	3899
849.598	3857
849.734	3880
849.869	3880
850.004	3800
850.14	3819
850.275	3793
850.41	3701
850.545	3743
850.68	3751
850.815	3793
850.95	3797
851.085	3979
851.22	3857
851.355	3819
851.49	3743
851.625	3766
851.76	3785
851.895	3720
852.03	3705
852.165	3778
852.299	3854
852.434	3937
852.569	3861
852.703	3896
852.838	3918
852.973	4021
853.107	3998
853.242	3930
853.376	3869
853.511	3793
853.645	3846
853.78	3964
853.914	3896
854.048	3869
854.183	3842
854.317	3953
854.451	4059
854.585	3968
854.72	3926
854.854	4055
854.988	3964
855.122	4032
855.256	3903
855.39	4006
855.524	4071
855.658	4074
855.792	4105
855.926	4131
856.06	4173
856.194	4204
856.327	4162
856.461	4112
856.595	4169
856.729	4177
856.862	4268
856.996	4287
857.13	4299
857.263	4383
857.397	4348
857.53	4242
857.664	4348
857.797	4409
857.931	4386
858.064	4386
858.197	4447
858.331	4386
858.464	4379
858.597	4337
858.731	4413
858.864	4504
858.997	4440
859.13	4470
859.263	4550
859.396	4615
859.529	4512
859.662	4527
859.795	4493
859.928	4630
860.061	4714
860.194	4733
860.327	4653
860.46	4660
860.592	4740
860.725	4797
860.858	4740
860.99	4637
861.123	4641
861.256	4725
861.388	4793
861.521	5440
861.653	4683
861.786	4767
861.918	4736
862.05	4801
862.183	4862
862.315	4885
862.447	4927
862.58	4854
862.712	4820
862.844	4774
862.976	4892
863.108	4927
863.24	5303
863.372	4831
863.504	4896
863.636	4900
863.768	4976
863.9	4968
864.032	4949
864.164	4984
864.296	5014
864.428	5086
864.559	5121
864.691	5170
864.823	5113
864.954	5140
865.086	5162
865.217	5124
865.349	5132
865.48	5147
865.612	5170
865.743	5337
865.875	5242
866.006	5254
866.137	5227
866.269	5273
866.4	5246
866.531	5231
866.662	5250
866.793	5254
866.924	5296
867.055	5334
867.186	5299
867.317	5322
867.448	5299
867.579	5357
867.71	5414
867.841	5398
867.972	5490
868.103	5482
868.233	5440
868.364	5516
868.495	5554
868.625	5668
868.756	5809
868.886	5676
869.017	5668
869.147	5855
869.278	5874
869.408	5828
869.539	5836
869.669	5950
869.799	5920
869.929	5992
870.06	5996
870.19	6197
870.32	6152
870.45	6232
870.58	6342
870.71	6410
870.84	6452
870.97	6380
871.1	6448
871.23	6650
871.36	6722
871.489	6616
871.619	6741
871.749	6852
871.879	6814
872.008	6916
872.138	7012
872.267	6996
872.397	6981
872.526	7099
872.656	7122
872.785	7202
872.915	7430
873.044	7544
873.173	7609
873.303	7647
873.432	7769
873.561	7807
873.69	7837
873.819	8054
873.948	8138
874.077	8256
874.206	8339
874.335	8438
874.464	8613
874.593	8895
874.722	8925
874.851	9161
874.979	9241
875.108	9317
875.237	9408
875.365	9450
875.494	9694
875.623	9838
875.751	9789
875.88	9998
876.008	10131
876.136	10303
876.265	10565
876.393	10698
876.521	10714
876.65	10801
876.778	10854
876.906	10850
877.034	10991
877.162	10999
877.29	11159
877.418	11201
877.546	11288
877.674	11444
877.802	11440
877.93	11532
878.058	11490
878.185	11474
878.313	11642
878.441	11752
878.568	11668
878.696	11771
878.824	11798
878.951	11992
879.079	11954
879.206	12144
879.333	12030
879.461	11954
879.588	12007
879.715	12079
879.842	12152
879.97	12076
880.097	11866
880.224	12022
880.351	11912
880.478	11893
880.605	11779
880.732	11942
880.859	11999
880.986	11821
881.112	11874
881.239	11722
881.366	11703
881.493	11600
881.619	11573
881.746	11581
881.872	11619
881.999	11512
882.125	11417
882.252	11471
882.378	11398
882.505	11543
882.631	11307
882.757	11277
882.883	11322
883.01	11273
883.136	11216
883.262	11170
883.388	11025
883.514	11170
883.64	11189
883.766	11113
883.892	11022
884.018	10938
884.143	11094
884.269	11113
884.395	10828
884.52	10782
884.646	10831
884.772	10687
884.897	10717
885.023	10622
885.148	10683
885.274	10717
885.399	10698
885.524	10664
885.65	10656
885.775	10607
885.9	10542
886.025	10626
886.15	10584
886.275	10504
886.4	10337
886.525	10284
886.65	10402
886.775	10375
886.9	10481
887.025	10485
887.149	10375
887.274	10253
887.399	10166
887.523	10185
887.648	10097
887.773	10097
887.897	10295
888.021	10257
888.146	10162
888.27	10246
888.395	10227
888.519	10112
888.643	10230
888.767	10246
888.891	10067
889.015	10074
889.139	10036
889.263	10010
889.387	10032
889.511	10090
889.635	10025
889.759	10071
889.883	9934
890.006	9953
890.13	10204
890.254	9926
890.377	10010
890.501	9876
890.624	9838
890.748	9903
890.871	9717
890.995	9774
891.118	9755
891.241	9709
891.364	9720
891.488	9819
891.611	9663
891.734	9682
891.857	9720
891.98	9793
892.103	9709
892.226	9728
892.349	9637
892.471	9606
892.594	9595
892.717	9576
892.839	9580
892.962	9629
893.085	9637
893.207	9599
893.33	9526
893.452	9511
893.575	9553
893.697	9523
893.819	9599
893.941	9641
894.064	9553
894.186	9469
894.308	9428
894.43	9496
894.552	9618
894.674	9492
894.796	9374
894.918	9405
895.04	9348
895.161	9401
895.283	9313
895.405	9195
895.526	9321
895.648	9230
895.769	9237
895.891	9287
896.012	9237
896.134	9222
896.255	9161
896.376	9123
896.498	9127
896.619	9184
896.74	9097
896.861	9039
896.982	9256
897.103	9294
897.224	9203
897.345	9020
897.466	9001
897.587	9036
897.708	9089
897.828	9066
897.949	8887
898.07	8834
898.19	8845
898.311	9017
898.431	8895
898.552	8944
898.672	8929
898.792	8895
898.913	8887
899.033	8750
899.153	8720
899.273	8766
899.393	8678
899.513	8788
899.633	8746
899.753	8758
899.873	8727
899.993	8834
900.113	8724
900.232	8644
900.352	8701
900.472	8667
900.591	8602
900.711	8571
900.83	8568
900.95	8720
901.069	8701
901.189	8590
901.308	8400
901.427	8385
901.546	8393
901.665	8438
901.784	8488
901.904	8358
902.023	8377
902.141	8248
902.26	8172
902.379	8282
902.498	8214
902.617	8187
902.735	8305
902.854	8256
902.973	8237
903.091	8206
903.21	8161
903.328	8153
903.446	8164
903.565	8123
903.683	8100
903.801	8043
903.919	8077
904.038	8164
904.156	8008
904.274	8149
904.392	7986
904.51	8081
904.627	8031
904.745	8134
904.863	8081
904.981	7883
905.098	7890
905.216	7852
905.334	7921
905.451	7906
905.569	7833
905.686	7883
905.803	7917
905.921	7780
906.038	7947
906.155	7780
906.272	7723
906.389	7662
906.506	7651
906.623	7624
906.74	7613
906.857	7624
906.974	7567
907.091	7666
907.208	7715
907.324	7616
907.441	7552
907.557	7487
907.674	7472
907.79	7362
907.907	7491
908.023	7434
908.139	7464
908.256	7415
908.372	7350
908.488	7381
908.604	7247
908.72	7187
908.836	7266
908.952	7228
909.068	7217
909.184	7305
909.3	7263
909.415	7324
909.531	7293
909.647	7141
909.762	7088
909.878	7046
909.993	7141
910.108	7129
910.224	7122
910.339	7152
910.454	7042
910.57	6970
910.685	6909
910.8	7129
910.915	7137
911.03	7046
911.145	6909
911.259	6875
911.374	6905
911.489	6787
911.604	6810
911.718	6745
911.833	6749
911.947	6639
912.062	6612
912.176	6639
912.291	6700
912.405	6749
912.519	6795
912.633	6837
912.748	6753
912.862	6684
912.976	6589
913.09	6532
913.204	6582
913.318	6616
913.431	6658
913.545	6684
913.659	6791
913.772	6662
913.886	6582
914	6509
914.113	6673
914.226	6627
914.34	6635
914.453	6490
914.566	6646
914.68	6521
914.793	6563
914.906	6448
915.019	6399
915.132	6410
915.245	6376
915.358	6426
915.47	6475
915.583	6467
915.696	6456
915.809	6479
915.921	6563
916.034	6445
916.146	6395
916.259	6376
916.371	6479
916.483	6483
916.595	6395
916.708	6452
916.82	6437
916.932	6323
917.044	6426
917.156	6365
917.268	6361
917.38	6395
917.491	6262
917.603	6346
917.715	6357
917.826	6414
917.938	6342
918.049	6216
918.161	6395
918.272	6422
918.384	6456
918.495	6331
918.606	6262
918.717	6247
918.828	6228
918.939	6262
919.05	6178
919.161	6224
919.272	6178
919.383	6159
919.494	6327
919.604	6376
919.715	6319
919.826	6220
919.936	6300
920.047	6342
920.157	6270
920.267	6471
920.378	6338
920.488	6273
920.598	6471
920.708	6540
920.818	6494
920.928	6490
921.038	6559
921.148	6536
921.258	6277
921.368	6296
921.477	6258
921.587	6152
921.697	6060
921.806	6201
921.916	6106
922.025	5916
922.134	5912
922.244	5893
922.353	5916
922.462	5844
922.571	5817
922.68	5729
922.789	5703
922.898	5695
923.007	5680
923.116	5722
923.224	5714
923.333	5691
923.442	5535
923.55	5608
923.659	5585
923.767	5657
923.876	5562
923.984	5600
924.092	5493
924.201	5554
924.309	5585
924.417	5535
924.525	5459
924.633	5478
924.741	6125
924.849	5345
924.956	5482
925.064	5368
925.172	5273
925.279	5345
925.387	5387
925.494	5353
925.602	5436
925.709	5387
925.816	5258
925.924	5345
926.031	5414
926.138	5292
926.245	5368
926.352	5254
926.459	5303
926.566	5296
926.673	5185
926.779	5143
926.886	5166
926.993	4995
927.099	4984
927.206	4976
927.312	4999
927.419	5052
927.525	4965
927.631	4968
927.737	4889
927.843	4862
927.95	4828
928.056	4801
928.162	4820
928.267	4843
928.373	5277
928.479	4892
928.585	4653
928.69	4828
928.796	4725
928.901	4710
929.007	4573
929.112	4641
929.218	4672
929.323	4618
929.428	4569
929.533	4668
929.638	4512
929.743	4542
929.848	4558
929.953	4512
930.058	4405
930.163	4325
930.267	4386
930.372	4413
930.477	4230
930.581	4443
930.685	4371
930.79	4242
930.894	4257
930.998	4287
931.103	4367
931.207	4147
931.311	4105
931.415	4051
931.519	3945
931.623	3960
