Data from glass_V78500241_576.txt Node
Date: Wed Sep 01 19:18:29 CST 2021
User: usil
Spectrometer: V785-0024
Trigger mode: 0
Integration Time (sec): 4.000000E-1
Scans to average: 1
Nonlinearity correction enabled: false
Boxcar width: 0
Storing dark spectrum: false
XAxis mode: Wavelengths
Number of Pixels in Spectrum: 1024
>>>>>Begin Spectral Data<<<<<
801.071	3755
801.214	3740
801.356	3720
801.499	3728
801.641	3743
801.783	3800
801.926	3934
802.068	3835
802.211	3850
802.353	3930
802.496	3854
802.638	3869
802.78	3918
802.923	3934
803.065	3907
803.208	3861
803.35	3854
803.492	3926
803.635	3896
803.777	3812
803.919	3915
804.061	4207
804.204	3956
804.346	3956
804.488	3968
804.63	4017
804.773	3979
804.915	4032
805.057	4154
805.199	4048
805.341	4086
805.483	4143
805.626	4109
805.768	4131
805.91	4192
806.052	4230
806.194	4207
806.336	4375
806.478	4207
806.62	4211
806.762	4188
806.904	4310
807.046	4341
807.188	4227
807.33	4192
807.472	4242
807.614	4242
807.756	4314
807.898	4242
808.04	4238
808.182	4246
808.324	4287
808.465	4405
808.607	4481
808.749	4447
808.891	4470
809.033	4542
809.174	4394
809.316	4227
809.458	4246
809.6	4200
809.741	4211
809.883	4177
810.025	4246
810.166	4227
810.308	4322
810.45	4246
810.591	4246
810.733	4310
810.875	4523
811.016	4805
811.158	5166
811.299	5326
811.441	5334
811.582	5083
811.724	4721
811.865	4519
812.007	4459
812.148	4459
812.29	4478
812.431	4474
812.573	4432
812.714	4303
812.855	4428
812.997	4421
813.138	4481
813.279	4428
813.421	4417
813.562	4413
813.703	4367
813.845	4383
813.986	4261
814.127	4200
814.268	4272
814.41	4284
814.551	4272
814.692	4341
814.833	4249
814.974	4306
815.115	4314
815.256	4227
815.397	4207
815.539	4287
815.68	4192
815.821	4219
815.962	4333
816.103	4341
816.244	4223
816.385	4253
816.526	4314
816.666	4177
816.807	4139
816.948	4192
817.089	4192
817.23	4135
817.371	4071
817.512	4105
817.653	4040
817.793	4010
817.934	4021
818.075	4128
818.216	4074
818.356	4055
818.497	4002
818.638	3899
818.778	3941
818.919	3888
819.06	3865
819.2	3903
819.341	3884
819.481	3873
819.622	3937
819.762	4010
819.903	3960
820.043	3880
820.184	3865
820.324	3804
820.465	3918
820.605	3911
820.746	3831
820.886	3789
821.026	3926
821.167	3956
821.307	4006
821.447	4006
821.588	3945
821.728	3937
821.868	3941
822.008	3880
822.149	3903
822.289	3899
822.429	3835
822.569	3766
822.709	3781
822.849	3682
822.99	3751
823.13	3747
823.27	3789
823.41	3717
823.55	3720
823.69	3762
823.83	3720
823.97	3724
824.11	3648
824.25	3625
824.389	3610
824.529	3717
824.669	3637
824.809	3728
824.949	3751
825.089	3762
825.228	3698
825.368	3610
825.508	3587
825.648	3553
825.787	3610
825.927	3663
826.067	3637
826.206	3690
826.346	3816
826.485	3846
826.625	3896
826.765	3949
826.904	3823
827.044	3629
827.183	3534
827.323	3454
827.462	3507
827.601	3443
827.741	3447
827.88	3473
828.02	3420
828.159	3458
828.298	3523
828.437	3572
828.577	3447
828.716	3622
828.855	3519
828.994	3389
829.134	3412
829.273	3382
829.412	3355
829.551	3363
829.69	3382
829.829	3420
829.968	3549
830.107	3466
830.246	3473
830.385	3370
830.524	3344
830.663	3348
830.802	3279
830.941	3184
831.08	3195
831.219	3291
831.357	3279
831.496	3435
831.635	3279
831.774	3211
831.913	3226
832.051	3123
832.19	3184
832.329	3256
832.467	3138
832.606	3108
832.744	3150
832.883	3184
833.022	3218
833.16	3249
833.299	3332
833.437	3355
833.576	3355
833.714	3409
833.852	3439
833.991	3439
834.129	3511
834.267	3466
834.406	3458
834.544	3416
834.682	3393
834.821	3454
834.959	3564
835.097	3447
835.235	3523
835.373	3485
835.511	3481
835.65	3409
835.788	3500
835.926	3439
836.064	3409
836.202	3405
836.34	3587
836.478	3576
836.615	3534
836.753	3599
836.891	3724
837.029	3648
837.167	3622
837.305	3561
837.443	3542
837.58	3530
837.718	3606
837.856	3564
837.993	3545
838.131	3610
838.269	3618
838.406	3595
838.544	3584
838.681	3469
838.819	3481
838.956	3382
839.094	3409
839.231	3450
839.369	3526
839.506	3740
839.643	3667
839.781	3545
839.918	3477
840.055	3530
840.193	3519
840.33	3545
840.467	3618
840.604	3637
840.742	3812
840.879	3568
841.016	3576
841.153	3591
841.29	3755
841.427	3774
841.564	3728
841.701	3766
841.838	3682
841.975	3686
842.112	3705
842.249	3637
842.385	3633
842.522	3835
842.659	3713
842.796	3671
842.933	3720
843.069	3682
843.206	3755
843.343	3854
843.479	3797
843.616	3850
843.752	3701
843.889	3686
844.025	3865
844.162	3717
844.298	3827
844.435	3823
844.571	3781
844.708	3892
844.844	4006
844.98	4025
845.117	4040
845.253	3941
845.389	3922
845.525	3949
845.661	3975
845.798	3983
845.934	4055
846.07	3987
846.206	4086
846.342	4128
846.478	4101
846.614	4017
846.75	3956
846.886	3945
847.022	4090
847.158	4025
847.294	4040
847.429	3983
847.565	3998
847.701	4295
847.837	3899
847.972	3842
848.108	3979
848.244	3960
848.379	3888
848.515	3873
848.65	3869
848.786	3846
848.921	3857
849.057	3922
849.192	3983
849.328	3899
849.463	3930
849.598	3884
849.734	3896
849.869	3812
850.004	3797
850.14	3789
850.275	3778
850.41	3781
850.545	3774
850.68	3800
850.815	3793
850.95	3876
851.085	3907
851.22	3857
851.355	3884
851.49	3838
851.625	3793
851.76	3831
851.895	3694
852.03	3720
852.165	3831
852.299	3873
852.434	3937
852.569	3854
852.703	3896
852.838	3922
852.973	3972
853.107	4029
853.242	3930
853.376	3850
853.511	3812
853.645	3838
853.78	3968
853.914	3903
854.048	3838
854.183	3880
854.317	3998
854.451	4101
854.585	3960
854.72	3972
854.854	4067
854.988	3941
855.122	4044
855.256	3941
855.39	4071
855.524	4150
855.658	4086
855.792	4116
855.926	4185
856.06	4158
856.194	4196
856.327	4188
856.461	4166
856.595	4204
856.729	4154
856.862	4265
856.996	4265
857.13	4291
857.263	4344
857.397	4421
857.53	4265
857.664	4360
857.797	4421
857.931	4386
858.064	4394
858.197	4428
858.331	4371
858.464	4379
858.597	4398
858.731	4459
858.864	4451
858.997	4459
859.13	4504
859.263	4558
859.396	4637
859.529	4535
859.662	4558
859.795	4542
859.928	4580
860.061	4759
860.194	4733
860.327	4675
860.46	4672
860.592	4763
860.725	4797
860.858	4774
860.99	4691
861.123	4668
861.256	4714
861.388	4809
861.521	5372
861.653	4706
861.786	4706
861.918	4748
862.05	4835
862.183	4858
862.315	4896
862.447	4911
862.58	4923
862.712	4820
862.844	4790
862.976	4923
863.108	4896
863.24	5109
863.372	4885
863.504	4889
863.636	4896
863.768	4995
863.9	4965
864.032	4991
864.164	4942
864.296	4999
864.428	5132
864.559	5113
864.691	5151
864.823	5166
864.954	5170
865.086	5151
865.217	5056
865.349	5094
865.48	5162
865.612	5216
865.743	5341
865.875	5231
866.006	5136
866.137	5269
866.269	5242
866.4	5250
866.531	5254
866.662	5223
866.793	5299
866.924	5288
867.055	5353
867.186	5376
867.317	5353
867.448	5315
867.579	5433
867.71	5402
867.841	5368
867.972	5421
868.103	5440
868.233	5497
868.364	5444
868.495	5535
868.625	5672
868.756	5764
868.886	5668
869.017	5718
869.147	5908
869.278	5851
869.408	5863
869.539	5821
869.669	5939
869.799	5832
869.929	5988
870.06	6011
870.19	6258
870.32	6247
870.45	6258
870.58	6346
870.71	6490
870.84	6467
870.97	6391
871.1	6475
871.23	6642
871.36	6726
871.489	6681
871.619	6783
871.749	6859
871.879	6913
872.008	7042
872.138	6966
872.267	7038
872.397	6996
872.526	7038
872.656	7126
872.785	7232
872.915	7430
873.044	7533
873.173	7559
873.303	7696
873.432	7712
873.561	7879
873.69	7868
873.819	8024
873.948	8157
874.077	8279
874.206	8358
874.335	8450
874.464	8667
874.593	8823
874.722	8948
874.851	9085
874.979	9264
875.108	9325
875.237	9462
875.365	9416
875.494	9701
875.623	9835
875.751	9797
875.88	10036
876.008	10192
876.136	10276
876.265	10462
876.393	10698
876.521	10759
876.65	10847
876.778	10919
876.906	10843
877.034	10999
877.162	11086
877.29	11105
877.418	11334
877.546	11315
877.674	11467
877.802	11482
877.93	11562
878.058	11566
878.185	11524
878.313	11688
878.441	11737
878.568	11627
878.696	11798
878.824	11798
878.951	11935
879.079	12041
879.206	12110
879.333	12053
879.461	11988
879.588	12064
879.715	12060
879.842	12346
879.97	12087
880.097	11904
880.224	11969
880.351	11923
880.478	11889
880.605	11897
880.732	11851
880.859	12060
880.986	11851
881.112	11843
881.239	11703
881.366	11733
881.493	11562
881.619	11520
881.746	11566
881.872	11516
881.999	11471
882.125	11577
882.252	11482
882.378	11490
882.505	11608
882.631	11429
882.757	11341
882.883	11292
883.01	11299
883.136	11204
883.262	11109
883.388	11094
883.514	11204
883.64	11235
883.766	11098
883.892	11022
884.018	10984
884.143	11056
884.269	11075
884.395	10904
884.52	10797
884.646	10774
884.772	10736
884.897	10656
885.023	10748
885.148	10801
885.274	10790
885.399	10679
885.524	10641
885.65	10649
885.775	10649
885.9	10580
886.025	10637
886.15	10615
886.275	10462
886.4	10440
886.525	10470
886.65	10424
886.775	10337
886.9	10459
887.025	10584
887.149	10348
887.274	10223
887.399	10204
887.523	10204
887.648	10135
887.773	10063
887.897	10284
888.021	10105
888.146	10112
888.27	10280
888.395	10204
888.519	10200
888.643	10227
888.767	10181
888.891	10105
889.015	10002
889.139	10067
889.263	10032
889.387	10078
889.511	10143
889.635	10124
889.759	10010
889.883	10021
890.006	10040
890.13	10169
890.254	9949
890.377	9945
890.501	9941
890.624	9854
890.748	9915
890.871	9774
890.995	9755
891.118	9751
891.241	9762
891.364	9747
891.488	9789
891.611	9785
891.734	9762
891.857	9774
891.98	9671
892.103	9724
892.226	9793
892.349	9641
892.471	9599
892.594	9595
892.717	9622
892.839	9663
892.962	9584
893.085	9728
893.207	9538
893.33	9511
893.452	9576
893.575	9599
893.697	9564
893.819	9675
893.941	9648
894.064	9606
894.186	9450
894.308	9332
894.43	9492
894.552	9614
894.674	9557
894.796	9393
894.918	9386
895.04	9370
895.161	9439
895.283	9336
895.405	9237
895.526	9291
895.648	9298
895.769	9302
895.891	9214
896.012	9272
896.134	9253
896.255	9195
896.376	9161
896.498	9184
896.619	9165
896.74	9104
896.861	9119
896.982	9233
897.103	9260
897.224	9154
897.345	9131
897.466	8990
897.587	9058
897.708	9119
897.828	9047
897.949	9036
898.07	8868
898.19	8960
898.311	9093
898.431	8952
898.552	8914
898.672	8979
898.792	8948
898.913	8918
899.033	8845
899.153	8834
899.273	8712
899.393	8682
899.513	8762
899.633	8735
899.753	8811
899.873	8743
899.993	8804
900.113	8746
900.232	8727
900.352	8701
900.472	8594
900.591	8499
900.711	8587
900.83	8571
900.95	8758
901.069	8697
901.189	8579
901.308	8495
901.427	8412
901.546	8450
901.665	8438
901.784	8476
901.904	8442
902.023	8370
902.141	8252
902.26	8229
902.379	8259
902.498	8233
902.617	8176
902.735	8339
902.854	8240
902.973	8275
903.091	8062
903.21	8096
903.328	8183
903.446	8145
903.565	8020
903.683	8145
903.801	8073
903.919	8134
904.038	8088
904.156	8092
904.274	8161
904.392	8107
904.51	8012
904.627	8073
904.745	8069
904.863	8081
904.981	7936
905.098	7841
905.216	7887
905.334	7925
905.451	7932
905.569	7936
905.686	7963
905.803	7970
905.921	7784
906.038	7921
906.155	7852
906.272	7746
906.389	7696
906.506	7544
906.623	7704
906.74	7624
906.857	7571
906.974	7563
907.091	7689
907.208	7723
907.324	7643
907.441	7582
907.557	7472
907.674	7480
907.79	7445
907.907	7358
908.023	7449
908.139	7419
908.256	7411
908.372	7419
908.488	7381
908.604	7247
908.72	7209
908.836	7316
908.952	7251
909.068	7289
909.184	7308
909.3	7274
909.415	7331
909.531	7312
909.647	7164
909.762	7164
909.878	7095
909.993	7141
910.108	7126
910.224	7076
910.339	7118
910.454	7152
910.57	7004
910.685	6977
910.8	7149
910.915	7114
911.03	7023
911.145	6852
911.259	6867
911.374	6901
911.489	6909
911.604	6829
911.718	6684
911.833	6783
911.947	6700
912.062	6589
912.176	6658
912.291	6726
912.405	6703
912.519	6837
912.633	6829
912.748	6798
912.862	6715
912.976	6642
913.09	6555
913.204	6654
913.318	6662
913.431	6760
913.545	6692
913.659	6650
913.772	6646
913.886	6570
914	6540
914.113	6646
914.226	6635
914.34	6631
914.453	6475
914.566	6620
914.68	6570
914.793	6506
914.906	6395
915.019	6407
915.132	6350
915.245	6429
915.358	6437
915.47	6429
915.583	6475
915.696	6486
915.809	6528
915.921	6593
916.034	6403
916.146	6395
916.259	6426
916.371	6490
916.483	6414
916.595	6399
916.708	6441
916.82	6407
916.932	6357
917.044	6441
917.156	6422
917.268	6311
917.38	6323
917.491	6331
917.603	6380
917.715	6353
917.826	6422
917.938	6346
918.049	6251
918.161	6338
918.272	6388
918.384	6479
918.495	6391
918.606	6216
918.717	6300
918.828	6323
918.939	6323
919.05	6186
919.161	6319
919.272	6140
919.383	6125
919.494	6277
919.604	6414
919.715	6277
919.826	6228
919.936	6270
920.047	6300
920.157	6308
920.267	6521
920.378	6334
920.488	6266
920.598	6509
920.708	6536
920.818	6517
920.928	6483
921.038	6551
921.148	6642
921.258	6429
921.368	6285
921.477	6216
921.587	6163
921.697	6110
921.806	6163
921.916	6144
922.025	5988
922.134	5939
922.244	5912
922.353	5923
922.462	5874
922.571	5794
922.68	5691
922.789	5627
922.898	5733
923.007	5707
923.116	5733
923.224	5688
923.333	5699
923.442	5619
923.55	5600
923.659	5619
923.767	5668
923.876	5566
923.984	5592
924.092	5509
924.201	5512
924.309	5566
924.417	5558
924.525	5524
924.633	5566
924.741	6327
924.849	5433
924.956	5516
925.064	5387
925.172	5299
925.279	5395
925.387	5330
925.494	5364
925.602	5421
925.709	5379
925.816	5307
925.924	5345
926.031	5357
926.138	5357
926.245	5337
926.352	5223
926.459	5284
926.566	5315
926.673	5197
926.779	5132
926.886	5166
926.993	5045
927.099	5067
927.206	4976
927.312	4927
927.419	5052
927.525	4999
927.631	5022
927.737	4873
927.843	4881
927.95	4729
928.056	4835
928.162	4835
928.267	4870
928.373	5261
928.479	4889
928.585	4725
928.69	4736
928.796	4801
928.901	4687
929.007	4584
929.112	4702
929.218	4664
929.323	4618
929.428	4603
929.533	4653
929.638	4558
929.743	4580
929.848	4580
929.953	4573
930.058	4417
930.163	4394
930.267	4363
930.372	4436
930.477	4333
930.581	4485
930.685	4383
930.79	4249
930.894	4280
930.998	4249
931.103	4394
931.207	4150
931.311	4082
931.415	4048
931.519	3960
931.623	3926
