Data from glass_V78500241_10.txt Node
Date: Wed Sep 01 19:14:34 CST 2021
User: usil
Spectrometer: V785-0024
Trigger mode: 0
Integration Time (sec): 4.000000E-1
Scans to average: 1
Nonlinearity correction enabled: false
Boxcar width: 0
Storing dark spectrum: false
XAxis mode: Wavelengths
Number of Pixels in Spectrum: 1024
>>>>>Begin Spectral Data<<<<<
801.071	3762
801.214	3804
801.356	3747
801.499	3713
801.641	3743
801.783	3789
801.926	3873
802.068	3857
802.211	3918
802.353	3937
802.496	3846
802.638	3888
802.78	3945
802.923	3972
803.065	3937
803.208	3873
803.35	3880
803.492	3934
803.635	3915
803.777	3770
803.919	3907
804.061	4207
804.204	3987
804.346	3960
804.488	3911
804.63	4082
804.773	3994
804.915	4071
805.057	4154
805.199	4051
805.341	4112
805.483	4162
805.626	4128
805.768	4128
805.91	4215
806.052	4249
806.194	4223
806.336	4371
806.478	4196
806.62	4188
806.762	4249
806.904	4276
807.046	4314
807.188	4230
807.33	4196
807.472	4230
807.614	4166
807.756	4280
807.898	4223
808.04	4196
808.182	4287
808.324	4306
808.465	4360
808.607	4489
808.749	4462
808.891	4493
809.033	4508
809.174	4432
809.316	4265
809.458	4268
809.6	4154
809.741	4177
809.883	4143
810.025	4207
810.166	4246
810.308	4246
810.45	4169
810.591	4265
810.733	4295
810.875	4535
811.016	4850
811.158	5159
811.299	5311
811.441	5299
811.582	5075
811.724	4691
811.865	4478
812.007	4493
812.148	4417
812.29	4466
812.431	4390
812.573	4394
812.714	4386
812.855	4493
812.997	4409
813.138	4497
813.279	4455
813.421	4432
813.562	4398
813.703	4333
813.845	4322
813.986	4306
814.127	4188
814.268	4306
814.41	4352
814.551	4295
814.692	4344
814.833	4242
814.974	4287
815.115	4363
815.256	4253
815.397	4238
815.539	4276
815.68	4185
815.821	4230
815.962	4310
816.103	4356
816.244	4257
816.385	4223
816.526	4268
816.666	4238
816.807	4150
816.948	4158
817.089	4211
817.23	4154
817.371	4082
817.512	4051
817.653	4090
817.793	4029
817.934	4074
818.075	4120
818.216	4086
818.356	4090
818.497	4051
818.638	3956
818.778	3922
818.919	3915
819.06	3884
819.2	3903
819.341	3880
819.481	3857
819.622	3918
819.762	4051
819.903	3964
820.043	3896
820.184	3899
820.324	3797
820.465	3903
820.605	3880
820.746	3884
820.886	3846
821.026	3987
821.167	3930
821.307	4013
821.447	3983
821.588	3953
821.728	3972
821.868	4002
822.008	3899
822.149	3968
822.289	3934
822.429	3797
822.569	3804
822.709	3808
822.849	3701
822.99	3717
823.13	3774
823.27	3785
823.41	3724
823.55	3766
823.69	3736
823.83	3755
823.97	3705
824.11	3614
824.25	3595
824.389	3701
824.529	3656
824.669	3667
824.809	3713
824.949	3785
825.089	3717
825.228	3671
825.368	3614
825.508	3576
825.648	3576
825.787	3603
825.927	3656
826.067	3675
826.206	3671
826.346	3804
826.485	3873
826.625	3915
826.765	3956
826.904	3888
827.044	3584
827.183	3526
827.323	3466
827.462	3530
827.601	3462
827.741	3439
827.88	3469
828.02	3409
828.159	3492
828.298	3542
828.437	3606
828.577	3481
828.716	3633
828.855	3523
828.994	3397
829.134	3397
829.273	3447
829.412	3382
829.551	3363
829.69	3393
829.829	3439
829.968	3538
830.107	3431
830.246	3485
830.385	3389
830.524	3340
830.663	3329
830.802	3253
830.941	3195
831.08	3218
831.219	3272
831.357	3325
831.496	3424
831.635	3256
831.774	3218
831.913	3222
832.051	3157
832.19	3161
832.329	3211
832.467	3157
832.606	3135
832.744	3188
832.883	3195
833.022	3222
833.16	3260
833.299	3344
833.437	3351
833.576	3389
833.714	3393
833.852	3420
833.991	3473
834.129	3515
834.267	3473
834.406	3443
834.544	3443
834.682	3504
834.821	3439
834.959	3606
835.097	3439
835.235	3564
835.373	3488
835.511	3504
835.65	3462
835.788	3496
835.926	3397
836.064	3374
836.202	3416
836.34	3553
836.478	3625
836.615	3561
836.753	3591
836.891	3637
837.029	3610
837.167	3595
837.305	3576
837.443	3553
837.58	3549
837.718	3610
837.856	3576
837.993	3542
838.131	3587
838.269	3618
838.406	3610
838.544	3568
838.681	3469
838.819	3481
838.956	3420
839.094	3348
839.231	3496
839.369	3519
839.506	3732
839.643	3675
839.781	3553
839.918	3469
840.055	3561
840.193	3557
840.33	3557
840.467	3576
840.604	3629
840.742	3827
840.879	3564
841.016	3561
841.153	3595
841.29	3774
841.427	3747
841.564	3720
841.701	3740
841.838	3720
841.975	3698
842.112	3732
842.249	3618
842.385	3682
842.522	3823
842.659	3682
842.796	3698
842.933	3690
843.069	3709
843.206	3709
843.343	3816
843.479	3778
843.616	3869
843.752	3682
843.889	3698
844.025	3873
844.162	3736
844.298	3816
844.435	3759
844.571	3797
844.708	3915
844.844	3994
844.98	4048
845.117	4010
845.253	3960
845.389	3899
845.525	4017
845.661	4006
845.798	3937
845.934	4025
846.07	3911
846.206	4082
846.342	4124
846.478	4048
846.614	3975
846.75	3975
846.886	3907
847.022	4013
847.158	3960
847.294	4021
847.429	4002
847.565	4025
847.701	4242
847.837	3888
847.972	3831
848.108	4029
848.244	4002
848.379	3873
848.515	3816
848.65	3812
848.786	3861
848.921	3857
849.057	3979
849.192	3994
849.328	3911
849.463	3937
849.598	3892
849.734	3888
849.869	3861
850.004	3800
850.14	3827
850.275	3778
850.41	3743
850.545	3789
850.68	3789
850.815	3800
850.95	3816
851.085	3983
851.22	3865
851.355	3892
851.49	3804
851.625	3819
851.76	3835
851.895	3755
852.03	3724
852.165	3835
852.299	3857
852.434	3903
852.569	3892
852.703	3896
852.838	3960
852.973	3991
853.107	4021
853.242	3922
853.376	3880
853.511	3785
853.645	3865
853.78	4021
853.914	3899
854.048	3930
854.183	3930
854.317	3964
854.451	4078
854.585	3972
854.72	3964
854.854	4036
854.988	3960
855.122	4044
855.256	3903
855.39	3953
855.524	4097
855.658	4093
855.792	4078
855.926	4109
856.06	4219
856.194	4196
856.327	4196
856.461	4109
856.595	4181
856.729	4181
856.862	4295
856.996	4287
857.13	4341
857.263	4352
857.397	4428
857.53	4272
857.664	4375
857.797	4386
857.931	4417
858.064	4402
858.197	4462
858.331	4417
858.464	4409
858.597	4402
858.731	4489
858.864	4489
858.997	4428
859.13	4489
859.263	4542
859.396	4592
859.529	4554
859.662	4569
859.795	4546
859.928	4611
860.061	4721
860.194	4759
860.327	4660
860.46	4683
860.592	4774
860.725	4744
860.858	4790
860.99	4771
861.123	4691
861.256	4714
861.388	4786
861.521	5383
861.653	4748
861.786	4694
861.918	4755
862.05	4805
862.183	4843
862.315	4892
862.447	4946
862.58	4908
862.712	4831
862.844	4801
862.976	4904
863.108	4892
863.24	5250
863.372	4847
863.504	4904
863.636	4968
863.768	5018
863.9	5006
864.032	4923
864.164	4980
864.296	5045
864.428	5083
864.559	5132
864.691	5109
864.823	5140
864.954	5132
865.086	5128
865.217	5117
865.349	5105
865.48	5143
865.612	5223
865.743	5296
865.875	5216
866.006	5208
866.137	5273
866.269	5239
866.4	5223
866.531	5220
866.662	5254
866.793	5318
866.924	5307
867.055	5421
867.186	5364
867.317	5334
867.448	5288
867.579	5337
867.71	5379
867.841	5410
867.972	5414
868.103	5490
868.233	5459
868.364	5543
868.495	5532
868.625	5722
868.756	5745
868.886	5680
869.017	5710
869.147	5866
869.278	5859
869.408	5828
869.539	5847
869.669	5916
869.799	5954
869.929	5980
870.06	6079
870.19	6224
870.32	6197
870.45	6270
870.58	6369
870.71	6418
870.84	6467
870.97	6372
871.1	6441
871.23	6688
871.36	6722
871.489	6730
871.619	6783
871.749	6875
871.879	6894
872.008	7042
872.138	7015
872.267	7027
872.397	6970
872.526	7095
872.656	7126
872.785	7179
872.915	7358
873.044	7499
873.173	7571
873.303	7620
873.432	7708
873.561	7860
873.69	7890
873.819	8035
873.948	8221
874.077	8313
874.206	8320
874.335	8454
874.464	8701
874.593	8834
874.722	8918
874.851	9157
874.979	9226
875.108	9416
875.237	9500
875.365	9572
875.494	9641
875.623	9842
875.751	9827
875.88	10040
876.008	10207
876.136	10287
876.265	10558
876.393	10755
876.521	10744
876.65	10896
876.778	10873
876.906	10892
877.034	11037
877.162	11166
877.29	11098
877.418	11265
877.546	11326
877.674	11562
877.802	11509
877.93	11482
878.058	11642
878.185	11596
878.313	11657
878.441	11699
878.568	11729
878.696	11745
878.824	11870
878.951	11920
879.079	12091
879.206	12175
879.333	12125
879.461	12041
879.588	12079
879.715	12091
879.842	12228
879.97	12155
880.097	11920
880.224	11904
880.351	11946
880.478	11893
880.605	11828
880.732	11866
880.859	12068
880.986	11821
881.112	11931
881.239	11786
881.366	11653
881.493	11619
881.619	11505
881.746	11562
881.872	11493
881.999	11600
882.125	11577
882.252	11596
882.378	11547
882.505	11539
882.631	11455
882.757	11334
882.883	11337
883.01	11292
883.136	11261
883.262	11094
883.388	11109
883.514	11223
883.64	11170
883.766	11075
883.892	11006
884.018	11090
884.143	11094
884.269	11098
884.395	10877
884.52	10771
884.646	10786
884.772	10797
884.897	10656
885.023	10748
885.148	10740
885.274	10774
885.399	10721
885.524	10577
885.65	10641
885.775	10577
885.9	10546
886.025	10531
886.15	10558
886.275	10478
886.4	10371
886.525	10428
886.65	10493
886.775	10417
886.9	10523
887.025	10519
887.149	10432
887.274	10246
887.399	10192
887.523	10204
887.648	10135
887.773	10101
887.897	10284
888.021	10192
888.146	10097
888.27	10192
888.395	10242
888.519	10196
888.643	10173
888.767	10173
888.891	10010
889.015	10067
889.139	10090
889.263	10006
889.387	10048
889.511	10158
889.635	10074
889.759	9964
889.883	10082
890.006	10002
890.13	10131
890.254	9949
890.377	9991
890.501	9846
890.624	9819
890.748	9918
890.871	9812
890.995	9842
891.118	9663
891.241	9819
891.364	9755
891.488	9819
891.611	9819
891.734	9747
891.857	9751
891.98	9740
892.103	9762
892.226	9766
892.349	9720
892.471	9488
892.594	9622
892.717	9629
892.839	9629
892.962	9580
893.085	9679
893.207	9584
893.33	9564
893.452	9526
893.575	9568
893.697	9447
893.819	9694
893.941	9587
894.064	9545
894.186	9526
894.308	9473
894.43	9515
894.552	9614
894.674	9542
894.796	9420
894.918	9469
895.04	9428
895.161	9363
895.283	9363
895.405	9279
895.526	9233
895.648	9222
895.769	9222
895.891	9260
896.012	9245
896.134	9218
896.255	9233
896.376	9138
896.498	9211
896.619	9199
896.74	9135
896.861	9116
896.982	9214
897.103	9329
897.224	9188
897.345	9081
897.466	9013
897.587	9020
897.708	9135
897.828	9009
897.949	8933
898.07	8921
898.19	8914
898.311	9055
898.431	8880
898.552	8925
898.672	9020
898.792	8990
898.913	8944
899.033	8861
899.153	8788
899.273	8655
899.393	8727
899.513	8785
899.633	8762
899.753	8769
899.873	8731
899.993	8750
900.113	8708
900.232	8682
900.352	8655
900.472	8617
900.591	8613
900.711	8674
900.83	8492
900.95	8636
901.069	8663
901.189	8629
901.308	8454
901.427	8434
901.546	8457
901.665	8541
901.784	8492
901.904	8393
902.023	8366
902.141	8317
902.26	8248
902.379	8332
902.498	8351
902.617	8279
902.735	8347
902.854	8294
902.973	8240
903.091	8123
903.21	8149
903.328	8180
903.446	8149
903.565	8081
903.683	8130
903.801	8084
903.919	8100
904.038	8111
904.156	8088
904.274	8073
904.392	7997
904.51	8031
904.627	8111
904.745	8084
904.863	8073
904.981	7913
905.098	7917
905.216	7852
905.334	7925
905.451	7898
905.569	7921
905.686	7902
905.803	7894
905.921	7841
906.038	7894
906.155	7807
906.272	7753
906.389	7799
906.506	7620
906.623	7662
906.74	7632
906.857	7582
906.974	7533
907.091	7647
907.208	7696
907.324	7693
907.441	7632
907.557	7472
907.674	7491
907.79	7339
907.907	7411
908.023	7468
908.139	7460
908.256	7407
908.372	7426
908.488	7392
908.604	7228
908.72	7232
908.836	7217
908.952	7278
909.068	7263
909.184	7297
909.3	7282
909.415	7327
909.531	7213
909.647	7133
909.762	7126
909.878	7103
909.993	7126
910.108	7084
910.224	7175
910.339	7129
910.454	7076
910.57	7008
910.685	6939
910.8	7187
910.915	7088
911.03	7031
911.145	6897
911.259	6920
911.374	6878
911.489	6844
911.604	6867
911.718	6764
911.833	6772
911.947	6662
912.062	6620
912.176	6696
912.291	6768
912.405	6658
912.519	6886
912.633	6878
912.748	6760
912.862	6715
912.976	6692
913.09	6525
913.204	6612
913.318	6620
913.431	6669
913.545	6703
913.659	6730
913.772	6700
913.886	6589
914	6570
914.113	6635
914.226	6684
914.34	6585
914.453	6563
914.566	6601
914.68	6525
914.793	6551
914.906	6441
915.019	6433
915.132	6376
915.245	6464
915.358	6422
915.47	6483
915.583	6494
915.696	6506
915.809	6563
915.921	6570
916.034	6437
916.146	6486
916.259	6361
916.371	6460
916.483	6479
916.595	6433
916.708	6372
916.82	6506
916.932	6422
917.044	6403
917.156	6365
917.268	6369
917.38	6407
917.491	6342
917.603	6361
917.715	6456
917.826	6395
917.938	6357
918.049	6266
918.161	6350
918.272	6460
918.384	6448
918.495	6353
918.606	6254
918.717	6266
918.828	6285
918.939	6235
919.05	6239
919.161	6247
919.272	6152
919.383	6171
919.494	6350
919.604	6483
919.715	6296
919.826	6209
919.936	6296
920.047	6384
920.157	6296
920.267	6486
920.378	6331
920.488	6277
920.598	6445
920.708	6593
920.818	6517
920.928	6509
921.038	6631
921.148	6566
921.258	6414
921.368	6369
921.477	6205
921.587	6254
921.697	6106
921.806	6216
921.916	6057
922.025	5950
922.134	5961
922.244	5916
922.353	5980
922.462	5870
922.571	5817
922.68	5729
922.789	5699
922.898	5703
923.007	5638
923.116	5745
923.224	5741
923.333	5688
923.442	5627
923.55	5585
923.659	5570
923.767	5699
923.876	5566
923.984	5581
924.092	5532
924.201	5566
924.309	5577
924.417	5551
924.525	5516
924.633	5497
924.741	6243
924.849	5360
924.956	5471
925.064	5337
925.172	5284
925.279	5330
925.387	5383
925.494	5318
925.602	5410
925.709	5440
925.816	5292
925.924	5311
926.031	5383
926.138	5349
926.245	5326
926.352	5284
926.459	5326
926.566	5341
926.673	5193
926.779	5124
926.886	5136
926.993	5029
927.099	5045
927.206	5014
927.312	5003
927.419	5041
927.525	4999
927.631	5006
927.737	4927
927.843	4885
927.95	4801
928.056	4805
928.162	4812
928.267	4911
928.373	5349
928.479	4881
928.585	4694
928.69	4816
928.796	4820
928.901	4717
929.007	4637
929.112	4687
929.218	4637
929.323	4641
929.428	4527
929.533	4710
929.638	4516
929.743	4615
929.848	4542
929.953	4523
930.058	4443
930.163	4356
930.267	4383
930.372	4432
930.477	4344
930.581	4527
930.685	4352
930.79	4322
930.894	4318
930.998	4238
931.103	4386
931.207	4166
931.311	4101
931.415	4097
931.519	3941
931.623	3975
