Data from glass_V78500241_2632.txt Node
Date: Wed Sep 01 19:32:44 CST 2021
User: usil
Spectrometer: V785-0024
Trigger mode: 0
Integration Time (sec): 4.000000E-1
Scans to average: 1
Nonlinearity correction enabled: false
Boxcar width: 0
Storing dark spectrum: false
XAxis mode: Wavelengths
Number of Pixels in Spectrum: 1024
>>>>>Begin Spectral Data<<<<<
801.071	3717
801.214	3724
801.356	3705
801.499	3705
801.641	3675
801.783	3751
801.926	3873
802.068	3793
802.211	3846
802.353	3880
802.496	3857
802.638	3876
802.78	3888
802.923	3903
803.065	3937
803.208	3838
803.35	3865
803.492	3888
803.635	3899
803.777	3785
803.919	3869
804.061	4162
804.204	3934
804.346	3926
804.488	3941
804.63	4021
804.773	3960
804.915	3998
805.057	4177
805.199	4032
805.341	4109
805.483	4109
805.626	4097
805.768	4124
805.91	4227
806.052	4188
806.194	4173
806.336	4375
806.478	4188
806.62	4150
806.762	4188
806.904	4223
807.046	4329
807.188	4207
807.33	4147
807.472	4249
807.614	4211
807.756	4253
807.898	4223
808.04	4211
808.182	4265
808.324	4276
808.465	4390
808.607	4455
808.749	4440
808.891	4440
809.033	4455
809.174	4371
809.316	4265
809.458	4253
809.6	4128
809.741	4131
809.883	4086
810.025	4204
810.166	4223
810.308	4204
810.45	4234
810.591	4223
810.733	4272
810.875	4554
811.016	4786
811.158	5132
811.299	5269
811.441	5265
811.582	5071
811.724	4679
811.865	4470
812.007	4447
812.148	4405
812.29	4386
812.431	4440
812.573	4386
812.714	4383
812.855	4386
812.997	4398
813.138	4443
813.279	4402
813.421	4367
813.562	4424
813.703	4333
813.845	4325
813.986	4249
814.127	4238
814.268	4219
814.41	4257
814.551	4268
814.692	4329
814.833	4253
814.974	4287
815.115	4295
815.256	4287
815.397	4253
815.539	4268
815.68	4207
815.821	4211
815.962	4318
816.103	4219
816.244	4257
816.385	4230
816.526	4299
816.666	4162
816.807	4112
816.948	4135
817.089	4154
817.23	4109
817.371	4055
817.512	4059
817.653	4059
817.793	4044
817.934	4029
818.075	4048
818.216	4071
818.356	4078
818.497	4010
818.638	3937
818.778	3899
818.919	3934
819.06	3850
819.2	3896
819.341	3854
819.481	3869
819.622	3911
819.762	3987
819.903	3926
820.043	3850
820.184	3797
820.324	3812
820.465	3869
820.605	3854
820.746	3876
820.886	3781
821.026	3918
821.167	3888
821.307	3964
821.447	3991
821.588	3972
821.728	3975
821.868	3918
822.008	3838
822.149	3892
822.289	3918
822.429	3789
822.569	3785
822.709	3819
822.849	3667
822.99	3705
823.13	3717
823.27	3770
823.41	3682
823.55	3717
823.69	3724
823.83	3682
823.97	3633
824.11	3595
824.25	3587
824.389	3641
824.529	3679
824.669	3599
824.809	3724
824.949	3751
825.089	3686
825.228	3671
825.368	3534
825.508	3557
825.648	3523
825.787	3580
825.927	3606
826.067	3625
826.206	3656
826.346	3797
826.485	3823
826.625	3865
826.765	3918
826.904	3823
827.044	3587
827.183	3538
827.323	3351
827.462	3481
827.601	3405
827.741	3409
827.88	3431
828.02	3393
828.159	3447
828.298	3435
828.437	3519
828.577	3466
828.716	3591
828.855	3488
828.994	3374
829.134	3355
829.273	3393
829.412	3348
829.551	3325
829.69	3348
829.829	3412
829.968	3511
830.107	3462
830.246	3450
830.385	3374
830.524	3374
830.663	3321
830.802	3264
830.941	3214
831.08	3119
831.219	3256
831.357	3264
831.496	3389
831.635	3214
831.774	3161
831.913	3180
832.051	3104
832.19	3119
832.329	3195
832.467	3112
832.606	3081
832.744	3176
832.883	3154
833.022	3169
833.16	3218
833.299	3294
833.437	3310
833.576	3351
833.714	3393
833.852	3420
833.991	3424
834.129	3469
834.267	3443
834.406	3401
834.544	3386
834.682	3439
834.821	3382
834.959	3561
835.097	3435
835.235	3511
835.373	3488
835.511	3477
835.65	3450
835.788	3462
835.926	3367
836.064	3386
836.202	3378
836.34	3572
836.478	3591
836.615	3511
836.753	3591
836.891	3629
837.029	3603
837.167	3595
837.305	3561
837.443	3530
837.58	3511
837.718	3584
837.856	3549
837.993	3519
838.131	3564
838.269	3595
838.406	3587
838.544	3568
838.681	3435
838.819	3454
838.956	3389
839.094	3405
839.231	3431
839.369	3500
839.506	3682
839.643	3599
839.781	3485
839.918	3443
840.055	3492
840.193	3515
840.33	3557
840.467	3538
840.604	3587
840.742	3823
840.879	3504
841.016	3576
841.153	3587
841.29	3720
841.427	3709
841.564	3652
841.701	3709
841.838	3705
841.975	3694
842.112	3682
842.249	3663
842.385	3595
842.522	3816
842.659	3675
842.796	3629
842.933	3728
843.069	3709
843.206	3717
843.343	3816
843.479	3774
843.616	3804
843.752	3701
843.889	3679
844.025	3816
844.162	3709
844.298	3873
844.435	3751
844.571	3785
844.708	3850
844.844	3949
844.98	4006
845.117	3998
845.253	3896
845.389	3888
845.525	3953
845.661	3960
845.798	3922
845.934	3987
846.07	3922
846.206	4051
846.342	4086
846.478	4040
846.614	3956
846.75	3880
846.886	3915
847.022	4013
847.158	3945
847.294	3991
847.429	4040
847.565	3968
847.701	4211
847.837	3861
847.972	3838
848.108	3960
848.244	3953
848.379	3857
848.515	3819
848.65	3781
848.786	3861
848.921	3842
849.057	3896
849.192	3953
849.328	3865
849.463	3953
849.598	3861
849.734	3861
849.869	3797
850.004	3770
850.14	3816
850.275	3789
850.41	3740
850.545	3736
850.68	3747
850.815	3819
850.95	3774
851.085	3934
851.22	3884
851.355	3846
851.49	3793
851.625	3800
851.76	3781
851.895	3724
852.03	3717
852.165	3755
852.299	3819
852.434	3911
852.569	3861
852.703	3865
852.838	3930
852.973	3975
853.107	3968
853.242	3873
853.376	3842
853.511	3743
853.645	3819
853.78	4010
853.914	3907
854.048	3869
854.183	3911
854.317	3956
854.451	4036
854.585	3960
854.72	3926
854.854	3994
854.988	3926
855.122	3972
855.256	3861
855.39	4006
855.524	4082
855.658	4078
855.792	4086
855.926	4093
856.06	4135
856.194	4173
856.327	4124
856.461	4162
856.595	4188
856.729	4169
856.862	4299
856.996	4215
857.13	4257
857.263	4291
857.397	4348
857.53	4246
857.664	4341
857.797	4341
857.931	4424
858.064	4337
858.197	4451
858.331	4390
858.464	4379
858.597	4333
858.731	4413
858.864	4440
858.997	4371
859.13	4478
859.263	4466
859.396	4538
859.529	4519
859.662	4569
859.795	4497
859.928	4580
860.061	4687
860.194	4714
860.327	4645
860.46	4615
860.592	4710
860.725	4744
860.858	4744
860.99	4702
861.123	4706
861.256	4664
861.388	4736
861.521	5322
861.653	4717
861.786	4698
861.918	4752
862.05	4752
862.183	4820
862.315	4835
862.447	4904
862.58	4866
862.712	4805
862.844	4763
862.976	4831
863.108	4930
863.24	5246
863.372	4763
863.504	4904
863.636	4892
863.768	4915
863.9	4984
864.032	4923
864.164	4938
864.296	5033
864.428	5083
864.559	5098
864.691	5128
864.823	5159
864.954	5124
865.086	5098
865.217	5140
865.349	5113
865.48	5102
865.612	5212
865.743	5326
865.875	5147
866.006	5174
866.137	5242
866.269	5178
866.4	5261
866.531	5208
866.662	5227
866.793	5242
866.924	5303
867.055	5322
867.186	5349
867.317	5326
867.448	5280
867.579	5353
867.71	5425
867.841	5353
867.972	5440
868.103	5471
868.233	5471
868.364	5516
868.495	5528
868.625	5665
868.756	5771
868.886	5661
869.017	5722
869.147	5824
869.278	5832
869.408	5786
869.539	5851
869.669	5916
869.799	5897
869.929	5988
870.06	6045
870.19	6178
870.32	6159
870.45	6251
870.58	6308
870.71	6407
870.84	6380
870.97	6399
871.1	6429
871.23	6639
871.36	6665
871.489	6662
871.619	6722
871.749	6787
871.879	6901
872.008	6932
872.138	6924
872.267	7008
872.397	6916
872.526	7046
872.656	7095
872.785	7190
872.915	7407
873.044	7434
873.173	7632
873.303	7559
873.432	7731
873.561	7845
873.69	7894
873.819	8046
873.948	8153
874.077	8225
874.206	8298
874.335	8442
874.464	8693
874.593	8853
874.722	8941
874.851	9066
874.979	9260
875.108	9401
875.237	9431
875.365	9477
875.494	9561
875.623	9835
875.751	9884
875.88	10006
876.008	10169
876.136	10284
876.265	10565
876.393	10706
876.521	10740
876.65	10843
876.778	10809
876.906	10824
877.034	11006
877.162	11075
877.29	11231
877.418	11277
877.546	11383
877.674	11387
877.802	11532
877.93	11554
878.058	11539
878.185	11570
878.313	11642
878.441	11752
878.568	11661
878.696	11767
878.824	11855
878.951	11973
879.079	11988
879.206	12110
879.333	12045
879.461	12038
879.588	12011
879.715	12019
879.842	12205
879.97	12060
880.097	11828
880.224	11870
880.351	11904
880.478	11878
880.605	11870
880.732	11866
880.859	12019
880.986	11912
881.112	11824
881.239	11737
881.366	11695
881.493	11699
881.619	11551
881.746	11627
881.872	11528
881.999	11478
882.125	11478
882.252	11596
882.378	11429
882.505	11589
882.631	11360
882.757	11337
882.883	11318
883.01	11280
883.136	11239
883.262	11094
883.388	11124
883.514	11136
883.64	11090
883.766	11102
883.892	10953
884.018	10949
884.143	11086
884.269	11098
884.395	10725
884.52	10805
884.646	10801
884.772	10599
884.897	10653
885.023	10630
885.148	10675
885.274	10687
885.399	10702
885.524	10508
885.65	10550
885.775	10569
885.9	10577
886.025	10561
886.15	10523
886.275	10443
886.4	10394
886.525	10424
886.65	10402
886.775	10344
886.9	10504
887.025	10462
887.149	10337
887.274	10154
887.399	10227
887.523	10071
887.648	10131
887.773	10051
887.897	10249
888.021	10177
888.146	10101
888.27	10215
888.395	10257
888.519	10154
888.643	10147
888.767	10265
888.891	10139
889.015	9975
889.139	10082
889.263	9949
889.387	10093
889.511	10090
889.635	10074
889.759	9876
889.883	9960
890.006	9956
890.13	10078
890.254	9899
890.377	9926
890.501	9880
890.624	9880
890.748	9956
890.871	9740
890.995	9785
891.118	9656
891.241	9819
891.364	9751
891.488	9846
891.611	9705
891.734	9736
891.857	9793
891.98	9766
892.103	9797
892.226	9740
892.349	9686
892.471	9538
892.594	9637
892.717	9568
892.839	9625
892.962	9690
893.085	9625
893.207	9584
893.33	9538
893.452	9420
893.575	9587
893.697	9542
893.819	9603
893.941	9584
894.064	9603
894.186	9355
894.308	9340
894.43	9519
894.552	9526
894.674	9557
894.796	9332
894.918	9408
895.04	9359
895.161	9408
895.283	9348
895.405	9222
895.526	9275
895.648	9207
895.769	9211
895.891	9222
896.012	9268
896.134	9344
896.255	9211
896.376	9233
896.498	9154
896.619	9142
896.74	9055
896.861	9138
896.982	9272
897.103	9291
897.224	9184
897.345	9043
897.466	8979
897.587	8979
897.708	9184
897.828	9013
897.949	8918
898.07	8868
898.19	8921
898.311	8994
898.431	8872
898.552	8918
898.672	9001
898.792	8979
898.913	8918
899.033	8823
899.153	8678
899.273	8644
899.393	8644
899.513	8792
899.633	8678
899.753	8758
899.873	8651
899.993	8667
900.113	8716
900.232	8705
900.352	8701
900.472	8606
900.591	8552
900.711	8625
900.83	8575
900.95	8712
901.069	8651
901.189	8518
901.308	8393
901.427	8412
901.546	8332
901.665	8377
901.784	8503
901.904	8400
902.023	8317
902.141	8309
902.26	8157
902.379	8263
902.498	8187
902.617	8168
902.735	8256
902.854	8336
902.973	8240
903.091	8123
903.21	8149
903.328	8168
903.446	8103
903.565	8088
903.683	8142
903.801	7989
903.919	8195
904.038	8107
904.156	8027
904.274	8069
904.392	8008
904.51	7989
904.627	7997
904.745	8092
904.863	8054
904.981	7997
905.098	7883
905.216	7906
905.334	7947
905.451	7913
905.569	7852
905.686	7860
905.803	7913
905.921	7803
906.038	7807
906.155	7757
906.272	7731
906.389	7647
906.506	7666
906.623	7624
906.74	7655
906.857	7582
906.974	7582
907.091	7624
907.208	7704
907.324	7639
907.441	7544
907.557	7518
907.674	7464
907.79	7365
907.907	7369
908.023	7411
908.139	7449
908.256	7388
908.372	7354
908.488	7339
908.604	7236
908.72	7202
908.836	7289
908.952	7263
909.068	7190
909.184	7259
909.3	7240
909.415	7263
909.531	7270
909.647	7057
909.762	7099
909.878	7145
909.993	7099
910.108	7168
910.224	7053
910.339	7122
910.454	7042
910.57	7027
910.685	6993
910.8	7114
910.915	7107
911.03	7023
911.145	6894
911.259	6863
911.374	6890
911.489	6802
911.604	6730
911.718	6760
911.833	6715
911.947	6612
912.062	6601
912.176	6681
912.291	6703
912.405	6681
912.519	6787
912.633	6783
912.748	6692
912.862	6719
912.976	6597
913.09	6502
913.204	6525
913.318	6536
913.431	6669
913.545	6662
913.659	6745
913.772	6601
913.886	6574
914	6490
914.113	6616
914.226	6608
914.34	6578
914.453	6448
914.566	6612
914.68	6555
914.793	6532
914.906	6357
915.019	6369
915.132	6376
915.245	6395
915.358	6399
915.47	6410
915.583	6486
915.696	6506
915.809	6540
915.921	6517
916.034	6418
916.146	6384
916.259	6437
916.371	6479
916.483	6471
916.595	6350
916.708	6429
916.82	6399
916.932	6403
917.044	6395
917.156	6376
917.268	6353
917.38	6346
917.491	6289
917.603	6319
917.715	6410
917.826	6403
917.938	6292
918.049	6205
918.161	6304
918.272	6407
918.384	6429
918.495	6292
918.606	6220
918.717	6182
918.828	6205
918.939	6216
919.05	6209
919.161	6209
919.272	6038
919.383	6136
919.494	6319
919.604	6429
919.715	6281
919.826	6190
919.936	6285
920.047	6357
920.157	6292
920.267	6437
920.378	6300
920.488	6319
920.598	6426
920.708	6563
920.818	6483
920.928	6456
921.038	6669
921.148	6544
921.258	6338
921.368	6304
921.477	6167
921.587	6129
921.697	6034
921.806	6129
921.916	6011
922.025	5904
922.134	5923
922.244	5904
922.353	5931
922.462	5851
922.571	5771
922.68	5718
922.789	5642
922.898	5722
923.007	5592
923.116	5737
923.224	5695
923.333	5646
923.442	5611
923.55	5608
923.659	5608
923.767	5627
923.876	5558
923.984	5581
924.092	5433
924.201	5509
924.309	5543
924.417	5539
924.525	5459
924.633	5482
924.741	6205
924.849	5398
924.956	5459
925.064	5349
925.172	5299
925.279	5296
925.387	5379
925.494	5303
925.602	5429
925.709	5372
925.816	5204
925.924	5307
926.031	5364
926.138	5261
926.245	5265
926.352	5193
926.459	5349
926.566	5299
926.673	5204
926.779	5151
926.886	5090
926.993	5025
927.099	5025
927.206	4919
927.312	4923
927.419	5006
927.525	4953
927.631	4999
927.737	4896
927.843	4812
927.95	4790
928.056	4809
928.162	4824
928.267	4831
928.373	5349
928.479	4862
928.585	4691
928.69	4740
928.796	4748
928.901	4698
929.007	4588
929.112	4679
929.218	4630
929.323	4569
929.428	4580
929.533	4672
929.638	4485
929.743	4558
929.848	4561
929.953	4497
930.058	4455
930.163	4314
930.267	4306
930.372	4409
930.477	4310
930.581	4493
930.685	4367
930.79	4253
930.894	4242
930.998	4272
931.103	4432
931.207	4128
931.311	4086
931.415	4074
931.519	3861
931.623	3907
