Data from glass_V78500241_1221.txt Node
Date: Wed Sep 01 19:22:57 CST 2021
User: usil
Spectrometer: V785-0024
Trigger mode: 0
Integration Time (sec): 4.000000E-1
Scans to average: 1
Nonlinearity correction enabled: false
Boxcar width: 0
Storing dark spectrum: false
XAxis mode: Wavelengths
Number of Pixels in Spectrum: 1024
>>>>>Begin Spectral Data<<<<<
801.071	3743
801.214	3740
801.356	3717
801.499	3751
801.641	3698
801.783	3770
801.926	3857
802.068	3854
802.211	3861
802.353	3865
802.496	3838
802.638	3873
802.78	3956
802.923	3987
803.065	3876
803.208	3918
803.35	3876
803.492	3949
803.635	3869
803.777	3781
803.919	3857
804.061	4124
804.204	3960
804.346	3979
804.488	3960
804.63	4097
804.773	3991
804.915	4032
805.057	4196
805.199	4051
805.341	4074
805.483	4169
805.626	4124
805.768	4147
805.91	4207
806.052	4306
806.194	4230
806.336	4314
806.478	4196
806.62	4196
806.762	4147
806.904	4272
807.046	4379
807.188	4242
807.33	4154
807.472	4276
807.614	4139
807.756	4242
807.898	4227
808.04	4215
808.182	4344
808.324	4329
808.465	4394
808.607	4421
808.749	4443
808.891	4527
809.033	4535
809.174	4413
809.316	4284
809.458	4257
809.6	4188
809.741	4150
809.883	4169
810.025	4230
810.166	4246
810.308	4173
810.45	4215
810.591	4196
810.733	4322
810.875	4497
811.016	4816
811.158	5136
811.299	5242
811.441	5250
811.582	5102
811.724	4717
811.865	4481
812.007	4485
812.148	4409
812.29	4455
812.431	4440
812.573	4413
812.714	4386
812.855	4459
812.997	4421
813.138	4478
813.279	4424
813.421	4371
813.562	4409
813.703	4352
813.845	4333
813.986	4261
814.127	4246
814.268	4287
814.41	4299
814.551	4280
814.692	4360
814.833	4287
814.974	4325
815.115	4371
815.256	4246
815.397	4238
815.539	4200
815.68	4188
815.821	4204
815.962	4329
816.103	4295
816.244	4242
816.385	4238
816.526	4333
816.666	4196
816.807	4128
816.948	4249
817.089	4185
817.23	4150
817.371	4063
817.512	4013
817.653	4078
817.793	4048
817.934	4063
818.075	4093
818.216	4086
818.356	4086
818.497	3998
818.638	3899
818.778	3968
818.919	3884
819.06	3865
819.2	3899
819.341	3865
819.481	3842
819.622	3907
819.762	4021
819.903	3987
820.043	3861
820.184	3857
820.324	3827
820.465	3880
820.605	3930
820.746	3884
820.886	3808
821.026	3945
821.167	3934
821.307	3949
821.447	4013
821.588	3953
821.728	3941
821.868	3953
822.008	3846
822.149	3922
822.289	3930
822.429	3827
822.569	3762
822.709	3808
822.849	3694
822.99	3675
823.13	3785
823.27	3797
823.41	3751
823.55	3747
823.69	3724
823.83	3793
823.97	3682
824.11	3614
824.25	3580
824.389	3633
824.529	3694
824.669	3587
824.809	3728
824.949	3724
825.089	3778
825.228	3671
825.368	3553
825.508	3553
825.648	3542
825.787	3584
825.927	3633
826.067	3663
826.206	3671
826.346	3781
826.485	3831
826.625	3827
826.765	4002
826.904	3808
827.044	3591
827.183	3553
827.323	3443
827.462	3557
827.601	3412
827.741	3450
827.88	3473
828.02	3409
828.159	3466
828.298	3492
828.437	3523
828.577	3431
828.716	3584
828.855	3511
828.994	3393
829.134	3359
829.273	3447
829.412	3336
829.551	3393
829.69	3370
829.829	3439
829.968	3534
830.107	3500
830.246	3439
830.385	3416
830.524	3321
830.663	3287
830.802	3264
830.941	3207
831.08	3184
831.219	3237
831.357	3291
831.496	3416
831.635	3249
831.774	3180
831.913	3199
832.051	3157
832.19	3112
832.329	3233
832.467	3135
832.606	3108
832.744	3173
832.883	3161
833.022	3188
833.16	3264
833.299	3340
833.437	3306
833.576	3416
833.714	3397
833.852	3450
833.991	3481
834.129	3511
834.267	3473
834.406	3450
834.544	3458
834.682	3393
834.821	3386
834.959	3584
835.097	3450
835.235	3511
835.373	3492
835.511	3515
835.65	3481
835.788	3523
835.926	3412
836.064	3386
836.202	3412
836.34	3561
836.478	3625
836.615	3557
836.753	3599
836.891	3663
837.029	3641
837.167	3584
837.305	3572
837.443	3526
837.58	3511
837.718	3625
837.856	3580
837.993	3568
838.131	3606
838.269	3606
838.406	3591
838.544	3568
838.681	3466
838.819	3439
838.956	3367
839.094	3397
839.231	3416
839.369	3526
839.506	3732
839.643	3637
839.781	3534
839.918	3473
840.055	3473
840.193	3580
840.33	3538
840.467	3549
840.604	3572
840.742	3816
840.879	3557
841.016	3576
841.153	3629
841.29	3789
841.427	3694
841.564	3747
841.701	3728
841.838	3724
841.975	3682
842.112	3690
842.249	3637
842.385	3648
842.522	3808
842.659	3717
842.796	3671
842.933	3720
843.069	3713
843.206	3743
843.343	3793
843.479	3751
843.616	3838
843.752	3682
843.889	3709
844.025	3892
844.162	3770
844.298	3850
844.435	3778
844.571	3705
844.708	3930
844.844	4025
844.98	4032
845.117	4002
845.253	3907
845.389	3892
845.525	3937
845.661	3960
845.798	3926
845.934	4029
846.07	3945
846.206	3991
846.342	4093
846.478	4090
846.614	3994
846.75	3941
846.886	3880
847.022	4013
847.158	3972
847.294	3953
847.429	4006
847.565	3956
847.701	4219
847.837	3846
847.972	3899
848.108	3994
848.244	3991
848.379	3857
848.515	3816
848.65	3800
848.786	3857
848.921	3869
849.057	3907
849.192	3926
849.328	3918
849.463	3934
849.598	3911
849.734	3899
849.869	3850
850.004	3808
850.14	3827
850.275	3781
850.41	3781
850.545	3720
850.68	3793
850.815	3812
850.95	3778
851.085	3930
851.22	3869
851.355	3823
851.49	3789
851.625	3759
851.76	3846
851.895	3778
852.03	3766
852.165	3785
852.299	3873
852.434	3949
852.569	3892
852.703	3873
852.838	3953
852.973	4017
853.107	3998
853.242	3945
853.376	3922
853.511	3800
853.645	3873
853.78	3922
853.914	3869
854.048	3907
854.183	3903
854.317	3956
854.451	4078
854.585	3994
854.72	3930
854.854	4040
854.988	3987
855.122	4017
855.256	3918
855.39	4013
855.524	4109
855.658	4154
855.792	4116
855.926	4162
856.06	4196
856.194	4246
856.327	4135
856.461	4116
856.595	4139
856.729	4227
856.862	4257
856.996	4253
857.13	4352
857.263	4371
857.397	4371
857.53	4291
857.664	4367
857.797	4413
857.931	4440
858.064	4352
858.197	4508
858.331	4371
858.464	4394
858.597	4360
858.731	4455
858.864	4478
858.997	4443
859.13	4554
859.263	4550
859.396	4565
859.529	4535
859.662	4523
859.795	4569
859.928	4641
860.061	4717
860.194	4759
860.327	4649
860.46	4641
860.592	4752
860.725	4771
860.858	4748
860.99	4698
861.123	4717
861.256	4679
861.388	4752
861.521	5246
861.653	4710
861.786	4702
861.918	4736
862.05	4782
862.183	4835
862.315	4847
862.447	4934
862.58	4919
862.712	4801
862.844	4866
862.976	4820
863.108	4847
863.24	5189
863.372	4831
863.504	4904
863.636	4915
863.768	4942
863.9	4961
864.032	4919
864.164	4991
864.296	5041
864.428	5086
864.559	5132
864.691	5113
864.823	5083
864.954	5151
865.086	5155
865.217	5147
865.349	5117
865.48	5178
865.612	5239
865.743	5299
865.875	5269
866.006	5174
866.137	5223
866.269	5231
866.4	5239
866.531	5258
866.662	5273
866.793	5277
866.924	5326
867.055	5376
867.186	5303
867.317	5372
867.448	5337
867.579	5433
867.71	5368
867.841	5452
867.972	5490
868.103	5474
868.233	5482
868.364	5501
868.495	5512
868.625	5653
868.756	5783
868.886	5714
869.017	5680
869.147	5847
869.278	5882
869.408	5790
869.539	5832
869.669	5908
869.799	5931
869.929	5965
870.06	5996
870.19	6178
870.32	6213
870.45	6308
870.58	6323
870.71	6441
870.84	6483
870.97	6395
871.1	6467
871.23	6665
871.36	6688
871.489	6681
871.619	6779
871.749	6802
871.879	6958
872.008	6939
872.138	6993
872.267	7015
872.397	7012
872.526	7031
872.656	7099
872.785	7168
872.915	7377
873.044	7514
873.173	7510
873.303	7616
873.432	7772
873.561	7849
873.69	7887
873.819	8058
873.948	8187
874.077	8233
874.206	8343
874.335	8473
874.464	8655
874.593	8914
874.722	8906
874.851	9108
874.979	9226
875.108	9428
875.237	9443
875.365	9500
875.494	9644
875.623	9888
875.751	9797
875.88	10021
876.008	10188
876.136	10329
876.265	10527
876.393	10729
876.521	10740
876.65	10869
876.778	10850
876.906	10949
877.034	10995
877.162	11151
877.29	11105
877.418	11368
877.546	11303
877.674	11410
877.802	11459
877.93	11512
878.058	11573
878.185	11577
878.313	11672
878.441	11805
878.568	11619
878.696	11767
878.824	11745
878.951	11946
879.079	12030
879.206	12144
879.333	12087
879.461	11984
879.588	12053
879.715	12060
879.842	12247
879.97	12102
880.097	11904
880.224	11889
880.351	11885
880.478	11942
880.605	11878
880.732	11870
880.859	11984
880.986	11798
881.112	11885
881.239	11794
881.366	11657
881.493	11661
881.619	11493
881.746	11535
881.872	11623
881.999	11535
882.125	11421
882.252	11623
882.378	11414
882.505	11501
882.631	11478
882.757	11296
882.883	11345
883.01	11170
883.136	11170
883.262	11113
883.388	11083
883.514	11170
883.64	11174
883.766	11079
883.892	11105
884.018	10972
884.143	11113
884.269	11159
884.395	10869
884.52	10763
884.646	10767
884.772	10721
884.897	10611
885.023	10698
885.148	10706
885.274	10797
885.399	10767
885.524	10611
885.65	10611
885.775	10569
885.9	10554
886.025	10603
886.15	10596
886.275	10466
886.4	10379
886.525	10367
886.65	10402
886.775	10375
886.9	10519
887.025	10447
887.149	10371
887.274	10211
887.399	10105
887.523	10238
887.648	10284
887.773	10200
887.897	10238
888.021	10246
888.146	10086
888.27	10215
888.395	10207
888.519	10200
888.643	10207
888.767	10192
888.891	10078
889.015	10082
889.139	9991
889.263	9949
889.387	10109
889.511	10093
889.635	10166
889.759	9975
889.883	10006
890.006	10021
890.13	10135
890.254	9979
890.377	9994
890.501	9895
890.624	9880
890.748	9949
890.871	9857
890.995	9793
891.118	9705
891.241	9759
891.364	9728
891.488	9816
891.611	9797
891.734	9774
891.857	9747
891.98	9793
892.103	9835
892.226	9732
892.349	9667
892.471	9530
892.594	9587
892.717	9618
892.839	9591
892.962	9641
893.085	9656
893.207	9591
893.33	9538
893.452	9549
893.575	9671
893.697	9526
893.819	9614
893.941	9610
894.064	9553
894.186	9447
894.308	9443
894.43	9526
894.552	9542
894.674	9511
894.796	9447
894.918	9359
895.04	9428
895.161	9408
895.283	9332
895.405	9294
895.526	9241
895.648	9195
895.769	9264
895.891	9275
896.012	9332
896.134	9237
896.255	9131
896.376	9108
896.498	9180
896.619	9180
896.74	9051
896.861	9131
896.982	9249
897.103	9298
897.224	9222
897.345	9085
897.466	9013
897.587	9043
897.708	9165
897.828	8982
897.949	8944
898.07	8857
898.19	8910
898.311	9039
898.431	8963
898.552	8948
898.672	9036
898.792	8975
898.913	8963
899.033	8849
899.153	8727
899.273	8697
899.393	8727
899.513	8762
899.633	8750
899.753	8720
899.873	8697
899.993	8708
900.113	8724
900.232	8735
900.352	8708
900.472	8606
900.591	8617
900.711	8651
900.83	8560
900.95	8663
901.069	8701
901.189	8590
901.308	8469
901.427	8423
901.546	8419
901.665	8514
901.784	8442
901.904	8355
902.023	8419
902.141	8263
902.26	8244
902.379	8332
902.498	8259
902.617	8214
902.735	8305
902.854	8237
902.973	8259
903.091	8119
903.21	8183
903.328	8142
903.446	8111
903.565	8103
903.683	8142
903.801	8111
903.919	8050
904.038	8199
904.156	8073
904.274	8096
904.392	8054
904.51	8016
904.627	8054
904.745	8027
904.863	8115
904.981	7986
905.098	7871
905.216	7906
905.334	7955
905.451	7947
905.569	7830
905.686	7917
905.803	7868
905.921	7795
906.038	7932
906.155	7841
906.272	7700
906.389	7704
906.506	7620
906.623	7715
906.74	7605
906.857	7548
906.974	7632
907.091	7677
907.208	7742
907.324	7662
907.441	7582
907.557	7502
907.674	7430
907.79	7430
907.907	7392
908.023	7453
908.139	7453
908.256	7487
908.372	7350
908.488	7381
908.604	7282
908.72	7266
908.836	7289
908.952	7190
909.068	7285
909.184	7335
909.3	7228
909.415	7297
909.531	7343
909.647	7129
909.762	7145
909.878	7061
909.993	7076
910.108	7084
910.224	7076
910.339	7103
910.454	7069
910.57	7012
910.685	6970
910.8	7129
910.915	7107
911.03	7027
911.145	6932
911.259	6852
911.374	6901
911.489	6856
911.604	6802
911.718	6741
911.833	6753
911.947	6677
912.062	6646
912.176	6726
912.291	6726
912.405	6726
912.519	6772
912.633	6852
912.748	6757
912.862	6749
912.976	6589
913.09	6513
913.204	6616
913.318	6620
913.431	6692
913.545	6703
913.659	6688
913.772	6665
913.886	6574
914	6627
914.113	6604
914.226	6631
914.34	6601
914.453	6471
914.566	6654
914.68	6506
914.793	6525
914.906	6407
915.019	6467
915.132	6384
915.245	6426
915.358	6460
915.47	6464
915.583	6456
915.696	6498
915.809	6536
915.921	6574
916.034	6426
916.146	6403
916.259	6391
916.371	6494
916.483	6517
916.595	6426
916.708	6403
916.82	6467
916.932	6407
917.044	6483
917.156	6422
917.268	6273
917.38	6391
917.491	6346
917.603	6308
917.715	6372
917.826	6475
917.938	6391
918.049	6235
918.161	6395
918.272	6456
918.384	6399
918.495	6380
918.606	6292
918.717	6281
918.828	6258
918.939	6281
919.05	6254
919.161	6220
919.272	6163
919.383	6175
919.494	6281
919.604	6391
919.715	6308
919.826	6232
919.936	6251
920.047	6369
920.157	6292
920.267	6528
920.378	6273
920.488	6334
920.598	6464
920.708	6540
920.818	6433
920.928	6433
921.038	6574
921.148	6585
921.258	6391
921.368	6331
921.477	6254
921.587	6197
921.697	6133
921.806	6194
921.916	6064
922.025	5973
922.134	5916
922.244	5870
922.353	5999
922.462	5893
922.571	5775
922.68	5668
922.789	5668
922.898	5707
923.007	5661
923.116	5752
923.224	5672
923.333	5665
923.442	5611
923.55	5615
923.659	5573
923.767	5688
923.876	5604
923.984	5642
924.092	5478
924.201	5566
924.309	5516
924.417	5604
924.525	5486
924.633	5524
924.741	6254
924.849	5318
924.956	5497
925.064	5391
925.172	5299
925.279	5337
925.387	5391
925.494	5277
925.602	5425
925.709	5402
925.816	5318
925.924	5296
926.031	5406
926.138	5288
926.245	5299
926.352	5288
926.459	5334
926.566	5334
926.673	5250
926.779	5181
926.886	5098
926.993	5052
927.099	4991
927.206	4980
927.312	4953
927.419	4972
927.525	5037
927.631	4999
927.737	4908
927.843	4858
927.95	4797
928.056	4854
928.162	4847
928.267	4892
928.373	5383
928.479	4892
928.585	4710
928.69	4721
928.796	4710
928.901	4714
929.007	4599
929.112	4645
929.218	4630
929.323	4634
929.428	4618
929.533	4683
929.638	4554
929.743	4573
929.848	4588
929.953	4569
930.058	4451
930.163	4341
930.267	4398
930.372	4428
930.477	4303
930.581	4470
930.685	4348
930.79	4276
930.894	4322
930.998	4238
931.103	4409
931.207	4196
931.311	4078
931.415	4059
931.519	3915
931.623	3972
