Data from glass_V78500241_879.txt Node
Date: Wed Sep 01 19:20:35 CST 2021
User: usil
Spectrometer: V785-0024
Trigger mode: 0
Integration Time (sec): 4.000000E-1
Scans to average: 1
Nonlinearity correction enabled: false
Boxcar width: 0
Storing dark spectrum: false
XAxis mode: Wavelengths
Number of Pixels in Spectrum: 1024
>>>>>Begin Spectral Data<<<<<
801.071	3740
801.214	3709
801.356	3701
801.499	3740
801.641	3751
801.783	3759
801.926	3876
802.068	3865
802.211	3899
802.353	3888
802.496	3819
802.638	3907
802.78	3880
802.923	3911
803.065	3915
803.208	3861
803.35	3880
803.492	3934
803.635	3888
803.777	3812
803.919	3926
804.061	4192
804.204	3975
804.346	3964
804.488	3941
804.63	4074
804.773	3979
804.915	4032
805.057	4147
805.199	4048
805.341	4109
805.483	4139
805.626	4147
805.768	4143
805.91	4249
806.052	4257
806.194	4185
806.336	4360
806.478	4253
806.62	4135
806.762	4196
806.904	4276
807.046	4341
807.188	4200
807.33	4185
807.472	4238
807.614	4204
807.756	4303
807.898	4227
808.04	4223
808.182	4299
808.324	4325
808.465	4417
808.607	4481
808.749	4405
808.891	4466
809.033	4493
809.174	4375
809.316	4261
809.458	4215
809.6	4200
809.741	4169
809.883	4162
810.025	4246
810.166	4215
810.308	4188
810.45	4306
810.591	4238
810.733	4314
810.875	4523
811.016	4847
811.158	5086
811.299	5292
811.441	5254
811.582	5056
811.724	4675
811.865	4459
812.007	4478
812.148	4436
812.29	4402
812.431	4405
812.573	4432
812.714	4394
812.855	4443
812.997	4447
813.138	4512
813.279	4421
813.421	4402
813.562	4375
813.703	4325
813.845	4310
813.986	4261
814.127	4246
814.268	4268
814.41	4325
814.551	4257
814.692	4337
814.833	4242
814.974	4352
815.115	4394
815.256	4249
815.397	4207
815.539	4299
815.68	4215
815.821	4181
815.962	4337
816.103	4265
816.244	4265
816.385	4253
816.526	4276
816.666	4207
816.807	4086
816.948	4158
817.089	4200
817.23	4131
817.371	4101
817.512	4021
817.653	4086
817.793	4048
817.934	4044
818.075	4097
818.216	4074
818.356	4143
818.497	4010
818.638	3941
818.778	3911
818.919	3930
819.06	3861
819.2	3899
819.341	3854
819.481	3869
819.622	3903
819.762	4002
819.903	3968
820.043	3876
820.184	3793
820.324	3842
820.465	3903
820.605	3899
820.746	3876
820.886	3808
821.026	3922
821.167	3934
821.307	4006
821.447	4021
821.588	3975
821.728	3964
821.868	3941
822.008	3888
822.149	3941
822.289	3907
822.429	3808
822.569	3785
822.709	3793
822.849	3675
822.99	3751
823.13	3804
823.27	3785
823.41	3728
823.55	3736
823.69	3747
823.83	3728
823.97	3675
824.11	3637
824.25	3610
824.389	3618
824.529	3663
824.669	3648
824.809	3755
824.949	3766
825.089	3713
825.228	3720
825.368	3599
825.508	3603
825.648	3545
825.787	3595
825.927	3648
826.067	3644
826.206	3682
826.346	3827
826.485	3861
826.625	3915
826.765	3949
826.904	3831
827.044	3606
827.183	3519
827.323	3488
827.462	3500
827.601	3397
827.741	3439
827.88	3469
828.02	3378
828.159	3469
828.298	3450
828.437	3584
828.577	3504
828.716	3587
828.855	3515
828.994	3378
829.134	3393
829.273	3405
829.412	3382
829.551	3378
829.69	3370
829.829	3462
829.968	3523
830.107	3409
830.246	3458
830.385	3428
830.524	3389
830.663	3336
830.802	3283
830.941	3199
831.08	3214
831.219	3260
831.357	3241
831.496	3450
831.635	3256
831.774	3249
831.913	3192
832.051	3116
832.19	3161
832.329	3192
832.467	3176
832.606	3127
832.744	3169
832.883	3199
833.022	3230
833.16	3275
833.299	3283
833.437	3344
833.576	3378
833.714	3424
833.852	3412
833.991	3412
834.129	3507
834.267	3435
834.406	3412
834.544	3447
834.682	3450
834.821	3435
834.959	3614
835.097	3420
835.235	3542
835.373	3534
835.511	3511
835.65	3488
835.788	3477
835.926	3363
836.064	3393
836.202	3420
836.34	3584
836.478	3614
836.615	3572
836.753	3641
836.891	3629
837.029	3587
837.167	3622
837.305	3568
837.443	3507
837.58	3500
837.718	3572
837.856	3523
837.993	3542
838.131	3595
838.269	3614
838.406	3595
838.544	3591
838.681	3496
838.819	3450
838.956	3409
839.094	3386
839.231	3428
839.369	3515
839.506	3751
839.643	3660
839.781	3504
839.918	3511
840.055	3534
840.193	3561
840.33	3557
840.467	3564
840.604	3603
840.742	3842
840.879	3576
841.016	3572
841.153	3644
841.29	3789
841.427	3732
841.564	3728
841.701	3743
841.838	3686
841.975	3709
842.112	3785
842.249	3637
842.385	3625
842.522	3804
842.659	3690
842.796	3705
842.933	3736
843.069	3701
843.206	3698
843.343	3804
843.479	3819
843.616	3831
843.752	3663
843.889	3724
844.025	3899
844.162	3705
844.298	3846
844.435	3827
844.571	3793
844.708	3945
844.844	3983
844.98	4044
845.117	3987
845.253	3911
845.389	3922
845.525	3975
845.661	4021
845.798	3964
845.934	4017
846.07	3991
846.206	4067
846.342	4166
846.478	4074
846.614	3983
846.75	3922
846.886	3907
847.022	4048
847.158	4002
847.294	4017
847.429	4002
847.565	3987
847.701	4223
847.837	3888
847.972	3888
848.108	4013
848.244	4006
848.379	3915
848.515	3835
848.65	3789
848.786	3873
848.921	3903
849.057	3941
849.192	3949
849.328	3899
849.463	3884
849.598	3880
849.734	3915
849.869	3846
850.004	3789
850.14	3804
850.275	3831
850.41	3766
850.545	3808
850.68	3762
850.815	3793
850.95	3762
851.085	3964
851.22	3854
851.355	3842
851.49	3816
851.625	3800
851.76	3819
851.895	3740
852.03	3724
852.165	3816
852.299	3842
852.434	3903
852.569	3876
852.703	3842
852.838	3975
852.973	4063
853.107	3998
853.242	3884
853.376	3918
853.511	3781
853.645	3854
853.78	3987
853.914	3899
854.048	3892
854.183	3911
854.317	3983
854.451	4101
854.585	3972
854.72	3968
854.854	4090
854.988	3915
855.122	3975
855.256	3934
855.39	4051
855.524	4124
855.658	4078
855.792	4086
855.926	4109
856.06	4147
856.194	4223
856.327	4188
856.461	4101
856.595	4188
856.729	4188
856.862	4276
856.996	4280
857.13	4276
857.263	4356
857.397	4348
857.53	4306
857.664	4379
857.797	4375
857.931	4413
858.064	4402
858.197	4413
858.331	4436
858.464	4348
858.597	4352
858.731	4455
858.864	4478
858.997	4436
859.13	4493
859.263	4523
859.396	4554
859.529	4516
859.662	4481
859.795	4535
859.928	4615
860.061	4683
860.194	4771
860.327	4702
860.46	4683
860.592	4698
860.725	4774
860.858	4778
860.99	4710
861.123	4687
861.256	4679
861.388	4767
861.521	5554
861.653	4721
861.786	4725
861.918	4740
862.05	4820
862.183	4885
862.315	4923
862.447	4923
862.58	4870
862.712	4866
862.844	4755
862.976	4873
863.108	4866
863.24	5189
863.372	4862
863.504	4919
863.636	4934
863.768	4991
863.9	4995
864.032	4953
864.164	4946
864.296	5056
864.428	5124
864.559	5098
864.691	5109
864.823	5136
864.954	5109
865.086	5128
865.217	5105
865.349	5094
865.48	5174
865.612	5155
865.743	5357
865.875	5223
866.006	5166
866.137	5258
866.269	5277
866.4	5231
866.531	5242
866.662	5246
866.793	5292
866.924	5322
867.055	5414
867.186	5311
867.317	5345
867.448	5303
867.579	5387
867.71	5379
867.841	5414
867.972	5490
868.103	5474
868.233	5516
868.364	5501
868.495	5551
868.625	5737
868.756	5767
868.886	5646
869.017	5760
869.147	5851
869.278	5855
869.408	5786
869.539	5805
869.669	5889
869.799	5874
869.929	6011
870.06	5980
870.19	6201
870.32	6136
870.45	6251
870.58	6376
870.71	6395
870.84	6471
870.97	6433
871.1	6426
871.23	6616
871.36	6627
871.489	6658
871.619	6696
871.749	6810
871.879	6856
872.008	6954
872.138	6962
872.267	7034
872.397	6951
872.526	7019
872.656	7145
872.785	7183
872.915	7373
873.044	7502
873.173	7605
873.303	7620
873.432	7746
873.561	7887
873.69	7898
873.819	8062
873.948	8187
874.077	8267
874.206	8328
874.335	8412
874.464	8575
874.593	8834
874.722	8857
874.851	9150
874.979	9264
875.108	9389
875.237	9367
875.365	9450
875.494	9576
875.623	9854
875.751	9812
875.88	9968
876.008	10109
876.136	10295
876.265	10565
876.393	10717
876.521	10672
876.65	10866
876.778	10843
876.906	11018
877.034	11033
877.162	11102
877.29	11155
877.418	11364
877.546	11318
877.674	11448
877.802	11539
877.93	11532
878.058	11551
878.185	11630
878.313	11646
878.441	11737
878.568	11668
878.696	11805
878.824	11764
878.951	11942
879.079	12030
879.206	12087
879.333	12064
879.461	11965
879.588	12072
879.715	12019
879.842	12243
879.97	12140
880.097	11965
880.224	11836
880.351	11836
880.478	11901
880.605	11882
880.732	11908
880.859	11950
880.986	11798
881.112	11843
881.239	11802
881.366	11676
881.493	11668
881.619	11490
881.746	11562
881.872	11554
881.999	11509
882.125	11444
882.252	11604
882.378	11570
882.505	11493
882.631	11391
882.757	11292
882.883	11372
883.01	11208
883.136	11220
883.262	11132
883.388	11071
883.514	11151
883.64	11250
883.766	11124
883.892	11029
884.018	11045
884.143	11033
884.269	11064
884.395	10824
884.52	10729
884.646	10721
884.772	10649
884.897	10736
885.023	10687
885.148	10752
885.274	10759
885.399	10664
885.524	10710
885.65	10580
885.775	10592
885.9	10596
886.025	10649
886.15	10546
886.275	10466
886.4	10371
886.525	10318
886.65	10405
886.775	10413
886.9	10531
887.025	10573
887.149	10375
887.274	10154
887.399	10101
887.523	10135
887.648	10177
887.773	10143
887.897	10215
888.021	10173
888.146	10143
888.27	10169
888.395	10242
888.519	10154
888.643	10181
888.767	10268
888.891	10078
889.015	10029
889.139	10040
889.263	9915
889.387	10112
889.511	10219
889.635	10074
889.759	9987
889.883	9968
890.006	10002
890.13	10082
890.254	9888
890.377	9994
890.501	9838
890.624	9838
890.748	9876
890.871	9827
890.995	9869
891.118	9690
891.241	9701
891.364	9675
891.488	9816
891.611	9728
891.734	9846
891.857	9797
891.98	9797
892.103	9736
892.226	9720
892.349	9705
892.471	9564
892.594	9682
892.717	9740
892.839	9591
892.962	9599
893.085	9686
893.207	9644
893.33	9534
893.452	9485
893.575	9637
893.697	9469
893.819	9660
893.941	9641
894.064	9614
894.186	9443
894.308	9473
894.43	9534
894.552	9523
894.674	9500
894.796	9397
894.918	9405
895.04	9317
895.161	9355
895.283	9374
895.405	9279
895.526	9287
895.648	9233
895.769	9279
895.891	9237
896.012	9241
896.134	9272
896.255	9142
896.376	9123
896.498	9100
896.619	9146
896.74	9100
896.861	9127
896.982	9332
897.103	9325
897.224	9180
897.345	9043
897.466	9009
897.587	9013
897.708	9180
897.828	9058
897.949	8929
898.07	8880
898.19	8918
898.311	9024
898.431	8941
898.552	8975
898.672	8952
898.792	8948
898.913	8910
899.033	8845
899.153	8777
899.273	8644
899.393	8727
899.513	8781
899.633	8766
899.753	8766
899.873	8823
899.993	8754
900.113	8750
900.232	8762
900.352	8659
900.472	8686
900.591	8530
900.711	8644
900.83	8579
900.95	8720
901.069	8674
901.189	8602
901.308	8545
901.427	8381
901.546	8454
901.665	8511
901.784	8495
901.904	8396
902.023	8339
902.141	8263
902.26	8199
902.379	8290
902.498	8237
902.617	8229
902.735	8343
902.854	8263
902.973	8259
903.091	8092
903.21	8107
903.328	8180
903.446	8180
903.565	8073
903.683	8138
903.801	8065
903.919	8100
904.038	8123
904.156	8001
904.274	8035
904.392	8115
904.51	8046
904.627	8096
904.745	8077
904.863	8119
904.981	7917
905.098	7894
905.216	7951
905.334	7967
905.451	7921
905.569	7932
905.686	7959
905.803	7963
905.921	7837
906.038	7837
906.155	7776
906.272	7753
906.389	7727
906.506	7643
906.623	7636
906.74	7590
906.857	7575
906.974	7647
907.091	7715
907.208	7696
907.324	7639
907.441	7605
907.557	7445
907.674	7384
907.79	7495
907.907	7449
908.023	7449
908.139	7453
908.256	7438
908.372	7392
908.488	7362
908.604	7316
908.72	7221
908.836	7232
908.952	7194
909.068	7221
909.184	7316
909.3	7266
909.415	7274
909.531	7259
909.647	7122
909.762	7072
909.878	7103
909.993	7114
910.108	7126
910.224	7072
910.339	7133
910.454	7034
910.57	6977
910.685	6935
910.8	7183
910.915	7084
911.03	7057
911.145	6890
911.259	6875
911.374	6878
911.489	6859
911.604	6821
911.718	6703
911.833	6768
911.947	6692
912.062	6620
912.176	6722
912.291	6795
912.405	6726
912.519	6821
912.633	6886
912.748	6760
912.862	6711
912.976	6593
913.09	6532
913.204	6658
913.318	6593
913.431	6703
913.545	6669
913.659	6768
913.772	6589
913.886	6604
914	6563
914.113	6612
914.226	6604
914.34	6669
914.453	6471
914.566	6677
914.68	6521
914.793	6540
914.906	6460
915.019	6403
915.132	6399
915.245	6460
915.358	6452
915.47	6445
915.583	6467
915.696	6452
915.809	6555
915.921	6566
916.034	6414
916.146	6445
916.259	6403
916.371	6448
916.483	6407
916.595	6376
916.708	6365
916.82	6403
916.932	6357
917.044	6391
917.156	6369
917.268	6350
917.38	6304
917.491	6346
917.603	6331
917.715	6445
917.826	6456
917.938	6369
918.049	6289
918.161	6361
918.272	6433
918.384	6418
918.495	6357
918.606	6285
918.717	6201
918.828	6281
918.939	6292
919.05	6213
919.161	6228
919.272	6110
919.383	6209
919.494	6258
919.604	6429
919.715	6285
919.826	6182
919.936	6285
920.047	6262
920.157	6296
920.267	6456
920.378	6342
920.488	6235
920.598	6445
920.708	6513
920.818	6471
920.928	6452
921.038	6631
921.148	6631
921.258	6372
921.368	6285
921.477	6194
921.587	6205
921.697	6091
921.806	6155
921.916	6110
922.025	5973
922.134	5916
922.244	5897
922.353	5958
922.462	5889
922.571	5802
922.68	5676
922.789	5680
922.898	5718
923.007	5691
923.116	5703
923.224	5630
923.333	5680
923.442	5627
923.55	5535
923.659	5589
923.767	5661
923.876	5551
923.984	5630
924.092	5516
924.201	5577
924.309	5577
924.417	5566
924.525	5486
924.633	5509
924.741	6182
924.849	5406
924.956	5509
925.064	5417
925.172	5284
925.279	5261
925.387	5360
925.494	5379
925.602	5440
925.709	5410
925.816	5326
925.924	5296
926.031	5376
926.138	5315
926.245	5303
926.352	5204
926.459	5345
926.566	5341
926.673	5235
926.779	5098
926.886	5124
926.993	5079
927.099	5014
927.206	4991
927.312	4968
927.419	5029
927.525	4957
927.631	4991
927.737	4927
927.843	4873
927.95	4793
928.056	4858
928.162	4816
928.267	4812
928.373	5345
928.479	4877
928.585	4649
928.69	4706
928.796	4801
928.901	4698
929.007	4561
929.112	4675
929.218	4630
929.323	4599
929.428	4573
929.533	4668
929.638	4497
929.743	4516
929.848	4577
929.953	4531
930.058	4428
930.163	4356
930.267	4379
930.372	4413
930.477	4356
930.581	4428
930.685	4360
930.79	4280
930.894	4337
930.998	4303
931.103	4394
931.207	4124
931.311	4097
931.415	4017
931.519	3926
931.623	3975
