Data from glass_V78500241_596.txt Node
Date: Wed Sep 01 19:18:37 CST 2021
User: usil
Spectrometer: V785-0024
Trigger mode: 0
Integration Time (sec): 4.000000E-1
Scans to average: 1
Nonlinearity correction enabled: false
Boxcar width: 0
Storing dark spectrum: false
XAxis mode: Wavelengths
Number of Pixels in Spectrum: 1024
>>>>>Begin Spectral Data<<<<<
801.071	3759
801.214	3751
801.356	3724
801.499	3698
801.641	3778
801.783	3804
801.926	3831
802.068	3861
802.211	3876
802.353	3888
802.496	3808
802.638	3892
802.78	3915
802.923	3918
803.065	3930
803.208	3838
803.35	3831
803.492	3926
803.635	3911
803.777	3766
803.919	3903
804.061	4116
804.204	3979
804.346	3972
804.488	3930
804.63	4029
804.773	3968
804.915	4055
805.057	4112
805.199	4051
805.341	4124
805.483	4154
805.626	4166
805.768	4169
805.91	4257
806.052	4265
806.194	4230
806.336	4348
806.478	4196
806.62	4230
806.762	4242
806.904	4272
807.046	4379
807.188	4207
807.33	4223
807.472	4306
807.614	4200
807.756	4295
807.898	4223
808.04	4253
808.182	4325
808.324	4394
808.465	4341
808.607	4478
808.749	4478
808.891	4485
809.033	4493
809.174	4398
809.316	4257
809.458	4284
809.6	4188
809.741	4150
809.883	4147
810.025	4249
810.166	4253
810.308	4200
810.45	4272
810.591	4227
810.733	4291
810.875	4527
811.016	4831
811.158	5166
811.299	5273
811.441	5296
811.582	5098
811.724	4687
811.865	4493
812.007	4459
812.148	4436
812.29	4466
812.431	4383
812.573	4451
812.714	4428
812.855	4390
812.997	4489
813.138	4489
813.279	4440
813.421	4432
813.562	4394
813.703	4348
813.845	4344
813.986	4280
814.127	4257
814.268	4234
814.41	4310
814.551	4314
814.692	4344
814.833	4280
814.974	4291
815.115	4360
815.256	4276
815.397	4207
815.539	4265
815.68	4223
815.821	4242
815.962	4348
816.103	4333
816.244	4265
816.385	4238
816.526	4249
816.666	4204
816.807	4067
816.948	4188
817.089	4177
817.23	4154
817.371	4055
817.512	4044
817.653	4082
817.793	4040
817.934	4029
818.075	4109
818.216	4074
818.356	4116
818.497	4025
818.638	3972
818.778	3953
818.919	3850
819.06	3835
819.2	3899
819.341	3876
819.481	3876
819.622	3960
819.762	4021
819.903	3949
820.043	3892
820.184	3842
820.324	3861
820.465	3915
820.605	3865
820.746	3899
820.886	3797
821.026	3998
821.167	3945
821.307	4002
821.447	3987
821.588	3968
821.728	3956
821.868	3937
822.008	3903
822.149	3945
822.289	3945
822.429	3804
822.569	3800
822.709	3819
822.849	3736
822.99	3778
823.13	3800
823.27	3816
823.41	3679
823.55	3732
823.69	3743
823.83	3751
823.97	3694
824.11	3625
824.25	3625
824.389	3648
824.529	3671
824.669	3648
824.809	3736
824.949	3724
825.089	3751
825.228	3701
825.368	3633
825.508	3564
825.648	3614
825.787	3603
825.927	3656
826.067	3652
826.206	3705
826.346	3816
826.485	3865
826.625	3869
826.765	3956
826.904	3854
827.044	3603
827.183	3564
827.323	3435
827.462	3496
827.601	3462
827.741	3462
827.88	3435
828.02	3405
828.159	3473
828.298	3481
828.437	3519
828.577	3469
828.716	3599
828.855	3515
828.994	3389
829.134	3428
829.273	3382
829.412	3382
829.551	3336
829.69	3374
829.829	3450
829.968	3549
830.107	3469
830.246	3477
830.385	3397
830.524	3355
830.663	3298
830.802	3241
830.941	3169
831.08	3199
831.219	3237
831.357	3256
831.496	3424
831.635	3233
831.774	3233
831.913	3226
832.051	3116
832.19	3142
832.329	3241
832.467	3112
832.606	3112
832.744	3169
832.883	3214
833.022	3218
833.16	3272
833.299	3287
833.437	3374
833.576	3367
833.714	3393
833.852	3462
833.991	3458
834.129	3488
834.267	3450
834.406	3405
834.544	3443
834.682	3397
834.821	3405
834.959	3549
835.097	3458
835.235	3534
835.373	3500
835.511	3466
835.65	3454
835.788	3488
835.926	3420
836.064	3386
836.202	3431
836.34	3622
836.478	3618
836.615	3534
836.753	3610
836.891	3618
837.029	3629
837.167	3584
837.305	3564
837.443	3587
837.58	3519
837.718	3644
837.856	3576
837.993	3561
838.131	3648
838.269	3568
838.406	3576
838.544	3599
838.681	3477
838.819	3492
838.956	3424
839.094	3389
839.231	3485
839.369	3530
839.506	3766
839.643	3679
839.781	3488
839.918	3466
840.055	3557
840.193	3549
840.33	3538
840.467	3553
840.604	3595
840.742	3838
840.879	3534
841.016	3587
841.153	3614
841.29	3766
841.427	3717
841.564	3698
841.701	3778
841.838	3747
841.975	3717
842.112	3728
842.249	3686
842.385	3644
842.522	3854
842.659	3675
842.796	3682
842.933	3690
843.069	3766
843.206	3713
843.343	3854
843.479	3793
843.616	3846
843.752	3698
843.889	3667
844.025	3888
844.162	3720
844.298	3846
844.435	3781
844.571	3816
844.708	3892
844.844	4025
844.98	4029
845.117	4032
845.253	3941
845.389	3926
845.525	3972
845.661	3994
845.798	3956
845.934	4025
846.07	3960
846.206	4063
846.342	4139
846.478	4086
846.614	3949
846.75	3953
846.886	3918
847.022	4051
847.158	3979
847.294	4006
847.429	4093
847.565	4017
847.701	4261
847.837	3884
847.972	3865
848.108	4017
848.244	4002
848.379	3846
848.515	3800
848.65	3854
848.786	3854
848.921	3884
849.057	3892
849.192	3975
849.328	3953
849.463	3892
849.598	3915
849.734	3835
849.869	3873
850.004	3812
850.14	3819
850.275	3774
850.41	3740
850.545	3789
850.68	3789
850.815	3819
850.95	3831
851.085	3987
851.22	3892
851.355	3827
851.49	3831
851.625	3838
851.76	3800
851.895	3747
852.03	3755
852.165	3850
852.299	3857
852.434	3918
852.569	3873
852.703	3888
852.838	3979
852.973	4017
853.107	4021
853.242	3964
853.376	3873
853.511	3778
853.645	3884
853.78	3998
853.914	3937
854.048	3994
854.183	3884
854.317	3975
854.451	4124
854.585	3941
854.72	3960
854.854	4029
854.988	3918
855.122	4040
855.256	3926
855.39	3968
855.524	4097
855.658	4120
855.792	4128
855.926	4147
856.06	4207
856.194	4234
856.327	4169
856.461	4162
856.595	4173
856.729	4192
856.862	4322
856.996	4215
857.13	4352
857.263	4367
857.397	4379
857.53	4341
857.664	4348
857.797	4402
857.931	4413
858.064	4443
858.197	4478
858.331	4451
858.464	4428
858.597	4352
858.731	4470
858.864	4481
858.997	4481
859.13	4497
859.263	4554
859.396	4618
859.529	4546
859.662	4519
859.795	4542
859.928	4653
860.061	4740
860.194	4740
860.327	4656
860.46	4645
860.592	4816
860.725	4755
860.858	4801
860.99	4687
861.123	4694
861.256	4721
861.388	4774
861.521	5406
861.653	4714
861.786	4694
861.918	4736
862.05	4786
862.183	4835
862.315	4881
862.447	4930
862.58	4938
862.712	4809
862.844	4809
862.976	4866
863.108	4873
863.24	5178
863.372	4866
863.504	4927
863.636	4900
863.768	4968
863.9	5003
864.032	4946
864.164	5014
864.296	5075
864.428	5090
864.559	5086
864.691	5124
864.823	5117
864.954	5109
865.086	5166
865.217	5193
865.349	5140
865.48	5121
865.612	5178
865.743	5326
865.875	5231
866.006	5159
866.137	5254
866.269	5246
866.4	5292
866.531	5227
866.662	5254
866.793	5269
866.924	5303
867.055	5345
867.186	5330
867.317	5345
867.448	5360
867.579	5326
867.71	5459
867.841	5364
867.972	5501
868.103	5528
868.233	5482
868.364	5497
868.495	5592
868.625	5623
868.756	5805
868.886	5710
869.017	5748
869.147	5840
869.278	5889
869.408	5805
869.539	5817
869.669	5870
869.799	5931
869.929	5954
870.06	6022
870.19	6163
870.32	6224
870.45	6285
870.58	6380
870.71	6471
870.84	6426
870.97	6441
871.1	6544
871.23	6601
871.36	6665
871.489	6631
871.619	6726
871.749	6829
871.879	6878
872.008	7061
872.138	7008
872.267	7088
872.397	6981
872.526	7008
872.656	7110
872.785	7175
872.915	7396
873.044	7597
873.173	7578
873.303	7685
873.432	7765
873.561	7909
873.69	7902
873.819	8016
873.948	8206
874.077	8267
874.206	8336
874.335	8480
874.464	8701
874.593	8929
874.722	8971
874.851	9188
874.979	9298
875.108	9332
875.237	9481
875.365	9458
875.494	9618
875.623	9785
875.751	9865
875.88	10040
876.008	10162
876.136	10337
876.265	10558
876.393	10763
876.521	10733
876.65	10805
876.778	10858
876.906	10942
877.034	10987
877.162	11132
877.29	11227
877.418	11395
877.546	11402
877.674	11440
877.802	11421
877.93	11467
878.058	11562
878.185	11573
878.313	11627
878.441	11767
878.568	11642
878.696	11760
878.824	11901
878.951	11942
879.079	12003
879.206	12091
879.333	12076
879.461	12019
879.588	12057
879.715	12057
879.842	12235
879.97	11988
880.097	11882
880.224	11958
880.351	11893
880.478	11882
880.605	11931
880.732	11855
880.859	12049
880.986	11809
881.112	11855
881.239	11699
881.366	11695
881.493	11573
881.619	11520
881.746	11535
881.872	11482
881.999	11554
882.125	11486
882.252	11649
882.378	11395
882.505	11543
882.631	11459
882.757	11250
882.883	11299
883.01	11246
883.136	11170
883.262	11033
883.388	11090
883.514	11143
883.64	11140
883.766	11025
883.892	11056
884.018	10961
884.143	11151
884.269	11132
884.395	10847
884.52	10774
884.646	10854
884.772	10748
884.897	10698
885.023	10656
885.148	10736
885.274	10733
885.399	10649
885.524	10611
885.65	10622
885.775	10645
885.9	10588
886.025	10637
886.15	10603
886.275	10493
886.4	10428
886.525	10398
886.65	10398
886.775	10379
886.9	10428
887.025	10592
887.149	10325
887.274	10284
887.399	10188
887.523	10185
887.648	10131
887.773	10116
887.897	10223
888.021	10230
888.146	10135
888.27	10196
888.395	10253
888.519	10124
888.643	10166
888.767	10291
888.891	10090
889.015	10013
889.139	10036
889.263	9998
889.387	10097
889.511	10048
889.635	10032
889.759	10010
889.883	9945
890.006	10101
890.13	10124
890.254	9949
890.377	10029
890.501	9857
890.624	9915
890.748	9918
890.871	9789
890.995	9842
891.118	9743
891.241	9755
891.364	9751
891.488	9842
891.611	9743
891.734	9762
891.857	9720
891.98	9675
892.103	9724
892.226	9743
892.349	9625
892.471	9519
892.594	9595
892.717	9701
892.839	9599
892.962	9660
893.085	9660
893.207	9599
893.33	9526
893.452	9515
893.575	9671
893.697	9549
893.819	9622
893.941	9599
894.064	9515
894.186	9466
894.308	9443
894.43	9580
894.552	9591
894.674	9481
894.796	9386
894.918	9450
895.04	9302
895.161	9374
895.283	9325
895.405	9207
895.526	9359
895.648	9230
895.769	9302
895.891	9272
896.012	9287
896.134	9264
896.255	9188
896.376	9055
896.498	9173
896.619	9188
896.74	9074
896.861	9100
896.982	9336
897.103	9283
897.224	9188
897.345	9104
897.466	9001
897.587	8986
897.708	9070
897.828	9032
897.949	9013
898.07	8845
898.19	8819
898.311	9077
898.431	8887
898.552	8910
898.672	8963
898.792	8929
898.913	8914
899.033	8830
899.153	8731
899.273	8670
899.393	8727
899.513	8746
899.633	8830
899.753	8686
899.873	8731
899.993	8712
900.113	8766
900.232	8724
900.352	8651
900.472	8606
900.591	8587
900.711	8598
900.83	8537
900.95	8720
901.069	8720
901.189	8640
901.308	8442
901.427	8442
901.546	8408
901.665	8492
901.784	8571
901.904	8389
902.023	8358
902.141	8199
902.26	8183
902.379	8324
902.498	8240
902.617	8298
902.735	8324
902.854	8313
902.973	8282
903.091	8126
903.21	8229
903.328	8145
903.446	8096
903.565	8096
903.683	8111
903.801	8012
903.919	8138
904.038	8191
904.156	8054
904.274	8039
904.392	8001
904.51	8096
904.627	8180
904.745	8096
904.863	8111
904.981	7944
905.098	7887
905.216	7894
905.334	7936
905.451	7928
905.569	7868
905.686	7951
905.803	7928
905.921	7799
906.038	7849
906.155	7837
906.272	7685
906.389	7689
906.506	7738
906.623	7708
906.74	7674
906.857	7552
906.974	7575
907.091	7655
907.208	7757
907.324	7624
907.441	7575
907.557	7521
907.674	7434
907.79	7392
907.907	7453
908.023	7411
908.139	7441
908.256	7365
908.372	7407
908.488	7369
908.604	7285
908.72	7213
908.836	7293
908.952	7316
909.068	7236
909.184	7308
909.3	7266
909.415	7274
909.531	7285
909.647	7156
909.762	7088
909.878	7076
909.993	7183
910.108	7152
910.224	7137
910.339	7107
910.454	7080
910.57	7004
910.685	6958
910.8	7183
910.915	7061
911.03	6977
911.145	6894
911.259	6905
911.374	6894
911.489	6818
911.604	6844
911.718	6738
911.833	6829
911.947	6673
912.062	6646
912.176	6753
912.291	6650
912.405	6707
912.519	6814
912.633	6863
912.748	6741
912.862	6757
912.976	6589
913.09	6525
913.204	6570
913.318	6631
913.431	6696
913.545	6692
913.659	6650
913.772	6703
913.886	6612
914	6528
914.113	6665
914.226	6616
914.34	6639
914.453	6517
914.566	6585
914.68	6502
914.793	6563
914.906	6452
915.019	6426
915.132	6323
915.245	6410
915.358	6479
915.47	6471
915.583	6467
915.696	6437
915.809	6574
915.921	6559
916.034	6464
916.146	6437
916.259	6448
916.371	6471
916.483	6448
916.595	6429
916.708	6395
916.82	6384
916.932	6414
917.044	6426
917.156	6353
917.268	6292
917.38	6376
917.491	6304
917.603	6334
917.715	6426
917.826	6441
917.938	6334
918.049	6292
918.161	6334
918.272	6429
918.384	6494
918.495	6338
918.606	6258
918.717	6220
918.828	6258
918.939	6300
919.05	6247
919.161	6273
919.272	6148
919.383	6190
919.494	6353
919.604	6445
919.715	6353
919.826	6273
919.936	6281
920.047	6277
920.157	6262
920.267	6486
920.378	6315
920.488	6285
920.598	6517
920.708	6593
920.818	6414
920.928	6551
921.038	6570
921.148	6566
921.258	6384
921.368	6327
921.477	6220
921.587	6175
921.697	6041
921.806	6205
921.916	6144
922.025	5939
922.134	5904
922.244	5923
922.353	5946
922.462	5866
922.571	5844
922.68	5695
922.789	5630
922.898	5775
923.007	5630
923.116	5714
923.224	5707
923.333	5668
923.442	5634
923.55	5627
923.659	5634
923.767	5638
923.876	5570
923.984	5623
924.092	5520
924.201	5604
924.309	5558
924.417	5562
924.525	5482
924.633	5509
924.741	6304
924.849	5334
924.956	5505
925.064	5311
925.172	5292
925.279	5269
925.387	5383
925.494	5315
925.602	5471
925.709	5417
925.816	5311
925.924	5341
926.031	5410
926.138	5273
926.245	5357
926.352	5242
926.459	5357
926.566	5337
926.673	5189
926.779	5197
926.886	5117
926.993	5083
927.099	4957
927.206	5029
927.312	5041
927.419	5022
927.525	4976
927.631	4946
927.737	4892
927.843	4866
927.95	4786
928.056	4809
928.162	4847
928.267	4877
928.373	5231
928.479	4843
928.585	4679
928.69	4778
928.796	4759
928.901	4649
929.007	4626
929.112	4721
929.218	4660
929.323	4599
929.428	4569
929.533	4729
929.638	4599
929.743	4558
929.848	4603
929.953	4538
930.058	4462
930.163	4322
930.267	4333
930.372	4405
930.477	4276
930.581	4508
930.685	4363
930.79	4207
930.894	4299
930.998	4227
931.103	4413
931.207	4124
931.311	4071
931.415	4032
931.519	3926
931.623	3945
