Data from glass_V78500241_2139.txt Node
Date: Wed Sep 01 19:29:19 CST 2021
User: usil
Spectrometer: V785-0024
Trigger mode: 0
Integration Time (sec): 4.000000E-1
Scans to average: 1
Nonlinearity correction enabled: false
Boxcar width: 0
Storing dark spectrum: false
XAxis mode: Wavelengths
Number of Pixels in Spectrum: 1024
>>>>>Begin Spectral Data<<<<<
801.071	3740
801.214	3743
801.356	3724
801.499	3717
801.641	3728
801.783	3747
801.926	3857
802.068	3823
802.211	3846
802.353	3857
802.496	3846
802.638	3899
802.78	3911
802.923	3911
803.065	3876
803.208	3842
803.35	3842
803.492	3899
803.635	3922
803.777	3793
803.919	3926
804.061	4150
804.204	3930
804.346	3968
804.488	3911
804.63	4036
804.773	3941
804.915	3994
805.057	4109
805.199	4021
805.341	4048
805.483	4059
805.626	4128
805.768	4112
805.91	4204
806.052	4211
806.194	4188
806.336	4356
806.478	4223
806.62	4158
806.762	4166
806.904	4265
807.046	4287
807.188	4230
807.33	4181
807.472	4188
807.614	4185
807.756	4253
807.898	4219
808.04	4230
808.182	4303
808.324	4333
808.465	4367
808.607	4462
808.749	4455
808.891	4504
809.033	4493
809.174	4402
809.316	4280
809.458	4227
809.6	4139
809.741	4143
809.883	4112
810.025	4185
810.166	4215
810.308	4219
810.45	4253
810.591	4246
810.733	4280
810.875	4500
811.016	4801
811.158	5151
811.299	5315
811.441	5273
811.582	5094
811.724	4702
811.865	4497
812.007	4443
812.148	4451
812.29	4436
812.431	4405
812.573	4341
812.714	4383
812.855	4363
812.997	4398
813.138	4451
813.279	4428
813.421	4348
813.562	4383
813.703	4363
813.845	4322
813.986	4265
814.127	4211
814.268	4223
814.41	4295
814.551	4227
814.692	4325
814.833	4238
814.974	4272
815.115	4318
815.256	4246
815.397	4230
815.539	4249
815.68	4162
815.821	4162
815.962	4295
816.103	4253
816.244	4223
816.385	4249
816.526	4287
816.666	4200
816.807	4093
816.948	4158
817.089	4188
817.23	4074
817.371	4036
817.512	4101
817.653	4051
817.793	4059
817.934	4013
818.075	4116
818.216	4044
818.356	4124
818.497	3956
818.638	3903
818.778	3918
818.919	3892
819.06	3880
819.2	3918
819.341	3857
819.481	3827
819.622	3865
819.762	4059
819.903	3937
820.043	3861
820.184	3865
820.324	3781
820.465	3888
820.605	3850
820.746	3857
820.886	3808
821.026	3915
821.167	3899
821.307	3979
821.447	3972
821.588	3945
821.728	3937
821.868	3896
822.008	3892
822.149	3880
822.289	3892
822.429	3770
822.569	3762
822.709	3819
822.849	3671
822.99	3740
823.13	3743
823.27	3762
823.41	3686
823.55	3743
823.69	3713
823.83	3751
823.97	3690
824.11	3614
824.25	3595
824.389	3568
824.529	3663
824.669	3603
824.809	3736
824.949	3751
825.089	3709
825.228	3728
825.368	3591
825.508	3542
825.648	3530
825.787	3591
825.927	3641
826.067	3652
826.206	3648
826.346	3838
826.485	3850
826.625	3835
826.765	3934
826.904	3842
827.044	3625
827.183	3553
827.323	3424
827.462	3477
827.601	3393
827.741	3412
827.88	3443
828.02	3363
828.159	3454
828.298	3492
828.437	3507
828.577	3469
828.716	3603
828.855	3488
828.994	3367
829.134	3393
829.273	3420
829.412	3340
829.551	3329
829.69	3348
829.829	3443
829.968	3515
830.107	3405
830.246	3405
830.385	3382
830.524	3332
830.663	3287
830.802	3268
830.941	3214
831.08	3211
831.219	3249
831.357	3253
831.496	3386
831.635	3214
831.774	3169
831.913	3222
832.051	3142
832.19	3138
832.329	3195
832.467	3138
832.606	3093
832.744	3161
832.883	3157
833.022	3195
833.16	3226
833.299	3310
833.437	3336
833.576	3351
833.714	3393
833.852	3431
833.991	3447
834.129	3462
834.267	3389
834.406	3340
834.544	3428
834.682	3439
834.821	3359
834.959	3572
835.097	3397
835.235	3515
835.373	3485
835.511	3523
835.65	3447
835.788	3488
835.926	3378
836.064	3397
836.202	3374
836.34	3561
836.478	3614
836.615	3568
836.753	3591
836.891	3637
837.029	3637
837.167	3591
837.305	3553
837.443	3485
837.58	3538
837.718	3637
837.856	3549
837.993	3492
838.131	3580
838.269	3568
838.406	3591
838.544	3591
838.681	3469
838.819	3439
838.956	3409
839.094	3367
839.231	3454
839.369	3515
839.506	3713
839.643	3625
839.781	3450
839.918	3428
840.055	3488
840.193	3526
840.33	3542
840.467	3557
840.604	3587
840.742	3785
840.879	3580
841.016	3587
841.153	3568
841.29	3793
841.427	3686
841.564	3724
841.701	3762
841.838	3701
841.975	3629
842.112	3720
842.249	3644
842.385	3606
842.522	3766
842.659	3713
842.796	3629
842.933	3720
843.069	3709
843.206	3728
843.343	3781
843.479	3766
843.616	3789
843.752	3690
843.889	3671
844.025	3865
844.162	3679
844.298	3842
844.435	3800
844.571	3762
844.708	3884
844.844	3964
844.98	4021
845.117	4010
845.253	3915
845.389	3934
845.525	3964
845.661	3994
845.798	3953
845.934	3998
846.07	3968
846.206	4082
846.342	4105
846.478	4025
846.614	3934
846.75	3937
846.886	3907
847.022	4002
847.158	3975
847.294	3953
847.429	4040
847.565	3994
847.701	4253
847.837	3888
847.972	3838
848.108	3998
848.244	3956
848.379	3861
848.515	3800
848.65	3789
848.786	3880
848.921	3823
849.057	3956
849.192	3953
849.328	3869
849.463	3907
849.598	3903
849.734	3869
849.869	3800
850.004	3755
850.14	3838
850.275	3797
850.41	3747
850.545	3755
850.68	3785
850.815	3857
850.95	3797
851.085	3911
851.22	3854
851.355	3865
851.49	3759
851.625	3743
851.76	3789
851.895	3728
852.03	3751
852.165	3861
852.299	3800
852.434	3888
852.569	3884
852.703	3869
852.838	3899
852.973	4010
853.107	3964
853.242	3899
853.376	3873
853.511	3743
853.645	3816
853.78	3922
853.914	3876
854.048	3850
854.183	3899
854.317	3907
854.451	4078
854.585	3983
854.72	3987
854.854	4029
854.988	3941
855.122	4013
855.256	3911
855.39	4036
855.524	4101
855.658	4135
855.792	4086
855.926	4071
856.06	4207
856.194	4215
856.327	4116
856.461	4086
856.595	4158
856.729	4143
856.862	4303
856.996	4204
857.13	4287
857.263	4295
857.397	4367
857.53	4265
857.664	4360
857.797	4363
857.931	4386
858.064	4360
858.197	4470
858.331	4375
858.464	4367
858.597	4329
858.731	4432
858.864	4428
858.997	4459
859.13	4512
859.263	4489
859.396	4622
859.529	4493
859.662	4538
859.795	4493
859.928	4596
860.061	4725
860.194	4767
860.327	4710
860.46	4573
860.592	4744
860.725	4706
860.858	4797
860.99	4729
861.123	4691
861.256	4630
861.388	4767
861.521	5391
861.653	4702
861.786	4687
861.918	4778
862.05	4816
862.183	4835
862.315	4911
862.447	4896
862.58	4911
862.712	4767
862.844	4755
862.976	4881
863.108	4839
863.24	5147
863.372	4793
863.504	4984
863.636	4900
863.768	4968
863.9	4957
864.032	4904
864.164	4972
864.296	5037
864.428	5143
864.559	5109
864.691	5083
864.823	5094
864.954	5090
865.086	5166
865.217	5102
865.349	5166
865.48	5140
865.612	5181
865.743	5330
865.875	5220
866.006	5201
866.137	5185
866.269	5231
866.4	5220
866.531	5246
866.662	5235
866.793	5216
866.924	5273
867.055	5330
867.186	5273
867.317	5349
867.448	5334
867.579	5326
867.71	5387
867.841	5357
867.972	5455
868.103	5474
868.233	5497
868.364	5486
868.495	5532
868.625	5665
868.756	5840
868.886	5661
869.017	5668
869.147	5882
869.278	5851
869.408	5817
869.539	5794
869.669	5889
869.799	5901
869.929	5961
870.06	5996
870.19	6167
870.32	6190
870.45	6216
870.58	6308
870.71	6407
870.84	6479
870.97	6437
871.1	6441
871.23	6635
871.36	6722
871.489	6662
871.619	6734
871.749	6814
871.879	6852
872.008	6958
872.138	7015
872.267	6951
872.397	6909
872.526	7027
872.656	7145
872.785	7209
872.915	7388
873.044	7510
873.173	7556
873.303	7693
873.432	7738
873.561	7833
873.69	7909
873.819	7993
873.948	8202
874.077	8229
874.206	8313
874.335	8446
874.464	8724
874.593	8849
874.722	8876
874.851	9108
874.979	9154
875.108	9367
875.237	9393
875.365	9431
875.494	9663
875.623	9797
875.751	9869
875.88	10021
876.008	10040
876.136	10234
876.265	10512
876.393	10607
876.521	10717
876.65	10793
876.778	10919
876.906	10889
877.034	10961
877.162	11117
877.29	11128
877.418	11288
877.546	11303
877.674	11467
877.802	11417
877.93	11452
878.058	11570
878.185	11505
878.313	11638
878.441	11688
878.568	11634
878.696	11798
878.824	11920
878.951	11889
879.079	12038
879.206	12178
879.333	12148
879.461	11908
879.588	12098
879.715	12038
879.842	12201
879.97	12068
880.097	11920
880.224	11813
880.351	11942
880.478	11874
880.605	11847
880.732	11836
880.859	11939
880.986	11836
881.112	11733
881.239	11737
881.366	11688
881.493	11585
881.619	11589
881.746	11532
881.872	11566
881.999	11543
882.125	11474
882.252	11471
882.378	11497
882.505	11524
882.631	11330
882.757	11383
882.883	11395
883.01	11288
883.136	11231
883.262	11109
883.388	11090
883.514	11166
883.64	11216
883.766	11121
883.892	11079
884.018	11041
884.143	11071
884.269	11170
884.395	10809
884.52	10694
884.646	10809
884.772	10790
884.897	10596
885.023	10641
885.148	10755
885.274	10710
885.399	10660
885.524	10577
885.65	10679
885.775	10558
885.9	10569
886.025	10558
886.15	10588
886.275	10512
886.4	10356
886.525	10417
886.65	10436
886.775	10280
886.9	10451
887.025	10462
887.149	10360
887.274	10261
887.399	10249
887.523	10154
887.648	10090
887.773	10120
887.897	10162
888.021	10124
888.146	10078
888.27	10192
888.395	10188
888.519	10109
888.643	10196
888.767	10249
888.891	10090
889.015	9941
889.139	10002
889.263	9949
889.387	10063
889.511	10036
889.635	10017
889.759	9956
889.883	10059
890.006	10002
890.13	10097
890.254	9998
890.377	9953
890.501	9812
890.624	9835
890.748	9846
890.871	9797
890.995	9781
891.118	9759
891.241	9732
891.364	9740
891.488	9781
891.611	9724
891.734	9720
891.857	9774
891.98	9641
892.103	9785
892.226	9720
892.349	9694
892.471	9466
892.594	9557
892.717	9599
892.839	9511
892.962	9564
893.085	9618
893.207	9523
893.33	9507
893.452	9515
893.575	9648
893.697	9500
893.819	9656
893.941	9656
894.064	9530
894.186	9378
894.308	9439
894.43	9545
894.552	9496
894.674	9515
894.796	9416
894.918	9367
895.04	9313
895.161	9340
895.283	9325
895.405	9207
895.526	9317
895.648	9211
895.769	9237
895.891	9176
896.012	9302
896.134	9222
896.255	9169
896.376	9089
896.498	9089
896.619	9093
896.74	9047
896.861	9093
896.982	9192
897.103	9283
897.224	9154
897.345	9112
897.466	8994
897.587	9017
897.708	9005
897.828	9036
897.949	8941
898.07	8796
898.19	8906
898.311	8960
898.431	8899
898.552	8887
898.672	8948
898.792	8948
898.913	8948
899.033	8842
899.153	8724
899.273	8659
899.393	8686
899.513	8739
899.633	8674
899.753	8712
899.873	8697
899.993	8735
900.113	8678
900.232	8655
900.352	8594
900.472	8625
900.591	8533
900.711	8590
900.83	8549
900.95	8686
901.069	8697
901.189	8549
901.308	8404
901.427	8370
901.546	8385
901.665	8415
901.784	8511
901.904	8370
902.023	8320
902.141	8240
902.26	8157
902.379	8389
902.498	8214
902.617	8191
902.735	8339
902.854	8259
902.973	8271
903.091	8084
903.21	8119
903.328	8107
903.446	8096
903.565	8107
903.683	8035
903.801	8008
903.919	8138
904.038	8126
904.156	8020
904.274	8043
904.392	7936
904.51	8027
904.627	7978
904.745	8073
904.863	8081
904.981	7944
905.098	7811
905.216	7868
905.334	7898
905.451	7837
905.569	7883
905.686	7940
905.803	7887
905.921	7765
906.038	7890
906.155	7753
906.272	7750
906.389	7700
906.506	7616
906.623	7582
906.74	7567
906.857	7521
906.974	7559
907.091	7643
907.208	7719
907.324	7594
907.441	7537
907.557	7476
907.674	7445
907.79	7384
907.907	7377
908.023	7460
908.139	7388
908.256	7339
908.372	7365
908.488	7331
908.604	7266
908.72	7335
908.836	7285
908.952	7228
909.068	7232
909.184	7301
909.3	7247
909.415	7244
909.531	7301
909.647	7110
909.762	7095
909.878	7088
909.993	7103
910.108	7053
910.224	7088
910.339	7019
910.454	7053
910.57	6966
910.685	6970
910.8	7175
910.915	7088
911.03	7008
911.145	6913
911.259	6913
911.374	6867
911.489	6867
911.604	6829
911.718	6749
911.833	6772
911.947	6612
912.062	6582
912.176	6715
912.291	6692
912.405	6738
912.519	6852
912.633	6821
912.748	6692
912.862	6662
912.976	6662
913.09	6498
913.204	6677
913.318	6544
913.431	6662
913.545	6642
913.659	6681
913.772	6612
913.886	6570
914	6589
914.113	6604
914.226	6593
914.34	6597
914.453	6483
914.566	6616
914.68	6502
914.793	6509
914.906	6357
915.019	6479
915.132	6338
915.245	6407
915.358	6467
915.47	6414
915.583	6441
915.696	6479
915.809	6509
915.921	6509
916.034	6460
916.146	6418
916.259	6445
916.371	6471
916.483	6441
916.595	6380
916.708	6395
916.82	6395
916.932	6323
917.044	6395
917.156	6388
917.268	6273
917.38	6292
917.491	6365
917.603	6342
917.715	6380
917.826	6445
917.938	6304
918.049	6228
918.161	6327
918.272	6384
918.384	6445
918.495	6304
918.606	6205
918.717	6167
918.828	6266
918.939	6277
919.05	6163
919.161	6285
919.272	6114
919.383	6110
919.494	6277
919.604	6418
919.715	6331
919.826	6220
919.936	6270
920.047	6353
920.157	6194
920.267	6403
920.378	6353
920.488	6311
920.598	6441
920.708	6582
920.818	6464
920.928	6448
921.038	6623
921.148	6566
921.258	6296
921.368	6270
921.477	6178
921.587	6175
921.697	6034
921.806	6155
921.916	6026
922.025	5946
922.134	5935
922.244	5912
922.353	5920
922.462	5821
922.571	5813
922.68	5710
922.789	5684
922.898	5688
923.007	5619
923.116	5661
923.224	5699
923.333	5623
923.442	5566
923.55	5585
923.659	5600
923.767	5611
923.876	5581
923.984	5577
924.092	5509
924.201	5524
924.309	5551
924.417	5547
924.525	5520
924.633	5455
924.741	6292
924.849	5334
924.956	5493
925.064	5292
925.172	5303
925.279	5322
925.387	5330
925.494	5334
925.602	5436
925.709	5406
925.816	5254
925.924	5288
926.031	5303
926.138	5296
926.245	5364
926.352	5254
926.459	5284
926.566	5273
926.673	5166
926.779	5124
926.886	5067
926.993	5045
927.099	4972
927.206	4999
927.312	4987
927.419	4984
927.525	4984
927.631	4961
927.737	4911
927.843	4820
927.95	4790
928.056	4778
928.162	4793
928.267	4828
928.373	5349
928.479	4824
928.585	4675
928.69	4752
928.796	4782
928.901	4725
929.007	4588
929.112	4622
929.218	4622
929.323	4592
929.428	4531
929.533	4622
929.638	4569
929.743	4489
929.848	4542
929.953	4516
930.058	4409
930.163	4360
930.267	4303
930.372	4413
930.477	4280
930.581	4519
930.685	4379
930.79	4287
930.894	4299
930.998	4253
931.103	4371
931.207	4128
931.311	4055
931.415	4063
931.519	3903
931.623	3949
