Data from glass_V78500241_2881.txt Node
Date: Wed Sep 01 19:34:28 CST 2021
User: usil
Spectrometer: V785-0024
Trigger mode: 0
Integration Time (sec): 4.000000E-1
Scans to average: 1
Nonlinearity correction enabled: false
Boxcar width: 0
Storing dark spectrum: false
XAxis mode: Wavelengths
Number of Pixels in Spectrum: 1024
>>>>>Begin Spectral Data<<<<<
801.071	3743
801.214	3774
801.356	3713
801.499	3762
801.641	3701
801.783	3766
801.926	3808
802.068	3812
802.211	3827
802.353	3861
802.496	3812
802.638	3838
802.78	3884
802.923	3972
803.065	3873
803.208	3873
803.35	3819
803.492	3884
803.635	3880
803.777	3759
803.919	3842
804.061	4135
804.204	3918
804.346	3899
804.488	3876
804.63	3991
804.773	3941
804.915	4025
805.057	4112
805.199	3998
805.341	4059
805.483	4101
805.626	4124
805.768	4109
805.91	4173
806.052	4204
806.194	4135
806.336	4344
806.478	4147
806.62	4169
806.762	4154
806.904	4200
807.046	4303
807.188	4147
807.33	4188
807.472	4227
807.614	4185
807.756	4223
807.898	4162
808.04	4181
808.182	4261
808.324	4272
808.465	4344
808.607	4405
808.749	4409
808.891	4470
809.033	4519
809.174	4390
809.316	4238
809.458	4223
809.6	4124
809.741	4112
809.883	4109
810.025	4211
810.166	4128
810.308	4166
810.45	4215
810.591	4234
810.733	4253
810.875	4504
811.016	4759
811.158	5109
811.299	5269
811.441	5239
811.582	5052
811.724	4611
811.865	4440
812.007	4455
812.148	4440
812.29	4348
812.431	4367
812.573	4390
812.714	4322
812.855	4386
812.997	4394
813.138	4451
813.279	4394
813.421	4390
813.562	4341
813.703	4280
813.845	4276
813.986	4234
814.127	4196
814.268	4242
814.41	4276
814.551	4215
814.692	4329
814.833	4196
814.974	4268
815.115	4295
815.256	4238
815.397	4192
815.539	4223
815.68	4162
815.821	4200
815.962	4291
816.103	4249
816.244	4257
816.385	4211
816.526	4253
816.666	4147
816.807	4067
816.948	4154
817.089	4192
817.23	4112
817.371	4044
817.512	4013
817.653	4109
817.793	4006
817.934	4044
818.075	4055
818.216	4071
818.356	4036
818.497	3983
818.638	3884
818.778	3880
818.919	3876
819.06	3861
819.2	3922
819.341	3850
819.481	3869
819.622	3888
819.762	3983
819.903	3861
820.043	3793
820.184	3827
820.324	3778
820.465	3876
820.605	3804
820.746	3846
820.886	3778
821.026	3888
821.167	3907
821.307	3930
821.447	3964
821.588	3930
821.728	3884
821.868	3899
822.008	3876
822.149	3903
822.289	3865
822.429	3762
822.569	3728
822.709	3793
822.849	3679
822.99	3705
823.13	3740
823.27	3747
823.41	3705
823.55	3694
823.69	3667
823.83	3698
823.97	3679
824.11	3580
824.25	3515
824.389	3568
824.529	3641
824.669	3603
824.809	3671
824.949	3732
825.089	3667
825.228	3679
825.368	3564
825.508	3500
825.648	3530
825.787	3606
825.927	3591
826.067	3591
826.206	3652
826.346	3740
826.485	3827
826.625	3823
826.765	3907
826.904	3789
827.044	3568
827.183	3473
827.323	3416
827.462	3466
827.601	3431
827.741	3431
827.88	3439
828.02	3321
828.159	3409
828.298	3439
828.437	3530
828.577	3447
828.716	3553
828.855	3462
828.994	3351
829.134	3344
829.273	3363
829.412	3336
829.551	3355
829.69	3336
829.829	3435
829.968	3481
830.107	3412
830.246	3428
830.385	3348
830.524	3340
830.663	3268
830.802	3256
830.941	3161
831.08	3165
831.219	3249
831.357	3214
831.496	3374
831.635	3237
831.774	3176
831.913	3150
832.051	3100
832.19	3077
832.329	3199
832.467	3138
832.606	3081
832.744	3150
832.883	3142
833.022	3192
833.16	3226
833.299	3287
833.437	3306
833.576	3348
833.714	3397
833.852	3382
833.991	3416
834.129	3443
834.267	3393
834.406	3370
834.544	3439
834.682	3428
834.821	3389
834.959	3526
835.097	3416
835.235	3515
835.373	3450
835.511	3504
835.65	3447
835.788	3485
835.926	3397
836.064	3367
836.202	3389
836.34	3564
836.478	3568
836.615	3523
836.753	3545
836.891	3625
837.029	3545
837.167	3572
837.305	3549
837.443	3523
837.58	3454
837.718	3545
837.856	3542
837.993	3500
838.131	3580
838.269	3526
838.406	3526
838.544	3538
838.681	3439
838.819	3420
838.956	3382
839.094	3355
839.231	3439
839.369	3473
839.506	3736
839.643	3625
839.781	3500
839.918	3439
840.055	3488
840.193	3500
840.33	3481
840.467	3526
840.604	3538
840.742	3785
840.879	3530
841.016	3526
841.153	3542
841.29	3755
841.427	3720
841.564	3694
841.701	3732
841.838	3648
841.975	3656
842.112	3701
842.249	3614
842.385	3587
842.522	3797
842.659	3686
842.796	3656
842.933	3694
843.069	3641
843.206	3656
843.343	3755
843.479	3759
843.616	3804
843.752	3652
843.889	3667
844.025	3827
844.162	3705
844.298	3800
844.435	3793
844.571	3774
844.708	3903
844.844	3960
844.98	3964
845.117	3987
845.253	3918
845.389	3918
845.525	3899
845.661	3934
845.798	3854
845.934	3998
846.07	3945
846.206	4067
846.342	4090
846.478	4051
846.614	3915
846.75	3945
846.886	3899
847.022	4032
847.158	3964
847.294	3991
847.429	3983
847.565	3979
847.701	4173
847.837	3869
847.972	3842
848.108	3922
848.244	3941
848.379	3854
848.515	3827
848.65	3800
848.786	3835
848.921	3823
849.057	3945
849.192	3888
849.328	3854
849.463	3865
849.598	3850
849.734	3793
849.869	3804
850.004	3789
850.14	3774
850.275	3743
850.41	3747
850.545	3698
850.68	3755
850.815	3766
850.95	3766
851.085	3926
851.22	3873
851.355	3816
851.49	3785
851.625	3793
851.76	3778
851.895	3743
852.03	3743
852.165	3747
852.299	3800
852.434	3896
852.569	3823
852.703	3842
852.838	3956
852.973	4029
853.107	3991
853.242	3896
853.376	3819
853.511	3732
853.645	3812
853.78	3979
853.914	3876
854.048	3869
854.183	3854
854.317	3937
854.451	4021
854.585	3972
854.72	3926
854.854	3991
854.988	3888
855.122	4002
855.256	3884
855.39	4006
855.524	4059
855.658	4044
855.792	4074
855.926	4101
856.06	4135
856.194	4173
856.327	4109
856.461	4055
856.595	4112
856.729	4128
856.862	4227
856.996	4223
857.13	4280
857.263	4287
857.397	4341
857.53	4306
857.664	4303
857.797	4367
857.931	4390
858.064	4352
858.197	4443
858.331	4402
858.464	4352
858.597	4352
858.731	4398
858.864	4405
858.997	4424
859.13	4489
859.263	4497
859.396	4569
859.529	4474
859.662	4497
859.795	4485
859.928	4550
860.061	4653
860.194	4683
860.327	4641
860.46	4637
860.592	4656
860.725	4763
860.858	4714
860.99	4687
861.123	4626
861.256	4687
861.388	4786
861.521	5349
861.653	4694
861.786	4672
861.918	4721
862.05	4809
862.183	4850
862.315	4831
862.447	4927
862.58	4896
862.712	4778
862.844	4793
862.976	4900
863.108	4782
863.24	5204
863.372	4790
863.504	4816
863.636	4904
863.768	4934
863.9	4896
864.032	4938
864.164	4904
864.296	4961
864.428	5109
864.559	5098
864.691	5071
864.823	5109
864.954	5094
865.086	5132
865.217	5109
865.349	5071
865.48	5128
865.612	5143
865.743	5254
865.875	5197
866.006	5132
866.137	5212
866.269	5261
866.4	5220
866.531	5227
866.662	5250
866.793	5242
866.924	5239
867.055	5292
867.186	5311
867.317	5364
867.448	5265
867.579	5284
867.71	5337
867.841	5360
867.972	5379
868.103	5395
868.233	5490
868.364	5505
868.495	5551
868.625	5676
868.756	5764
868.886	5596
869.017	5714
869.147	5889
869.278	5817
869.408	5783
869.539	5813
869.669	5912
869.799	5901
869.929	5950
870.06	6045
870.19	6220
870.32	6178
870.45	6319
870.58	6308
870.71	6338
870.84	6395
870.97	6456
871.1	6384
871.23	6627
871.36	6669
871.489	6642
871.619	6692
871.749	6719
871.879	6871
872.008	6924
872.138	6947
872.267	6894
872.397	6989
872.526	7015
872.656	7107
872.785	7190
872.915	7400
873.044	7464
873.173	7468
873.303	7624
873.432	7666
873.561	7871
873.69	7871
873.819	7921
873.948	8103
874.077	8221
874.206	8233
874.335	8465
874.464	8632
874.593	8838
874.722	8933
874.851	9028
874.979	9169
875.108	9336
875.237	9416
875.365	9473
875.494	9671
875.623	9808
875.751	9842
875.88	9956
876.008	10135
876.136	10200
876.265	10558
876.393	10729
876.521	10706
876.65	10774
876.778	10896
876.906	10965
877.034	10961
877.162	11060
877.29	11124
877.418	11296
877.546	11315
877.674	11391
877.802	11589
877.93	11558
878.058	11539
878.185	11566
878.313	11589
878.441	11668
878.568	11672
878.696	11790
878.824	11775
878.951	11901
879.079	11954
879.206	12041
879.333	12064
879.461	11973
879.588	12053
879.715	12079
879.842	12167
879.97	11996
880.097	11863
880.224	11843
880.351	11866
880.478	11817
880.605	11832
880.732	11843
880.859	12015
880.986	11790
881.112	11866
881.239	11741
881.366	11604
881.493	11535
881.619	11440
881.746	11554
881.872	11474
881.999	11417
882.125	11478
882.252	11444
882.378	11440
882.505	11596
882.631	11391
882.757	11261
882.883	11284
883.01	11250
883.136	11185
883.262	11102
883.388	11121
883.514	11159
883.64	11128
883.766	11166
883.892	10968
884.018	11033
884.143	10949
884.269	11117
884.395	10812
884.52	10755
884.646	10744
884.772	10660
884.897	10611
885.023	10664
885.148	10694
885.274	10824
885.399	10721
885.524	10561
885.65	10577
885.775	10512
885.9	10550
886.025	10577
886.15	10531
886.275	10436
886.4	10417
886.525	10504
886.65	10344
886.775	10382
886.9	10542
887.025	10592
887.149	10287
887.274	10207
887.399	10173
887.523	10131
887.648	10131
887.773	10093
887.897	10246
888.021	10109
888.146	10128
888.27	10158
888.395	10196
888.519	10177
888.643	10105
888.767	10162
888.891	10063
889.015	10044
889.139	10010
889.263	9937
889.387	10090
889.511	10093
889.635	10112
889.759	9945
889.883	9968
890.006	10032
890.13	10040
890.254	9869
890.377	10006
890.501	9831
890.624	9766
890.748	9823
890.871	9774
890.995	9694
891.118	9732
891.241	9686
891.364	9717
891.488	9781
891.611	9701
891.734	9709
891.857	9709
891.98	9641
892.103	9747
892.226	9682
892.349	9648
892.471	9496
892.594	9580
892.717	9671
892.839	9568
892.962	9599
893.085	9633
893.207	9519
893.33	9496
893.452	9485
893.575	9637
893.697	9481
893.819	9580
893.941	9580
894.064	9576
894.186	9412
894.308	9386
894.43	9580
894.552	9519
894.674	9447
894.796	9351
894.918	9386
895.04	9386
895.161	9279
895.283	9233
895.405	9233
895.526	9287
895.648	9241
895.769	9264
895.891	9203
896.012	9264
896.134	9207
896.255	9081
896.376	9116
896.498	9169
896.619	9077
896.74	9055
896.861	9093
896.982	9233
897.103	9279
897.224	9112
897.345	8994
897.466	8994
897.587	8967
897.708	9017
897.828	9009
897.949	8925
898.07	8815
898.19	8845
898.311	9001
898.431	8880
898.552	8895
898.672	8887
898.792	8826
898.913	8929
899.033	8766
899.153	8807
899.273	8621
899.393	8659
899.513	8712
899.633	8724
899.753	8766
899.873	8651
899.993	8724
900.113	8716
900.232	8640
900.352	8655
900.472	8610
900.591	8522
900.711	8568
900.83	8530
900.95	8682
901.069	8689
901.189	8564
901.308	8469
901.427	8454
901.546	8423
901.665	8457
901.784	8473
901.904	8358
902.023	8324
902.141	8187
902.26	8126
902.379	8210
902.498	8153
902.617	8214
902.735	8294
902.854	8176
902.973	8233
903.091	8073
903.21	8107
903.328	8202
903.446	8115
903.565	8119
903.683	8077
903.801	8050
903.919	8069
904.038	8088
904.156	7993
904.274	8008
904.392	7944
904.51	8012
904.627	8054
904.745	8058
904.863	8111
904.981	7906
905.098	7913
905.216	7868
905.334	7868
905.451	7879
905.569	7890
905.686	7868
905.803	7944
905.921	7776
906.038	7841
906.155	7833
906.272	7696
906.389	7723
906.506	7616
906.623	7556
906.74	7556
906.857	7552
906.974	7480
907.091	7628
907.208	7681
907.324	7552
907.441	7575
907.557	7476
907.674	7422
907.79	7384
907.907	7381
908.023	7419
908.139	7449
908.256	7407
908.372	7358
908.488	7312
908.604	7236
908.72	7282
908.836	7236
908.952	7202
909.068	7232
909.184	7308
909.3	7206
909.415	7285
909.531	7274
909.647	7152
909.762	7050
909.878	7050
909.993	7114
910.108	7053
910.224	7000
910.339	7019
910.454	7038
910.57	7038
910.685	6954
910.8	7114
910.915	7053
911.03	6989
911.145	6916
911.259	6844
911.374	6863
911.489	6798
911.604	6802
911.718	6681
911.833	6669
911.947	6612
912.062	6563
912.176	6677
912.291	6726
912.405	6635
912.519	6768
912.633	6821
912.748	6715
912.862	6665
912.976	6639
913.09	6528
913.204	6585
913.318	6555
913.431	6665
913.545	6631
913.659	6726
913.772	6620
913.886	6532
914	6585
914.113	6604
914.226	6639
914.34	6563
914.453	6494
914.566	6570
914.68	6486
914.793	6486
914.906	6369
915.019	6433
915.132	6353
915.245	6350
915.358	6486
915.47	6429
915.583	6399
915.696	6429
915.809	6506
915.921	6532
916.034	6410
916.146	6410
916.259	6372
916.371	6460
916.483	6391
916.595	6395
916.708	6338
916.82	6357
916.932	6346
917.044	6331
917.156	6323
917.268	6331
917.38	6308
917.491	6323
917.603	6262
917.715	6346
917.826	6380
917.938	6232
918.049	6220
918.161	6235
918.272	6331
918.384	6437
918.495	6327
918.606	6163
918.717	6251
918.828	6258
918.939	6247
919.05	6182
919.161	6258
919.272	6072
919.383	6171
919.494	6197
919.604	6353
919.715	6315
919.826	6205
919.936	6232
920.047	6361
920.157	6205
920.267	6445
920.378	6361
920.488	6304
920.598	6384
920.708	6528
920.818	6441
920.928	6437
921.038	6555
921.148	6517
921.258	6365
921.368	6327
921.477	6209
921.587	6148
921.697	6117
921.806	6140
921.916	6053
922.025	5923
922.134	5885
922.244	5844
922.353	5870
922.462	5775
922.571	5760
922.68	5680
922.789	5726
922.898	5726
923.007	5608
923.116	5691
923.224	5688
923.333	5611
923.442	5573
923.55	5543
923.659	5600
923.767	5630
923.876	5543
923.984	5543
924.092	5482
924.201	5551
924.309	5520
924.417	5532
924.525	5448
924.633	5421
924.741	6133
924.849	5284
924.956	5440
925.064	5303
925.172	5330
925.279	5261
925.387	5303
925.494	5311
925.602	5421
925.709	5433
925.816	5254
925.924	5292
926.031	5315
926.138	5246
926.245	5326
926.352	5185
926.459	5284
926.566	5315
926.673	5193
926.779	5102
926.886	5159
926.993	5025
927.099	4934
927.206	4946
927.312	4961
927.419	5006
927.525	4961
927.631	4953
927.737	4866
927.843	4816
927.95	4774
928.056	4786
928.162	4809
928.267	4778
928.373	5231
928.479	4801
928.585	4656
928.69	4706
928.796	4717
928.901	4615
929.007	4546
929.112	4668
929.218	4599
929.323	4618
929.428	4558
929.533	4653
929.638	4481
929.743	4542
929.848	4504
929.953	4466
930.058	4447
930.163	4287
930.267	4318
930.372	4398
930.477	4261
930.581	4428
930.685	4390
930.79	4238
930.894	4295
930.998	4204
931.103	4367
931.207	4059
931.311	4074
931.415	4021
931.519	3915
931.623	3941
