Data from glass_V78500241_1025.txt Node
Date: Wed Sep 01 19:21:36 CST 2021
User: usil
Spectrometer: V785-0024
Trigger mode: 0
Integration Time (sec): 4.000000E-1
Scans to average: 1
Nonlinearity correction enabled: false
Boxcar width: 0
Storing dark spectrum: false
XAxis mode: Wavelengths
Number of Pixels in Spectrum: 1024
>>>>>Begin Spectral Data<<<<<
801.071	3743
801.214	3751
801.356	3713
801.499	3762
801.641	3709
801.783	3793
801.926	3869
802.068	3842
802.211	3907
802.353	3922
802.496	3793
802.638	3892
802.78	3975
802.923	4002
803.065	3934
803.208	3846
803.35	3880
803.492	3907
803.635	3896
803.777	3800
803.919	3915
804.061	4162
804.204	3930
804.346	3953
804.488	3945
804.63	4093
804.773	3983
804.915	4078
805.057	4139
805.199	4059
805.341	4097
805.483	4166
805.626	4120
805.768	4147
805.91	4246
806.052	4276
806.194	4238
806.336	4367
806.478	4272
806.62	4204
806.762	4219
806.904	4257
807.046	4284
807.188	4188
807.33	4166
807.472	4188
807.614	4234
807.756	4303
807.898	4211
808.04	4238
808.182	4303
808.324	4333
808.465	4402
808.607	4497
808.749	4451
808.891	4497
809.033	4512
809.174	4402
809.316	4268
809.458	4261
809.6	4150
809.741	4166
809.883	4169
810.025	4185
810.166	4230
810.308	4253
810.45	4287
810.591	4230
810.733	4276
810.875	4523
811.016	4797
811.158	5132
811.299	5288
811.441	5303
811.582	5075
811.724	4729
811.865	4500
812.007	4478
812.148	4459
812.29	4462
812.431	4424
812.573	4481
812.714	4375
812.855	4402
812.997	4432
813.138	4504
813.279	4451
813.421	4367
813.562	4379
813.703	4371
813.845	4360
813.986	4291
814.127	4204
814.268	4333
814.41	4337
814.551	4238
814.692	4337
814.833	4268
814.974	4329
815.115	4363
815.256	4295
815.397	4272
815.539	4215
815.68	4200
815.821	4234
815.962	4280
816.103	4299
816.244	4238
816.385	4246
816.526	4314
816.666	4188
816.807	4093
816.948	4177
817.089	4185
817.23	4131
817.371	4063
817.512	4017
817.653	4082
817.793	4044
817.934	4048
818.075	4090
818.216	4097
818.356	4074
818.497	3998
818.638	3915
818.778	3937
818.919	3899
819.06	3850
819.2	3930
819.341	3808
819.481	3823
819.622	3884
819.762	4055
819.903	3945
820.043	3873
820.184	3838
820.324	3850
820.465	3857
820.605	3857
820.746	3876
820.886	3850
821.026	3945
821.167	3956
821.307	4006
821.447	4010
821.588	3975
821.728	3956
821.868	3979
822.008	3888
822.149	3945
822.289	3930
822.429	3766
822.569	3766
822.709	3785
822.849	3724
822.99	3781
823.13	3781
823.27	3789
823.41	3724
823.55	3747
823.69	3732
823.83	3732
823.97	3686
824.11	3618
824.25	3629
824.389	3660
824.529	3667
824.669	3644
824.809	3736
824.949	3751
825.089	3705
825.228	3740
825.368	3595
825.508	3568
825.648	3587
825.787	3610
825.927	3679
826.067	3671
826.206	3675
826.346	3808
826.485	3823
826.625	3888
826.765	3926
826.904	3857
827.044	3587
827.183	3553
827.323	3393
827.462	3500
827.601	3462
827.741	3450
827.88	3454
828.02	3374
828.159	3481
828.298	3485
828.437	3515
828.577	3488
828.716	3610
828.855	3519
828.994	3389
829.134	3370
829.273	3405
829.412	3348
829.551	3355
829.69	3389
829.829	3458
829.968	3504
830.107	3424
830.246	3477
830.385	3393
830.524	3363
830.663	3294
830.802	3264
830.941	3233
831.08	3173
831.219	3317
831.357	3283
831.496	3450
831.635	3275
831.774	3237
831.913	3192
832.051	3142
832.19	3161
832.329	3199
832.467	3180
832.606	3123
832.744	3188
832.883	3195
833.022	3218
833.16	3241
833.299	3279
833.437	3355
833.576	3382
833.714	3397
833.852	3447
833.991	3477
834.129	3469
834.267	3443
834.406	3405
834.544	3431
834.682	3447
834.821	3405
834.959	3572
835.097	3409
835.235	3553
835.373	3496
835.511	3504
835.65	3439
835.788	3526
835.926	3431
836.064	3386
836.202	3431
836.34	3584
836.478	3648
836.615	3519
836.753	3568
836.891	3656
837.029	3614
837.167	3603
837.305	3603
837.443	3553
837.58	3530
837.718	3599
837.856	3591
837.993	3549
838.131	3572
838.269	3603
838.406	3591
838.544	3603
838.681	3496
838.819	3450
838.956	3389
839.094	3428
839.231	3412
839.369	3580
839.506	3740
839.643	3618
839.781	3511
839.918	3500
840.055	3523
840.193	3553
840.33	3526
840.467	3561
840.604	3618
840.742	3835
840.879	3580
841.016	3568
841.153	3629
841.29	3800
841.427	3743
841.564	3740
841.701	3762
841.838	3709
841.975	3652
842.112	3675
842.249	3637
842.385	3656
842.522	3854
842.659	3682
842.796	3686
842.933	3736
843.069	3671
843.206	3713
843.343	3789
843.479	3785
843.616	3846
843.752	3724
843.889	3694
844.025	3876
844.162	3747
844.298	3873
844.435	3789
844.571	3804
844.708	3892
844.844	4021
844.98	4048
845.117	4013
845.253	3941
845.389	3903
845.525	4017
845.661	3983
845.798	3903
845.934	4002
846.07	3968
846.206	4093
846.342	4154
846.478	4097
846.614	3972
846.75	3945
846.886	3911
847.022	4063
847.158	3972
847.294	4006
847.429	4040
847.565	4021
847.701	4223
847.837	3907
847.972	3880
848.108	4010
848.244	3968
848.379	3850
848.515	3842
848.65	3861
848.786	3869
848.921	3884
849.057	3930
849.192	3937
849.328	3861
849.463	3915
849.598	3884
849.734	3876
849.869	3842
850.004	3831
850.14	3827
850.275	3827
850.41	3770
850.545	3774
850.68	3785
850.815	3762
850.95	3842
851.085	3949
851.22	3873
851.355	3831
851.49	3800
851.625	3770
851.76	3781
851.895	3740
852.03	3747
852.165	3808
852.299	3857
852.434	3915
852.569	3903
852.703	3896
852.838	3918
852.973	3994
853.107	4006
853.242	3930
853.376	3869
853.511	3747
853.645	3873
853.78	4017
853.914	3899
854.048	3937
854.183	3896
854.317	3983
854.451	4040
854.585	3994
854.72	3956
854.854	4071
854.988	3937
855.122	3991
855.256	3922
855.39	4093
855.524	4071
855.658	4074
855.792	4128
855.926	4181
856.06	4150
856.194	4238
856.327	4112
856.461	4116
856.595	4158
856.729	4177
856.862	4287
856.996	4276
857.13	4299
857.263	4333
857.397	4386
857.53	4276
857.664	4341
857.797	4390
857.931	4409
858.064	4356
858.197	4474
858.331	4356
858.464	4398
858.597	4306
858.731	4462
858.864	4485
858.997	4466
859.13	4527
859.263	4580
859.396	4527
859.529	4554
859.662	4603
859.795	4542
859.928	4596
860.061	4698
860.194	4725
860.327	4691
860.46	4702
860.592	4702
860.725	4782
860.858	4767
860.99	4691
861.123	4714
861.256	4679
861.388	4782
861.521	5478
861.653	4683
861.786	4714
861.918	4759
862.05	4812
862.183	4877
862.315	4892
862.447	4911
862.58	4908
862.712	4793
862.844	4801
862.976	4873
863.108	4938
863.24	5265
863.372	4816
863.504	4915
863.636	4911
863.768	4934
863.9	4961
864.032	4915
864.164	4984
864.296	5052
864.428	5086
864.559	5136
864.691	5083
864.823	5159
864.954	5155
865.086	5174
865.217	5136
865.349	5113
865.48	5136
865.612	5189
865.743	5311
865.875	5235
866.006	5197
866.137	5246
866.269	5223
866.4	5254
866.531	5258
866.662	5269
866.793	5303
866.924	5307
867.055	5376
867.186	5292
867.317	5315
867.448	5303
867.579	5360
867.71	5364
867.841	5433
867.972	5410
868.103	5482
868.233	5478
868.364	5501
868.495	5573
868.625	5653
868.756	5741
868.886	5649
869.017	5695
869.147	5840
869.278	5878
869.408	5798
869.539	5844
869.669	5870
869.799	5920
869.929	5973
870.06	6034
870.19	6216
870.32	6186
870.45	6300
870.58	6331
870.71	6437
870.84	6429
870.97	6433
871.1	6445
871.23	6684
871.36	6715
871.489	6631
871.619	6757
871.749	6814
871.879	6829
872.008	7015
872.138	6977
872.267	7019
872.397	7027
872.526	6993
872.656	7133
872.785	7206
872.915	7400
873.044	7575
873.173	7639
873.303	7662
873.432	7750
873.561	7875
873.69	7898
873.819	8062
873.948	8157
874.077	8286
874.206	8320
874.335	8389
874.464	8636
874.593	8834
874.722	8933
874.851	9195
874.979	9245
875.108	9424
875.237	9454
875.365	9504
875.494	9690
875.623	9880
875.751	9926
875.88	10006
876.008	10139
876.136	10299
876.265	10584
876.393	10714
876.521	10748
876.65	10812
876.778	10854
876.906	10847
877.034	10995
877.162	11117
877.29	11052
877.418	11368
877.546	11288
877.674	11448
877.802	11459
877.93	11501
878.058	11600
878.185	11592
878.313	11615
878.441	11756
878.568	11691
878.696	11840
878.824	11897
878.951	11958
879.079	12041
879.206	12152
879.333	12095
879.461	12034
879.588	12114
879.715	12083
879.842	12277
879.97	12068
880.097	11923
880.224	11889
880.351	11870
880.478	11958
880.605	11809
880.732	11798
880.859	12015
880.986	11805
881.112	11859
881.239	11745
881.366	11688
881.493	11630
881.619	11539
881.746	11577
881.872	11570
881.999	11425
882.125	11524
882.252	11558
882.378	11528
882.505	11577
882.631	11417
882.757	11315
882.883	11296
883.01	11212
883.136	11162
883.262	11079
883.388	11029
883.514	11227
883.64	11140
883.766	11109
883.892	11018
884.018	10953
884.143	11075
884.269	11151
884.395	10892
884.52	10767
884.646	10782
884.772	10698
884.897	10675
885.023	10664
885.148	10710
885.274	10801
885.399	10721
885.524	10622
885.65	10618
885.775	10599
885.9	10599
886.025	10607
886.15	10569
886.275	10474
886.4	10394
886.525	10417
886.65	10432
886.775	10367
886.9	10466
887.025	10599
887.149	10291
887.274	10284
887.399	10249
887.523	10158
887.648	10150
887.773	10158
887.897	10265
888.021	10253
888.146	10158
888.27	10207
888.395	10287
888.519	10158
888.643	10131
888.767	10287
888.891	10139
889.015	9975
889.139	10025
889.263	9972
889.387	10055
889.511	10051
889.635	10044
889.759	9934
889.883	9987
890.006	10040
890.13	10059
890.254	9975
890.377	10040
890.501	9865
890.624	9869
890.748	9975
890.871	9812
890.995	9789
891.118	9682
891.241	9770
891.364	9770
891.488	9823
891.611	9732
891.734	9747
891.857	9816
891.98	9705
892.103	9724
892.226	9713
892.349	9686
892.471	9538
892.594	9553
892.717	9584
892.839	9610
892.962	9599
893.085	9648
893.207	9599
893.33	9473
893.452	9580
893.575	9591
893.697	9561
893.819	9675
893.941	9705
894.064	9660
894.186	9386
894.308	9439
894.43	9530
894.552	9580
894.674	9466
894.796	9420
894.918	9389
895.04	9386
895.161	9481
895.283	9325
895.405	9294
895.526	9302
895.648	9253
895.769	9260
895.891	9253
896.012	9321
896.134	9222
896.255	9150
896.376	9123
896.498	9131
896.619	9214
896.74	9150
896.861	9180
896.982	9310
897.103	9389
897.224	9169
897.345	9043
897.466	9047
897.587	9009
897.708	9119
897.828	9001
897.949	8960
898.07	8815
898.19	8887
898.311	9077
898.431	8849
898.552	8906
898.672	8933
898.792	8952
898.913	8960
899.033	8804
899.153	8693
899.273	8644
899.393	8750
899.513	8766
899.633	8697
899.753	8804
899.873	8727
899.993	8800
900.113	8781
900.232	8746
900.352	8655
900.472	8610
900.591	8552
900.711	8579
900.83	8568
900.95	8670
901.069	8758
901.189	8602
901.308	8446
901.427	8476
901.546	8495
901.665	8480
901.784	8469
901.904	8400
902.023	8275
902.141	8248
902.26	8168
902.379	8263
902.498	8248
902.617	8206
902.735	8332
902.854	8279
902.973	8282
903.091	8153
903.21	8202
903.328	8229
903.446	8138
903.565	8062
903.683	8065
903.801	8043
903.919	8180
904.038	8180
904.156	8081
904.274	8065
904.392	8031
904.51	8073
904.627	8050
904.745	8077
904.863	8218
904.981	7986
905.098	7799
905.216	7947
905.334	7951
905.451	7917
905.569	7902
905.686	7970
905.803	7947
905.921	7719
906.038	7890
906.155	7837
906.272	7704
906.389	7700
906.506	7647
906.623	7647
906.74	7636
906.857	7575
906.974	7571
907.091	7704
907.208	7708
907.324	7613
907.441	7601
907.557	7487
907.674	7411
907.79	7407
907.907	7441
908.023	7472
908.139	7434
908.256	7354
908.372	7403
908.488	7331
908.604	7285
908.72	7293
908.836	7293
908.952	7236
909.068	7305
909.184	7324
909.3	7266
909.415	7263
909.531	7244
909.647	7171
909.762	7129
909.878	7145
909.993	7190
910.108	7133
910.224	7118
910.339	7171
910.454	7046
910.57	7027
910.685	7034
910.8	7122
910.915	7076
911.03	7046
911.145	6886
911.259	6882
911.374	6901
911.489	6840
911.604	6840
911.718	6734
911.833	6772
911.947	6719
912.062	6608
912.176	6700
912.291	6696
912.405	6692
912.519	6810
912.633	6825
912.748	6692
912.862	6719
912.976	6604
913.09	6513
913.204	6639
913.318	6635
913.431	6711
913.545	6673
913.659	6673
913.772	6684
913.886	6589
914	6471
914.113	6616
914.226	6673
914.34	6635
914.453	6475
914.566	6578
914.68	6528
914.793	6544
914.906	6433
915.019	6384
915.132	6395
915.245	6445
915.358	6490
915.47	6437
915.583	6410
915.696	6494
915.809	6513
915.921	6551
916.034	6388
916.146	6395
916.259	6422
916.371	6498
916.483	6426
916.595	6380
916.708	6380
916.82	6448
916.932	6395
917.044	6395
917.156	6448
917.268	6342
917.38	6334
917.491	6338
917.603	6384
917.715	6388
917.826	6445
917.938	6334
918.049	6308
918.161	6300
918.272	6391
918.384	6410
918.495	6292
918.606	6311
918.717	6228
918.828	6350
918.939	6270
919.05	6209
919.161	6273
919.272	6140
919.383	6152
919.494	6319
919.604	6441
919.715	6315
919.826	6182
919.936	6292
920.047	6311
920.157	6270
920.267	6498
920.378	6315
920.488	6292
920.598	6513
920.708	6574
920.818	6475
920.928	6525
921.038	6540
921.148	6601
921.258	6388
921.368	6323
921.477	6201
921.587	6190
921.697	6110
921.806	6224
921.916	6095
922.025	5927
922.134	5904
922.244	5863
922.353	5904
922.462	5855
922.571	5859
922.68	5756
922.789	5688
922.898	5729
923.007	5623
923.116	5707
923.224	5676
923.333	5619
923.442	5596
923.55	5528
923.659	5638
923.767	5608
923.876	5600
923.984	5592
924.092	5551
924.201	5611
924.309	5558
924.417	5573
924.525	5501
924.633	5509
924.741	6334
924.849	5360
924.956	5474
925.064	5406
925.172	5273
925.279	5322
925.387	5417
925.494	5353
925.602	5452
925.709	5391
925.816	5299
925.924	5258
926.031	5402
926.138	5349
926.245	5360
926.352	5273
926.459	5296
926.566	5334
926.673	5231
926.779	5181
926.886	5105
926.993	5033
927.099	5052
927.206	4984
927.312	4957
927.419	5045
927.525	4991
927.631	5006
927.737	4961
927.843	4911
927.95	4835
928.056	4854
928.162	4831
928.267	4839
928.373	5341
928.479	4831
928.585	4691
928.69	4763
928.796	4820
928.901	4675
929.007	4584
929.112	4687
929.218	4637
929.323	4607
929.428	4607
929.533	4725
929.638	4504
929.743	4519
929.848	4573
929.953	4519
930.058	4443
930.163	4352
930.267	4371
930.372	4436
930.477	4310
930.581	4485
930.685	4363
930.79	4265
930.894	4314
930.998	4238
931.103	4428
931.207	4154
931.311	4120
931.415	4105
931.519	3949
931.623	3960
