Data from glass_V78500241_1980.txt Node
Date: Wed Sep 01 19:28:13 CST 2021
User: usil
Spectrometer: V785-0024
Trigger mode: 0
Integration Time (sec): 4.000000E-1
Scans to average: 1
Nonlinearity correction enabled: false
Boxcar width: 0
Storing dark spectrum: false
XAxis mode: Wavelengths
Number of Pixels in Spectrum: 1024
>>>>>Begin Spectral Data<<<<<
801.071	3713
801.214	3793
801.356	3713
801.499	3747
801.641	3717
801.783	3781
801.926	3823
802.068	3838
802.211	3854
802.353	3873
802.496	3823
802.638	3880
802.78	3880
802.923	3930
803.065	3926
803.208	3823
803.35	3873
803.492	3896
803.635	3926
803.777	3770
803.919	3884
804.061	4105
804.204	3934
804.346	3953
804.488	3884
804.63	4055
804.773	4013
804.915	4055
805.057	4169
805.199	4021
805.341	4090
805.483	4128
805.626	4120
805.768	4116
805.91	4223
806.052	4261
806.194	4154
806.336	4360
806.478	4196
806.62	4112
806.762	4219
806.904	4249
807.046	4371
807.188	4200
807.33	4143
807.472	4227
807.614	4181
807.756	4299
807.898	4200
808.04	4204
808.182	4230
808.324	4299
808.465	4356
808.607	4436
808.749	4436
808.891	4508
809.033	4489
809.174	4379
809.316	4238
809.458	4291
809.6	4181
809.741	4131
809.883	4147
810.025	4223
810.166	4230
810.308	4196
810.45	4261
810.591	4177
810.733	4303
810.875	4455
811.016	4835
811.158	5124
811.299	5258
811.441	5258
811.582	5048
811.724	4725
811.865	4489
812.007	4470
812.148	4436
812.29	4383
812.431	4402
812.573	4405
812.714	4394
812.855	4398
812.997	4405
813.138	4443
813.279	4398
813.421	4375
813.562	4375
813.703	4291
813.845	4383
813.986	4287
814.127	4196
814.268	4284
814.41	4253
814.551	4253
814.692	4306
814.833	4310
814.974	4272
815.115	4314
815.256	4261
815.397	4246
815.539	4265
815.68	4257
815.821	4223
815.962	4348
816.103	4280
816.244	4234
816.385	4207
816.526	4253
816.666	4207
816.807	4055
816.948	4158
817.089	4166
817.23	4074
817.371	4074
817.512	4063
817.653	4078
817.793	4048
817.934	4040
818.075	4051
818.216	4086
818.356	4128
818.497	3987
818.638	3911
818.778	3911
818.919	3873
819.06	3846
819.2	3857
819.341	3873
819.481	3816
819.622	3922
819.762	4025
819.903	3937
820.043	3869
820.184	3838
820.324	3778
820.465	3918
820.605	3869
820.746	3842
820.886	3838
821.026	3876
821.167	3873
821.307	3991
821.447	3987
821.588	3911
821.728	3960
821.868	3956
822.008	3884
822.149	3922
822.289	3922
822.429	3766
822.569	3755
822.709	3785
822.849	3740
822.99	3724
823.13	3785
823.27	3778
823.41	3728
823.55	3717
823.69	3701
823.83	3724
823.97	3701
824.11	3591
824.25	3568
824.389	3614
824.529	3663
824.669	3606
824.809	3667
824.949	3717
825.089	3701
825.228	3671
825.368	3584
825.508	3580
825.648	3568
825.787	3614
825.927	3603
826.067	3625
826.206	3667
826.346	3766
826.485	3804
826.625	3876
826.765	3903
826.904	3854
827.044	3599
827.183	3515
827.323	3428
827.462	3492
827.601	3462
827.741	3409
827.88	3454
828.02	3370
828.159	3435
828.298	3481
828.437	3507
828.577	3488
828.716	3603
828.855	3481
828.994	3409
829.134	3332
829.273	3382
829.412	3321
829.551	3329
829.69	3359
829.829	3386
829.968	3507
830.107	3458
830.246	3435
830.385	3344
830.524	3325
830.663	3313
830.802	3249
830.941	3173
831.08	3218
831.219	3226
831.357	3249
831.496	3393
831.635	3218
831.774	3184
831.913	3165
832.051	3112
832.19	3161
832.329	3199
832.467	3180
832.606	3097
832.744	3192
832.883	3176
833.022	3192
833.16	3226
833.299	3294
833.437	3336
833.576	3344
833.714	3412
833.852	3458
833.991	3450
834.129	3466
834.267	3420
834.406	3389
834.544	3431
834.682	3428
834.821	3386
834.959	3553
835.097	3382
835.235	3511
835.373	3488
835.511	3519
835.65	3488
835.788	3500
835.926	3393
836.064	3355
836.202	3428
836.34	3564
836.478	3603
836.615	3542
836.753	3568
836.891	3644
837.029	3622
837.167	3584
837.305	3549
837.443	3553
837.58	3523
837.718	3610
837.856	3545
837.993	3523
838.131	3538
838.269	3542
838.406	3610
838.544	3564
838.681	3496
838.819	3450
838.956	3397
839.094	3367
839.231	3439
839.369	3500
839.506	3736
839.643	3652
839.781	3500
839.918	3473
840.055	3542
840.193	3511
840.33	3526
840.467	3553
840.604	3591
840.742	3793
840.879	3523
841.016	3545
841.153	3603
841.29	3778
841.427	3679
841.564	3720
841.701	3701
841.838	3701
841.975	3667
842.112	3675
842.249	3667
842.385	3633
842.522	3816
842.659	3732
842.796	3698
842.933	3717
843.069	3690
843.206	3740
843.343	3819
843.479	3819
843.616	3785
843.752	3675
843.889	3682
844.025	3842
844.162	3694
844.298	3850
844.435	3789
844.571	3804
844.708	3934
844.844	3941
844.98	4010
845.117	3987
845.253	3896
845.389	3896
845.525	3930
845.661	3975
845.798	3915
845.934	3964
846.07	3915
846.206	4078
846.342	4147
846.478	4048
846.614	3975
846.75	3930
846.886	3903
847.022	4055
847.158	3922
847.294	3987
847.429	4013
847.565	4032
847.701	4200
847.837	3884
847.972	3854
848.108	3956
848.244	3975
848.379	3850
848.515	3804
848.65	3854
848.786	3869
848.921	3804
849.057	3941
849.192	3983
849.328	3899
849.463	3922
849.598	3896
849.734	3873
849.869	3812
850.004	3789
850.14	3827
850.275	3785
850.41	3736
850.545	3766
850.68	3759
850.815	3819
850.95	3785
851.085	3960
851.22	3838
851.355	3797
851.49	3774
851.625	3797
851.76	3800
851.895	3751
852.03	3724
852.165	3808
852.299	3850
852.434	3884
852.569	3861
852.703	3884
852.838	3918
852.973	4006
853.107	3956
853.242	3903
853.376	3831
853.511	3701
853.645	3793
853.78	3987
853.914	3873
854.048	3915
854.183	3884
854.317	3934
854.451	4032
854.585	3975
854.72	3945
854.854	4074
854.988	3934
855.122	4002
855.256	3937
855.39	4044
855.524	4109
855.658	4093
855.792	4044
855.926	4120
856.06	4135
856.194	4196
856.327	4109
856.461	4090
856.595	4162
856.729	4162
856.862	4234
856.996	4249
857.13	4314
857.263	4329
857.397	4363
857.53	4325
857.664	4333
857.797	4405
857.931	4379
858.064	4356
858.197	4462
858.331	4379
858.464	4421
858.597	4325
858.731	4428
858.864	4413
858.997	4451
859.13	4489
859.263	4474
859.396	4592
859.529	4508
859.662	4512
859.795	4519
859.928	4603
860.061	4702
860.194	4786
860.327	4649
860.46	4675
860.592	4721
860.725	4729
860.858	4763
860.99	4664
861.123	4637
861.256	4710
861.388	4778
861.521	5341
861.653	4721
861.786	4683
861.918	4736
862.05	4767
862.183	4801
862.315	4923
862.447	4923
862.58	4850
862.712	4759
862.844	4740
862.976	4885
863.108	4892
863.24	5159
863.372	4843
863.504	4885
863.636	4881
863.768	4896
863.9	4946
864.032	4965
864.164	4949
864.296	5033
864.428	5109
864.559	5121
864.691	5098
864.823	5124
864.954	5102
865.086	5170
865.217	5105
865.349	5124
865.48	5147
865.612	5235
865.743	5299
865.875	5201
866.006	5193
866.137	5181
866.269	5227
866.4	5246
866.531	5254
866.662	5216
866.793	5277
866.924	5231
867.055	5372
867.186	5337
867.317	5345
867.448	5303
867.579	5395
867.71	5433
867.841	5406
867.972	5448
868.103	5528
868.233	5478
868.364	5516
868.495	5509
868.625	5729
868.756	5809
868.886	5688
869.017	5699
869.147	5840
869.278	5855
869.408	5832
869.539	5821
869.669	5920
869.799	5840
869.929	5996
870.06	6007
870.19	6224
870.32	6186
870.45	6296
870.58	6311
870.71	6395
870.84	6479
870.97	6369
871.1	6445
871.23	6650
871.36	6597
871.489	6642
871.619	6772
871.749	6856
871.879	6840
872.008	7038
872.138	6977
872.267	6951
872.397	6996
872.526	7019
872.656	7103
872.785	7217
872.915	7327
873.044	7506
873.173	7499
873.303	7647
873.432	7704
873.561	7928
873.69	7932
873.819	8008
873.948	8084
874.077	8294
874.206	8374
874.335	8389
874.464	8640
874.593	8910
874.722	8895
874.851	9100
874.979	9253
875.108	9378
875.237	9428
875.365	9496
875.494	9694
875.623	9759
875.751	9789
875.88	9934
876.008	10116
876.136	10276
876.265	10516
876.393	10656
876.521	10763
876.65	10793
876.778	10809
876.906	10946
877.034	11052
877.162	11094
877.29	11124
877.418	11307
877.546	11345
877.674	11467
877.802	11512
877.93	11429
878.058	11547
878.185	11600
878.313	11592
878.441	11680
878.568	11665
878.696	11767
878.824	11859
878.951	11859
879.079	11969
879.206	12117
879.333	12106
879.461	11866
879.588	12098
879.715	12068
879.842	12117
879.97	12087
880.097	11863
880.224	11786
880.351	11965
880.478	11802
880.605	11840
880.732	11809
880.859	11893
880.986	11832
881.112	11767
881.239	11665
881.366	11638
881.493	11676
881.619	11509
881.746	11558
881.872	11535
881.999	11558
882.125	11425
882.252	11486
882.378	11429
882.505	11623
882.631	11391
882.757	11322
882.883	11265
883.01	11204
883.136	11178
883.262	11098
883.388	11037
883.514	11220
883.64	11216
883.766	11041
883.892	10938
884.018	10987
884.143	11022
884.269	11060
884.395	10782
884.52	10793
884.646	10790
884.772	10717
884.897	10664
885.023	10672
885.148	10752
885.274	10702
885.399	10721
885.524	10706
885.65	10573
885.775	10531
885.9	10558
886.025	10569
886.15	10554
886.275	10432
886.4	10371
886.525	10375
886.65	10386
886.775	10318
886.9	10310
887.025	10542
887.149	10409
887.274	10230
887.399	10204
887.523	10223
887.648	10177
887.773	10082
887.897	10249
888.021	10200
888.146	10124
888.27	10215
888.395	10154
888.519	10162
888.643	10112
888.767	10131
888.891	10006
889.015	10025
889.139	10025
889.263	9838
889.387	10093
889.511	10082
889.635	10032
889.759	9975
889.883	9975
890.006	9953
890.13	10086
890.254	9994
890.377	9926
890.501	9873
890.624	9915
890.748	9907
890.871	9781
890.995	9709
891.118	9736
891.241	9808
891.364	9751
891.488	9751
891.611	9682
891.734	9717
891.857	9785
891.98	9690
892.103	9819
892.226	9690
892.349	9717
892.471	9568
892.594	9587
892.717	9580
892.839	9610
892.962	9656
893.085	9637
893.207	9622
893.33	9507
893.452	9538
893.575	9618
893.697	9542
893.819	9667
893.941	9717
894.064	9553
894.186	9374
894.308	9450
894.43	9568
894.552	9530
894.674	9511
894.796	9416
894.918	9370
895.04	9382
895.161	9378
895.283	9348
895.405	9199
895.526	9348
895.648	9275
895.769	9173
895.891	9264
896.012	9306
896.134	9256
896.255	9233
896.376	9097
896.498	9142
896.619	9154
896.74	9051
896.861	9081
896.982	9260
897.103	9249
897.224	9150
897.345	9112
897.466	9001
897.587	8967
897.708	9036
897.828	8990
897.949	8921
898.07	8948
898.19	8891
898.311	8956
898.431	8826
898.552	8918
898.672	8941
898.792	8967
898.913	8918
899.033	8853
899.153	8766
899.273	8648
899.393	8716
899.513	8792
899.633	8705
899.753	8674
899.873	8701
899.993	8758
900.113	8697
900.232	8712
900.352	8667
900.472	8632
900.591	8579
900.711	8640
900.83	8503
900.95	8651
901.069	8644
901.189	8564
901.308	8476
901.427	8427
901.546	8412
901.665	8488
901.784	8457
901.904	8377
902.023	8355
902.141	8214
902.26	8210
902.379	8214
902.498	8221
902.617	8282
902.735	8313
902.854	8275
902.973	8229
903.091	8138
903.21	8157
903.328	8149
903.446	8142
903.565	8054
903.683	8107
903.801	8046
903.919	8035
904.038	8077
904.156	7986
904.274	8103
904.392	7955
904.51	8073
904.627	8073
904.745	8081
904.863	8054
904.981	7898
905.098	7852
905.216	7909
905.334	7890
905.451	7868
905.569	7898
905.686	7902
905.803	7879
905.921	7750
906.038	7868
906.155	7826
906.272	7715
906.389	7784
906.506	7613
906.623	7597
906.74	7685
906.857	7590
906.974	7613
907.091	7628
907.208	7704
907.324	7666
907.441	7544
907.557	7495
907.674	7441
907.79	7365
907.907	7358
908.023	7411
908.139	7396
908.256	7411
908.372	7388
908.488	7339
908.604	7221
908.72	7236
908.836	7240
908.952	7259
909.068	7255
909.184	7324
909.3	7255
909.415	7312
909.531	7259
909.647	7126
909.762	7099
909.878	7061
909.993	7133
910.108	7126
910.224	7038
910.339	7072
910.454	7019
910.57	6996
910.685	6886
910.8	7133
910.915	7057
911.03	7065
911.145	6863
911.259	6856
911.374	6844
911.489	6821
911.604	6825
911.718	6753
911.833	6726
911.947	6707
912.062	6597
912.176	6684
912.291	6703
912.405	6677
912.519	6837
912.633	6818
912.748	6734
912.862	6688
912.976	6604
913.09	6475
913.204	6612
913.318	6616
913.431	6631
913.545	6665
913.659	6688
913.772	6669
913.886	6570
914	6563
914.113	6559
914.226	6623
914.34	6566
914.453	6460
914.566	6616
914.68	6509
914.793	6525
914.906	6441
915.019	6399
915.132	6395
915.245	6403
915.358	6456
915.47	6357
915.583	6441
915.696	6517
915.809	6532
915.921	6498
916.034	6403
916.146	6338
916.259	6342
916.371	6448
916.483	6479
916.595	6407
916.708	6441
916.82	6388
916.932	6365
917.044	6388
917.156	6399
917.268	6281
917.38	6338
917.491	6281
917.603	6342
917.715	6369
917.826	6433
917.938	6334
918.049	6281
918.161	6304
918.272	6410
918.384	6369
918.495	6289
918.606	6273
918.717	6209
918.828	6262
918.939	6251
919.05	6197
919.161	6262
919.272	6102
919.383	6144
919.494	6262
919.604	6391
919.715	6254
919.826	6194
919.936	6228
920.047	6391
920.157	6220
920.267	6467
920.378	6311
920.488	6270
920.598	6490
920.708	6513
920.818	6517
920.928	6467
921.038	6566
921.148	6540
921.258	6350
921.368	6304
921.477	6178
921.587	6182
921.697	6034
921.806	6220
921.916	6068
922.025	5961
922.134	5901
922.244	5824
922.353	5901
922.462	5802
922.571	5802
922.68	5684
922.789	5657
922.898	5688
923.007	5623
923.116	5672
923.224	5680
923.333	5672
923.442	5615
923.55	5589
923.659	5589
923.767	5611
923.876	5478
923.984	5589
924.092	5547
924.201	5581
924.309	5611
924.417	5543
924.525	5444
924.633	5467
924.741	6201
924.849	5410
924.956	5467
925.064	5315
925.172	5277
925.279	5292
925.387	5337
925.494	5330
925.602	5349
925.709	5376
925.816	5277
925.924	5307
926.031	5368
926.138	5292
926.245	5315
926.352	5185
926.459	5330
926.566	5311
926.673	5181
926.779	5117
926.886	5132
926.993	5075
927.099	5006
927.206	4976
927.312	4980
927.419	4987
927.525	4934
927.631	4980
927.737	4904
927.843	4896
927.95	4763
928.056	4824
928.162	4850
928.267	4831
928.373	5322
928.479	4828
928.585	4725
928.69	4763
928.796	4828
928.901	4729
929.007	4580
929.112	4668
929.218	4634
929.323	4584
929.428	4580
929.533	4687
929.638	4504
929.743	4554
929.848	4588
929.953	4538
930.058	4440
930.163	4318
930.267	4360
930.372	4466
930.477	4291
930.581	4440
930.685	4367
930.79	4246
930.894	4329
930.998	4223
931.103	4337
931.207	4169
931.311	4101
931.415	4055
931.519	3892
931.623	3956
