Data from glass_V78500241_2307.txt Node
Date: Wed Sep 01 19:30:29 CST 2021
User: usil
Spectrometer: V785-0024
Trigger mode: 0
Integration Time (sec): 4.000000E-1
Scans to average: 1
Nonlinearity correction enabled: false
Boxcar width: 0
Storing dark spectrum: false
XAxis mode: Wavelengths
Number of Pixels in Spectrum: 1024
>>>>>Begin Spectral Data<<<<<
801.071	3755
801.214	3724
801.356	3709
801.499	3751
801.641	3743
801.783	3785
801.926	3884
802.068	3835
802.211	3835
802.353	3857
802.496	3819
802.638	3873
802.78	3876
802.923	3941
803.065	3899
803.208	3823
803.35	3854
803.492	3884
803.635	3888
803.777	3774
803.919	3922
804.061	4135
804.204	3945
804.346	3945
804.488	3922
804.63	3998
804.773	3960
804.915	3987
805.057	4150
805.199	3983
805.341	4074
805.483	4101
805.626	4109
805.768	4090
805.91	4185
806.052	4200
806.194	4204
806.336	4299
806.478	4188
806.62	4177
806.762	4204
806.904	4291
807.046	4322
807.188	4177
807.33	4166
807.472	4261
807.614	4150
807.756	4268
807.898	4173
808.04	4238
808.182	4249
808.324	4348
808.465	4344
808.607	4436
808.749	4421
808.891	4489
809.033	4500
809.174	4421
809.316	4299
809.458	4173
809.6	4162
809.741	4143
809.883	4192
810.025	4192
810.166	4204
810.308	4223
810.45	4223
810.591	4204
810.733	4230
810.875	4538
811.016	4805
811.158	5102
811.299	5273
811.441	5292
811.582	5025
811.724	4714
811.865	4466
812.007	4474
812.148	4455
812.29	4424
812.431	4424
812.573	4398
812.714	4383
812.855	4348
812.997	4413
813.138	4424
813.279	4390
813.421	4322
813.562	4356
813.703	4341
813.845	4322
813.986	4291
814.127	4200
814.268	4261
814.41	4287
814.551	4253
814.692	4329
814.833	4306
814.974	4341
815.115	4306
815.256	4242
815.397	4261
815.539	4238
815.68	4192
815.821	4211
815.962	4306
816.103	4287
816.244	4196
816.385	4230
816.526	4234
816.666	4196
816.807	4120
816.948	4150
817.089	4166
817.23	4143
817.371	4025
817.512	4036
817.653	4097
817.793	3975
817.934	4013
818.075	4105
818.216	4067
818.356	4101
818.497	3987
818.638	3911
818.778	3896
818.919	3934
819.06	3869
819.2	3949
819.341	3854
819.481	3850
819.622	3873
819.762	4055
819.903	3953
820.043	3846
820.184	3819
820.324	3755
820.465	3854
820.605	3861
820.746	3850
820.886	3789
821.026	3918
821.167	3873
821.307	3979
821.447	3998
821.588	3903
821.728	3945
821.868	3949
822.008	3827
822.149	3869
822.289	3884
822.429	3743
822.569	3724
822.709	3751
822.849	3675
822.99	3724
823.13	3720
823.27	3785
823.41	3701
823.55	3732
823.69	3701
823.83	3751
823.97	3663
824.11	3603
824.25	3572
824.389	3625
824.529	3660
824.669	3644
824.809	3717
824.949	3736
825.089	3686
825.228	3720
825.368	3545
825.508	3545
825.648	3553
825.787	3606
825.927	3641
826.067	3599
826.206	3652
826.346	3800
826.485	3827
826.625	3899
826.765	3907
826.904	3797
827.044	3606
827.183	3515
827.323	3435
827.462	3515
827.601	3447
827.741	3393
827.88	3466
828.02	3351
828.159	3424
828.298	3477
828.437	3511
828.577	3473
828.716	3568
828.855	3500
828.994	3355
829.134	3340
829.273	3378
829.412	3355
829.551	3355
829.69	3359
829.829	3435
829.968	3553
830.107	3397
830.246	3428
830.385	3340
830.524	3313
830.663	3264
830.802	3260
830.941	3165
831.08	3192
831.219	3298
831.357	3264
831.496	3378
831.635	3222
831.774	3154
831.913	3176
832.051	3085
832.19	3146
832.329	3214
832.467	3123
832.606	3116
832.744	3195
832.883	3176
833.022	3192
833.16	3287
833.299	3321
833.437	3370
833.576	3420
833.714	3359
833.852	3370
833.991	3412
834.129	3450
834.267	3466
834.406	3416
834.544	3428
834.682	3374
834.821	3397
834.959	3542
835.097	3397
835.235	3545
835.373	3511
835.511	3477
835.65	3473
835.788	3473
835.926	3409
836.064	3401
836.202	3382
836.34	3591
836.478	3584
836.615	3545
836.753	3584
836.891	3667
837.029	3576
837.167	3595
837.305	3572
837.443	3542
837.58	3492
837.718	3549
837.856	3576
837.993	3538
838.131	3568
838.269	3545
838.406	3622
838.544	3568
838.681	3450
838.819	3431
838.956	3340
839.094	3359
839.231	3431
839.369	3504
839.506	3694
839.643	3606
839.781	3496
839.918	3447
840.055	3580
840.193	3515
840.33	3504
840.467	3614
840.604	3549
840.742	3781
840.879	3530
841.016	3557
841.153	3557
841.29	3759
841.427	3694
841.564	3732
841.701	3724
841.838	3686
841.975	3644
842.112	3713
842.249	3633
842.385	3591
842.522	3850
842.659	3667
842.796	3667
842.933	3671
843.069	3713
843.206	3652
843.343	3804
843.479	3751
843.616	3785
843.752	3641
843.889	3675
844.025	3800
844.162	3732
844.298	3861
844.435	3762
844.571	3770
844.708	3907
844.844	3915
844.98	4032
845.117	3979
845.253	3896
845.389	3903
845.525	3911
845.661	3983
845.798	3915
845.934	3998
846.07	3945
846.206	4071
846.342	4120
846.478	4078
846.614	3937
846.75	3960
846.886	3941
847.022	4002
847.158	3972
847.294	4017
847.429	3994
847.565	4021
847.701	4223
847.837	3861
847.972	3869
848.108	3964
848.244	3956
848.379	3831
848.515	3819
848.65	3842
848.786	3812
848.921	3857
849.057	3937
849.192	3899
849.328	3888
849.463	3896
849.598	3873
849.734	3804
849.869	3804
850.004	3793
850.14	3800
850.275	3762
850.41	3755
850.545	3747
850.68	3781
850.815	3800
850.95	3793
851.085	3918
851.22	3838
851.355	3785
851.49	3819
851.625	3778
851.76	3755
851.895	3717
852.03	3698
852.165	3812
852.299	3823
852.434	3907
852.569	3819
852.703	3869
852.838	3930
852.973	3922
853.107	3998
853.242	3911
853.376	3838
853.511	3751
853.645	3812
853.78	3915
853.914	3911
854.048	3854
854.183	3888
854.317	3964
854.451	4078
854.585	3937
854.72	3941
854.854	4006
854.988	3960
855.122	4010
855.256	3934
855.39	3987
855.524	4116
855.658	4059
855.792	4051
855.926	4112
856.06	4188
856.194	4246
856.327	4139
856.461	4128
856.595	4139
856.729	4154
856.862	4253
856.996	4223
857.13	4329
857.263	4306
857.397	4348
857.53	4265
857.664	4348
857.797	4379
857.931	4405
858.064	4356
858.197	4447
858.331	4383
858.464	4424
858.597	4341
858.731	4428
858.864	4474
858.997	4455
859.13	4519
859.263	4462
859.396	4573
859.529	4504
859.662	4527
859.795	4493
859.928	4592
860.061	4725
860.194	4725
860.327	4645
860.46	4672
860.592	4721
860.725	4736
860.858	4729
860.99	4710
861.123	4694
861.256	4702
861.388	4778
861.521	5334
861.653	4710
861.786	4698
861.918	4710
862.05	4782
862.183	4801
862.315	4919
862.447	4885
862.58	4896
862.712	4763
862.844	4786
862.976	4904
863.108	4862
863.24	5166
863.372	4771
863.504	4896
863.636	4881
863.768	4934
863.9	4942
864.032	4900
864.164	4953
864.296	4999
864.428	5071
864.559	5079
864.691	5086
864.823	5090
864.954	5094
865.086	5098
865.217	5140
865.349	5121
865.48	5147
865.612	5155
865.743	5288
865.875	5162
866.006	5166
866.137	5197
866.269	5254
866.4	5216
866.531	5216
866.662	5231
866.793	5250
866.924	5292
867.055	5345
867.186	5315
867.317	5341
867.448	5288
867.579	5383
867.71	5379
867.841	5436
867.972	5417
868.103	5433
868.233	5520
868.364	5501
868.495	5497
868.625	5718
868.756	5733
868.886	5672
869.017	5672
869.147	5802
869.278	5874
869.408	5824
869.539	5847
869.669	5920
869.799	5863
869.929	5996
870.06	5954
870.19	6129
870.32	6178
870.45	6292
870.58	6319
870.71	6388
870.84	6426
870.97	6433
871.1	6410
871.23	6612
871.36	6692
871.489	6631
871.619	6700
871.749	6768
871.879	6837
872.008	6977
872.138	6935
872.267	7031
872.397	6973
872.526	7019
872.656	7072
872.785	7232
872.915	7400
873.044	7510
873.173	7601
873.303	7616
873.432	7746
873.561	7807
873.69	7963
873.819	8031
873.948	8149
874.077	8199
874.206	8301
874.335	8469
874.464	8613
874.593	8834
874.722	8883
874.851	9100
874.979	9249
875.108	9370
875.237	9393
875.365	9469
875.494	9656
875.623	9899
875.751	9930
875.88	10032
876.008	10154
876.136	10238
876.265	10474
876.393	10626
876.521	10748
876.65	10778
876.778	10877
876.906	10911
877.034	10942
877.162	11155
877.29	11090
877.418	11330
877.546	11372
877.674	11467
877.802	11356
877.93	11474
878.058	11547
878.185	11661
878.313	11627
878.441	11657
878.568	11661
878.696	11824
878.824	11851
878.951	11988
879.079	12057
879.206	12140
879.333	12152
879.461	11961
879.588	12117
879.715	12095
879.842	12216
879.97	12110
880.097	11923
880.224	11821
880.351	11863
880.478	11954
880.605	11912
880.732	11878
880.859	11969
880.986	11836
881.112	11824
881.239	11745
881.366	11615
881.493	11642
881.619	11558
881.746	11589
881.872	11596
881.999	11577
882.125	11459
882.252	11493
882.378	11509
882.505	11562
882.631	11398
882.757	11311
882.883	11307
883.01	11246
883.136	11185
883.262	11083
883.388	10976
883.514	11178
883.64	11201
883.766	11155
883.892	10980
884.018	10946
884.143	11113
884.269	11098
884.395	10809
884.52	10774
884.646	10714
884.772	10767
884.897	10714
885.023	10641
885.148	10706
885.274	10797
885.399	10679
885.524	10584
885.65	10531
885.775	10615
885.9	10538
886.025	10546
886.15	10550
886.275	10443
886.4	10424
886.525	10417
886.65	10329
886.775	10299
886.9	10466
887.025	10577
887.149	10386
887.274	10272
887.399	10272
887.523	10067
887.648	10120
887.773	10173
887.897	10219
888.021	10158
888.146	10166
888.27	10223
888.395	10211
888.519	10234
888.643	10177
888.767	10131
888.891	10063
889.015	10078
889.139	9998
889.263	9941
889.387	10078
889.511	10090
889.635	9983
889.759	9915
889.883	10071
890.006	9987
890.13	10051
890.254	9903
890.377	9998
890.501	9793
890.624	9835
890.748	9831
890.871	9705
890.995	9755
891.118	9667
891.241	9740
891.364	9774
891.488	9827
891.611	9671
891.734	9728
891.857	9660
891.98	9709
892.103	9747
892.226	9705
892.349	9675
892.471	9469
892.594	9580
892.717	9599
892.839	9656
892.962	9561
893.085	9728
893.207	9595
893.33	9447
893.452	9542
893.575	9538
893.697	9549
893.819	9610
893.941	9603
894.064	9610
894.186	9424
894.308	9412
894.43	9458
894.552	9504
894.674	9519
894.796	9363
894.918	9332
895.04	9408
895.161	9386
895.283	9355
895.405	9241
895.526	9260
895.648	9222
895.769	9230
895.891	9222
896.012	9283
896.134	9279
896.255	9173
896.376	9100
896.498	9104
896.619	9207
896.74	9028
896.861	9089
896.982	9249
897.103	9294
897.224	9161
897.345	9089
897.466	9017
897.587	8998
897.708	9005
897.828	9013
897.949	8891
898.07	8811
898.19	8880
898.311	9005
898.431	8902
898.552	8933
898.672	8982
898.792	8914
898.913	8906
899.033	8815
899.153	8792
899.273	8746
899.393	8739
899.513	8739
899.633	8724
899.753	8670
899.873	8720
899.993	8735
900.113	8629
900.232	8644
900.352	8602
900.472	8594
900.591	8560
900.711	8625
900.83	8594
900.95	8678
901.069	8617
901.189	8530
901.308	8389
901.427	8400
901.546	8419
901.665	8480
901.784	8511
901.904	8385
902.023	8259
902.141	8256
902.26	8172
902.379	8263
902.498	8206
902.617	8206
902.735	8286
902.854	8275
902.973	8263
903.091	8081
903.21	8172
903.328	8153
903.446	8119
903.565	8043
903.683	8054
903.801	8096
903.919	8119
904.038	8134
904.156	8008
904.274	8077
904.392	8046
904.51	8024
904.627	8035
904.745	8088
904.863	8096
904.981	7879
905.098	7807
905.216	7841
905.334	7940
905.451	7845
905.569	7887
905.686	7913
905.803	7947
905.921	7776
906.038	7856
906.155	7818
906.272	7757
906.389	7670
906.506	7658
906.623	7594
906.74	7643
906.857	7521
906.974	7544
907.091	7601
907.208	7674
907.324	7632
907.441	7563
907.557	7487
907.674	7476
907.79	7453
907.907	7381
908.023	7384
908.139	7419
908.256	7415
908.372	7354
908.488	7320
908.604	7312
908.72	7251
908.836	7266
908.952	7270
909.068	7251
909.184	7266
909.3	7255
909.415	7293
909.531	7221
909.647	7076
909.762	7141
909.878	7050
909.993	7107
910.108	7031
910.224	7069
910.339	7152
910.454	7050
910.57	6970
910.685	6920
910.8	7118
910.915	7088
911.03	7046
911.145	6882
911.259	6867
911.374	6909
911.489	6783
911.604	6783
911.718	6760
911.833	6738
911.947	6631
912.062	6559
912.176	6711
912.291	6662
912.405	6700
912.519	6821
912.633	6825
912.748	6749
912.862	6753
912.976	6631
913.09	6502
913.204	6593
913.318	6506
913.431	6677
913.545	6688
913.659	6722
913.772	6642
913.886	6604
914	6506
914.113	6593
914.226	6635
914.34	6631
914.453	6528
914.566	6650
914.68	6441
914.793	6547
914.906	6395
915.019	6403
915.132	6361
915.245	6448
915.358	6448
915.47	6456
915.583	6437
915.696	6513
915.809	6521
915.921	6551
916.034	6403
916.146	6429
916.259	6395
916.371	6448
916.483	6471
916.595	6403
916.708	6410
916.82	6388
916.932	6380
917.044	6376
917.156	6403
917.268	6296
917.38	6365
917.491	6289
917.603	6323
917.715	6346
917.826	6395
917.938	6258
918.049	6201
918.161	6384
918.272	6372
918.384	6433
918.495	6327
918.606	6247
918.717	6163
918.828	6273
918.939	6258
919.05	6136
919.161	6270
919.272	6125
919.383	6148
919.494	6285
919.604	6414
919.715	6247
919.826	6167
919.936	6213
920.047	6346
920.157	6266
920.267	6433
920.378	6338
920.488	6292
920.598	6475
920.708	6528
920.818	6388
920.928	6456
921.038	6604
921.148	6517
921.258	6346
921.368	6315
921.477	6178
921.587	6178
921.697	6041
921.806	6159
921.916	6045
922.025	5897
922.134	5870
922.244	5836
922.353	5901
922.462	5798
922.571	5775
922.68	5764
922.789	5615
922.898	5722
923.007	5630
923.116	5691
923.224	5642
923.333	5653
923.442	5608
923.55	5524
923.659	5573
923.767	5657
923.876	5600
923.984	5600
924.092	5520
924.201	5532
924.309	5539
924.417	5554
924.525	5547
924.633	5516
924.741	6262
924.849	5341
924.956	5478
925.064	5292
925.172	5288
925.279	5296
925.387	5303
925.494	5311
925.602	5402
925.709	5315
925.816	5269
925.924	5318
926.031	5357
926.138	5307
926.245	5345
926.352	5193
926.459	5284
926.566	5292
926.673	5174
926.779	5170
926.886	5090
926.993	5048
927.099	4980
927.206	4968
927.312	5022
927.419	5014
927.525	4946
927.631	4976
927.737	4866
927.843	4873
927.95	4793
928.056	4835
928.162	4786
928.267	4809
928.373	5383
928.479	4850
928.585	4660
928.69	4748
928.796	4771
928.901	4656
929.007	4596
929.112	4664
929.218	4622
929.323	4580
929.428	4580
929.533	4672
929.638	4535
929.743	4493
929.848	4527
929.953	4542
930.058	4421
930.163	4287
930.267	4329
930.372	4466
930.477	4310
930.581	4466
930.685	4352
930.79	4238
930.894	4272
930.998	4280
931.103	4379
931.207	4078
931.311	4090
931.415	4044
931.519	3911
931.623	3918
