Data from glass_V78500241_2834.txt Node
Date: Wed Sep 01 19:34:08 CST 2021
User: usil
Spectrometer: V785-0024
Trigger mode: 0
Integration Time (sec): 4.000000E-1
Scans to average: 1
Nonlinearity correction enabled: false
Boxcar width: 0
Storing dark spectrum: false
XAxis mode: Wavelengths
Number of Pixels in Spectrum: 1024
>>>>>Begin Spectral Data<<<<<
801.071	3698
801.214	3724
801.356	3667
801.499	3705
801.641	3724
801.783	3755
801.926	3823
802.068	3755
802.211	3861
802.353	3915
802.496	3755
802.638	3857
802.78	3880
802.923	3915
803.065	3850
803.208	3846
803.35	3838
803.492	3907
803.635	3888
803.777	3774
803.919	3842
804.061	4143
804.204	3926
804.346	3930
804.488	3903
804.63	3998
804.773	3979
804.915	3991
805.057	4147
805.199	4040
805.341	4131
805.483	4124
805.626	4093
805.768	4082
805.91	4154
806.052	4204
806.194	4211
806.336	4322
806.478	4173
806.62	4169
806.762	4181
806.904	4204
807.046	4348
807.188	4139
807.33	4192
807.472	4204
807.614	4173
807.756	4268
807.898	4223
808.04	4177
808.182	4238
808.324	4280
808.465	4360
808.607	4470
808.749	4447
808.891	4436
809.033	4481
809.174	4348
809.316	4238
809.458	4242
809.6	4120
809.741	4177
809.883	4093
810.025	4200
810.166	4173
810.308	4204
810.45	4268
810.591	4246
810.733	4276
810.875	4523
811.016	4831
811.158	5094
811.299	5280
811.441	5277
811.582	5022
811.724	4675
811.865	4417
812.007	4459
812.148	4432
812.29	4398
812.431	4352
812.573	4394
812.714	4360
812.855	4383
812.997	4443
813.138	4417
813.279	4383
813.421	4390
813.562	4322
813.703	4329
813.845	4272
813.986	4246
814.127	4196
814.268	4253
814.41	4276
814.551	4238
814.692	4318
814.833	4227
814.974	4265
815.115	4284
815.256	4268
815.397	4177
815.539	4211
815.68	4230
815.821	4253
815.962	4280
816.103	4265
816.244	4234
816.385	4238
816.526	4265
816.666	4207
816.807	4086
816.948	4188
817.089	4154
817.23	4150
817.371	4040
817.512	4067
817.653	4101
817.793	4048
817.934	3983
818.075	4051
818.216	4021
818.356	4051
818.497	4029
818.638	3926
818.778	3911
818.919	3850
819.06	3880
819.2	3892
819.341	3869
819.481	3766
819.622	3903
819.762	3975
819.903	3949
820.043	3850
820.184	3789
820.324	3812
820.465	3838
820.605	3804
820.746	3892
820.886	3747
821.026	3896
821.167	3903
821.307	3983
821.447	3956
821.588	3896
821.728	3953
821.868	3907
822.008	3869
822.149	3918
822.289	3876
822.429	3732
822.569	3785
822.709	3804
822.849	3671
822.99	3705
823.13	3717
823.27	3762
823.41	3720
823.55	3713
823.69	3724
823.83	3724
823.97	3652
824.11	3534
824.25	3576
824.389	3641
824.529	3641
824.669	3580
824.809	3660
824.949	3720
825.089	3709
825.228	3648
825.368	3564
825.508	3530
825.648	3549
825.787	3576
825.927	3660
826.067	3610
826.206	3671
826.346	3808
826.485	3831
826.625	3865
826.765	3930
826.904	3804
827.044	3572
827.183	3523
827.323	3439
827.462	3454
827.601	3382
827.741	3401
827.88	3458
828.02	3401
828.159	3435
828.298	3428
828.437	3538
828.577	3458
828.716	3595
828.855	3447
828.994	3363
829.134	3348
829.273	3378
829.412	3359
829.551	3306
829.69	3336
829.829	3378
829.968	3492
830.107	3439
830.246	3409
830.385	3386
830.524	3348
830.663	3275
830.802	3218
830.941	3188
831.08	3184
831.219	3253
831.357	3283
831.496	3397
831.635	3230
831.774	3188
831.913	3180
832.051	3104
832.19	3127
832.329	3207
832.467	3135
832.606	3077
832.744	3131
832.883	3176
833.022	3180
833.16	3245
833.299	3317
833.437	3294
833.576	3317
833.714	3363
833.852	3382
833.991	3424
834.129	3458
834.267	3447
834.406	3401
834.544	3386
834.682	3454
834.821	3389
834.959	3534
835.097	3397
835.235	3511
835.373	3477
835.511	3428
835.65	3401
835.788	3485
835.926	3393
836.064	3389
836.202	3351
836.34	3576
836.478	3568
836.615	3530
836.753	3576
836.891	3629
837.029	3648
837.167	3587
837.305	3549
837.443	3538
837.58	3500
837.718	3603
837.856	3504
837.993	3526
838.131	3549
838.269	3561
838.406	3587
838.544	3580
838.681	3473
838.819	3443
838.956	3351
839.094	3389
839.231	3412
839.369	3530
839.506	3671
839.643	3614
839.781	3454
839.918	3462
840.055	3511
840.193	3485
840.33	3549
840.467	3534
840.604	3576
840.742	3762
840.879	3504
841.016	3557
841.153	3637
841.29	3717
841.427	3709
841.564	3686
841.701	3724
841.838	3648
841.975	3644
842.112	3682
842.249	3603
842.385	3637
842.522	3778
842.659	3660
842.796	3637
842.933	3705
843.069	3679
843.206	3648
843.343	3793
843.479	3736
843.616	3804
843.752	3660
843.889	3682
844.025	3842
844.162	3732
844.298	3831
844.435	3797
844.571	3770
844.708	3854
844.844	3991
844.98	3998
845.117	4040
845.253	3922
845.389	3873
845.525	3945
845.661	3956
845.798	3899
845.934	4021
846.07	3964
846.206	4025
846.342	4090
846.478	4063
846.614	3907
846.75	3934
846.886	3888
847.022	4002
847.158	3979
847.294	3964
847.429	3975
847.565	3953
847.701	4204
847.837	3873
847.972	3861
848.108	3979
848.244	3903
848.379	3838
848.515	3781
848.65	3800
848.786	3831
848.921	3873
849.057	3857
849.192	3956
849.328	3854
849.463	3907
849.598	3880
849.734	3819
849.869	3850
850.004	3778
850.14	3766
850.275	3766
850.41	3732
850.545	3709
850.68	3766
850.815	3831
850.95	3759
851.085	3896
851.22	3854
851.355	3793
851.49	3800
851.625	3778
851.76	3762
851.895	3751
852.03	3732
852.165	3785
852.299	3800
852.434	3846
852.569	3835
852.703	3854
852.838	3896
852.973	3941
853.107	3998
853.242	3876
853.376	3812
853.511	3781
853.645	3800
853.78	3953
853.914	3884
854.048	3888
854.183	3838
854.317	3949
854.451	4044
854.585	3934
854.72	3907
854.854	4044
854.988	3918
855.122	4006
855.256	3888
855.39	4010
855.524	4078
855.658	4067
855.792	4097
855.926	4116
856.06	4139
856.194	4173
856.327	4131
856.461	4124
856.595	4188
856.729	4185
856.862	4265
856.996	4238
857.13	4253
857.263	4310
857.397	4325
857.53	4291
857.664	4329
857.797	4383
857.931	4371
858.064	4360
858.197	4436
858.331	4405
858.464	4337
858.597	4356
858.731	4440
858.864	4447
858.997	4424
859.13	4516
859.263	4512
859.396	4573
859.529	4516
859.662	4558
859.795	4500
859.928	4561
860.061	4710
860.194	4721
860.327	4634
860.46	4664
860.592	4721
860.725	4706
860.858	4812
860.99	4691
861.123	4668
861.256	4656
861.388	4744
861.521	5178
861.653	4694
861.786	4649
861.918	4755
862.05	4771
862.183	4843
862.315	4877
862.447	4915
862.58	4915
862.712	4767
862.844	4748
862.976	4892
863.108	4809
863.24	5113
863.372	4786
863.504	4873
863.636	4839
863.768	4961
863.9	4919
864.032	4862
864.164	5003
864.296	5033
864.428	5109
864.559	5014
864.691	5075
864.823	5166
864.954	5079
865.086	5170
865.217	5094
865.349	5056
865.48	5143
865.612	5155
865.743	5246
865.875	5227
866.006	5162
866.137	5181
866.269	5223
866.4	5223
866.531	5197
866.662	5258
866.793	5250
866.924	5296
867.055	5322
867.186	5315
867.317	5223
867.448	5303
867.579	5326
867.71	5376
867.841	5334
867.972	5440
868.103	5440
868.233	5448
868.364	5524
868.495	5554
868.625	5665
868.756	5775
868.886	5672
869.017	5748
869.147	5794
869.278	5844
869.408	5771
869.539	5866
869.669	5904
869.799	5927
869.929	5942
870.06	6011
870.19	6140
870.32	6117
870.45	6239
870.58	6315
870.71	6407
870.84	6448
870.97	6357
871.1	6433
871.23	6601
871.36	6639
871.489	6631
871.619	6741
871.749	6776
871.879	6833
872.008	6989
872.138	6920
872.267	6977
872.397	6966
872.526	6985
872.656	7076
872.785	7183
872.915	7320
873.044	7510
873.173	7605
873.303	7658
873.432	7792
873.561	7860
873.69	7898
873.819	7928
873.948	8077
874.077	8237
874.206	8225
874.335	8393
874.464	8621
874.593	8769
874.722	8899
874.851	9123
874.979	9146
875.108	9359
875.237	9329
875.365	9424
875.494	9652
875.623	9819
875.751	9808
875.88	9983
876.008	10112
876.136	10284
876.265	10485
876.393	10672
876.521	10687
876.65	10790
876.778	10790
876.906	10873
877.034	10927
877.162	11098
877.29	11178
877.418	11250
877.546	11273
877.674	11433
877.802	11493
877.93	11410
878.058	11558
878.185	11551
878.313	11638
878.441	11802
878.568	11665
878.696	11786
878.824	11866
878.951	11893
879.079	11977
879.206	12022
879.333	12019
879.461	11935
879.588	12155
879.715	12053
879.842	12254
879.97	11958
880.097	11851
880.224	11847
880.351	11908
880.478	11882
880.605	11760
880.732	11832
880.859	11969
880.986	11748
881.112	11866
881.239	11783
881.366	11691
881.493	11585
881.619	11581
881.746	11562
881.872	11528
881.999	11486
882.125	11421
882.252	11551
882.378	11516
882.505	11490
882.631	11372
882.757	11356
882.883	11334
883.01	11242
883.136	11132
883.262	11075
883.388	11060
883.514	11143
883.64	11223
883.766	11086
883.892	10908
884.018	10995
884.143	11006
884.269	11048
884.395	10828
884.52	10862
884.646	10820
884.772	10687
884.897	10622
885.023	10683
885.148	10748
885.274	10812
885.399	10717
885.524	10630
885.65	10519
885.775	10599
885.9	10577
886.025	10668
886.15	10523
886.275	10417
886.4	10348
886.525	10356
886.65	10405
886.775	10329
886.9	10516
887.025	10535
887.149	10341
887.274	10230
887.399	10120
887.523	10105
887.648	10173
887.773	10090
887.897	10234
888.021	10196
888.146	10128
888.27	10204
888.395	10105
888.519	10105
888.643	10154
888.767	10074
888.891	10067
889.015	9975
889.139	10029
889.263	9934
889.387	10059
889.511	10112
889.635	10067
889.759	10017
889.883	9983
890.006	9949
890.13	10101
890.254	9945
890.377	9892
890.501	9785
890.624	9835
890.748	9907
890.871	9789
890.995	9728
891.118	9740
891.241	9701
891.364	9736
891.488	9797
891.611	9778
891.734	9679
891.857	9823
891.98	9633
892.103	9740
892.226	9705
892.349	9618
892.471	9580
892.594	9564
892.717	9644
892.839	9530
892.962	9614
893.085	9622
893.207	9644
893.33	9473
893.452	9507
893.575	9652
893.697	9416
893.819	9629
893.941	9648
894.064	9534
894.186	9473
894.308	9405
894.43	9496
894.552	9545
894.674	9542
894.796	9332
894.918	9378
895.04	9355
895.161	9363
895.283	9298
895.405	9211
895.526	9317
895.648	9161
895.769	9226
895.891	9176
896.012	9298
896.134	9222
896.255	9173
896.376	9116
896.498	9058
896.619	9074
896.74	9093
896.861	9119
896.982	9241
897.103	9256
897.224	9108
897.345	9043
897.466	9077
897.587	8998
897.708	9085
897.828	8994
897.949	8902
898.07	8857
898.19	8868
898.311	8990
898.431	8845
898.552	8895
898.672	8971
898.792	8960
898.913	8910
899.033	8773
899.153	8708
899.273	8655
899.393	8689
899.513	8727
899.633	8686
899.753	8720
899.873	8655
899.993	8644
900.113	8686
900.232	8705
900.352	8621
900.472	8617
900.591	8514
900.711	8689
900.83	8533
900.95	8670
901.069	8716
901.189	8518
901.308	8438
901.427	8393
901.546	8442
901.665	8396
901.784	8412
901.904	8427
902.023	8298
902.141	8214
902.26	8248
902.379	8271
902.498	8176
902.617	8305
902.735	8259
902.854	8290
902.973	8225
903.091	8153
903.21	8153
903.328	8214
903.446	8084
903.565	8069
903.683	8123
903.801	8092
903.919	8119
904.038	8107
904.156	7986
904.274	8027
904.392	7978
904.51	8077
904.627	7928
904.745	8016
904.863	8081
904.981	7921
905.098	7814
905.216	7852
905.334	7871
905.451	7864
905.569	7852
905.686	7826
905.803	7833
905.921	7742
906.038	7826
906.155	7776
906.272	7681
906.389	7715
906.506	7708
906.623	7575
906.74	7567
906.857	7563
906.974	7559
907.091	7647
907.208	7708
907.324	7594
907.441	7628
907.557	7434
907.674	7373
907.79	7403
907.907	7343
908.023	7426
908.139	7449
908.256	7373
908.372	7373
908.488	7343
908.604	7247
908.72	7251
908.836	7297
908.952	7217
909.068	7293
909.184	7232
909.3	7247
909.415	7278
909.531	7247
909.647	7110
909.762	7069
909.878	7114
909.993	7099
910.108	7114
910.224	7091
910.339	7072
910.454	7019
910.57	7000
910.685	6939
910.8	7114
910.915	7099
911.03	7004
911.145	6947
911.259	6791
911.374	6871
911.489	6833
911.604	6821
911.718	6726
911.833	6741
911.947	6711
912.062	6616
912.176	6688
912.291	6715
912.405	6677
912.519	6776
912.633	6787
912.748	6703
912.862	6719
912.976	6582
913.09	6563
913.204	6566
913.318	6578
913.431	6616
913.545	6692
913.659	6650
913.772	6608
913.886	6536
914	6494
914.113	6574
914.226	6585
914.34	6547
914.453	6502
914.566	6574
914.68	6498
914.793	6528
914.906	6429
915.019	6380
915.132	6331
915.245	6490
915.358	6361
915.47	6441
915.583	6433
915.696	6448
915.809	6502
915.921	6536
916.034	6437
916.146	6384
916.259	6319
916.371	6490
916.483	6483
916.595	6334
916.708	6475
916.82	6403
916.932	6357
917.044	6361
917.156	6380
917.268	6331
917.38	6311
917.491	6323
917.603	6334
917.715	6365
917.826	6403
917.938	6304
918.049	6277
918.161	6331
918.272	6418
918.384	6456
918.495	6243
918.606	6258
918.717	6194
918.828	6251
918.939	6178
919.05	6155
919.161	6201
919.272	6155
919.383	6057
919.494	6296
919.604	6350
919.715	6254
919.826	6205
919.936	6273
920.047	6331
920.157	6266
920.267	6403
920.378	6292
920.488	6327
920.598	6403
920.708	6513
920.818	6407
920.928	6471
921.038	6563
921.148	6544
921.258	6422
921.368	6251
921.477	6194
921.587	6178
921.697	6083
921.806	6110
921.916	6060
922.025	5958
922.134	5908
922.244	5855
922.353	5870
922.462	5866
922.571	5817
922.68	5665
922.789	5684
922.898	5707
923.007	5676
923.116	5695
923.224	5676
923.333	5623
923.442	5551
923.55	5573
923.659	5562
923.767	5596
923.876	5516
923.984	5566
924.092	5459
924.201	5562
924.309	5490
924.417	5524
924.525	5516
924.633	5478
924.741	6220
924.849	5341
924.956	5463
925.064	5330
925.172	5357
925.279	5273
925.387	5353
925.494	5296
925.602	5360
925.709	5372
925.816	5288
925.924	5299
926.031	5345
926.138	5258
926.245	5284
926.352	5174
926.459	5322
926.566	5318
926.673	5197
926.779	5166
926.886	5071
926.993	5052
927.099	4930
927.206	4946
927.312	4938
927.419	4949
927.525	4942
927.631	5003
927.737	4892
927.843	4850
927.95	4717
928.056	4862
928.162	4793
928.267	4847
928.373	5216
928.479	4801
928.585	4679
928.69	4755
928.796	4755
928.901	4653
929.007	4634
929.112	4714
929.218	4626
929.323	4569
929.428	4565
929.533	4584
929.638	4497
929.743	4531
929.848	4500
929.953	4474
930.058	4421
930.163	4310
930.267	4333
930.372	4451
930.477	4272
930.581	4466
930.685	4341
930.79	4234
930.894	4265
930.998	4234
931.103	4390
931.207	4112
931.311	4055
931.415	4013
931.519	3930
931.623	3896
