Data from glass_V78500241_61.txt Node
Date: Wed Sep 01 19:14:55 CST 2021
User: usil
Spectrometer: V785-0024
Trigger mode: 0
Integration Time (sec): 4.000000E-1
Scans to average: 1
Nonlinearity correction enabled: false
Boxcar width: 0
Storing dark spectrum: false
XAxis mode: Wavelengths
Number of Pixels in Spectrum: 1024
>>>>>Begin Spectral Data<<<<<
801.071	3747
801.214	3800
801.356	3755
801.499	3762
801.641	3759
801.783	3778
801.926	3876
802.068	3785
802.211	3899
802.353	3892
802.496	3854
802.638	3918
802.78	3884
802.923	3953
803.065	3899
803.208	3888
803.35	3903
803.492	3960
803.635	3915
803.777	3804
803.919	3926
804.061	4162
804.204	3956
804.346	4017
804.488	3915
804.63	4029
804.773	3953
804.915	4078
805.057	4147
805.199	4078
805.341	4109
805.483	4166
805.626	4128
805.768	4124
805.91	4230
806.052	4287
806.194	4219
806.336	4356
806.478	4261
806.62	4192
806.762	4215
806.904	4303
807.046	4371
807.188	4230
807.33	4200
807.472	4280
807.614	4246
807.756	4265
807.898	4268
808.04	4223
808.182	4310
808.324	4341
808.465	4398
808.607	4470
808.749	4424
808.891	4485
809.033	4497
809.174	4432
809.316	4265
809.458	4242
809.6	4139
809.741	4169
809.883	4166
810.025	4265
810.166	4242
810.308	4253
810.45	4257
810.591	4207
810.733	4284
810.875	4527
811.016	4816
811.158	5174
811.299	5307
811.441	5341
811.582	5071
811.724	4736
811.865	4462
812.007	4459
812.148	4462
812.29	4440
812.431	4432
812.573	4447
812.714	4417
812.855	4451
812.997	4409
813.138	4466
813.279	4417
813.421	4402
813.562	4390
813.703	4337
813.845	4341
813.986	4242
814.127	4246
814.268	4291
814.41	4291
814.551	4295
814.692	4371
814.833	4299
814.974	4337
815.115	4322
815.256	4261
815.397	4268
815.539	4280
815.68	4211
815.821	4227
815.962	4299
816.103	4284
816.244	4261
816.385	4280
816.526	4299
816.666	4242
816.807	4131
816.948	4173
817.089	4177
817.23	4147
817.371	4120
817.512	4093
817.653	4101
817.793	4051
817.934	4055
818.075	4078
818.216	4101
818.356	4109
818.497	4006
818.638	3941
818.778	3907
818.919	3922
819.06	3896
819.2	3918
819.341	3907
819.481	3899
819.622	3926
819.762	4025
819.903	3960
820.043	3899
820.184	3842
820.324	3823
820.465	3873
820.605	3884
820.746	3896
820.886	3835
821.026	3979
821.167	3987
821.307	3930
821.447	4010
821.588	3953
821.728	3945
821.868	3953
822.008	3873
822.149	3937
822.289	3953
822.429	3785
822.569	3778
822.709	3831
822.849	3686
822.99	3747
823.13	3827
823.27	3819
823.41	3740
823.55	3781
823.69	3759
823.83	3766
823.97	3675
824.11	3618
824.25	3637
824.389	3660
824.529	3717
824.669	3633
824.809	3724
824.949	3766
825.089	3766
825.228	3728
825.368	3584
825.508	3538
825.648	3610
825.787	3667
825.927	3660
826.067	3603
826.206	3682
826.346	3770
826.485	3846
826.625	3892
826.765	3953
826.904	3892
827.044	3644
827.183	3576
827.323	3477
827.462	3534
827.601	3431
827.741	3431
827.88	3481
828.02	3416
828.159	3454
828.298	3466
828.437	3530
828.577	3504
828.716	3660
828.855	3511
828.994	3412
829.134	3359
829.273	3386
829.412	3325
829.551	3389
829.69	3397
829.829	3435
829.968	3515
830.107	3447
830.246	3447
830.385	3378
830.524	3355
830.663	3321
830.802	3275
830.941	3146
831.08	3218
831.219	3302
831.357	3294
831.496	3431
831.635	3241
831.774	3241
831.913	3245
832.051	3142
832.19	3157
832.329	3249
832.467	3192
832.606	3089
832.744	3157
832.883	3199
833.022	3203
833.16	3275
833.299	3298
833.437	3359
833.576	3351
833.714	3439
833.852	3431
833.991	3450
834.129	3488
834.267	3435
834.406	3431
834.544	3412
834.682	3405
834.821	3420
834.959	3625
835.097	3469
835.235	3606
835.373	3488
835.511	3504
835.65	3477
835.788	3488
835.926	3431
836.064	3397
836.202	3431
836.34	3557
836.478	3633
836.615	3587
836.753	3587
836.891	3641
837.029	3599
837.167	3587
837.305	3542
837.443	3580
837.58	3523
837.718	3622
837.856	3576
837.993	3534
838.131	3595
838.269	3610
838.406	3610
838.544	3584
838.681	3523
838.819	3450
838.956	3428
839.094	3405
839.231	3447
839.369	3496
839.506	3755
839.643	3625
839.781	3519
839.918	3485
840.055	3542
840.193	3530
840.33	3526
840.467	3618
840.604	3595
840.742	3842
840.879	3542
841.016	3572
841.153	3610
841.29	3759
841.427	3720
841.564	3743
841.701	3804
841.838	3774
841.975	3713
842.112	3732
842.249	3625
842.385	3671
842.522	3831
842.659	3709
842.796	3690
842.933	3736
843.069	3743
843.206	3740
843.343	3816
843.479	3793
843.616	3838
843.752	3724
843.889	3720
844.025	3854
844.162	3762
844.298	3850
844.435	3842
844.571	3793
844.708	3911
844.844	4010
844.98	4051
845.117	4036
845.253	3922
845.389	3907
845.525	4013
845.661	4013
845.798	3937
845.934	4025
846.07	3949
846.206	4048
846.342	4147
846.478	4059
846.614	3987
846.75	3930
846.886	3903
847.022	4071
847.158	4048
847.294	4006
847.429	4067
847.565	4040
847.701	4230
847.837	3896
847.972	3930
848.108	3975
848.244	3991
848.379	3854
848.515	3831
848.65	3800
848.786	3823
848.921	3903
849.057	3911
849.192	3941
849.328	3922
849.463	3934
849.598	3896
849.734	3846
849.869	3899
850.004	3804
850.14	3831
850.275	3827
850.41	3747
850.545	3785
850.68	3774
850.815	3846
850.95	3842
851.085	3972
851.22	3907
851.355	3846
851.49	3831
851.625	3789
851.76	3827
851.895	3785
852.03	3762
852.165	3827
852.299	3873
852.434	3915
852.569	3850
852.703	3930
852.838	3964
852.973	4013
853.107	4025
853.242	3896
853.376	3873
853.511	3804
853.645	3880
853.78	4002
853.914	3945
854.048	3876
854.183	3903
854.317	3972
854.451	4074
854.585	3994
854.72	4006
854.854	4071
854.988	3945
855.122	4010
855.256	3934
855.39	4063
855.524	4147
855.658	4078
855.792	4112
855.926	4196
856.06	4147
856.194	4188
856.327	4173
856.461	4131
856.595	4166
856.729	4196
856.862	4272
856.996	4238
857.13	4287
857.263	4348
857.397	4417
857.53	4276
857.664	4333
857.797	4443
857.931	4432
858.064	4402
858.197	4466
858.331	4424
858.464	4405
858.597	4367
858.731	4436
858.864	4436
858.997	4443
859.13	4565
859.263	4535
859.396	4626
859.529	4554
859.662	4577
859.795	4504
859.928	4641
860.061	4721
860.194	4774
860.327	4660
860.46	4660
860.592	4675
860.725	4786
860.858	4839
860.99	4717
861.123	4717
861.256	4698
861.388	4824
861.521	5379
861.653	4767
861.786	4725
861.918	4782
862.05	4782
862.183	4881
862.315	4896
862.447	4965
862.58	4873
862.712	4771
862.844	4755
862.976	4858
863.108	4885
863.24	5258
863.372	4831
863.504	4911
863.636	4896
863.768	4965
863.9	4965
864.032	4946
864.164	4957
864.296	5048
864.428	5094
864.559	5124
864.691	5124
864.823	5109
864.954	5143
865.086	5155
865.217	5098
865.349	5121
865.48	5170
865.612	5212
865.743	5273
865.875	5220
866.006	5204
866.137	5239
866.269	5269
866.4	5227
866.531	5254
866.662	5254
866.793	5318
866.924	5254
867.055	5368
867.186	5303
867.317	5284
867.448	5318
867.579	5364
867.71	5376
867.841	5433
867.972	5471
868.103	5474
868.233	5554
868.364	5486
868.495	5539
868.625	5672
868.756	5794
868.886	5668
869.017	5764
869.147	5844
869.278	5840
869.408	5767
869.539	5836
869.669	5893
869.799	5931
869.929	5977
870.06	6057
870.19	6213
870.32	6205
870.45	6327
870.58	6357
870.71	6452
870.84	6422
870.97	6380
871.1	6414
871.23	6658
871.36	6730
871.489	6707
871.619	6734
871.749	6833
871.879	6806
872.008	7000
872.138	7038
872.267	6996
872.397	7004
872.526	7046
872.656	7122
872.785	7133
872.915	7369
873.044	7491
873.173	7605
873.303	7651
873.432	7792
873.561	7986
873.69	7997
873.819	8024
873.948	8130
874.077	8206
874.206	8355
874.335	8480
874.464	8667
874.593	8838
874.722	8921
874.851	9173
874.979	9241
875.108	9428
875.237	9424
875.365	9530
875.494	9618
875.623	9781
875.751	9876
875.88	10021
876.008	10147
876.136	10348
876.265	10470
876.393	10710
876.521	10736
876.65	10786
876.778	10824
876.906	10869
877.034	11033
877.162	11064
877.29	11185
877.418	11269
877.546	11364
877.674	11467
877.802	11459
877.93	11505
878.058	11554
878.185	11566
878.313	11752
878.441	11737
878.568	11688
878.696	11824
878.824	11939
878.951	11916
879.079	11942
879.206	12155
879.333	12015
879.461	11946
879.588	12083
879.715	12140
879.842	12228
879.97	12083
880.097	11847
880.224	11874
880.351	11813
880.478	11950
880.605	11794
880.732	11904
880.859	11999
880.986	11775
881.112	11824
881.239	11699
881.366	11676
881.493	11638
881.619	11520
881.746	11585
881.872	11581
881.999	11532
882.125	11478
882.252	11539
882.378	11539
882.505	11539
882.631	11376
882.757	11315
882.883	11330
883.01	11246
883.136	11185
883.262	11124
883.388	11086
883.514	11117
883.64	11162
883.766	11178
883.892	11071
884.018	11022
884.143	11128
884.269	11208
884.395	10801
884.52	10816
884.646	10820
884.772	10714
884.897	10672
885.023	10733
885.148	10767
885.274	10801
885.399	10797
885.524	10675
885.65	10649
885.775	10603
885.9	10622
886.025	10599
886.15	10554
886.275	10512
886.4	10421
886.525	10402
886.65	10466
886.775	10413
886.9	10508
887.025	10603
887.149	10375
887.274	10329
887.399	10207
887.523	10211
887.648	10185
887.773	10154
887.897	10246
888.021	10215
888.146	10131
888.27	10181
888.395	10204
888.519	10173
888.643	10249
888.767	10169
888.891	10135
889.015	9960
889.139	10029
889.263	9994
889.387	10131
889.511	10090
889.635	10029
889.759	9998
889.883	10021
890.006	10082
890.13	10101
890.254	9991
890.377	9972
890.501	9873
890.624	9819
890.748	9979
890.871	9884
890.995	9781
891.118	9766
891.241	9781
891.364	9766
891.488	9873
891.611	9797
891.734	9740
891.857	9804
891.98	9667
892.103	9812
892.226	9724
892.349	9610
892.471	9519
892.594	9625
892.717	9599
892.839	9629
892.962	9667
893.085	9701
893.207	9656
893.33	9526
893.452	9538
893.575	9637
893.697	9538
893.819	9675
893.941	9576
894.064	9633
894.186	9424
894.308	9378
894.43	9500
894.552	9660
894.674	9485
894.796	9374
894.918	9431
895.04	9412
895.161	9393
895.283	9363
895.405	9313
895.526	9340
895.648	9203
895.769	9272
895.891	9275
896.012	9256
896.134	9287
896.255	9203
896.376	9169
896.498	9108
896.619	9142
896.74	9074
896.861	9123
896.982	9275
897.103	9310
897.224	9176
897.345	9112
897.466	9024
897.587	9013
897.708	9077
897.828	9062
897.949	8929
898.07	8872
898.19	8929
898.311	9036
898.431	8941
898.552	8933
898.672	9051
898.792	8952
898.913	8960
899.033	8876
899.153	8746
899.273	8667
899.393	8777
899.513	8727
899.633	8758
899.753	8708
899.873	8651
899.993	8762
900.113	8724
900.232	8758
900.352	8716
900.472	8606
900.591	8530
900.711	8579
900.83	8526
900.95	8705
901.069	8724
901.189	8590
901.308	8476
901.427	8461
901.546	8427
901.665	8431
901.784	8530
901.904	8431
902.023	8408
902.141	8259
902.26	8206
902.379	8279
902.498	8134
902.617	8218
902.735	8351
902.854	8320
902.973	8298
903.091	8111
903.21	8142
903.328	8202
903.446	8123
903.565	8046
903.683	8107
903.801	8062
903.919	8134
904.038	8134
904.156	8103
904.274	8081
904.392	8016
904.51	8084
904.627	8035
904.745	8043
904.863	8145
904.981	7925
905.098	7887
905.216	7925
905.334	7913
905.451	7909
905.569	7936
905.686	7959
905.803	7856
905.921	7795
906.038	7845
906.155	7784
906.272	7731
906.389	7677
906.506	7655
906.623	7605
906.74	7715
906.857	7594
906.974	7601
907.091	7658
907.208	7738
907.324	7647
907.441	7563
907.557	7457
907.674	7430
907.79	7419
907.907	7415
908.023	7468
908.139	7449
908.256	7426
908.372	7369
908.488	7388
908.604	7274
908.72	7209
908.836	7327
908.952	7320
909.068	7232
909.184	7270
909.3	7263
909.415	7274
909.531	7289
909.647	7164
909.762	7099
909.878	7133
909.993	7122
910.108	7099
910.224	7050
910.339	7072
910.454	7072
910.57	6996
910.685	6939
910.8	7190
910.915	7137
911.03	7061
911.145	6909
911.259	6848
911.374	6890
911.489	6848
911.604	6776
911.718	6738
911.833	6783
911.947	6669
912.062	6612
912.176	6719
912.291	6715
912.405	6734
912.519	6852
912.633	6795
912.748	6673
912.862	6734
912.976	6601
913.09	6559
913.204	6608
913.318	6642
913.431	6673
913.545	6719
913.659	6711
913.772	6665
913.886	6635
914	6593
914.113	6635
914.226	6623
914.34	6654
914.453	6551
914.566	6601
914.68	6540
914.793	6578
914.906	6467
915.019	6433
915.132	6369
915.245	6384
915.358	6445
915.47	6506
915.583	6490
915.696	6441
915.809	6532
915.921	6547
916.034	6369
916.146	6384
916.259	6433
916.371	6536
916.483	6441
916.595	6388
916.708	6429
916.82	6422
916.932	6369
917.044	6426
917.156	6403
917.268	6311
917.38	6372
917.491	6311
917.603	6361
917.715	6479
917.826	6448
917.938	6334
918.049	6247
918.161	6357
918.272	6407
918.384	6456
918.495	6357
918.606	6289
918.717	6220
918.828	6342
918.939	6262
919.05	6235
919.161	6220
919.272	6175
919.383	6121
919.494	6285
919.604	6456
919.715	6319
919.826	6270
919.936	6270
920.047	6304
920.157	6251
920.267	6429
920.378	6384
920.488	6266
920.598	6509
920.708	6551
920.818	6498
920.928	6467
921.038	6631
921.148	6570
921.258	6357
921.368	6285
921.477	6232
921.587	6178
921.697	6034
921.806	6194
921.916	6095
922.025	5961
922.134	5954
922.244	5920
922.353	5977
922.462	5870
922.571	5817
922.68	5688
922.789	5672
922.898	5688
923.007	5661
923.116	5699
923.224	5707
923.333	5714
923.442	5615
923.55	5623
923.659	5554
923.767	5642
923.876	5566
923.984	5604
924.092	5585
924.201	5551
924.309	5577
924.417	5581
924.525	5539
924.633	5482
924.741	6285
924.849	5353
924.956	5509
925.064	5368
925.172	5318
925.279	5318
925.387	5372
925.494	5357
925.602	5459
925.709	5414
925.816	5265
925.924	5372
926.031	5440
926.138	5284
926.245	5357
926.352	5280
926.459	5330
926.566	5330
926.673	5204
926.779	5121
926.886	5136
926.993	4991
927.099	5025
927.206	4984
927.312	4953
927.419	5025
927.525	4987
927.631	5022
927.737	4953
927.843	4892
927.95	4820
928.056	4839
928.162	4889
928.267	4877
928.373	5341
928.479	4828
928.585	4706
928.69	4767
928.796	4828
928.901	4729
929.007	4618
929.112	4675
929.218	4656
929.323	4634
929.428	4569
929.533	4706
929.638	4523
929.743	4546
929.848	4535
929.953	4516
930.058	4432
930.163	4379
930.267	4333
930.372	4443
930.477	4310
930.581	4519
930.685	4432
930.79	4272
930.894	4268
930.998	4253
931.103	4375
931.207	4143
931.311	4128
931.415	4101
931.519	3953
931.623	3949
