Data from glass_V78500241_1515.txt Node
Date: Wed Sep 01 19:25:00 CST 2021
User: usil
Spectrometer: V785-0024
Trigger mode: 0
Integration Time (sec): 4.000000E-1
Scans to average: 1
Nonlinearity correction enabled: false
Boxcar width: 0
Storing dark spectrum: false
XAxis mode: Wavelengths
Number of Pixels in Spectrum: 1024
>>>>>Begin Spectral Data<<<<<
801.071	3770
801.214	3732
801.356	3736
801.499	3736
801.641	3762
801.783	3770
801.926	3880
802.068	3819
802.211	3865
802.353	3899
802.496	3827
802.638	3869
802.78	3907
802.923	3873
803.065	3918
803.208	3838
803.35	3869
803.492	3915
803.635	3937
803.777	3759
803.919	3892
804.061	4150
804.204	3975
804.346	3972
804.488	3873
804.63	4051
804.773	3968
804.915	4021
805.057	4143
805.199	4055
805.341	4090
805.483	4101
805.626	4181
805.768	4116
805.91	4230
806.052	4268
806.194	4234
806.336	4356
806.478	4234
806.62	4238
806.762	4215
806.904	4284
807.046	4329
807.188	4234
807.33	4185
807.472	4272
807.614	4227
807.756	4299
807.898	4200
808.04	4242
808.182	4318
808.324	4325
808.465	4390
808.607	4428
808.749	4466
808.891	4478
809.033	4459
809.174	4360
809.316	4257
809.458	4265
809.6	4154
809.741	4147
809.883	4162
810.025	4211
810.166	4219
810.308	4196
810.45	4268
810.591	4215
810.733	4344
810.875	4462
811.016	4809
811.158	5128
811.299	5280
811.441	5303
811.582	5075
811.724	4759
811.865	4432
812.007	4485
812.148	4390
812.29	4405
812.431	4386
812.573	4405
812.714	4409
812.855	4402
812.997	4405
813.138	4512
813.279	4375
813.421	4371
813.562	4383
813.703	4329
813.845	4329
813.986	4207
814.127	4249
814.268	4265
814.41	4261
814.551	4242
814.692	4360
814.833	4287
814.974	4284
815.115	4341
815.256	4234
815.397	4265
815.539	4246
815.68	4177
815.821	4188
815.962	4310
816.103	4257
816.244	4257
816.385	4234
816.526	4280
816.666	4200
816.807	4116
816.948	4177
817.089	4223
817.23	4131
817.371	4059
817.512	4063
817.653	4059
817.793	4036
817.934	4044
818.075	4082
818.216	4112
818.356	4074
818.497	4013
818.638	3926
818.778	3892
818.919	3899
819.06	3857
819.2	3915
819.341	3884
819.481	3827
819.622	3941
819.762	4017
819.903	3994
820.043	3846
820.184	3846
820.324	3808
820.465	3842
820.605	3876
820.746	3884
820.886	3804
821.026	3911
821.167	3903
821.307	3979
821.447	4013
821.588	3968
821.728	4021
821.868	3945
822.008	3896
822.149	3888
822.289	3930
822.429	3800
822.569	3747
822.709	3819
822.849	3717
822.99	3732
823.13	3800
823.27	3827
823.41	3747
823.55	3732
823.69	3740
823.83	3740
823.97	3686
824.11	3648
824.25	3561
824.389	3660
824.529	3644
824.669	3625
824.809	3682
824.949	3709
825.089	3720
825.228	3724
825.368	3576
825.508	3534
825.648	3614
825.787	3580
825.927	3641
826.067	3671
826.206	3641
826.346	3800
826.485	3812
826.625	3861
826.765	3972
826.904	3808
827.044	3641
827.183	3500
827.323	3450
827.462	3443
827.601	3447
827.741	3420
827.88	3462
828.02	3393
828.159	3428
828.298	3473
828.437	3477
828.577	3469
828.716	3610
828.855	3481
828.994	3370
829.134	3401
829.273	3412
829.412	3336
829.551	3374
829.69	3321
829.829	3428
829.968	3492
830.107	3435
830.246	3431
830.385	3386
830.524	3359
830.663	3317
830.802	3237
830.941	3203
831.08	3195
831.219	3287
831.357	3260
831.496	3431
831.635	3245
831.774	3173
831.913	3169
832.051	3154
832.19	3119
832.329	3233
832.467	3142
832.606	3097
832.744	3180
832.883	3161
833.022	3195
833.16	3256
833.299	3287
833.437	3302
833.576	3370
833.714	3382
833.852	3443
833.991	3397
834.129	3481
834.267	3443
834.406	3469
834.544	3420
834.682	3401
834.821	3424
834.959	3553
835.097	3412
835.235	3549
835.373	3485
835.511	3523
835.65	3496
835.788	3481
835.926	3412
836.064	3412
836.202	3405
836.34	3564
836.478	3599
836.615	3572
836.753	3591
836.891	3682
837.029	3599
837.167	3606
837.305	3545
837.443	3549
837.58	3488
837.718	3568
837.856	3576
837.993	3580
838.131	3580
838.269	3591
838.406	3591
838.544	3553
838.681	3488
838.819	3458
838.956	3355
839.094	3355
839.231	3443
839.369	3511
839.506	3709
839.643	3614
839.781	3492
839.918	3439
840.055	3500
840.193	3526
840.33	3576
840.467	3564
840.604	3564
840.742	3816
840.879	3568
841.016	3591
841.153	3580
841.29	3728
841.427	3740
841.564	3747
841.701	3755
841.838	3720
841.975	3682
842.112	3724
842.249	3618
842.385	3679
842.522	3819
842.659	3698
842.796	3686
842.933	3717
843.069	3705
843.206	3705
843.343	3819
843.479	3789
843.616	3797
843.752	3679
843.889	3682
844.025	3869
844.162	3705
844.298	3861
844.435	3831
844.571	3800
844.708	3865
844.844	4006
844.98	4010
845.117	3994
845.253	3911
845.389	3884
845.525	3956
845.661	3979
845.798	3930
845.934	3994
846.07	3994
846.206	4025
846.342	4090
846.478	4067
846.614	3979
846.75	3983
846.886	3945
847.022	3994
847.158	3953
847.294	3972
847.429	4071
847.565	3991
847.701	4234
847.837	3865
847.972	3869
848.108	3983
848.244	3937
848.379	3838
848.515	3831
848.65	3827
848.786	3838
848.921	3876
849.057	3949
849.192	3934
849.328	3915
849.463	3918
849.598	3903
849.734	3827
849.869	3785
850.004	3778
850.14	3804
850.275	3797
850.41	3720
850.545	3766
850.68	3793
850.815	3766
850.95	3800
851.085	3915
851.22	3903
851.355	3808
851.49	3789
851.625	3838
851.76	3804
851.895	3778
852.03	3755
852.165	3819
852.299	3876
852.434	3907
852.569	3812
852.703	3892
852.838	3918
852.973	4010
853.107	4036
853.242	3907
853.376	3865
853.511	3762
853.645	3861
853.78	3953
853.914	3926
854.048	3945
854.183	3854
854.317	3953
854.451	4040
854.585	3949
854.72	3941
854.854	4040
854.988	3934
855.122	3987
855.256	3899
855.39	3998
855.524	4120
855.658	4055
855.792	4059
855.926	4223
856.06	4131
856.194	4177
856.327	4128
856.461	4116
856.595	4112
856.729	4158
856.862	4265
856.996	4200
857.13	4310
857.263	4337
857.397	4337
857.53	4306
857.664	4360
857.797	4383
857.931	4424
858.064	4390
858.197	4481
858.331	4432
858.464	4379
858.597	4322
858.731	4485
858.864	4440
858.997	4447
859.13	4512
859.263	4569
859.396	4607
859.529	4504
859.662	4561
859.795	4485
859.928	4535
860.061	4683
860.194	4714
860.327	4710
860.46	4668
860.592	4771
860.725	4771
860.858	4763
860.99	4698
861.123	4675
861.256	4729
861.388	4752
861.521	5436
861.653	4725
861.786	4698
861.918	4748
862.05	4862
862.183	4797
862.315	4930
862.447	4942
862.58	4881
862.712	4843
862.844	4752
862.976	4801
863.108	4915
863.24	5277
863.372	4850
863.504	4908
863.636	4896
863.768	4942
863.9	4953
864.032	4896
864.164	4961
864.296	5018
864.428	5105
864.559	5109
864.691	5162
864.823	5117
864.954	5124
865.086	5155
865.217	5128
865.349	5147
865.48	5124
865.612	5170
865.743	5318
865.875	5178
866.006	5151
866.137	5254
866.269	5254
866.4	5231
866.531	5201
866.662	5197
866.793	5303
866.924	5284
867.055	5349
867.186	5307
867.317	5345
867.448	5311
867.579	5379
867.71	5368
867.841	5372
867.972	5448
868.103	5497
868.233	5501
868.364	5528
868.495	5611
868.625	5623
868.756	5813
868.886	5676
869.017	5714
869.147	5832
869.278	5889
869.408	5840
869.539	5760
869.669	5866
869.799	5950
869.929	6041
870.06	5965
870.19	6175
870.32	6171
870.45	6292
870.58	6334
870.71	6460
870.84	6475
870.97	6399
871.1	6483
871.23	6681
871.36	6677
871.489	6593
871.619	6764
871.749	6768
871.879	6848
872.008	7004
872.138	6958
872.267	7027
872.397	7015
872.526	7023
872.656	7091
872.785	7152
872.915	7415
873.044	7499
873.173	7476
873.303	7704
873.432	7757
873.561	7875
873.69	7909
873.819	7951
873.948	8202
874.077	8221
874.206	8259
874.335	8408
874.464	8598
874.593	8830
874.722	8933
874.851	9074
874.979	9237
875.108	9348
875.237	9488
875.365	9515
875.494	9720
875.623	9857
875.751	9819
875.88	9998
876.008	10192
876.136	10242
876.265	10451
876.393	10641
876.521	10679
876.65	10809
876.778	10782
876.906	10885
877.034	11041
877.162	11132
877.29	11113
877.418	11292
877.546	11444
877.674	11455
877.802	11493
877.93	11459
878.058	11642
878.185	11535
878.313	11649
878.441	11767
878.568	11699
878.696	11866
878.824	11828
878.951	11904
879.079	12064
879.206	12125
879.333	12015
879.461	12019
879.588	12091
879.715	12133
879.842	12235
879.97	12114
880.097	11790
880.224	11904
880.351	11828
880.478	11973
880.605	11843
880.732	11855
880.859	11958
880.986	11855
881.112	11851
881.239	11771
881.366	11710
881.493	11566
881.619	11630
881.746	11547
881.872	11589
881.999	11471
882.125	11448
882.252	11570
882.378	11455
882.505	11592
882.631	11379
882.757	11277
882.883	11402
883.01	11315
883.136	11181
883.262	11193
883.388	11105
883.514	11220
883.64	11079
883.766	11178
883.892	10968
884.018	11003
884.143	11147
884.269	11174
884.395	10877
884.52	10805
884.646	10812
884.772	10725
884.897	10626
885.023	10664
885.148	10763
885.274	10797
885.399	10649
885.524	10664
885.65	10588
885.775	10626
885.9	10558
886.025	10531
886.15	10550
886.275	10455
886.4	10386
886.525	10424
886.65	10333
886.775	10299
886.9	10504
887.025	10584
887.149	10314
887.274	10261
887.399	10185
887.523	10158
887.648	10139
887.773	10116
887.897	10246
888.021	10238
888.146	10124
888.27	10188
888.395	10265
888.519	10238
888.643	10188
888.767	10173
888.891	10067
889.015	10032
889.139	10040
889.263	10051
889.387	10086
889.511	10040
889.635	10177
889.759	9934
889.883	10006
890.006	9979
890.13	10109
890.254	9934
890.377	9907
890.501	9857
890.624	9873
890.748	9884
890.871	9762
890.995	9747
891.118	9671
891.241	9766
891.364	9736
891.488	9880
891.611	9652
891.734	9819
891.857	9759
891.98	9694
892.103	9774
892.226	9759
892.349	9663
892.471	9542
892.594	9564
892.717	9603
892.839	9515
892.962	9587
893.085	9656
893.207	9618
893.33	9507
893.452	9447
893.575	9599
893.697	9481
893.819	9572
893.941	9576
894.064	9572
894.186	9370
894.308	9370
894.43	9481
894.552	9523
894.674	9420
894.796	9397
894.918	9348
895.04	9325
895.161	9317
895.283	9329
895.405	9195
895.526	9207
895.648	9245
895.769	9237
895.891	9184
896.012	9211
896.134	9245
896.255	9157
896.376	9203
896.498	9047
896.619	9119
896.74	9150
896.861	9142
896.982	9256
897.103	9287
897.224	9249
897.345	9100
897.466	9017
897.587	9020
897.708	9039
897.828	8994
897.949	9032
898.07	8933
898.19	8918
898.311	9070
898.431	8952
898.552	8921
898.672	9009
898.792	8914
898.913	8872
899.033	8826
899.153	8777
899.273	8636
899.393	8746
899.513	8762
899.633	8708
899.753	8697
899.873	8697
899.993	8754
900.113	8613
900.232	8697
900.352	8613
900.472	8606
900.591	8594
900.711	8594
900.83	8583
900.95	8651
901.069	8739
901.189	8621
901.308	8412
901.427	8400
901.546	8370
901.665	8476
901.784	8476
901.904	8377
902.023	8320
902.141	8218
902.26	8172
902.379	8298
902.498	8252
902.617	8237
902.735	8317
902.854	8305
902.973	8298
903.091	8172
903.21	8187
903.328	8191
903.446	8123
903.565	8073
903.683	8096
903.801	8043
903.919	8103
904.038	8130
904.156	8039
904.274	8161
904.392	8084
904.51	8020
904.627	8096
904.745	8035
904.863	8058
904.981	7967
905.098	7928
905.216	7902
905.334	7928
905.451	7902
905.569	7818
905.686	7974
905.803	7868
905.921	7826
906.038	7856
906.155	7799
906.272	7677
906.389	7693
906.506	7628
906.623	7674
906.74	7590
906.857	7643
906.974	7586
907.091	7666
907.208	7674
907.324	7704
907.441	7521
907.557	7472
907.674	7400
907.79	7491
907.907	7392
908.023	7472
908.139	7430
908.256	7415
908.372	7358
908.488	7384
908.604	7278
908.72	7282
908.836	7297
908.952	7236
909.068	7217
909.184	7285
909.3	7289
909.415	7324
909.531	7354
909.647	7103
909.762	7126
909.878	7110
909.993	7133
910.108	7156
910.224	7145
910.339	7145
910.454	7076
910.57	7057
910.685	6989
910.8	7202
910.915	7103
911.03	7027
911.145	6924
911.259	6878
911.374	6924
911.489	6859
911.604	6772
911.718	6654
911.833	6715
911.947	6669
912.062	6570
912.176	6707
912.291	6696
912.405	6692
912.519	6806
912.633	6875
912.748	6738
912.862	6684
912.976	6593
913.09	6597
913.204	6544
913.318	6623
913.431	6688
913.545	6722
913.659	6753
913.772	6677
913.886	6563
914	6525
914.113	6585
914.226	6608
914.34	6601
914.453	6475
914.566	6616
914.68	6570
914.793	6593
914.906	6452
915.019	6426
915.132	6429
915.245	6429
915.358	6410
915.47	6456
915.583	6467
915.696	6464
915.809	6521
915.921	6620
916.034	6441
916.146	6441
916.259	6346
916.371	6536
916.483	6437
916.595	6460
916.708	6395
916.82	6380
916.932	6369
917.044	6391
917.156	6388
917.268	6273
917.38	6353
917.491	6376
917.603	6331
917.715	6426
917.826	6380
917.938	6388
918.049	6277
918.161	6327
918.272	6376
918.384	6410
918.495	6350
918.606	6315
918.717	6167
918.828	6323
918.939	6243
919.05	6220
919.161	6292
919.272	6144
919.383	6182
919.494	6281
919.604	6445
919.715	6304
919.826	6232
919.936	6216
920.047	6292
920.157	6258
920.267	6422
920.378	6323
920.488	6304
920.598	6486
920.708	6521
920.818	6437
920.928	6437
921.038	6593
921.148	6570
921.258	6353
921.368	6357
921.477	6209
921.587	6098
921.697	6064
921.806	6182
921.916	6057
922.025	5977
922.134	5901
922.244	5916
922.353	5973
922.462	5908
922.571	5832
922.68	5718
922.789	5653
922.898	5688
923.007	5619
923.116	5703
923.224	5733
923.333	5657
923.442	5566
923.55	5581
923.659	5611
923.767	5627
923.876	5566
923.984	5596
924.092	5493
924.201	5501
924.309	5566
924.417	5543
924.525	5497
924.633	5551
924.741	6148
924.849	5372
924.956	5490
925.064	5414
925.172	5273
925.279	5299
925.387	5360
925.494	5353
925.602	5497
925.709	5368
925.816	5265
925.924	5322
926.031	5292
926.138	5273
926.245	5307
926.352	5220
926.459	5326
926.566	5277
926.673	5269
926.779	5166
926.886	5117
926.993	5014
927.099	5018
927.206	4972
927.312	4984
927.419	4987
927.525	4957
927.631	4991
927.737	4866
927.843	4881
927.95	4790
928.056	4877
928.162	4835
928.267	4862
928.373	5273
928.479	4885
928.585	4714
928.69	4771
928.796	4755
928.901	4714
929.007	4573
929.112	4721
929.218	4645
929.323	4653
929.428	4550
929.533	4645
929.638	4554
929.743	4516
929.848	4603
929.953	4542
930.058	4402
930.163	4341
930.267	4363
930.372	4390
930.477	4329
930.581	4508
930.685	4325
930.79	4291
930.894	4299
930.998	4234
931.103	4360
931.207	4116
931.311	4059
931.415	4063
931.519	3934
931.623	3907
