Data from glass_V78500241_584.txt Node
Date: Wed Sep 01 19:18:32 CST 2021
User: usil
Spectrometer: V785-0024
Trigger mode: 0
Integration Time (sec): 4.000000E-1
Scans to average: 1
Nonlinearity correction enabled: false
Boxcar width: 0
Storing dark spectrum: false
XAxis mode: Wavelengths
Number of Pixels in Spectrum: 1024
>>>>>Begin Spectral Data<<<<<
801.071	3755
801.214	3781
801.356	3728
801.499	3732
801.641	3751
801.783	3797
801.926	3884
802.068	3819
802.211	3873
802.353	3892
802.496	3827
802.638	3896
802.78	3983
802.923	3956
803.065	3876
803.208	3880
803.35	3854
803.492	3899
803.635	3918
803.777	3808
803.919	3880
804.061	4147
804.204	4017
804.346	3964
804.488	3983
804.63	4032
804.773	3960
804.915	4021
805.057	4139
805.199	4055
805.341	4101
805.483	4185
805.626	4128
805.768	4120
805.91	4219
806.052	4223
806.194	4257
806.336	4337
806.478	4230
806.62	4207
806.762	4215
806.904	4234
807.046	4367
807.188	4249
807.33	4181
807.472	4306
807.614	4196
807.756	4310
807.898	4196
808.04	4207
808.182	4310
808.324	4329
808.465	4325
808.607	4481
808.749	4478
808.891	4455
809.033	4531
809.174	4470
809.316	4261
809.458	4276
809.6	4185
809.741	4150
809.883	4177
810.025	4230
810.166	4196
810.308	4230
810.45	4287
810.591	4257
810.733	4314
810.875	4508
811.016	4862
811.158	5117
811.299	5303
811.441	5292
811.582	5105
811.724	4725
811.865	4497
812.007	4493
812.148	4459
812.29	4432
812.431	4428
812.573	4424
812.714	4367
812.855	4462
812.997	4432
813.138	4512
813.279	4405
813.421	4363
813.562	4341
813.703	4405
813.845	4344
813.986	4322
814.127	4234
814.268	4230
814.41	4310
814.551	4230
814.692	4295
814.833	4253
814.974	4329
815.115	4344
815.256	4249
815.397	4295
815.539	4261
815.68	4238
815.821	4238
815.962	4314
816.103	4287
816.244	4230
816.385	4265
816.526	4265
816.666	4219
816.807	4131
816.948	4150
817.089	4211
817.23	4109
817.371	4051
817.512	4067
817.653	4086
817.793	4036
817.934	4036
818.075	4086
818.216	4059
818.356	4109
818.497	3994
818.638	3918
818.778	3918
818.919	3918
819.06	3884
819.2	3945
819.341	3884
819.481	3876
819.622	3930
819.762	4010
819.903	3991
820.043	3850
820.184	3846
820.324	3800
820.465	3892
820.605	3892
820.746	3880
820.886	3808
821.026	3953
821.167	3926
821.307	3979
821.447	3975
821.588	3998
821.728	3915
821.868	3937
822.008	3876
822.149	3896
822.289	3930
822.429	3778
822.569	3789
822.709	3797
822.849	3698
822.99	3759
823.13	3793
823.27	3778
823.41	3766
823.55	3751
823.69	3740
823.83	3751
823.97	3698
824.11	3595
824.25	3587
824.389	3667
824.529	3675
824.669	3671
824.809	3705
824.949	3766
825.089	3789
825.228	3728
825.368	3599
825.508	3591
825.648	3629
825.787	3618
825.927	3629
826.067	3656
826.206	3698
826.346	3785
826.485	3854
826.625	3876
826.765	3964
826.904	3865
827.044	3641
827.183	3534
827.323	3469
827.462	3492
827.601	3447
827.741	3439
827.88	3428
828.02	3386
828.159	3443
828.298	3515
828.437	3553
828.577	3469
828.716	3629
828.855	3515
828.994	3378
829.134	3389
829.273	3393
829.412	3370
829.551	3355
829.69	3389
829.829	3428
829.968	3534
830.107	3473
830.246	3435
830.385	3412
830.524	3378
830.663	3332
830.802	3283
830.941	3176
831.08	3218
831.219	3264
831.357	3283
831.496	3420
831.635	3256
831.774	3180
831.913	3214
832.051	3142
832.19	3131
832.329	3245
832.467	3100
832.606	3097
832.744	3184
832.883	3173
833.022	3184
833.16	3294
833.299	3340
833.437	3386
833.576	3351
833.714	3431
833.852	3416
833.991	3462
834.129	3458
834.267	3447
834.406	3393
834.544	3428
834.682	3443
834.821	3405
834.959	3614
835.097	3447
835.235	3542
835.373	3492
835.511	3511
835.65	3447
835.788	3473
835.926	3386
836.064	3428
836.202	3439
836.34	3587
836.478	3591
836.615	3557
836.753	3625
836.891	3663
837.029	3618
837.167	3587
837.305	3599
837.443	3519
837.58	3469
837.718	3603
837.856	3553
837.993	3507
838.131	3625
838.269	3648
838.406	3584
838.544	3599
838.681	3481
838.819	3485
838.956	3367
839.094	3447
839.231	3454
839.369	3549
839.506	3797
839.643	3656
839.781	3511
839.918	3481
840.055	3526
840.193	3519
840.33	3564
840.467	3549
840.604	3625
840.742	3800
840.879	3557
841.016	3568
841.153	3633
841.29	3755
841.427	3705
841.564	3743
841.701	3774
841.838	3667
841.975	3720
842.112	3736
842.249	3686
842.385	3648
842.522	3823
842.659	3705
842.796	3682
842.933	3720
843.069	3717
843.206	3701
843.343	3861
843.479	3789
843.616	3827
843.752	3698
843.889	3690
844.025	3873
844.162	3709
844.298	3911
844.435	3804
844.571	3778
844.708	3907
844.844	3975
844.98	4029
845.117	4036
845.253	3953
845.389	3899
845.525	3949
845.661	3956
845.798	3922
845.934	4017
846.07	3972
846.206	4051
846.342	4109
846.478	4090
846.614	3998
846.75	3953
846.886	3911
847.022	4029
847.158	4013
847.294	3991
847.429	3998
847.565	3991
847.701	4215
847.837	3926
847.972	3892
848.108	3975
848.244	3979
848.379	3838
848.515	3823
848.65	3865
848.786	3926
848.921	3865
849.057	3953
849.192	3941
849.328	3835
849.463	3911
849.598	3903
849.734	3846
849.869	3800
850.004	3804
850.14	3869
850.275	3823
850.41	3728
850.545	3785
850.68	3797
850.815	3781
850.95	3827
851.085	3956
851.22	3903
851.355	3854
851.49	3778
851.625	3812
851.76	3800
851.895	3797
852.03	3732
852.165	3804
852.299	3857
852.434	3918
852.569	3842
852.703	3915
852.838	3998
852.973	4021
853.107	3975
853.242	3915
853.376	3819
853.511	3793
853.645	3819
853.78	3998
853.914	3937
854.048	3865
854.183	3922
854.317	3972
854.451	4120
854.585	3968
854.72	3953
854.854	4071
854.988	3956
855.122	4017
855.256	3941
855.39	3998
855.524	4086
855.658	4109
855.792	4101
855.926	4207
856.06	4173
856.194	4227
856.327	4128
856.461	4185
856.595	4177
856.729	4173
856.862	4280
856.996	4314
857.13	4295
857.263	4341
857.397	4402
857.53	4322
857.664	4322
857.797	4402
857.931	4405
858.064	4421
858.197	4459
858.331	4367
858.464	4402
858.597	4333
858.731	4436
858.864	4405
858.997	4455
859.13	4519
859.263	4580
859.396	4573
859.529	4565
859.662	4531
859.795	4531
859.928	4588
860.061	4744
860.194	4721
860.327	4656
860.46	4675
860.592	4706
860.725	4812
860.858	4763
860.99	4706
861.123	4733
861.256	4706
861.388	4809
861.521	5368
861.653	4744
861.786	4683
861.918	4748
862.05	4847
862.183	4843
862.315	4885
862.447	4915
862.58	4904
862.712	4850
862.844	4767
862.976	4881
863.108	4889
863.24	5197
863.372	4835
863.504	4904
863.636	4866
863.768	4946
863.9	4991
864.032	4942
864.164	5003
864.296	5018
864.428	5067
864.559	5128
864.691	5067
864.823	5178
864.954	5136
865.086	5181
865.217	5136
865.349	5121
865.48	5185
865.612	5204
865.743	5292
865.875	5242
866.006	5204
866.137	5280
866.269	5273
866.4	5204
866.531	5216
866.662	5269
866.793	5288
866.924	5273
867.055	5379
867.186	5379
867.317	5326
867.448	5372
867.579	5368
867.71	5398
867.841	5425
867.972	5463
868.103	5482
868.233	5455
868.364	5497
868.495	5566
868.625	5733
868.756	5805
868.886	5657
869.017	5722
869.147	5863
869.278	5889
869.408	5809
869.539	5821
869.669	5939
869.799	5958
869.929	5980
870.06	6019
870.19	6262
870.32	6209
870.45	6323
870.58	6372
870.71	6441
870.84	6494
870.97	6353
871.1	6437
871.23	6639
871.36	6662
871.489	6684
871.619	6715
871.749	6802
871.879	6901
872.008	7034
872.138	7012
872.267	7023
872.397	6977
872.526	7042
872.656	7080
872.785	7225
872.915	7388
873.044	7552
873.173	7639
873.303	7704
873.432	7830
873.561	7826
873.69	7887
873.819	7936
873.948	8183
874.077	8267
874.206	8336
874.335	8480
874.464	8632
874.593	8785
874.722	8921
874.851	9150
874.979	9260
875.108	9424
875.237	9466
875.365	9481
875.494	9732
875.623	9918
875.751	9854
875.88	10071
876.008	10147
876.136	10246
876.265	10542
876.393	10702
876.521	10729
876.65	10839
876.778	10923
876.906	10911
877.034	11033
877.162	11025
877.29	11189
877.418	11372
877.546	11395
877.674	11471
877.802	11490
877.93	11535
878.058	11589
878.185	11551
878.313	11627
878.441	11707
878.568	11737
878.696	11817
878.824	11874
878.951	11950
879.079	12003
879.206	12175
879.333	12026
879.461	12045
879.588	12064
879.715	12022
879.842	12251
879.97	12076
880.097	11874
880.224	11931
880.351	11904
880.478	11904
880.605	11836
880.732	11927
880.859	11992
880.986	11794
881.112	11866
881.239	11699
881.366	11726
881.493	11684
881.619	11566
881.746	11543
881.872	11577
881.999	11490
882.125	11581
882.252	11619
882.378	11516
882.505	11581
882.631	11364
882.757	11258
882.883	11292
883.01	11395
883.136	11178
883.262	11079
883.388	11064
883.514	11109
883.64	11140
883.766	11083
883.892	10927
884.018	11075
884.143	11166
884.269	11197
884.395	10797
884.52	10778
884.646	10786
884.772	10675
884.897	10691
885.023	10618
885.148	10748
885.274	10714
885.399	10607
885.524	10626
885.65	10641
885.775	10630
885.9	10470
886.025	10607
886.15	10656
886.275	10519
886.4	10421
886.525	10432
886.65	10413
886.775	10337
886.9	10436
887.025	10489
887.149	10386
887.274	10291
887.399	10299
887.523	10200
887.648	10120
887.773	10185
887.897	10227
888.021	10238
888.146	10071
888.27	10257
888.395	10177
888.519	10299
888.643	10169
888.767	10215
888.891	10135
889.015	10055
889.139	10124
889.263	10029
889.387	10131
889.511	10059
889.635	10109
889.759	9975
889.883	10006
890.006	9979
890.13	10196
890.254	9934
890.377	10051
890.501	9899
890.624	9907
890.748	9937
890.871	9812
890.995	9816
891.118	9766
891.241	9781
891.364	9724
891.488	9934
891.611	9808
891.734	9720
891.857	9770
891.98	9701
892.103	9827
892.226	9736
892.349	9679
892.471	9496
892.594	9572
892.717	9660
892.839	9698
892.962	9591
893.085	9682
893.207	9530
893.33	9462
893.452	9538
893.575	9648
893.697	9538
893.819	9606
893.941	9603
894.064	9610
894.186	9389
894.308	9351
894.43	9572
894.552	9584
894.674	9553
894.796	9325
894.918	9370
895.04	9351
895.161	9317
895.283	9298
895.405	9275
895.526	9329
895.648	9233
895.769	9298
895.891	9245
896.012	9294
896.134	9321
896.255	9173
896.376	9116
896.498	9184
896.619	9173
896.74	9024
896.861	9161
896.982	9279
897.103	9253
897.224	9089
897.345	9089
897.466	9024
897.587	9036
897.708	9074
897.828	8944
897.949	8918
898.07	8804
898.19	8990
898.311	9058
898.431	8891
898.552	8948
898.672	9009
898.792	8914
898.913	8861
899.033	8804
899.153	8701
899.273	8705
899.393	8769
899.513	8830
899.633	8743
899.753	8708
899.873	8667
899.993	8701
900.113	8727
900.232	8693
900.352	8708
900.472	8636
900.591	8552
900.711	8602
900.83	8575
900.95	8625
901.069	8746
901.189	8575
901.308	8457
901.427	8434
901.546	8503
901.665	8492
901.784	8476
901.904	8377
902.023	8343
902.141	8229
902.26	8218
902.379	8279
902.498	8202
902.617	8244
902.735	8305
902.854	8313
902.973	8309
903.091	8183
903.21	8187
903.328	8130
903.446	8153
903.565	8027
903.683	8134
903.801	8168
903.919	8164
904.038	8115
904.156	8069
904.274	8069
904.392	8024
904.51	8058
904.627	8077
904.745	8081
904.863	8119
904.981	7963
905.098	7917
905.216	7906
905.334	7963
905.451	7879
905.569	7894
905.686	7913
905.803	7955
905.921	7864
906.038	7890
906.155	7845
906.272	7704
906.389	7750
906.506	7674
906.623	7628
906.74	7624
906.857	7590
906.974	7632
907.091	7674
907.208	7685
907.324	7666
907.441	7594
907.557	7510
907.674	7449
907.79	7411
907.907	7403
908.023	7434
908.139	7438
908.256	7400
908.372	7422
908.488	7358
908.604	7259
908.72	7255
908.836	7335
908.952	7228
909.068	7305
909.184	7324
909.3	7278
909.415	7236
909.531	7297
909.647	7164
909.762	7126
909.878	7099
909.993	7164
910.108	7122
910.224	7084
910.339	7061
910.454	7084
910.57	7042
910.685	6958
910.8	7149
910.915	7088
911.03	7015
911.145	6897
911.259	6878
911.374	6939
911.489	6875
911.604	6810
911.718	6734
911.833	6741
911.947	6715
912.062	6616
912.176	6696
912.291	6684
912.405	6760
912.519	6825
912.633	6825
912.748	6795
912.862	6669
912.976	6650
913.09	6536
913.204	6623
913.318	6627
913.431	6730
913.545	6703
913.659	6749
913.772	6631
913.886	6597
914	6544
914.113	6669
914.226	6669
914.34	6627
914.453	6509
914.566	6631
914.68	6502
914.793	6570
914.906	6429
915.019	6365
915.132	6395
915.245	6486
915.358	6456
915.47	6536
915.583	6403
915.696	6437
915.809	6532
915.921	6525
916.034	6464
916.146	6422
916.259	6418
916.371	6486
916.483	6452
916.595	6414
916.708	6338
916.82	6388
916.932	6395
917.044	6395
917.156	6395
917.268	6323
917.38	6338
917.491	6357
917.603	6342
917.715	6437
917.826	6388
917.938	6365
918.049	6266
918.161	6357
918.272	6441
918.384	6437
918.495	6407
918.606	6224
918.717	6224
918.828	6311
918.939	6270
919.05	6216
919.161	6216
919.272	6098
919.383	6148
919.494	6319
919.604	6437
919.715	6338
919.826	6266
919.936	6232
920.047	6338
920.157	6311
920.267	6448
920.378	6331
920.488	6254
920.598	6517
920.708	6509
920.818	6509
920.928	6418
921.038	6623
921.148	6604
921.258	6369
921.368	6281
921.477	6273
921.587	6190
921.697	6117
921.806	6239
921.916	6068
922.025	6003
922.134	5885
922.244	5935
922.353	6003
922.462	5878
922.571	5775
922.68	5695
922.789	5707
922.898	5714
923.007	5646
923.116	5710
923.224	5726
923.333	5676
923.442	5642
923.55	5577
923.659	5592
923.767	5619
923.876	5585
923.984	5608
924.092	5505
924.201	5642
924.309	5600
924.417	5547
924.525	5512
924.633	5520
924.741	6228
924.849	5414
924.956	5497
925.064	5357
925.172	5307
925.279	5349
925.387	5334
925.494	5376
925.602	5395
925.709	5421
925.816	5250
925.924	5277
926.031	5398
926.138	5296
926.245	5383
926.352	5242
926.459	5353
926.566	5334
926.673	5258
926.779	5128
926.886	5136
926.993	5029
927.099	5071
927.206	5014
927.312	4968
927.419	5041
927.525	4965
927.631	4999
927.737	4927
927.843	4877
927.95	4748
928.056	4873
928.162	4835
928.267	4915
928.373	5303
928.479	4801
928.585	4694
928.69	4771
928.796	4774
928.901	4656
929.007	4611
929.112	4630
929.218	4630
929.323	4630
929.428	4584
929.533	4687
929.638	4554
929.743	4577
929.848	4538
929.953	4561
930.058	4409
930.163	4333
930.267	4356
930.372	4421
930.477	4295
930.581	4478
930.685	4371
930.79	4310
930.894	4265
930.998	4284
931.103	4386
931.207	4105
931.311	4105
931.415	4063
931.519	3896
931.623	3975
