Data from glass_V78500241_408.txt Node
Date: Wed Sep 01 19:17:19 CST 2021
User: usil
Spectrometer: V785-0024
Trigger mode: 0
Integration Time (sec): 4.000000E-1
Scans to average: 1
Nonlinearity correction enabled: false
Boxcar width: 0
Storing dark spectrum: false
XAxis mode: Wavelengths
Number of Pixels in Spectrum: 1024
>>>>>Begin Spectral Data<<<<<
801.071	3759
801.214	3747
801.356	3698
801.499	3762
801.641	3774
801.783	3797
801.926	3899
802.068	3838
802.211	3915
802.353	3903
802.496	3850
802.638	3915
802.78	3903
802.923	3960
803.065	3865
803.208	3846
803.35	3899
803.492	3945
803.635	3896
803.777	3816
803.919	3896
804.061	4162
804.204	3960
804.346	3960
804.488	3937
804.63	4036
804.773	3972
804.915	4048
805.057	4131
805.199	4055
805.341	4059
805.483	4154
805.626	4124
805.768	4051
805.91	4238
806.052	4276
806.194	4234
806.336	4363
806.478	4211
806.62	4238
806.762	4215
806.904	4303
807.046	4367
807.188	4166
807.33	4188
807.472	4249
807.614	4173
807.756	4325
807.898	4188
808.04	4234
808.182	4352
808.324	4405
808.465	4398
808.607	4459
808.749	4440
808.891	4478
809.033	4565
809.174	4432
809.316	4242
809.458	4268
809.6	4177
809.741	4188
809.883	4169
810.025	4257
810.166	4253
810.308	4246
810.45	4268
810.591	4261
810.733	4272
810.875	4519
811.016	4820
811.158	5162
811.299	5307
811.441	5296
811.582	5060
811.724	4687
811.865	4466
812.007	4474
812.148	4462
812.29	4443
812.431	4447
812.573	4440
812.714	4379
812.855	4386
812.997	4466
813.138	4443
813.279	4413
813.421	4386
813.562	4402
813.703	4329
813.845	4329
813.986	4356
814.127	4268
814.268	4299
814.41	4291
814.551	4265
814.692	4341
814.833	4253
814.974	4303
815.115	4402
815.256	4280
815.397	4246
815.539	4253
815.68	4192
815.821	4246
815.962	4314
816.103	4268
816.244	4242
816.385	4280
816.526	4287
816.666	4227
816.807	4135
816.948	4230
817.089	4169
817.23	4158
817.371	4086
817.512	4086
817.653	4105
817.793	4071
817.934	4025
818.075	4135
818.216	4067
818.356	4112
818.497	4055
818.638	3930
818.778	3911
818.919	3896
819.06	3892
819.2	3911
819.341	3876
819.481	3873
819.622	3926
819.762	4002
819.903	3956
820.043	3907
820.184	3880
820.324	3850
820.465	3945
820.605	3884
820.746	3907
820.886	3800
821.026	3911
821.167	3896
821.307	4002
821.447	4010
821.588	3998
821.728	3968
821.868	3956
822.008	3876
822.149	3903
822.289	3918
822.429	3789
822.569	3743
822.709	3800
822.849	3690
822.99	3736
823.13	3778
823.27	3823
823.41	3743
823.55	3759
823.69	3736
823.83	3728
823.97	3682
824.11	3614
824.25	3606
824.389	3652
824.529	3652
824.669	3629
824.809	3732
824.949	3785
825.089	3793
825.228	3724
825.368	3610
825.508	3580
825.648	3618
825.787	3629
825.927	3656
826.067	3648
826.206	3641
826.346	3823
826.485	3884
826.625	3903
826.765	3945
826.904	3827
827.044	3584
827.183	3564
827.323	3485
827.462	3526
827.601	3443
827.741	3443
827.88	3420
828.02	3397
828.159	3443
828.298	3504
828.437	3545
828.577	3466
828.716	3610
828.855	3492
828.994	3393
829.134	3393
829.273	3393
829.412	3336
829.551	3359
829.69	3370
829.829	3439
829.968	3519
830.107	3473
830.246	3492
830.385	3340
830.524	3355
830.663	3329
830.802	3317
830.941	3218
831.08	3203
831.219	3264
831.357	3310
831.496	3412
831.635	3237
831.774	3188
831.913	3241
832.051	3131
832.19	3195
832.329	3226
832.467	3161
832.606	3154
832.744	3199
832.883	3226
833.022	3214
833.16	3291
833.299	3329
833.437	3340
833.576	3382
833.714	3424
833.852	3424
833.991	3450
834.129	3500
834.267	3488
834.406	3412
834.544	3428
834.682	3412
834.821	3405
834.959	3549
835.097	3431
835.235	3580
835.373	3519
835.511	3507
835.65	3496
835.788	3492
835.926	3386
836.064	3389
836.202	3416
836.34	3557
836.478	3625
836.615	3545
836.753	3599
836.891	3648
837.029	3656
837.167	3580
837.305	3599
837.443	3557
837.58	3496
837.718	3591
837.856	3576
837.993	3572
838.131	3606
838.269	3587
838.406	3572
838.544	3603
838.681	3504
838.819	3469
838.956	3374
839.094	3439
839.231	3458
839.369	3523
839.506	3755
839.643	3644
839.781	3526
839.918	3473
840.055	3534
840.193	3542
840.33	3557
840.467	3591
840.604	3648
840.742	3823
840.879	3595
841.016	3595
841.153	3587
841.29	3732
841.427	3701
841.564	3732
841.701	3755
841.838	3713
841.975	3667
842.112	3705
842.249	3679
842.385	3644
842.522	3842
842.659	3694
842.796	3717
842.933	3724
843.069	3732
843.206	3732
843.343	3812
843.479	3755
843.616	3835
843.752	3671
843.889	3690
844.025	3884
844.162	3766
844.298	3838
844.435	3789
844.571	3781
844.708	3888
844.844	4010
844.98	3975
845.117	4040
845.253	3956
845.389	3899
845.525	4017
845.661	3972
845.798	3975
845.934	4021
846.07	3960
846.206	4078
846.342	4143
846.478	4090
846.614	3975
846.75	3953
846.886	3915
847.022	4040
847.158	4013
847.294	3991
847.429	4040
847.565	4010
847.701	4242
847.837	3903
847.972	3911
848.108	4006
848.244	3991
848.379	3846
848.515	3854
848.65	3823
848.786	3857
848.921	3899
849.057	3930
849.192	3873
849.328	3930
849.463	3934
849.598	3899
849.734	3907
849.869	3835
850.004	3781
850.14	3785
850.275	3804
850.41	3785
850.545	3774
850.68	3770
850.815	3819
850.95	3800
851.085	3899
851.22	3857
851.355	3854
851.49	3804
851.625	3785
851.76	3804
851.895	3785
852.03	3740
852.165	3797
852.299	3850
852.434	3937
852.569	3842
852.703	3903
852.838	3930
852.973	4032
853.107	3972
853.242	3892
853.376	3880
853.511	3812
853.645	3850
853.78	4032
853.914	3896
854.048	3896
854.183	3854
854.317	3926
854.451	4139
854.585	3964
854.72	3934
854.854	4048
854.988	3956
855.122	4013
855.256	3941
855.39	4010
855.524	4109
855.658	4101
855.792	4082
855.926	4135
856.06	4166
856.194	4188
856.327	4185
856.461	4143
856.595	4234
856.729	4211
856.862	4276
856.996	4234
857.13	4295
857.263	4310
857.397	4402
857.53	4242
857.664	4352
857.797	4417
857.931	4459
858.064	4405
858.197	4459
858.331	4371
858.464	4390
858.597	4322
858.731	4443
858.864	4459
858.997	4443
859.13	4508
859.263	4550
859.396	4588
859.529	4546
859.662	4535
859.795	4527
859.928	4607
860.061	4725
860.194	4729
860.327	4668
860.46	4664
860.592	4717
860.725	4782
860.858	4767
860.99	4752
861.123	4736
861.256	4740
861.388	4790
861.521	5398
861.653	4763
861.786	4729
861.918	4748
862.05	4797
862.183	4873
862.315	4911
862.447	4923
862.58	4946
862.712	4793
862.844	4759
862.976	4892
863.108	4896
863.24	5277
863.372	4870
863.504	4927
863.636	4896
863.768	4972
863.9	4953
864.032	4923
864.164	4900
864.296	5006
864.428	5056
864.559	5113
864.691	5140
864.823	5185
864.954	5098
865.086	5159
865.217	5098
865.349	5124
865.48	5193
865.612	5181
865.743	5292
865.875	5174
866.006	5220
866.137	5284
866.269	5307
866.4	5250
866.531	5242
866.662	5242
866.793	5311
866.924	5261
867.055	5288
867.186	5391
867.317	5345
867.448	5372
867.579	5341
867.71	5360
867.841	5357
867.972	5528
868.103	5452
868.233	5501
868.364	5482
868.495	5596
868.625	5733
868.756	5783
868.886	5676
869.017	5764
869.147	5870
869.278	5859
869.408	5786
869.539	5863
869.669	5958
869.799	5916
869.929	5992
870.06	6045
870.19	6243
870.32	6171
870.45	6292
870.58	6395
870.71	6448
870.84	6467
870.97	6471
871.1	6467
871.23	6662
871.36	6700
871.489	6741
871.619	6734
871.749	6844
871.879	6852
872.008	7069
872.138	6996
872.267	7050
872.397	6993
872.526	7057
872.656	7099
872.785	7183
872.915	7369
873.044	7487
873.173	7613
873.303	7632
873.432	7753
873.561	7887
873.69	7944
873.819	8031
873.948	8134
874.077	8301
874.206	8294
874.335	8442
874.464	8659
874.593	8830
874.722	8979
874.851	9173
874.979	9233
875.108	9389
875.237	9447
875.365	9488
875.494	9641
875.623	9812
875.751	9873
875.88	9972
876.008	10177
876.136	10261
876.265	10542
876.393	10668
876.521	10668
876.65	10801
876.778	10889
876.906	10953
877.034	10999
877.162	11105
877.29	11181
877.418	11330
877.546	11307
877.674	11440
877.802	11455
877.93	11638
878.058	11551
878.185	11570
878.313	11703
878.441	11817
878.568	11649
878.696	11843
878.824	11859
878.951	11927
879.079	11992
879.206	12125
879.333	12041
879.461	11992
879.588	12098
879.715	12175
879.842	12182
879.97	12083
880.097	11885
880.224	11855
880.351	11904
880.478	12015
880.605	11920
880.732	11805
880.859	12045
880.986	11802
881.112	11992
881.239	11786
881.366	11695
881.493	11668
881.619	11516
881.746	11642
881.872	11467
881.999	11539
882.125	11436
882.252	11524
882.378	11528
882.505	11627
882.631	11372
882.757	11239
882.883	11296
883.01	11269
883.136	11178
883.262	11075
883.388	11006
883.514	11216
883.64	11136
883.766	11181
883.892	11018
884.018	11045
884.143	11041
884.269	11128
884.395	10877
884.52	10782
884.646	10767
884.772	10790
884.897	10641
885.023	10656
885.148	10698
885.274	10771
885.399	10687
885.524	10687
885.65	10618
885.775	10584
885.9	10618
886.025	10569
886.15	10451
886.275	10443
886.4	10382
886.525	10367
886.65	10367
886.775	10360
886.9	10516
887.025	10550
887.149	10360
887.274	10261
887.399	10230
887.523	10128
887.648	10063
887.773	10067
887.897	10223
888.021	10238
888.146	10173
888.27	10291
888.395	10276
888.519	10284
888.643	10166
888.767	10139
888.891	10124
889.015	10025
889.139	10074
889.263	9983
889.387	10082
889.511	10101
889.635	10086
889.759	9945
889.883	9880
890.006	10044
890.13	10101
890.254	10082
890.377	10025
890.501	9835
890.624	9865
890.748	9918
890.871	9785
890.995	9762
891.118	9709
891.241	9808
891.364	9755
891.488	9827
891.611	9743
891.734	9743
891.857	9842
891.98	9762
892.103	9774
892.226	9732
892.349	9755
892.471	9553
892.594	9660
892.717	9694
892.839	9564
892.962	9675
893.085	9679
893.207	9656
893.33	9545
893.452	9534
893.575	9629
893.697	9496
893.819	9622
893.941	9629
894.064	9599
894.186	9431
894.308	9466
894.43	9591
894.552	9622
894.674	9549
894.796	9386
894.918	9416
895.04	9325
895.161	9332
895.283	9310
895.405	9283
895.526	9287
895.648	9279
895.769	9272
895.891	9226
896.012	9218
896.134	9253
896.255	9279
896.376	9074
896.498	9195
896.619	9165
896.74	9058
896.861	9104
896.982	9294
897.103	9310
897.224	9146
897.345	9074
897.466	9001
897.587	9024
897.708	9085
897.828	9013
897.949	9001
898.07	8906
898.19	8979
898.311	9043
898.431	8845
898.552	9005
898.672	8967
898.792	8925
898.913	8876
899.033	8746
899.153	8724
899.273	8644
899.393	8834
899.513	8777
899.633	8762
899.753	8735
899.873	8686
899.993	8731
900.113	8697
900.232	8701
900.352	8705
900.472	8678
900.591	8575
900.711	8602
900.83	8545
900.95	8766
901.069	8731
901.189	8575
901.308	8507
901.427	8419
901.546	8465
901.665	8526
901.784	8526
901.904	8385
902.023	8328
902.141	8229
902.26	8183
902.379	8320
902.498	8248
902.617	8176
902.735	8339
902.854	8279
902.973	8202
903.091	8115
903.21	8199
903.328	8149
903.446	8084
903.565	8115
903.683	8107
903.801	8043
903.919	8092
904.038	8191
904.156	8096
904.274	8100
904.392	8058
904.51	8001
904.627	8134
904.745	8081
904.863	8103
904.981	7936
905.098	7845
905.216	7890
905.334	7947
905.451	7932
905.569	7883
905.686	7917
905.803	7993
905.921	7761
906.038	7849
906.155	7799
906.272	7731
906.389	7799
906.506	7567
906.623	7624
906.74	7601
906.857	7567
906.974	7552
907.091	7685
907.208	7750
907.324	7605
907.441	7624
907.557	7502
907.674	7472
907.79	7419
907.907	7464
908.023	7472
908.139	7384
908.256	7396
908.372	7373
908.488	7392
908.604	7301
908.72	7259
908.836	7240
908.952	7270
909.068	7221
909.184	7335
909.3	7335
909.415	7373
909.531	7282
909.647	7107
909.762	7103
909.878	7137
909.993	7187
910.108	7145
910.224	7072
910.339	7065
910.454	7015
910.57	7053
910.685	7027
910.8	7137
910.915	7145
911.03	6981
911.145	6897
911.259	6878
911.374	6852
911.489	6905
911.604	6818
911.718	6734
911.833	6802
911.947	6673
912.062	6547
912.176	6738
912.291	6692
912.405	6764
912.519	6856
912.633	6806
912.748	6764
912.862	6673
912.976	6639
913.09	6521
913.204	6631
913.318	6612
913.431	6681
913.545	6730
913.659	6798
913.772	6635
913.886	6612
914	6563
914.113	6658
914.226	6650
914.34	6635
914.453	6578
914.566	6627
914.68	6574
914.793	6540
914.906	6456
915.019	6388
915.132	6372
915.245	6399
915.358	6433
915.47	6479
915.583	6467
915.696	6452
915.809	6555
915.921	6544
916.034	6467
916.146	6399
916.259	6403
916.371	6498
916.483	6380
916.595	6445
916.708	6445
916.82	6376
916.932	6456
917.044	6418
917.156	6448
917.268	6285
917.38	6353
917.491	6399
917.603	6353
917.715	6376
917.826	6422
917.938	6334
918.049	6289
918.161	6331
918.272	6467
918.384	6418
918.495	6403
918.606	6266
918.717	6216
918.828	6315
918.939	6273
919.05	6213
919.161	6270
919.272	6144
919.383	6148
919.494	6281
919.604	6445
919.715	6258
919.826	6266
919.936	6281
920.047	6353
920.157	6270
920.267	6486
920.378	6308
920.488	6292
920.598	6452
920.708	6574
920.818	6486
920.928	6490
921.038	6639
921.148	6627
921.258	6331
921.368	6296
921.477	6220
921.587	6144
921.697	6087
921.806	6117
921.916	6117
922.025	5988
922.134	5965
922.244	5939
922.353	5992
922.462	5828
922.571	5821
922.68	5710
922.789	5688
922.898	5718
923.007	5634
923.116	5699
923.224	5695
923.333	5653
923.442	5627
923.55	5596
923.659	5547
923.767	5627
923.876	5539
923.984	5642
924.092	5532
924.201	5532
924.309	5558
924.417	5505
924.525	5505
924.633	5471
924.741	6281
924.849	5395
924.956	5509
925.064	5345
925.172	5250
925.279	5311
925.387	5406
925.494	5330
925.602	5406
925.709	5395
925.816	5235
925.924	5330
926.031	5360
926.138	5315
926.245	5337
926.352	5254
926.459	5360
926.566	5341
926.673	5239
926.779	5201
926.886	5170
926.993	5083
927.099	5033
927.206	4995
927.312	4976
927.419	5037
927.525	4980
927.631	4995
927.737	4870
927.843	4877
927.95	4816
928.056	4812
928.162	4919
928.267	4900
928.373	5280
928.479	4854
928.585	4714
928.69	4774
928.796	4759
928.901	4706
929.007	4577
929.112	4687
929.218	4645
929.323	4660
929.428	4592
929.533	4668
929.638	4531
929.743	4523
929.848	4565
929.953	4512
930.058	4451
930.163	4375
930.267	4356
930.372	4462
930.477	4268
930.581	4485
930.685	4367
930.79	4276
930.894	4333
930.998	4230
931.103	4421
931.207	4093
931.311	4051
931.415	4074
931.519	3956
931.623	3945
