Data from glass_V78500241_938.txt Node
Date: Wed Sep 01 19:21:00 CST 2021
User: usil
Spectrometer: V785-0024
Trigger mode: 0
Integration Time (sec): 4.000000E-1
Scans to average: 1
Nonlinearity correction enabled: false
Boxcar width: 0
Storing dark spectrum: false
XAxis mode: Wavelengths
Number of Pixels in Spectrum: 1024
>>>>>Begin Spectral Data<<<<<
801.071	3743
801.214	3778
801.356	3686
801.499	3751
801.641	3732
801.783	3762
801.926	3865
802.068	3854
802.211	3896
802.353	3892
802.496	3835
802.638	3861
802.78	3888
802.923	3941
803.065	3926
803.208	3888
803.35	3880
803.492	3873
803.635	3915
803.777	3816
803.919	3918
804.061	4097
804.204	4006
804.346	3922
804.488	3926
804.63	4017
804.773	3979
804.915	4112
805.057	4120
805.199	4082
805.341	4112
805.483	4101
805.626	4128
805.768	4093
805.91	4185
806.052	4249
806.194	4249
806.336	4314
806.478	4227
806.62	4196
806.762	4238
806.904	4272
807.046	4348
807.188	4227
807.33	4188
807.472	4284
807.614	4215
807.756	4265
807.898	4234
808.04	4261
808.182	4280
808.324	4344
808.465	4348
808.607	4443
808.749	4481
808.891	4443
809.033	4538
809.174	4409
809.316	4276
809.458	4272
809.6	4158
809.741	4150
809.883	4204
810.025	4219
810.166	4234
810.308	4223
810.45	4272
810.591	4265
810.733	4284
810.875	4542
811.016	4812
811.158	5155
811.299	5261
811.441	5299
811.582	5048
811.724	4714
811.865	4497
812.007	4474
812.148	4417
812.29	4447
812.431	4421
812.573	4402
812.714	4352
812.855	4409
812.997	4440
813.138	4516
813.279	4421
813.421	4409
813.562	4379
813.703	4325
813.845	4344
813.986	4227
814.127	4219
814.268	4272
814.41	4287
814.551	4238
814.692	4367
814.833	4299
814.974	4325
815.115	4360
815.256	4272
815.397	4211
815.539	4268
815.68	4207
815.821	4227
815.962	4341
816.103	4276
816.244	4268
816.385	4200
816.526	4341
816.666	4188
816.807	4109
816.948	4188
817.089	4207
817.23	4109
817.371	4055
817.512	4048
817.653	4097
817.793	4055
817.934	4074
818.075	4124
818.216	4067
818.356	4112
818.497	4013
818.638	3953
818.778	3926
818.919	3903
819.06	3831
819.2	3930
819.341	3888
819.481	3850
819.622	3968
819.762	4048
819.903	3983
820.043	3854
820.184	3827
820.324	3816
820.465	3838
820.605	3896
820.746	3869
820.886	3789
821.026	3953
821.167	3941
821.307	4002
821.447	3975
821.588	3953
821.728	3964
821.868	3937
822.008	3884
822.149	3941
822.289	3968
822.429	3781
822.569	3812
822.709	3804
822.849	3701
822.99	3751
823.13	3781
823.27	3785
823.41	3740
823.55	3732
823.69	3747
823.83	3747
823.97	3656
824.11	3625
824.25	3614
824.389	3652
824.529	3694
824.669	3694
824.809	3720
824.949	3781
825.089	3755
825.228	3728
825.368	3587
825.508	3599
825.648	3572
825.787	3641
825.927	3603
826.067	3663
826.206	3663
826.346	3770
826.485	3869
826.625	3865
826.765	3896
826.904	3903
827.044	3641
827.183	3549
827.323	3458
827.462	3477
827.601	3462
827.741	3409
827.88	3466
828.02	3393
828.159	3454
828.298	3504
828.437	3553
828.577	3485
828.716	3599
828.855	3542
828.994	3348
829.134	3382
829.273	3416
829.412	3348
829.551	3329
829.69	3382
829.829	3443
829.968	3542
830.107	3447
830.246	3439
830.385	3378
830.524	3389
830.663	3329
830.802	3287
830.941	3199
831.08	3203
831.219	3249
831.357	3253
831.496	3397
831.635	3230
831.774	3233
831.913	3184
832.051	3112
832.19	3142
832.329	3203
832.467	3135
832.606	3150
832.744	3150
832.883	3195
833.022	3214
833.16	3306
833.299	3329
833.437	3370
833.576	3393
833.714	3412
833.852	3431
833.991	3469
834.129	3473
834.267	3447
834.406	3420
834.544	3416
834.682	3431
834.821	3443
834.959	3584
835.097	3431
835.235	3545
835.373	3454
835.511	3515
835.65	3511
835.788	3477
835.926	3401
836.064	3386
836.202	3454
836.34	3572
836.478	3572
836.615	3549
836.753	3606
836.891	3622
837.029	3622
837.167	3568
837.305	3595
837.443	3564
837.58	3526
837.718	3584
837.856	3584
837.993	3557
838.131	3629
838.269	3595
838.406	3591
838.544	3549
838.681	3511
838.819	3473
838.956	3386
839.094	3412
839.231	3458
839.369	3504
839.506	3747
839.643	3660
839.781	3481
839.918	3477
840.055	3534
840.193	3496
840.33	3553
840.467	3595
840.604	3644
840.742	3793
840.879	3557
841.016	3606
841.153	3603
841.29	3762
841.427	3694
841.564	3709
841.701	3732
841.838	3709
841.975	3682
842.112	3743
842.249	3656
842.385	3618
842.522	3876
842.659	3679
842.796	3686
842.933	3705
843.069	3679
843.206	3732
843.343	3880
843.479	3781
843.616	3819
843.752	3675
843.889	3682
844.025	3835
844.162	3694
844.298	3846
844.435	3789
844.571	3827
844.708	3899
844.844	3964
844.98	4048
845.117	3991
845.253	3949
845.389	3899
845.525	3983
845.661	3964
845.798	3930
845.934	4078
846.07	3991
846.206	4055
846.342	4105
846.478	4040
846.614	4002
846.75	4013
846.886	3934
847.022	4013
847.158	3975
847.294	3983
847.429	4036
847.565	4006
847.701	4211
847.837	3903
847.972	3854
848.108	4002
848.244	3964
848.379	3880
848.515	3816
848.65	3797
848.786	3873
848.921	3888
849.057	3941
849.192	3964
849.328	3907
849.463	3911
849.598	3903
849.734	3884
849.869	3861
850.004	3785
850.14	3846
850.275	3797
850.41	3686
850.545	3774
850.68	3808
850.815	3774
850.95	3804
851.085	3922
851.22	3850
851.355	3797
851.49	3778
851.625	3804
851.76	3823
851.895	3766
852.03	3759
852.165	3793
852.299	3850
852.434	3861
852.569	3831
852.703	3903
852.838	3903
852.973	3994
853.107	4017
853.242	3918
853.376	3831
853.511	3785
853.645	3827
853.78	3964
853.914	3903
854.048	3884
854.183	3903
854.317	3972
854.451	4032
854.585	3987
854.72	3956
854.854	4101
854.988	3945
855.122	4040
855.256	3934
855.39	4078
855.524	4124
855.658	4071
855.792	4086
855.926	4162
856.06	4188
856.194	4181
856.327	4147
856.461	4128
856.595	4139
856.729	4192
856.862	4265
856.996	4246
857.13	4268
857.263	4333
857.397	4409
857.53	4318
857.664	4367
857.797	4383
857.931	4398
858.064	4443
858.197	4417
858.331	4409
858.464	4386
858.597	4390
858.731	4421
858.864	4443
858.997	4428
859.13	4542
859.263	4538
859.396	4611
859.529	4584
859.662	4573
859.795	4554
859.928	4634
860.061	4694
860.194	4790
860.327	4675
860.46	4706
860.592	4740
860.725	4801
860.858	4767
860.99	4729
861.123	4710
861.256	4679
861.388	4801
861.521	5486
861.653	4763
861.786	4698
861.918	4748
862.05	4801
862.183	4831
862.315	4900
862.447	4946
862.58	4908
862.712	4790
862.844	4740
862.976	4889
863.108	4896
863.24	5204
863.372	4908
863.504	4904
863.636	4904
863.768	5006
863.9	5003
864.032	4991
864.164	4972
864.296	4980
864.428	5041
864.559	5105
864.691	5109
864.823	5147
864.954	5124
865.086	5117
865.217	5136
865.349	5136
865.48	5193
865.612	5193
865.743	5349
865.875	5231
866.006	5246
866.137	5239
866.269	5242
866.4	5269
866.531	5273
866.662	5254
866.793	5284
866.924	5220
867.055	5326
867.186	5360
867.317	5334
867.448	5299
867.579	5414
867.71	5414
867.841	5349
867.972	5444
868.103	5532
868.233	5417
868.364	5486
868.495	5570
868.625	5691
868.756	5764
868.886	5680
869.017	5714
869.147	5859
869.278	5912
869.408	5809
869.539	5840
869.669	5923
869.799	5935
869.929	6060
870.06	6038
870.19	6144
870.32	6209
870.45	6266
870.58	6391
870.71	6464
870.84	6513
870.97	6433
871.1	6460
871.23	6650
871.36	6696
871.489	6696
871.619	6795
871.749	6821
871.879	6867
872.008	6989
872.138	7015
872.267	6981
872.397	7053
872.526	7023
872.656	7080
872.785	7217
872.915	7407
873.044	7491
873.173	7533
873.303	7597
873.432	7723
873.561	7860
873.69	7902
873.819	7986
873.948	8103
874.077	8263
874.206	8252
874.335	8446
874.464	8659
874.593	8857
874.722	8956
874.851	9169
874.979	9272
875.108	9428
875.237	9458
875.365	9526
875.494	9614
875.623	9808
875.751	9835
875.88	10032
876.008	10143
876.136	10249
876.265	10478
876.393	10790
876.521	10759
876.65	10900
876.778	10923
876.906	10908
877.034	11014
877.162	11109
877.29	11113
877.418	11280
877.546	11288
877.674	11463
877.802	11406
877.93	11604
878.058	11505
878.185	11573
878.313	11649
878.441	11760
878.568	11623
878.696	11764
878.824	11870
878.951	12041
879.079	11999
879.206	12121
879.333	12087
879.461	11996
879.588	12053
879.715	12091
879.842	12186
879.97	12091
880.097	11893
880.224	11885
880.351	11870
880.478	11885
880.605	11855
880.732	11813
880.859	12003
880.986	11771
881.112	11859
881.239	11642
881.366	11585
881.493	11661
881.619	11558
881.746	11520
881.872	11547
881.999	11554
882.125	11417
882.252	11570
882.378	11501
882.505	11535
882.631	11383
882.757	11311
882.883	11311
883.01	11364
883.136	11159
883.262	11132
883.388	11109
883.514	11246
883.64	11124
883.766	11201
883.892	10987
884.018	10987
884.143	10965
884.269	11086
884.395	10831
884.52	10755
884.646	10839
884.772	10771
884.897	10755
885.023	10714
885.148	10733
885.274	10797
885.399	10725
885.524	10668
885.65	10592
885.775	10603
885.9	10516
886.025	10615
886.15	10645
886.275	10466
886.4	10265
886.525	10337
886.65	10394
886.775	10344
886.9	10447
887.025	10470
887.149	10287
887.274	10219
887.399	10227
887.523	10211
887.648	10162
887.773	10154
887.897	10211
888.021	10287
888.146	10143
888.27	10230
888.395	10150
888.519	10188
888.643	10192
888.767	10219
888.891	10071
889.015	10021
889.139	10120
889.263	10021
889.387	10067
889.511	10181
889.635	10067
889.759	9975
889.883	10021
890.006	9937
890.13	10166
890.254	9918
890.377	9956
890.501	9854
890.624	9838
890.748	9911
890.871	9793
890.995	9800
891.118	9736
891.241	9781
891.364	9709
891.488	9816
891.611	9831
891.734	9759
891.857	9732
891.98	9728
892.103	9740
892.226	9732
892.349	9743
892.471	9538
892.594	9641
892.717	9675
892.839	9496
892.962	9591
893.085	9679
893.207	9523
893.33	9504
893.452	9576
893.575	9542
893.697	9564
893.819	9629
893.941	9698
894.064	9622
894.186	9526
894.308	9488
894.43	9496
894.552	9576
894.674	9485
894.796	9401
894.918	9412
895.04	9306
895.161	9389
895.283	9393
895.405	9272
895.526	9306
895.648	9313
895.769	9218
895.891	9310
896.012	9275
896.134	9233
896.255	9184
896.376	9135
896.498	9135
896.619	9154
896.74	9093
896.861	9081
896.982	9275
897.103	9374
897.224	9112
897.345	9005
897.466	9036
897.587	9104
897.708	9074
897.828	9036
897.949	8994
898.07	8906
898.19	8948
898.311	8982
898.431	8861
898.552	8963
898.672	9005
898.792	8921
898.913	8910
899.033	8876
899.153	8762
899.273	8689
899.393	8739
899.513	8792
899.633	8720
899.753	8830
899.873	8670
899.993	8754
900.113	8712
900.232	8785
900.352	8610
900.472	8693
900.591	8674
900.711	8625
900.83	8533
900.95	8663
901.069	8693
901.189	8533
901.308	8495
901.427	8389
901.546	8503
901.665	8503
901.784	8488
901.904	8412
902.023	8294
902.141	8233
902.26	8290
902.379	8244
902.498	8233
902.617	8218
902.735	8290
902.854	8233
902.973	8286
903.091	8107
903.21	8218
903.328	8138
903.446	8084
903.565	8073
903.683	8142
903.801	8031
903.919	8153
904.038	8138
904.156	7982
904.274	8107
904.392	8035
904.51	8050
904.627	7997
904.745	8119
904.863	8123
904.981	7849
905.098	7894
905.216	7868
905.334	7902
905.451	7879
905.569	7871
905.686	7887
905.803	7921
905.921	7795
906.038	7860
906.155	7822
906.272	7776
906.389	7750
906.506	7613
906.623	7670
906.74	7594
906.857	7594
906.974	7586
907.091	7666
907.208	7715
907.324	7632
907.441	7594
907.557	7426
907.674	7438
907.79	7434
907.907	7426
908.023	7518
908.139	7388
908.256	7426
908.372	7472
908.488	7274
908.604	7289
908.72	7244
908.836	7259
908.952	7278
909.068	7312
909.184	7346
909.3	7232
909.415	7327
909.531	7350
909.647	7164
909.762	7164
909.878	7156
909.993	7065
910.108	7118
910.224	7118
910.339	7145
910.454	7038
910.57	6989
910.685	7000
910.8	7168
910.915	7129
911.03	7053
911.145	6871
911.259	6897
911.374	6856
911.489	6894
911.604	6798
911.718	6738
911.833	6741
911.947	6650
912.062	6532
912.176	6764
912.291	6715
912.405	6715
912.519	6829
912.633	6806
912.748	6818
912.862	6658
912.976	6578
913.09	6585
913.204	6566
913.318	6608
913.431	6703
913.545	6639
913.659	6703
913.772	6665
913.886	6551
914	6601
914.113	6620
914.226	6669
914.34	6612
914.453	6536
914.566	6646
914.68	6494
914.793	6559
914.906	6445
915.019	6441
915.132	6399
915.245	6418
915.358	6437
915.47	6407
915.583	6490
915.696	6517
915.809	6532
915.921	6551
916.034	6426
916.146	6407
916.259	6426
916.371	6486
916.483	6433
916.595	6445
916.708	6403
916.82	6403
916.932	6353
917.044	6369
917.156	6410
917.268	6327
917.38	6369
917.491	6338
917.603	6372
917.715	6399
917.826	6464
917.938	6346
918.049	6270
918.161	6346
918.272	6384
918.384	6483
918.495	6399
918.606	6270
918.717	6213
918.828	6281
918.939	6308
919.05	6277
919.161	6304
919.272	6136
919.383	6178
919.494	6289
919.604	6361
919.715	6384
919.826	6251
919.936	6277
920.047	6338
920.157	6300
920.267	6490
920.378	6266
920.488	6273
920.598	6471
920.708	6555
920.818	6506
920.928	6452
921.038	6635
921.148	6597
921.258	6315
921.368	6361
921.477	6258
921.587	6178
921.697	6114
921.806	6175
921.916	6079
922.025	5958
922.134	5923
922.244	5878
922.353	6026
922.462	5859
922.571	5786
922.68	5729
922.789	5710
922.898	5699
923.007	5623
923.116	5710
923.224	5668
923.333	5676
923.442	5547
923.55	5665
923.659	5615
923.767	5623
923.876	5573
923.984	5604
924.092	5543
924.201	5581
924.309	5562
924.417	5566
924.525	5490
924.633	5524
924.741	6125
924.849	5398
924.956	5467
925.064	5360
925.172	5326
925.279	5303
925.387	5395
925.494	5341
925.602	5490
925.709	5353
925.816	5277
925.924	5372
926.031	5414
926.138	5292
926.245	5357
926.352	5223
926.459	5349
926.566	5360
926.673	5261
926.779	5212
926.886	5113
926.993	5098
927.099	5022
927.206	4957
927.312	4972
927.419	5041
927.525	4949
927.631	5079
927.737	4927
927.843	4885
927.95	4797
928.056	4828
928.162	4831
928.267	4904
928.373	5337
928.479	4812
928.585	4702
928.69	4778
928.796	4805
928.901	4706
929.007	4603
929.112	4714
929.218	4660
929.323	4599
929.428	4561
929.533	4630
929.638	4565
929.743	4535
929.848	4592
929.953	4527
930.058	4493
930.163	4322
930.267	4341
930.372	4421
930.477	4318
930.581	4500
930.685	4394
930.79	4272
930.894	4295
930.998	4284
931.103	4409
931.207	4143
931.311	4109
931.415	4036
931.519	3941
931.623	3956
