Data from glass_V78500241_38.txt Node
Date: Wed Sep 01 19:14:45 CST 2021
User: usil
Spectrometer: V785-0024
Trigger mode: 0
Integration Time (sec): 4.000000E-1
Scans to average: 1
Nonlinearity correction enabled: false
Boxcar width: 0
Storing dark spectrum: false
XAxis mode: Wavelengths
Number of Pixels in Spectrum: 1024
>>>>>Begin Spectral Data<<<<<
801.071	3762
801.214	3770
801.356	3720
801.499	3732
801.641	3755
801.783	3762
801.926	3911
802.068	3827
802.211	3865
802.353	3873
802.496	3880
802.638	3880
802.78	3915
802.923	3941
803.065	3922
803.208	3865
803.35	3941
803.492	3888
803.635	3934
803.777	3797
803.919	3899
804.061	4150
804.204	3987
804.346	3983
804.488	3945
804.63	4044
804.773	4002
804.915	4059
805.057	4188
805.199	4074
805.341	4101
805.483	4166
805.626	4120
805.768	4128
805.91	4219
806.052	4227
806.194	4238
806.336	4352
806.478	4238
806.62	4177
806.762	4246
806.904	4261
807.046	4318
807.188	4249
807.33	4181
807.472	4253
807.614	4211
807.756	4238
807.898	4257
808.04	4219
808.182	4329
808.324	4314
808.465	4352
808.607	4489
808.749	4440
808.891	4512
809.033	4481
809.174	4409
809.316	4227
809.458	4246
809.6	4169
809.741	4135
809.883	4169
810.025	4196
810.166	4238
810.308	4242
810.45	4253
810.591	4249
810.733	4295
810.875	4554
811.016	4828
811.158	5109
811.299	5292
811.441	5296
811.582	5102
811.724	4710
811.865	4455
812.007	4504
812.148	4451
812.29	4451
812.431	4443
812.573	4413
812.714	4375
812.855	4424
812.997	4417
813.138	4531
813.279	4470
813.421	4398
813.562	4386
813.703	4360
813.845	4383
813.986	4295
814.127	4219
814.268	4322
814.41	4276
814.551	4227
814.692	4348
814.833	4249
814.974	4299
815.115	4394
815.256	4272
815.397	4257
815.539	4234
815.68	4173
815.821	4246
815.962	4337
816.103	4280
816.244	4261
816.385	4280
816.526	4272
816.666	4246
816.807	4116
816.948	4196
817.089	4200
817.23	4090
817.371	4063
817.512	4017
817.653	4086
817.793	4021
817.934	3994
818.075	4147
818.216	4067
818.356	4051
818.497	4013
818.638	3945
818.778	3941
818.919	3953
819.06	3899
819.2	3926
819.341	3903
819.481	3823
819.622	3903
819.762	4032
819.903	3945
820.043	3907
820.184	3823
820.324	3873
820.465	3899
820.605	3876
820.746	3953
820.886	3819
821.026	3926
821.167	3926
821.307	4013
821.447	3991
821.588	3994
821.728	3949
821.868	3983
822.008	3892
822.149	3922
822.289	3941
822.429	3854
822.569	3785
822.709	3816
822.849	3717
822.99	3770
823.13	3838
823.27	3808
823.41	3705
823.55	3770
823.69	3736
823.83	3724
823.97	3713
824.11	3641
824.25	3637
824.389	3671
824.529	3728
824.669	3644
824.809	3736
824.949	3762
825.089	3724
825.228	3728
825.368	3633
825.508	3572
825.648	3599
825.787	3606
825.927	3637
826.067	3648
826.206	3709
826.346	3793
826.485	3838
826.625	3865
826.765	3918
826.904	3846
827.044	3606
827.183	3534
827.323	3507
827.462	3488
827.601	3428
827.741	3443
827.88	3454
828.02	3405
828.159	3477
828.298	3500
828.437	3492
828.577	3450
828.716	3595
828.855	3538
828.994	3409
829.134	3378
829.273	3409
829.412	3359
829.551	3367
829.69	3378
829.829	3485
829.968	3542
830.107	3454
830.246	3458
830.385	3416
830.524	3393
830.663	3302
830.802	3298
830.941	3192
831.08	3211
831.219	3287
831.357	3264
831.496	3420
831.635	3245
831.774	3237
831.913	3230
832.051	3135
832.19	3146
832.329	3233
832.467	3169
832.606	3112
832.744	3173
832.883	3195
833.022	3184
833.16	3253
833.299	3317
833.437	3355
833.576	3374
833.714	3431
833.852	3443
833.991	3424
834.129	3511
834.267	3469
834.406	3393
834.544	3466
834.682	3439
834.821	3424
834.959	3660
835.097	3454
835.235	3530
835.373	3511
835.511	3526
835.65	3469
835.788	3507
835.926	3443
836.064	3409
836.202	3435
836.34	3614
836.478	3633
836.615	3564
836.753	3606
836.891	3675
837.029	3622
837.167	3603
837.305	3606
837.443	3561
837.58	3523
837.718	3625
837.856	3572
837.993	3572
838.131	3614
838.269	3606
838.406	3618
838.544	3595
838.681	3443
838.819	3488
838.956	3386
839.094	3370
839.231	3511
839.369	3519
839.506	3755
839.643	3705
839.781	3519
839.918	3523
840.055	3545
840.193	3504
840.33	3553
840.467	3553
840.604	3595
840.742	3823
840.879	3534
841.016	3553
841.153	3606
841.29	3770
841.427	3751
841.564	3759
841.701	3751
841.838	3694
841.975	3759
842.112	3713
842.249	3660
842.385	3644
842.522	3884
842.659	3690
842.796	3656
842.933	3713
843.069	3724
843.206	3705
843.343	3857
843.479	3827
843.616	3819
843.752	3686
843.889	3728
844.025	3854
844.162	3743
844.298	3831
844.435	3797
844.571	3823
844.708	3896
844.844	3972
844.98	4025
845.117	3991
845.253	3975
845.389	3945
845.525	4040
845.661	3994
845.798	3953
845.934	4032
846.07	3953
846.206	4074
846.342	4143
846.478	4086
846.614	4051
846.75	3945
846.886	3915
847.022	4082
847.158	3975
847.294	4029
847.429	4013
847.565	3994
847.701	4246
847.837	3922
847.972	3915
848.108	3987
848.244	3979
848.379	3873
848.515	3823
848.65	3797
848.786	3876
848.921	3884
849.057	3922
849.192	4006
849.328	3926
849.463	3949
849.598	3922
849.734	3876
849.869	3850
850.004	3812
850.14	3816
850.275	3755
850.41	3789
850.545	3774
850.68	3766
850.815	3800
850.95	3808
851.085	3964
851.22	3850
851.355	3808
851.49	3819
851.625	3812
851.76	3808
851.895	3759
852.03	3728
852.165	3797
852.299	3846
852.434	3949
852.569	3922
852.703	3842
852.838	3934
852.973	3998
853.107	4021
853.242	3884
853.376	3861
853.511	3778
853.645	3785
853.78	3975
853.914	3903
854.048	3945
854.183	3918
854.317	3968
854.451	4063
854.585	3983
854.72	3968
854.854	4078
854.988	3934
855.122	4002
855.256	3934
855.39	4002
855.524	4128
855.658	4093
855.792	4143
855.926	4124
856.06	4162
856.194	4204
856.327	4169
856.461	4128
856.595	4177
856.729	4181
856.862	4272
856.996	4257
857.13	4287
857.263	4337
857.397	4375
857.53	4276
857.664	4337
857.797	4386
857.931	4428
858.064	4409
858.197	4451
858.331	4398
858.464	4390
858.597	4379
858.731	4402
858.864	4527
858.997	4474
859.13	4535
859.263	4592
859.396	4538
859.529	4558
859.662	4527
859.795	4508
859.928	4634
860.061	4714
860.194	4752
860.327	4656
860.46	4664
860.592	4729
860.725	4759
860.858	4782
860.99	4691
861.123	4702
861.256	4706
861.388	4763
861.521	5360
861.653	4759
861.786	4710
861.918	4744
862.05	4870
862.183	4847
862.315	4934
862.447	4980
862.58	4831
862.712	4839
862.844	4759
862.976	4896
863.108	4896
863.24	5189
863.372	4873
863.504	4904
863.636	4904
863.768	4984
863.9	4938
864.032	4915
864.164	4942
864.296	4999
864.428	5109
864.559	5071
864.691	5162
864.823	5170
864.954	5143
865.086	5128
865.217	5170
865.349	5147
865.48	5166
865.612	5208
865.743	5280
865.875	5273
866.006	5185
866.137	5208
866.269	5261
866.4	5273
866.531	5269
866.662	5254
866.793	5292
866.924	5258
867.055	5330
867.186	5337
867.317	5318
867.448	5379
867.579	5433
867.71	5414
867.841	5402
867.972	5452
868.103	5467
868.233	5516
868.364	5577
868.495	5535
868.625	5695
868.756	5809
868.886	5676
869.017	5779
869.147	5863
869.278	5851
869.408	5874
869.539	5851
869.669	5904
869.799	5916
869.929	5977
870.06	6053
870.19	6194
870.32	6209
870.45	6285
870.58	6391
870.71	6426
870.84	6448
870.97	6365
871.1	6498
871.23	6696
871.36	6719
871.489	6707
871.619	6757
871.749	6833
871.879	6859
872.008	6996
872.138	6981
872.267	7015
872.397	6993
872.526	7015
872.656	7126
872.785	7225
872.915	7400
873.044	7521
873.173	7590
873.303	7685
873.432	7742
873.561	7883
873.69	7955
873.819	7982
873.948	8172
874.077	8305
874.206	8305
874.335	8454
874.464	8640
874.593	8902
874.722	8918
874.851	9142
874.979	9302
875.108	9435
875.237	9435
875.365	9492
875.494	9606
875.623	9819
875.751	9880
875.88	9994
876.008	10150
876.136	10223
876.265	10500
876.393	10637
876.521	10729
876.65	10938
876.778	10919
876.906	10881
877.034	10961
877.162	11132
877.29	11140
877.418	11421
877.546	11376
877.674	11398
877.802	11455
877.93	11551
878.058	11463
878.185	11577
878.313	11642
878.441	11843
878.568	11638
878.696	11783
878.824	11813
878.951	11992
879.079	12060
879.206	12175
879.333	12098
879.461	12038
879.588	12136
879.715	12064
879.842	12220
879.97	12114
880.097	11836
880.224	11893
880.351	11805
880.478	11874
880.605	11870
880.732	11889
880.859	11999
880.986	11863
881.112	11821
881.239	11771
881.366	11668
881.493	11661
881.619	11524
881.746	11608
881.872	11524
881.999	11486
882.125	11516
882.252	11497
882.378	11577
882.505	11562
882.631	11341
882.757	11322
882.883	11265
883.01	11231
883.136	11212
883.262	11136
883.388	11155
883.514	11223
883.64	11170
883.766	11090
883.892	10972
884.018	10946
884.143	11094
884.269	11136
884.395	10927
884.52	10847
884.646	10767
884.772	10702
884.897	10759
885.023	10694
885.148	10717
885.274	10854
885.399	10759
885.524	10691
885.65	10611
885.775	10603
885.9	10611
886.025	10611
886.15	10615
886.275	10489
886.4	10413
886.525	10394
886.65	10356
886.775	10390
886.9	10497
887.025	10516
887.149	10367
887.274	10192
887.399	10158
887.523	10181
887.648	10097
887.773	10128
887.897	10295
888.021	10219
888.146	10135
888.27	10211
888.395	10219
888.519	10177
888.643	10196
888.767	10227
888.891	10059
889.015	9987
889.139	10063
889.263	10048
889.387	10120
889.511	10082
889.635	10093
889.759	9979
889.883	9972
890.006	10006
890.13	10131
890.254	9926
890.377	9945
890.501	9827
890.624	9876
890.748	9922
890.871	9854
890.995	9812
891.118	9797
891.241	9778
891.364	9736
891.488	9888
891.611	9682
891.734	9743
891.857	9732
891.98	9766
892.103	9766
892.226	9705
892.349	9671
892.471	9584
892.594	9663
892.717	9504
892.839	9564
892.962	9622
893.085	9705
893.207	9637
893.33	9584
893.452	9530
893.575	9641
893.697	9500
893.819	9648
893.941	9595
894.064	9625
894.186	9439
894.308	9469
894.43	9557
894.552	9534
894.674	9538
894.796	9405
894.918	9389
895.04	9355
895.161	9363
895.283	9382
895.405	9195
895.526	9260
895.648	9275
895.769	9294
895.891	9260
896.012	9233
896.134	9260
896.255	9184
896.376	9070
896.498	9176
896.619	9188
896.74	9055
896.861	9146
896.982	9306
897.103	9382
897.224	9154
897.345	9142
897.466	8986
897.587	9024
897.708	9093
897.828	9070
897.949	8975
898.07	8853
898.19	8944
898.311	9097
898.431	8891
898.552	8963
898.672	8982
898.792	8918
898.913	8906
899.033	8823
899.153	8804
899.273	8689
899.393	8739
899.513	8773
899.633	8766
899.753	8720
899.873	8727
899.993	8804
900.113	8739
900.232	8632
900.352	8693
900.472	8617
900.591	8693
900.711	8636
900.83	8583
900.95	8693
901.069	8697
901.189	8617
901.308	8434
901.427	8408
901.546	8473
901.665	8404
901.784	8495
901.904	8450
902.023	8358
902.141	8279
902.26	8237
902.379	8282
902.498	8191
902.617	8279
902.735	8279
902.854	8298
902.973	8279
903.091	8157
903.21	8164
903.328	8214
903.446	8088
903.565	8149
903.683	8100
903.801	8077
903.919	8142
904.038	8073
904.156	8115
904.274	8058
904.392	8050
904.51	8046
904.627	8024
904.745	8065
904.863	8161
904.981	7944
905.098	7856
905.216	7913
905.334	7947
905.451	7864
905.569	7909
905.686	7917
905.803	7959
905.921	7807
906.038	7841
906.155	7803
906.272	7772
906.389	7738
906.506	7639
906.623	7613
906.74	7655
906.857	7628
906.974	7605
907.091	7677
907.208	7693
907.324	7655
907.441	7563
907.557	7434
907.674	7483
907.79	7403
907.907	7441
908.023	7533
908.139	7480
908.256	7464
908.372	7377
908.488	7350
908.604	7320
908.72	7263
908.836	7285
908.952	7297
909.068	7282
909.184	7316
909.3	7255
909.415	7305
909.531	7259
909.647	7164
909.762	7126
909.878	7129
909.993	7149
910.108	7027
910.224	7145
910.339	7103
910.454	6989
910.57	7061
910.685	6920
910.8	7118
910.915	7107
911.03	7027
911.145	6924
911.259	6901
911.374	6875
911.489	6856
911.604	6764
911.718	6795
911.833	6787
911.947	6677
912.062	6604
912.176	6734
912.291	6783
912.405	6738
912.519	6810
912.633	6878
912.748	6772
912.862	6703
912.976	6696
913.09	6467
913.204	6642
913.318	6608
913.431	6703
913.545	6715
913.659	6741
913.772	6635
913.886	6585
914	6604
914.113	6639
914.226	6616
914.34	6642
914.453	6513
914.566	6627
914.68	6585
914.793	6483
914.906	6395
915.019	6376
915.132	6369
915.245	6388
915.358	6445
915.47	6460
915.583	6525
915.696	6410
915.809	6532
915.921	6566
916.034	6403
916.146	6414
916.259	6471
916.371	6441
916.483	6479
916.595	6429
916.708	6448
916.82	6445
916.932	6410
917.044	6391
917.156	6357
917.268	6353
917.38	6441
917.491	6338
917.603	6342
917.715	6414
917.826	6403
917.938	6334
918.049	6319
918.161	6376
918.272	6452
918.384	6471
918.495	6357
918.606	6224
918.717	6251
918.828	6270
918.939	6338
919.05	6152
919.161	6224
919.272	6152
919.383	6129
919.494	6391
919.604	6433
919.715	6323
919.826	6178
919.936	6266
920.047	6372
920.157	6308
920.267	6437
920.378	6315
920.488	6262
920.598	6456
920.708	6521
920.818	6486
920.928	6471
921.038	6635
921.148	6608
921.258	6331
921.368	6361
921.477	6247
921.587	6136
921.697	6087
921.806	6163
921.916	6068
922.025	5931
922.134	5931
922.244	5866
922.353	5992
922.462	5901
922.571	5802
922.68	5710
922.789	5714
922.898	5718
923.007	5657
923.116	5748
923.224	5684
923.333	5684
923.442	5634
923.55	5562
923.659	5600
923.767	5611
923.876	5554
923.984	5619
924.092	5459
924.201	5558
924.309	5577
924.417	5570
924.525	5490
924.633	5452
924.741	6292
924.849	5402
924.956	5482
925.064	5341
925.172	5296
925.279	5360
925.387	5433
925.494	5379
925.602	5417
925.709	5410
925.816	5292
925.924	5341
926.031	5436
926.138	5345
926.245	5334
926.352	5261
926.459	5376
926.566	5345
926.673	5258
926.779	5117
926.886	5147
926.993	5079
927.099	5014
927.206	5022
927.312	4965
927.419	5067
927.525	4987
927.631	4987
927.737	4870
927.843	4915
927.95	4786
928.056	4805
928.162	4866
928.267	4839
928.373	5337
928.479	4850
928.585	4687
928.69	4786
928.796	4831
928.901	4740
929.007	4634
929.112	4668
929.218	4656
929.323	4637
929.428	4535
929.533	4634
929.638	4531
929.743	4569
929.848	4615
929.953	4527
930.058	4478
930.163	4394
930.267	4390
930.372	4478
930.477	4333
930.581	4493
930.685	4371
930.79	4291
930.894	4265
930.998	4215
931.103	4375
931.207	4109
931.311	4112
931.415	4002
931.519	3922
931.623	3945
