Data from glass_V78500241_2318.txt Node
Date: Wed Sep 01 19:30:34 CST 2021
User: usil
Spectrometer: V785-0024
Trigger mode: 0
Integration Time (sec): 4.000000E-1
Scans to average: 1
Nonlinearity correction enabled: false
Boxcar width: 0
Storing dark spectrum: false
XAxis mode: Wavelengths
Number of Pixels in Spectrum: 1024
>>>>>Begin Spectral Data<<<<<
801.071	3705
801.214	3720
801.356	3682
801.499	3717
801.641	3713
801.783	3759
801.926	3865
802.068	3816
802.211	3835
802.353	3846
802.496	3865
802.638	3857
802.78	3865
802.923	3915
803.065	3911
803.208	3842
803.35	3884
803.492	3911
803.635	3884
803.777	3793
803.919	3876
804.061	4101
804.204	3975
804.346	3960
804.488	3911
804.63	4067
804.773	3960
804.915	3983
805.057	4120
805.199	4044
805.341	4082
805.483	4093
805.626	4093
805.768	4116
805.91	4192
806.052	4230
806.194	4192
806.336	4325
806.478	4230
806.62	4143
806.762	4188
806.904	4272
807.046	4314
807.188	4211
807.33	4204
807.472	4249
807.614	4181
807.756	4207
807.898	4230
808.04	4185
808.182	4265
808.324	4352
808.465	4356
808.607	4443
808.749	4440
808.891	4497
809.033	4504
809.174	4421
809.316	4246
809.458	4276
809.6	4143
809.741	4169
809.883	4124
810.025	4204
810.166	4173
810.308	4192
810.45	4219
810.591	4188
810.733	4314
810.875	4538
811.016	4809
811.158	5102
811.299	5254
811.441	5235
811.582	5090
811.724	4687
811.865	4447
812.007	4470
812.148	4413
812.29	4394
812.431	4390
812.573	4398
812.714	4363
812.855	4383
812.997	4417
813.138	4481
813.279	4443
813.421	4413
813.562	4337
813.703	4360
813.845	4303
813.986	4291
814.127	4207
814.268	4272
814.41	4303
814.551	4249
814.692	4284
814.833	4295
814.974	4238
815.115	4333
815.256	4246
815.397	4215
815.539	4219
815.68	4219
815.821	4215
815.962	4287
816.103	4265
816.244	4234
816.385	4253
816.526	4276
816.666	4169
816.807	4074
816.948	4150
817.089	4169
817.23	4116
817.371	4105
817.512	4074
817.653	4055
817.793	4029
817.934	4021
818.075	4063
818.216	4101
818.356	4063
818.497	4021
818.638	3915
818.778	3945
818.919	3888
819.06	3865
819.2	3896
819.341	3861
819.481	3850
819.622	3888
819.762	4017
819.903	3953
820.043	3876
820.184	3846
820.324	3778
820.465	3869
820.605	3869
820.746	3854
820.886	3781
821.026	3945
821.167	3850
821.307	3991
821.447	3941
821.588	3968
821.728	3941
821.868	3968
822.008	3842
822.149	3903
822.289	3899
822.429	3797
822.569	3762
822.709	3800
822.849	3682
822.99	3679
823.13	3751
823.27	3793
823.41	3698
823.55	3740
823.69	3705
823.83	3705
823.97	3667
824.11	3584
824.25	3599
824.389	3644
824.529	3686
824.669	3637
824.809	3732
824.949	3701
825.089	3717
825.228	3728
825.368	3595
825.508	3534
825.648	3553
825.787	3595
825.927	3641
826.067	3591
826.206	3679
826.346	3778
826.485	3800
826.625	3854
826.765	3956
826.904	3835
827.044	3603
827.183	3530
827.323	3469
827.462	3481
827.601	3367
827.741	3363
827.88	3443
828.02	3374
828.159	3431
828.298	3466
828.437	3523
828.577	3496
828.716	3530
828.855	3447
828.994	3370
829.134	3359
829.273	3378
829.412	3332
829.551	3340
829.69	3412
829.829	3450
829.968	3542
830.107	3447
830.246	3424
830.385	3401
830.524	3348
830.663	3287
830.802	3233
830.941	3207
831.08	3142
831.219	3233
831.357	3241
831.496	3367
831.635	3245
831.774	3195
831.913	3211
832.051	3154
832.19	3127
832.329	3211
832.467	3131
832.606	3104
832.744	3150
832.883	3169
833.022	3192
833.16	3233
833.299	3283
833.437	3317
833.576	3409
833.714	3409
833.852	3458
833.991	3424
834.129	3443
834.267	3424
834.406	3409
834.544	3435
834.682	3428
834.821	3412
834.959	3576
835.097	3420
835.235	3564
835.373	3481
835.511	3500
835.65	3466
835.788	3488
835.926	3329
836.064	3397
836.202	3412
836.34	3564
836.478	3568
836.615	3564
836.753	3561
836.891	3584
837.029	3618
837.167	3568
837.305	3549
837.443	3511
837.58	3530
837.718	3572
837.856	3530
837.993	3561
838.131	3610
838.269	3580
838.406	3610
838.544	3584
838.681	3443
838.819	3443
838.956	3359
839.094	3389
839.231	3401
839.369	3485
839.506	3690
839.643	3606
839.781	3485
839.918	3431
840.055	3534
840.193	3534
840.33	3545
840.467	3545
840.604	3587
840.742	3797
840.879	3572
841.016	3568
841.153	3599
841.29	3740
841.427	3728
841.564	3724
841.701	3740
841.838	3747
841.975	3671
842.112	3694
842.249	3671
842.385	3625
842.522	3831
842.659	3644
842.796	3686
842.933	3720
843.069	3660
843.206	3671
843.343	3800
843.479	3785
843.616	3793
843.752	3671
843.889	3648
844.025	3827
844.162	3705
844.298	3831
844.435	3755
844.571	3743
844.708	3884
844.844	3972
844.98	4025
845.117	4051
845.253	3861
845.389	3896
845.525	3956
845.661	3960
845.798	3896
845.934	4029
846.07	3937
846.206	4002
846.342	4109
846.478	4086
846.614	3945
846.75	3937
846.886	3911
847.022	4036
847.158	3941
847.294	4006
847.429	3975
847.565	3979
847.701	4234
847.837	3812
847.972	3846
848.108	3956
848.244	3991
848.379	3838
848.515	3812
848.65	3827
848.786	3865
848.921	3869
849.057	3930
849.192	3960
849.328	3918
849.463	3911
849.598	3930
849.734	3861
849.869	3819
850.004	3789
850.14	3804
850.275	3804
850.41	3694
850.545	3781
850.68	3759
850.815	3800
850.95	3789
851.085	3945
851.22	3915
851.355	3865
851.49	3793
851.625	3774
851.76	3774
851.895	3698
852.03	3751
852.165	3831
852.299	3800
852.434	3884
852.569	3835
852.703	3880
852.838	3911
852.973	3960
853.107	3964
853.242	3876
853.376	3876
853.511	3804
853.645	3819
853.78	3975
853.914	3896
854.048	3926
854.183	3884
854.317	3960
854.451	4063
854.585	3983
854.72	3922
854.854	4063
854.988	3937
855.122	3987
855.256	3903
855.39	4002
855.524	4116
855.658	4093
855.792	4116
855.926	4124
856.06	4154
856.194	4181
856.327	4147
856.461	4116
856.595	4124
856.729	4207
856.862	4280
856.996	4253
857.13	4325
857.263	4314
857.397	4344
857.53	4280
857.664	4333
857.797	4398
857.931	4413
858.064	4409
858.197	4436
858.331	4367
858.464	4322
858.597	4348
858.731	4390
858.864	4443
858.997	4436
859.13	4508
859.263	4531
859.396	4580
859.529	4451
859.662	4481
859.795	4504
859.928	4577
860.061	4653
860.194	4729
860.327	4645
860.46	4691
860.592	4717
860.725	4771
860.858	4782
860.99	4721
861.123	4698
861.256	4714
861.388	4782
861.521	5280
861.653	4706
861.786	4664
861.918	4710
862.05	4763
862.183	4870
862.315	4873
862.447	4961
862.58	4930
862.712	4805
862.844	4755
862.976	4858
863.108	4870
863.24	5174
863.372	4828
863.504	4854
863.636	4900
863.768	4968
863.9	4965
864.032	4908
864.164	4961
864.296	5022
864.428	5056
864.559	5067
864.691	5102
864.823	5159
864.954	5128
865.086	5178
865.217	5166
865.349	5143
865.48	5143
865.612	5132
865.743	5204
865.875	5193
866.006	5174
866.137	5242
866.269	5193
866.4	5242
866.531	5208
866.662	5189
866.793	5269
866.924	5280
867.055	5357
867.186	5288
867.317	5296
867.448	5284
867.579	5349
867.71	5364
867.841	5368
867.972	5433
868.103	5433
868.233	5463
868.364	5486
868.495	5509
868.625	5646
868.756	5775
868.886	5661
869.017	5695
869.147	5844
869.278	5821
869.408	5779
869.539	5840
869.669	5904
869.799	5927
869.929	5969
870.06	6030
870.19	6197
870.32	6220
870.45	6258
870.58	6346
870.71	6429
870.84	6418
870.97	6441
871.1	6464
871.23	6620
871.36	6711
871.489	6620
871.619	6745
871.749	6787
871.879	6833
872.008	6993
872.138	7008
872.267	7012
872.397	6951
872.526	7015
872.656	7156
872.785	7251
872.915	7358
873.044	7472
873.173	7548
873.303	7742
873.432	7719
873.561	7868
873.69	7902
873.819	7986
873.948	8202
874.077	8252
874.206	8362
874.335	8412
874.464	8689
874.593	8811
874.722	8895
874.851	9161
874.979	9249
875.108	9321
875.237	9401
875.365	9542
875.494	9625
875.623	9838
875.751	9831
875.88	10044
876.008	10135
876.136	10169
876.265	10569
876.393	10630
876.521	10771
876.65	10828
876.778	10809
876.906	10778
877.034	11033
877.162	11029
877.29	11094
877.418	11280
877.546	11360
877.674	11455
877.802	11459
877.93	11543
878.058	11543
878.185	11577
878.313	11611
878.441	11783
878.568	11680
878.696	11832
878.824	11843
878.951	11950
879.079	11965
879.206	12117
879.333	12072
879.461	11954
879.588	12129
879.715	12072
879.842	12190
879.97	12011
880.097	11859
880.224	11897
880.351	12011
880.478	11920
880.605	11775
880.732	11874
880.859	12015
880.986	11748
881.112	11828
881.239	11710
881.366	11604
881.493	11585
881.619	11543
881.746	11539
881.872	11444
881.999	11573
882.125	11490
882.252	11566
882.378	11482
882.505	11577
882.631	11345
882.757	11299
882.883	11318
883.01	11220
883.136	11170
883.262	11064
883.388	11067
883.514	11235
883.64	11170
883.766	11124
883.892	10904
884.018	11003
884.143	11003
884.269	11109
884.395	10744
884.52	10710
884.646	10809
884.772	10630
884.897	10664
885.023	10649
885.148	10656
885.274	10729
885.399	10687
885.524	10569
885.65	10672
885.775	10611
885.9	10504
886.025	10588
886.15	10596
886.275	10436
886.4	10382
886.525	10413
886.65	10344
886.775	10409
886.9	10413
887.025	10485
887.149	10402
887.274	10200
887.399	10227
887.523	10112
887.648	10185
887.773	10131
887.897	10306
888.021	10196
888.146	10044
888.27	10188
888.395	10253
888.519	10078
888.643	10265
888.767	10207
888.891	10040
889.015	9991
889.139	10048
889.263	9945
889.387	10036
889.511	10188
889.635	10067
889.759	9953
889.883	10025
890.006	9979
890.13	10135
890.254	9953
890.377	9918
890.501	9873
890.624	9800
890.748	9846
890.871	9743
890.995	9717
891.118	9675
891.241	9827
891.364	9736
891.488	9808
891.611	9713
891.734	9720
891.857	9816
891.98	9717
892.103	9785
892.226	9690
892.349	9667
892.471	9447
892.594	9564
892.717	9572
892.839	9572
892.962	9724
893.085	9679
893.207	9564
893.33	9538
893.452	9431
893.575	9633
893.697	9526
893.819	9553
893.941	9568
894.064	9576
894.186	9412
894.308	9321
894.43	9466
894.552	9603
894.674	9488
894.796	9370
894.918	9374
895.04	9344
895.161	9336
895.283	9313
895.405	9332
895.526	9256
895.648	9154
895.769	9283
895.891	9298
896.012	9321
896.134	9218
896.255	9184
896.376	9161
896.498	9123
896.619	9104
896.74	9108
896.861	9005
896.982	9313
897.103	9294
897.224	9203
897.345	9036
897.466	9020
897.587	9047
897.708	9024
897.828	9058
897.949	8963
898.07	8815
898.19	8845
898.311	9043
898.431	8895
898.552	8910
898.672	8937
898.792	8929
898.913	8849
899.033	8777
899.153	8701
899.273	8701
899.393	8727
899.513	8724
899.633	8674
899.753	8724
899.873	8689
899.993	8659
900.113	8674
900.232	8632
900.352	8667
900.472	8549
900.591	8571
900.711	8640
900.83	8579
900.95	8663
901.069	8663
901.189	8556
901.308	8450
901.427	8324
901.546	8431
901.665	8396
901.784	8492
901.904	8374
902.023	8271
902.141	8252
902.26	8142
902.379	8252
902.498	8210
902.617	8218
902.735	8320
902.854	8240
902.973	8191
903.091	8161
903.21	8145
903.328	8142
903.446	8100
903.565	8107
903.683	8039
903.801	8077
903.919	8107
904.038	8020
904.156	8031
904.274	8039
904.392	7997
904.51	8020
904.627	8012
904.745	8077
904.863	8092
904.981	7894
905.098	7830
905.216	7871
905.334	7852
905.451	7833
905.569	7917
905.686	7917
905.803	7909
905.921	7757
906.038	7860
906.155	7860
906.272	7674
906.389	7647
906.506	7636
906.623	7590
906.74	7613
906.857	7540
906.974	7510
907.091	7715
907.208	7677
907.324	7571
907.441	7552
907.557	7422
907.674	7453
907.79	7434
907.907	7381
908.023	7445
908.139	7400
908.256	7411
908.372	7430
908.488	7320
908.604	7305
908.72	7228
908.836	7240
908.952	7228
909.068	7297
909.184	7270
909.3	7247
909.415	7285
909.531	7209
909.647	7110
909.762	7152
909.878	7072
909.993	7095
910.108	7023
910.224	7076
910.339	7053
910.454	7042
910.57	6981
910.685	6871
910.8	7114
910.915	7103
911.03	6970
911.145	6894
911.259	6897
911.374	6856
911.489	6825
911.604	6844
911.718	6703
911.833	6749
911.947	6665
912.062	6627
912.176	6711
912.291	6730
912.405	6707
912.519	6757
912.633	6871
912.748	6703
912.862	6760
912.976	6559
913.09	6547
913.204	6612
913.318	6620
913.431	6662
913.545	6665
913.659	6734
913.772	6658
913.886	6547
914	6544
914.113	6585
914.226	6589
914.34	6585
914.453	6502
914.566	6627
914.68	6521
914.793	6555
914.906	6456
915.019	6369
915.132	6372
915.245	6426
915.358	6441
915.47	6471
915.583	6437
915.696	6464
915.809	6547
915.921	6540
916.034	6464
916.146	6502
916.259	6403
916.371	6490
916.483	6388
916.595	6380
916.708	6414
916.82	6414
916.932	6369
917.044	6365
917.156	6410
917.268	6327
917.38	6327
917.491	6315
917.603	6319
917.715	6395
917.826	6407
917.938	6334
918.049	6277
918.161	6327
918.272	6391
918.384	6490
918.495	6323
918.606	6331
918.717	6201
918.828	6243
918.939	6300
919.05	6190
919.161	6175
919.272	6102
919.383	6114
919.494	6277
919.604	6407
919.715	6235
919.826	6197
919.936	6258
920.047	6281
920.157	6338
920.267	6467
920.378	6338
920.488	6258
920.598	6429
920.708	6479
920.818	6452
920.928	6467
921.038	6513
921.148	6536
921.258	6361
921.368	6315
921.477	6175
921.587	6178
921.697	6068
921.806	6205
921.916	6049
922.025	5931
922.134	5878
922.244	5908
922.353	5950
922.462	5828
922.571	5809
922.68	5695
922.789	5657
922.898	5691
923.007	5615
923.116	5638
923.224	5627
923.333	5653
923.442	5604
923.55	5570
923.659	5539
923.767	5600
923.876	5554
923.984	5551
924.092	5509
924.201	5524
924.309	5505
924.417	5592
924.525	5455
924.633	5490
924.741	6296
924.849	5398
924.956	5467
925.064	5345
925.172	5303
925.279	5269
925.387	5330
925.494	5284
925.602	5440
925.709	5383
925.816	5296
925.924	5303
926.031	5330
926.138	5269
926.245	5288
926.352	5151
926.459	5322
926.566	5258
926.673	5201
926.779	5075
926.886	5185
926.993	5045
927.099	4957
927.206	5014
927.312	4892
927.419	4987
927.525	4949
927.631	4938
927.737	4873
927.843	4831
927.95	4797
928.056	4839
928.162	4790
928.267	4809
928.373	5322
928.479	4870
928.585	4660
928.69	4771
928.796	4805
928.901	4691
929.007	4577
929.112	4649
929.218	4649
929.323	4588
929.428	4573
929.533	4714
929.638	4451
929.743	4516
929.848	4546
929.953	4512
930.058	4440
930.163	4329
930.267	4306
930.372	4424
930.477	4341
930.581	4489
930.685	4344
930.79	4242
930.894	4295
930.998	4238
931.103	4337
931.207	4109
931.311	4101
931.415	4040
931.519	3956
931.623	3960
