Data from glass_V78500241_1412.txt Node
Date: Wed Sep 01 19:24:17 CST 2021
User: usil
Spectrometer: V785-0024
Trigger mode: 0
Integration Time (sec): 4.000000E-1
Scans to average: 1
Nonlinearity correction enabled: false
Boxcar width: 0
Storing dark spectrum: false
XAxis mode: Wavelengths
Number of Pixels in Spectrum: 1024
>>>>>Begin Spectral Data<<<<<
801.071	3747
801.214	3762
801.356	3717
801.499	3724
801.641	3797
801.783	3793
801.926	3865
802.068	3846
802.211	3812
802.353	3854
802.496	3823
802.638	3876
802.78	3869
802.923	3907
803.065	3884
803.208	3850
803.35	3915
803.492	3911
803.635	3934
803.777	3785
803.919	3873
804.061	4177
804.204	3956
804.346	3907
804.488	3930
804.63	4036
804.773	3991
804.915	4025
805.057	4158
805.199	4040
805.341	4063
805.483	4143
805.626	4143
805.768	4116
805.91	4242
806.052	4204
806.194	4200
806.336	4322
806.478	4207
806.62	4207
806.762	4154
806.904	4268
807.046	4348
807.188	4215
807.33	4169
807.472	4238
807.614	4227
807.756	4257
807.898	4246
808.04	4158
808.182	4310
808.324	4360
808.465	4344
808.607	4428
808.749	4493
808.891	4470
809.033	4542
809.174	4443
809.316	4265
809.458	4242
809.6	4192
809.741	4147
809.883	4120
810.025	4204
810.166	4185
810.308	4238
810.45	4314
810.591	4234
810.733	4310
810.875	4497
811.016	4866
811.158	5109
811.299	5280
811.441	5280
811.582	5102
811.724	4755
811.865	4497
812.007	4485
812.148	4424
812.29	4421
812.431	4447
812.573	4447
812.714	4386
812.855	4417
812.997	4417
813.138	4474
813.279	4413
813.421	4367
813.562	4337
813.703	4310
813.845	4344
813.986	4268
814.127	4219
814.268	4257
814.41	4333
814.551	4227
814.692	4375
814.833	4299
814.974	4291
815.115	4333
815.256	4234
815.397	4257
815.539	4299
815.68	4238
815.821	4207
815.962	4303
816.103	4280
816.244	4268
816.385	4249
816.526	4261
816.666	4215
816.807	4093
816.948	4215
817.089	4181
817.23	4177
817.371	4029
817.512	4101
817.653	4063
817.793	4101
817.934	4025
818.075	4090
818.216	4135
818.356	4131
818.497	4013
818.638	3949
818.778	3896
818.919	3892
819.06	3846
819.2	3934
819.341	3865
819.481	3838
819.622	3907
819.762	3983
819.903	3945
820.043	3854
820.184	3854
820.324	3808
820.465	3838
820.605	3907
820.746	3892
820.886	3804
821.026	3896
821.167	3918
821.307	3991
821.447	3987
821.588	3972
821.728	3987
821.868	3930
822.008	3873
822.149	3922
822.289	3934
822.429	3808
822.569	3736
822.709	3797
822.849	3705
822.99	3698
823.13	3778
823.27	3785
823.41	3732
823.55	3789
823.69	3694
823.83	3728
823.97	3709
824.11	3599
824.25	3599
824.389	3644
824.529	3641
824.669	3667
824.809	3698
824.949	3713
825.089	3751
825.228	3660
825.368	3614
825.508	3526
825.648	3530
825.787	3584
825.927	3663
826.067	3663
826.206	3690
826.346	3800
826.485	3797
826.625	3869
826.765	3991
826.904	3880
827.044	3637
827.183	3557
827.323	3435
827.462	3511
827.601	3435
827.741	3424
827.88	3488
828.02	3348
828.159	3420
828.298	3477
828.437	3492
828.577	3488
828.716	3637
828.855	3511
828.994	3363
829.134	3374
829.273	3351
829.412	3340
829.551	3351
829.69	3386
829.829	3428
829.968	3530
830.107	3488
830.246	3450
830.385	3374
830.524	3348
830.663	3298
830.802	3249
830.941	3195
831.08	3184
831.219	3294
831.357	3245
831.496	3420
831.635	3203
831.774	3173
831.913	3165
832.051	3100
832.19	3173
832.329	3222
832.467	3157
832.606	3104
832.744	3169
832.883	3184
833.022	3199
833.16	3214
833.299	3325
833.437	3348
833.576	3382
833.714	3416
833.852	3397
833.991	3469
834.129	3450
834.267	3477
834.406	3462
834.544	3424
834.682	3431
834.821	3409
834.959	3580
835.097	3424
835.235	3568
835.373	3496
835.511	3473
835.65	3439
835.788	3504
835.926	3393
836.064	3424
836.202	3393
836.34	3564
836.478	3648
836.615	3538
836.753	3591
836.891	3660
837.029	3610
837.167	3545
837.305	3584
837.443	3545
837.58	3504
837.718	3576
837.856	3553
837.993	3534
838.131	3625
838.269	3599
838.406	3568
838.544	3610
838.681	3447
838.819	3477
838.956	3382
839.094	3393
839.231	3428
839.369	3526
839.506	3740
839.643	3633
839.781	3538
839.918	3447
840.055	3496
840.193	3504
840.33	3538
840.467	3526
840.604	3587
840.742	3789
840.879	3534
841.016	3576
841.153	3553
841.29	3740
841.427	3736
841.564	3728
841.701	3797
841.838	3671
841.975	3644
842.112	3743
842.249	3667
842.385	3641
842.522	3827
842.659	3694
842.796	3686
842.933	3717
843.069	3682
843.206	3686
843.343	3857
843.479	3800
843.616	3827
843.752	3690
843.889	3663
844.025	3819
844.162	3766
844.298	3861
844.435	3740
844.571	3804
844.708	3903
844.844	3949
844.98	4017
845.117	4044
845.253	3896
845.389	3884
845.525	4029
845.661	3987
845.798	3896
845.934	3964
846.07	3956
846.206	4071
846.342	4112
846.478	4048
846.614	3960
846.75	3869
846.886	3930
847.022	4029
847.158	3964
847.294	4044
847.429	4025
847.565	3998
847.701	4265
847.837	3873
847.972	3873
848.108	3991
848.244	3964
848.379	3865
848.515	3827
848.65	3831
848.786	3865
848.921	3880
849.057	3964
849.192	3972
849.328	3915
849.463	3903
849.598	3915
849.734	3873
849.869	3816
850.004	3812
850.14	3778
850.275	3797
850.41	3743
850.545	3774
850.68	3781
850.815	3816
850.95	3740
851.085	3945
851.22	3854
851.355	3846
851.49	3819
851.625	3785
851.76	3751
851.895	3774
852.03	3732
852.165	3835
852.299	3865
852.434	3896
852.569	3873
852.703	3896
852.838	3941
852.973	3968
853.107	3983
853.242	3911
853.376	3823
853.511	3808
853.645	3827
853.78	4006
853.914	3892
854.048	3911
854.183	3880
854.317	3945
854.451	4128
854.585	3975
854.72	3911
854.854	4040
854.988	3937
855.122	3975
855.256	3941
855.39	4032
855.524	4078
855.658	4059
855.792	4082
855.926	4147
856.06	4188
856.194	4204
856.327	4154
856.461	4086
856.595	4139
856.729	4166
856.862	4249
856.996	4261
857.13	4295
857.263	4295
857.397	4405
857.53	4299
857.664	4318
857.797	4394
857.931	4413
858.064	4440
858.197	4432
858.331	4413
858.464	4390
858.597	4344
858.731	4424
858.864	4470
858.997	4466
859.13	4504
859.263	4508
859.396	4637
859.529	4489
859.662	4554
859.795	4470
859.928	4634
860.061	4637
860.194	4721
860.327	4698
860.46	4649
860.592	4694
860.725	4767
860.858	4736
860.99	4687
861.123	4687
861.256	4679
861.388	4740
861.521	5315
861.653	4744
861.786	4675
861.918	4793
862.05	4786
862.183	4816
862.315	4911
862.447	4911
862.58	4930
862.712	4847
862.844	4748
862.976	4870
863.108	4892
863.24	5166
863.372	4843
863.504	4908
863.636	4847
863.768	4968
863.9	4972
864.032	4889
864.164	4965
864.296	5056
864.428	5105
864.559	5124
864.691	5117
864.823	5094
864.954	5098
865.086	5159
865.217	5147
865.349	5094
865.48	5174
865.612	5208
865.743	5288
865.875	5235
866.006	5212
866.137	5246
866.269	5216
866.4	5223
866.531	5227
866.662	5258
866.793	5288
866.924	5292
867.055	5372
867.186	5395
867.317	5383
867.448	5334
867.579	5360
867.71	5433
867.841	5345
867.972	5444
868.103	5467
868.233	5440
868.364	5482
868.495	5505
868.625	5634
868.756	5767
868.886	5642
869.017	5729
869.147	5897
869.278	5859
869.408	5821
869.539	5893
869.669	5950
869.799	5897
869.929	6030
870.06	6030
870.19	6178
870.32	6167
870.45	6266
870.58	6376
870.71	6445
870.84	6509
870.97	6437
871.1	6403
871.23	6646
871.36	6677
871.489	6650
871.619	6753
871.749	6783
871.879	6833
872.008	6951
872.138	6989
872.267	7004
872.397	6966
872.526	6996
872.656	7114
872.785	7213
872.915	7384
873.044	7499
873.173	7594
873.303	7677
873.432	7731
873.561	7830
873.69	7894
873.819	8107
873.948	8187
874.077	8271
874.206	8370
874.335	8408
874.464	8648
874.593	8811
874.722	8868
874.851	9161
874.979	9207
875.108	9294
875.237	9428
875.365	9549
875.494	9591
875.623	9880
875.751	9857
875.88	10078
876.008	10067
876.136	10242
876.265	10535
876.393	10714
876.521	10675
876.65	10714
876.778	10942
876.906	10889
877.034	10889
877.162	11064
877.29	11162
877.418	11299
877.546	11334
877.674	11436
877.802	11490
877.93	11581
878.058	11600
878.185	11592
878.313	11672
878.441	11802
878.568	11676
878.696	11851
878.824	11832
878.951	11889
879.079	11977
879.206	12106
879.333	12087
879.461	11954
879.588	12121
879.715	12034
879.842	12121
879.97	12015
880.097	11855
880.224	12003
880.351	11893
880.478	11893
880.605	11767
880.732	11855
880.859	11923
880.986	11767
881.112	11821
881.239	11794
881.366	11718
881.493	11573
881.619	11554
881.746	11581
881.872	11509
881.999	11417
882.125	11516
882.252	11516
882.378	11448
882.505	11493
882.631	11379
882.757	11341
882.883	11315
883.01	11288
883.136	11181
883.262	11201
883.388	11143
883.514	11189
883.64	11147
883.766	11075
883.892	10999
884.018	11098
884.143	11037
884.269	11071
884.395	10797
884.52	10782
884.646	10824
884.772	10782
884.897	10672
885.023	10698
885.148	10752
885.274	10691
885.399	10664
885.524	10603
885.65	10611
885.775	10596
885.9	10535
886.025	10596
886.15	10546
886.275	10394
886.4	10394
886.525	10428
886.65	10363
886.775	10386
886.9	10504
887.025	10493
887.149	10344
887.274	10230
887.399	10188
887.523	10166
887.648	10215
887.773	10101
887.897	10147
888.021	10234
888.146	10112
888.27	10246
888.395	10181
888.519	10166
888.643	10139
888.767	10257
888.891	10105
889.015	10082
889.139	10044
889.263	10021
889.387	10044
889.511	10143
889.635	10055
889.759	9968
889.883	9941
890.006	10002
890.13	10139
890.254	9918
890.377	9975
890.501	9857
890.624	9823
890.748	9846
890.871	9888
890.995	9778
891.118	9713
891.241	9736
891.364	9762
891.488	9873
891.611	9766
891.734	9698
891.857	9747
891.98	9698
892.103	9713
892.226	9740
892.349	9580
892.471	9428
892.594	9641
892.717	9591
892.839	9549
892.962	9572
893.085	9675
893.207	9523
893.33	9473
893.452	9538
893.575	9591
893.697	9469
893.819	9610
893.941	9625
894.064	9667
894.186	9466
894.308	9450
894.43	9523
894.552	9576
894.674	9603
894.796	9370
894.918	9363
895.04	9389
895.161	9386
895.283	9313
895.405	9184
895.526	9264
895.648	9264
895.769	9283
895.891	9325
896.012	9275
896.134	9188
896.255	9226
896.376	9188
896.498	9146
896.619	9142
896.74	9116
896.861	9062
896.982	9275
897.103	9351
897.224	9203
897.345	9119
897.466	9051
897.587	9020
897.708	9097
897.828	8994
897.949	8895
898.07	8830
898.19	8906
898.311	9028
898.431	8864
898.552	8933
898.672	8937
898.792	8979
898.913	8853
899.033	8826
899.153	8773
899.273	8590
899.393	8644
899.513	8758
899.633	8701
899.753	8792
899.873	8739
899.993	8735
900.113	8708
900.232	8625
900.352	8670
900.472	8625
900.591	8606
900.711	8663
900.83	8568
900.95	8678
901.069	8716
901.189	8575
901.308	8473
901.427	8324
901.546	8461
901.665	8465
901.784	8419
901.904	8389
902.023	8339
902.141	8221
902.26	8221
902.379	8229
902.498	8279
902.617	8214
902.735	8358
902.854	8263
902.973	8317
903.091	8138
903.21	8092
903.328	8225
903.446	8096
903.565	8077
903.683	8149
903.801	8077
903.919	8081
904.038	8058
904.156	8050
904.274	8088
904.392	8050
904.51	8001
904.627	8035
904.745	8081
904.863	8054
904.981	7936
905.098	7830
905.216	7947
905.334	7894
905.451	7879
905.569	7841
905.686	7890
905.803	7913
905.921	7727
906.038	7818
906.155	7719
906.272	7780
906.389	7681
906.506	7632
906.623	7609
906.74	7597
906.857	7521
906.974	7575
907.091	7708
907.208	7757
907.324	7594
907.441	7597
907.557	7430
907.674	7426
907.79	7419
907.907	7407
908.023	7476
908.139	7407
908.256	7381
908.372	7388
908.488	7343
908.604	7259
908.72	7285
908.836	7297
908.952	7293
909.068	7190
909.184	7282
909.3	7278
909.415	7301
909.531	7259
909.647	7061
909.762	7034
909.878	7103
909.993	7145
910.108	7084
910.224	7137
910.339	7137
910.454	7000
910.57	7031
910.685	6996
910.8	7137
910.915	7133
911.03	6996
911.145	6943
911.259	6920
911.374	6928
911.489	6837
911.604	6837
911.718	6719
911.833	6768
911.947	6642
912.062	6570
912.176	6696
912.291	6696
912.405	6703
912.519	6837
912.633	6829
912.748	6741
912.862	6741
912.976	6635
913.09	6593
913.204	6551
913.318	6585
913.431	6684
913.545	6665
913.659	6677
913.772	6646
913.886	6570
914	6563
914.113	6627
914.226	6635
914.34	6623
914.453	6536
914.566	6608
914.68	6506
914.793	6570
914.906	6391
915.019	6414
915.132	6422
915.245	6399
915.358	6372
915.47	6448
915.583	6456
915.696	6502
915.809	6517
915.921	6502
916.034	6399
916.146	6391
916.259	6331
916.371	6448
916.483	6467
916.595	6357
916.708	6441
916.82	6410
916.932	6342
917.044	6445
917.156	6384
917.268	6311
917.38	6395
917.491	6304
917.603	6353
917.715	6441
917.826	6426
917.938	6308
918.049	6247
918.161	6346
918.272	6414
918.384	6429
918.495	6338
918.606	6262
918.717	6171
918.828	6224
918.939	6277
919.05	6190
919.161	6281
919.272	6125
919.383	6201
919.494	6289
919.604	6429
919.715	6304
919.826	6251
919.936	6235
920.047	6418
920.157	6251
920.267	6460
920.378	6372
920.488	6270
920.598	6464
920.708	6570
920.818	6471
920.928	6464
921.038	6612
921.148	6582
921.258	6319
921.368	6331
921.477	6178
921.587	6228
921.697	6110
921.806	6163
921.916	6030
922.025	5882
922.134	5954
922.244	5874
922.353	5920
922.462	5813
922.571	5779
922.68	5688
922.789	5691
922.898	5733
923.007	5661
923.116	5718
923.224	5657
923.333	5627
923.442	5642
923.55	5619
923.659	5581
923.767	5608
923.876	5577
923.984	5562
924.092	5509
924.201	5520
924.309	5551
924.417	5554
924.525	5474
924.633	5501
924.741	6243
924.849	5421
924.956	5516
925.064	5341
925.172	5326
925.279	5337
925.387	5322
925.494	5330
925.602	5398
925.709	5364
925.816	5296
925.924	5311
926.031	5334
926.138	5273
926.245	5345
926.352	5216
926.459	5292
926.566	5318
926.673	5220
926.779	5102
926.886	5109
926.993	5056
927.099	5018
927.206	4968
927.312	4900
927.419	5003
927.525	4999
927.631	4984
927.737	4889
927.843	4816
927.95	4767
928.056	4816
928.162	4820
928.267	4892
928.373	5265
928.479	4862
928.585	4683
928.69	4782
928.796	4755
928.901	4717
929.007	4584
929.112	4675
929.218	4656
929.323	4603
929.428	4542
929.533	4637
929.638	4516
929.743	4527
929.848	4577
929.953	4531
930.058	4455
930.163	4287
930.267	4421
930.372	4417
930.477	4329
930.581	4478
930.685	4383
930.79	4280
930.894	4249
930.998	4261
931.103	4379
931.207	4162
931.311	4071
931.415	4025
931.519	3911
931.623	3964
