Data from glass_V78500241_1148.txt Node
Date: Wed Sep 01 19:22:27 CST 2021
User: usil
Spectrometer: V785-0024
Trigger mode: 0
Integration Time (sec): 4.000000E-1
Scans to average: 1
Nonlinearity correction enabled: false
Boxcar width: 0
Storing dark spectrum: false
XAxis mode: Wavelengths
Number of Pixels in Spectrum: 1024
>>>>>Begin Spectral Data<<<<<
801.071	3724
801.214	3759
801.356	3747
801.499	3770
801.641	3808
801.783	3766
801.926	3842
802.068	3854
802.211	3888
802.353	3884
802.496	3785
802.638	3918
802.78	3934
802.923	3960
803.065	3865
803.208	3827
803.35	3918
803.492	3922
803.635	3937
803.777	3808
803.919	3930
804.061	4188
804.204	3983
804.346	3972
804.488	3911
804.63	4036
804.773	4029
804.915	4002
805.057	4154
805.199	4036
805.341	4150
805.483	4116
805.626	4150
805.768	4105
805.91	4287
806.052	4253
806.194	4192
806.336	4375
806.478	4242
806.62	4169
806.762	4196
806.904	4234
807.046	4341
807.188	4246
807.33	4177
807.472	4223
807.614	4162
807.756	4242
807.898	4211
808.04	4238
808.182	4303
808.324	4356
808.465	4390
808.607	4481
808.749	4421
808.891	4497
809.033	4497
809.174	4413
809.316	4299
809.458	4219
809.6	4112
809.741	4162
809.883	4169
810.025	4280
810.166	4211
810.308	4204
810.45	4242
810.591	4280
810.733	4257
810.875	4497
811.016	4877
811.158	5170
811.299	5277
811.441	5311
811.582	5105
811.724	4672
811.865	4504
812.007	4500
812.148	4459
812.29	4436
812.431	4398
812.573	4363
812.714	4432
812.855	4421
812.997	4375
813.138	4504
813.279	4394
813.421	4409
813.562	4405
813.703	4356
813.845	4371
813.986	4268
814.127	4261
814.268	4257
814.41	4306
814.551	4238
814.692	4322
814.833	4291
814.974	4341
815.115	4341
815.256	4238
815.397	4223
815.539	4280
815.68	4207
815.821	4261
815.962	4318
816.103	4272
816.244	4280
816.385	4265
816.526	4284
816.666	4223
816.807	4101
816.948	4181
817.089	4188
817.23	4173
817.371	4059
817.512	4048
817.653	4074
817.793	4010
817.934	4021
818.075	4082
818.216	4074
818.356	4131
818.497	3964
818.638	3945
818.778	3949
818.919	3865
819.06	3846
819.2	3922
819.341	3907
819.481	3804
819.622	3892
819.762	4013
819.903	3956
820.043	3873
820.184	3854
820.324	3869
820.465	3918
820.605	3896
820.746	3911
820.886	3793
821.026	3922
821.167	3949
821.307	4010
821.447	3998
821.588	3994
821.728	3945
821.868	3964
822.008	3926
822.149	3972
822.289	3896
822.429	3808
822.569	3770
822.709	3789
822.849	3705
822.99	3781
823.13	3766
823.27	3819
823.41	3698
823.55	3720
823.69	3724
823.83	3759
823.97	3698
824.11	3595
824.25	3564
824.389	3660
824.529	3690
824.669	3606
824.809	3690
824.949	3759
825.089	3705
825.228	3724
825.368	3599
825.508	3553
825.648	3584
825.787	3587
825.927	3641
826.067	3625
826.206	3694
826.346	3812
826.485	3816
826.625	3842
826.765	3941
826.904	3865
827.044	3595
827.183	3534
827.323	3458
827.462	3485
827.601	3393
827.741	3420
827.88	3481
828.02	3378
828.159	3462
828.298	3492
828.437	3545
828.577	3450
828.716	3599
828.855	3534
828.994	3389
829.134	3416
829.273	3382
829.412	3367
829.551	3348
829.69	3363
829.829	3450
829.968	3515
830.107	3469
830.246	3443
830.385	3401
830.524	3386
830.663	3302
830.802	3287
830.941	3233
831.08	3207
831.219	3272
831.357	3268
831.496	3405
831.635	3237
831.774	3195
831.913	3207
832.051	3135
832.19	3169
832.329	3184
832.467	3116
832.606	3116
832.744	3165
832.883	3188
833.022	3207
833.16	3310
833.299	3298
833.437	3344
833.576	3401
833.714	3405
833.852	3450
833.991	3504
834.129	3504
834.267	3416
834.406	3378
834.544	3447
834.682	3389
834.821	3431
834.959	3610
835.097	3477
835.235	3534
835.373	3500
835.511	3485
835.65	3481
835.788	3447
835.926	3435
836.064	3409
836.202	3393
836.34	3564
836.478	3629
836.615	3542
836.753	3644
836.891	3622
837.029	3606
837.167	3610
837.305	3557
837.443	3542
837.58	3561
837.718	3576
837.856	3542
837.993	3549
838.131	3606
838.269	3591
838.406	3603
838.544	3557
838.681	3462
838.819	3500
838.956	3363
839.094	3416
839.231	3466
839.369	3557
839.506	3778
839.643	3679
839.781	3515
839.918	3473
840.055	3519
840.193	3545
840.33	3526
840.467	3576
840.604	3637
840.742	3819
840.879	3545
841.016	3553
841.153	3622
841.29	3766
841.427	3755
841.564	3759
841.701	3728
841.838	3694
841.975	3705
842.112	3701
842.249	3652
842.385	3599
842.522	3827
842.659	3732
842.796	3690
842.933	3762
843.069	3705
843.206	3709
843.343	3865
843.479	3816
843.616	3789
843.752	3682
843.889	3675
844.025	3850
844.162	3698
844.298	3869
844.435	3804
844.571	3808
844.708	3899
844.844	4025
844.98	4067
845.117	4059
845.253	3911
845.389	3892
845.525	3975
845.661	3960
845.798	3953
845.934	4010
846.07	3983
846.206	4074
846.342	4135
846.478	4051
846.614	3968
846.75	3934
846.886	3956
847.022	4029
847.158	3975
847.294	4013
847.429	4040
847.565	3987
847.701	4295
847.837	3888
847.972	3850
848.108	3983
848.244	3972
848.379	3819
848.515	3778
848.65	3816
848.786	3831
848.921	3846
849.057	3949
849.192	3945
849.328	3926
849.463	3960
849.598	3873
849.734	3850
849.869	3861
850.004	3800
850.14	3819
850.275	3785
850.41	3751
850.545	3759
850.68	3759
850.815	3800
850.95	3804
851.085	3926
851.22	3873
851.355	3857
851.49	3793
851.625	3827
851.76	3831
851.895	3759
852.03	3717
852.165	3827
852.299	3854
852.434	3926
852.569	3892
852.703	3911
852.838	3941
852.973	4040
853.107	3991
853.242	3873
853.376	3827
853.511	3793
853.645	3850
853.78	3979
853.914	3842
854.048	3918
854.183	3926
854.317	3983
854.451	4097
854.585	4006
854.72	3979
854.854	4055
854.988	3987
855.122	4002
855.256	3934
855.39	4036
855.524	4131
855.658	4067
855.792	4105
855.926	4124
856.06	4154
856.194	4219
856.327	4139
856.461	4173
856.595	4154
856.729	4158
856.862	4287
856.996	4287
857.13	4318
857.263	4341
857.397	4375
857.53	4310
857.664	4383
857.797	4390
857.931	4428
858.064	4356
858.197	4497
858.331	4421
858.464	4421
858.597	4356
858.731	4424
858.864	4474
858.997	4436
859.13	4500
859.263	4535
859.396	4592
859.529	4573
859.662	4481
859.795	4546
859.928	4656
860.061	4702
860.194	4778
860.327	4649
860.46	4618
860.592	4763
860.725	4782
860.858	4774
860.99	4706
861.123	4725
861.256	4702
861.388	4759
861.521	5288
861.653	4755
861.786	4702
861.918	4744
862.05	4778
862.183	4858
862.315	4896
862.447	4949
862.58	4866
862.712	4820
862.844	4816
862.976	4911
863.108	4854
863.24	5250
863.372	4843
863.504	4930
863.636	4908
863.768	5018
863.9	4942
864.032	4904
864.164	4980
864.296	5079
864.428	5105
864.559	5075
864.691	5151
864.823	5140
864.954	5159
865.086	5189
865.217	5136
865.349	5064
865.48	5212
865.612	5189
865.743	5292
865.875	5216
866.006	5189
866.137	5239
866.269	5280
866.4	5250
866.531	5239
866.662	5277
866.793	5307
866.924	5296
867.055	5318
867.186	5364
867.317	5345
867.448	5303
867.579	5334
867.71	5410
867.841	5402
867.972	5471
868.103	5486
868.233	5497
868.364	5516
868.495	5551
868.625	5733
868.756	5756
868.886	5627
869.017	5741
869.147	5855
869.278	5866
869.408	5767
869.539	5809
869.669	5904
869.799	5923
869.929	5984
870.06	6068
870.19	6163
870.32	6197
870.45	6350
870.58	6311
870.71	6532
870.84	6452
870.97	6479
871.1	6448
871.23	6650
871.36	6662
871.489	6696
871.619	6730
871.749	6783
871.879	6825
872.008	7012
872.138	7084
872.267	7008
872.397	6924
872.526	7053
872.656	7168
872.785	7232
872.915	7426
873.044	7537
873.173	7590
873.303	7677
873.432	7772
873.561	7868
873.69	7890
873.819	8035
873.948	8176
874.077	8286
874.206	8366
874.335	8469
874.464	8625
874.593	8929
874.722	8998
874.851	9116
874.979	9233
875.108	9359
875.237	9424
875.365	9477
875.494	9675
875.623	9827
875.751	9873
875.88	10040
876.008	10192
876.136	10276
876.265	10462
876.393	10710
876.521	10740
876.65	10824
876.778	10900
876.906	10949
877.034	10949
877.162	11121
877.29	11151
877.418	11345
877.546	11356
877.674	11455
877.802	11512
877.93	11433
878.058	11600
878.185	11589
878.313	11657
878.441	11737
878.568	11657
878.696	11847
878.824	11855
878.951	11969
879.079	12076
879.206	12152
879.333	12129
879.461	11988
879.588	12041
879.715	12098
879.842	12254
879.97	12022
880.097	11885
880.224	11920
880.351	11961
880.478	11927
880.605	11809
880.732	11824
880.859	12003
880.986	11779
881.112	11901
881.239	11748
881.366	11676
881.493	11680
881.619	11551
881.746	11589
881.872	11600
881.999	11543
882.125	11455
882.252	11577
882.378	11497
882.505	11509
882.631	11360
882.757	11345
882.883	11273
883.01	11261
883.136	11223
883.262	11075
883.388	11155
883.514	11208
883.64	11147
883.766	11086
883.892	11056
884.018	10923
884.143	11132
884.269	11064
884.395	10854
884.52	10755
884.646	10839
884.772	10736
884.897	10664
885.023	10683
885.148	10782
885.274	10843
885.399	10774
885.524	10577
885.65	10554
885.775	10592
885.9	10577
886.025	10672
886.15	10580
886.275	10466
886.4	10443
886.525	10348
886.65	10360
886.775	10386
886.9	10443
887.025	10512
887.149	10341
887.274	10280
887.399	10207
887.523	10150
887.648	10139
887.773	10139
887.897	10291
888.021	10223
888.146	10120
888.27	10219
888.395	10177
888.519	10173
888.643	10188
888.767	10143
888.891	10097
889.015	9983
889.139	10048
889.263	9975
889.387	10025
889.511	10158
889.635	10006
889.759	10029
889.883	10010
890.006	9975
890.13	10044
890.254	9964
890.377	10013
890.501	9873
890.624	9884
890.748	9880
890.871	9755
890.995	9759
891.118	9698
891.241	9781
891.364	9728
891.488	9865
891.611	9808
891.734	9720
891.857	9835
891.98	9755
892.103	9747
892.226	9743
892.349	9694
892.471	9545
892.594	9591
892.717	9625
892.839	9557
892.962	9622
893.085	9633
893.207	9572
893.33	9553
893.452	9576
893.575	9625
893.697	9542
893.819	9599
893.941	9679
894.064	9644
894.186	9507
894.308	9416
894.43	9511
894.552	9599
894.674	9496
894.796	9450
894.918	9431
895.04	9294
895.161	9370
895.283	9374
895.405	9287
895.526	9268
895.648	9226
895.769	9283
895.891	9260
896.012	9268
896.134	9237
896.255	9241
896.376	9199
896.498	9146
896.619	9184
896.74	9062
896.861	9119
896.982	9233
897.103	9386
897.224	9100
897.345	9081
897.466	9104
897.587	9055
897.708	9119
897.828	9017
897.949	9001
898.07	8887
898.19	8895
898.311	9043
898.431	8899
898.552	8918
898.672	9005
898.792	8941
898.913	8956
899.033	8804
899.153	8705
899.273	8655
899.393	8731
899.513	8739
899.633	8735
899.753	8720
899.873	8667
899.993	8731
900.113	8670
900.232	8686
900.352	8708
900.472	8655
900.591	8606
900.711	8590
900.83	8579
900.95	8678
901.069	8705
901.189	8571
901.308	8438
901.427	8400
901.546	8438
901.665	8480
901.784	8503
901.904	8457
902.023	8347
902.141	8290
902.26	8176
902.379	8271
902.498	8240
902.617	8290
902.735	8286
902.854	8256
902.973	8252
903.091	8130
903.21	8142
903.328	8145
903.446	8126
903.565	8027
903.683	8130
903.801	8073
903.919	8115
904.038	8115
904.156	8027
904.274	8096
904.392	8001
904.51	7997
904.627	8050
904.745	8088
904.863	8077
904.981	7921
905.098	7856
905.216	7913
905.334	7906
905.451	7925
905.569	7894
905.686	7932
905.803	7947
905.921	7822
906.038	7890
906.155	7814
906.272	7757
906.389	7734
906.506	7613
906.623	7681
906.74	7651
906.857	7529
906.974	7597
907.091	7674
907.208	7708
907.324	7700
907.441	7567
907.557	7495
907.674	7464
907.79	7373
907.907	7369
908.023	7460
908.139	7441
908.256	7483
908.372	7388
908.488	7384
908.604	7305
908.72	7225
908.836	7305
908.952	7289
909.068	7270
909.184	7350
909.3	7217
909.415	7278
909.531	7320
909.647	7160
909.762	7099
909.878	7042
909.993	7126
910.108	7084
910.224	7110
910.339	7088
910.454	7069
910.57	7023
910.685	6973
910.8	7202
910.915	7171
911.03	7053
911.145	6890
911.259	6871
911.374	6859
911.489	6901
911.604	6779
911.718	6795
911.833	6757
911.947	6703
912.062	6574
912.176	6764
912.291	6749
912.405	6711
912.519	6806
912.633	6882
912.748	6772
912.862	6711
912.976	6646
913.09	6563
913.204	6574
913.318	6582
913.431	6650
913.545	6639
913.659	6722
913.772	6593
913.886	6559
914	6593
914.113	6662
914.226	6616
914.34	6673
914.453	6521
914.566	6608
914.68	6456
914.793	6525
914.906	6471
915.019	6410
915.132	6410
915.245	6388
915.358	6418
915.47	6460
915.583	6486
915.696	6498
915.809	6536
915.921	6563
916.034	6433
916.146	6426
916.259	6380
916.371	6517
916.483	6475
916.595	6410
916.708	6407
916.82	6460
916.932	6388
917.044	6357
917.156	6399
917.268	6338
917.38	6353
917.491	6353
917.603	6353
917.715	6403
917.826	6410
917.938	6331
918.049	6247
918.161	6353
918.272	6414
918.384	6464
918.495	6296
918.606	6273
918.717	6186
918.828	6281
918.939	6247
919.05	6125
919.161	6266
919.272	6133
919.383	6186
919.494	6300
919.604	6456
919.715	6296
919.826	6262
919.936	6247
920.047	6350
920.157	6228
920.267	6452
920.378	6311
920.488	6308
920.598	6506
920.708	6593
920.818	6448
920.928	6528
921.038	6604
921.148	6559
921.258	6384
921.368	6262
921.477	6232
921.587	6178
921.697	6098
921.806	6121
921.916	6087
922.025	5965
922.134	5935
922.244	5912
922.353	6007
922.462	5863
922.571	5790
922.68	5745
922.789	5699
922.898	5703
923.007	5649
923.116	5710
923.224	5684
923.333	5684
923.442	5581
923.55	5577
923.659	5581
923.767	5608
923.876	5554
923.984	5623
924.092	5596
924.201	5638
924.309	5539
924.417	5554
924.525	5474
924.633	5539
924.741	6289
924.849	5379
924.956	5493
925.064	5322
925.172	5315
925.279	5307
925.387	5387
925.494	5315
925.602	5364
925.709	5364
925.816	5292
925.924	5315
926.031	5379
926.138	5303
926.245	5376
926.352	5227
926.459	5330
926.566	5284
926.673	5216
926.779	5102
926.886	5102
926.993	5041
927.099	5022
927.206	5014
927.312	5014
927.419	5037
927.525	4991
927.631	5006
927.737	4892
927.843	4911
927.95	4759
928.056	4839
928.162	4847
928.267	4831
928.373	5368
928.479	4881
928.585	4717
928.69	4782
928.796	4801
928.901	4687
929.007	4603
929.112	4710
929.218	4656
929.323	4573
929.428	4580
929.533	4637
929.638	4531
929.743	4527
929.848	4573
929.953	4538
930.058	4443
930.163	4287
930.267	4341
930.372	4443
930.477	4337
930.581	4466
930.685	4379
930.79	4253
930.894	4257
930.998	4348
931.103	4375
931.207	4143
931.311	4078
931.415	4055
931.519	3964
931.623	3941
