Data from glass_V78500241_1160.txt Node
Date: Wed Sep 01 19:22:32 CST 2021
User: usil
Spectrometer: V785-0024
Trigger mode: 0
Integration Time (sec): 4.000000E-1
Scans to average: 1
Nonlinearity correction enabled: false
Boxcar width: 0
Storing dark spectrum: false
XAxis mode: Wavelengths
Number of Pixels in Spectrum: 1024
>>>>>Begin Spectral Data<<<<<
801.071	3713
801.214	3770
801.356	3709
801.499	3774
801.641	3751
801.783	3808
801.926	3846
802.068	3808
802.211	3888
802.353	3915
802.496	3873
802.638	3876
802.78	3918
802.923	3972
803.065	3896
803.208	3831
803.35	3896
803.492	3911
803.635	3907
803.777	3785
803.919	3926
804.061	4147
804.204	3983
804.346	4006
804.488	3915
804.63	4055
804.773	4017
804.915	4040
805.057	4131
805.199	4067
805.341	4090
805.483	4177
805.626	4147
805.768	4078
805.91	4227
806.052	4215
806.194	4192
806.336	4367
806.478	4211
806.62	4166
806.762	4188
806.904	4268
807.046	4356
807.188	4234
807.33	4181
807.472	4200
807.614	4215
807.756	4276
807.898	4227
808.04	4227
808.182	4303
808.324	4356
808.465	4413
808.607	4474
808.749	4516
808.891	4493
809.033	4519
809.174	4398
809.316	4257
809.458	4249
809.6	4181
809.741	4173
809.883	4166
810.025	4227
810.166	4238
810.308	4234
810.45	4227
810.591	4238
810.733	4287
810.875	4504
811.016	4843
811.158	5117
811.299	5280
811.441	5269
811.582	5083
811.724	4729
811.865	4462
812.007	4508
812.148	4481
812.29	4405
812.431	4394
812.573	4375
812.714	4424
812.855	4348
812.997	4432
813.138	4485
813.279	4489
813.421	4409
813.562	4390
813.703	4428
813.845	4348
813.986	4299
814.127	4253
814.268	4295
814.41	4299
814.551	4219
814.692	4375
814.833	4272
814.974	4352
815.115	4333
815.256	4287
815.397	4295
815.539	4238
815.68	4177
815.821	4204
815.962	4272
816.103	4272
816.244	4261
816.385	4238
816.526	4276
816.666	4223
816.807	4112
816.948	4219
817.089	4135
817.23	4116
817.371	4048
817.512	4006
817.653	4063
817.793	4051
817.934	4025
818.075	4082
818.216	4135
818.356	4124
818.497	4013
818.638	3934
818.778	3937
818.919	3876
819.06	3896
819.2	3960
819.341	3876
819.481	3838
819.622	3934
819.762	4040
819.903	3998
820.043	3876
820.184	3857
820.324	3827
820.465	3880
820.605	3854
820.746	3880
820.886	3819
821.026	3892
821.167	3949
821.307	3968
821.447	3983
821.588	3983
821.728	3983
821.868	3960
822.008	3903
822.149	3915
822.289	3937
822.429	3793
822.569	3778
822.709	3816
822.849	3682
822.99	3740
823.13	3785
823.27	3812
823.41	3690
823.55	3766
823.69	3743
823.83	3800
823.97	3713
824.11	3614
824.25	3641
824.389	3641
824.529	3675
824.669	3603
824.809	3713
824.949	3778
825.089	3709
825.228	3709
825.368	3591
825.508	3561
825.648	3576
825.787	3629
825.927	3614
826.067	3618
826.206	3690
826.346	3762
826.485	3835
826.625	3884
826.765	3945
826.904	3838
827.044	3660
827.183	3500
827.323	3447
827.462	3492
827.601	3443
827.741	3424
827.88	3477
828.02	3351
828.159	3412
828.298	3477
828.437	3523
828.577	3473
828.716	3622
828.855	3469
828.994	3370
829.134	3348
829.273	3359
829.412	3374
829.551	3332
829.69	3389
829.829	3409
829.968	3549
830.107	3435
830.246	3477
830.385	3386
830.524	3306
830.663	3355
830.802	3256
830.941	3176
831.08	3161
831.219	3291
831.357	3264
831.496	3412
831.635	3230
831.774	3195
831.913	3203
832.051	3116
832.19	3154
832.329	3233
832.467	3138
832.606	3112
832.744	3165
832.883	3157
833.022	3214
833.16	3249
833.299	3310
833.437	3355
833.576	3355
833.714	3412
833.852	3443
833.991	3454
834.129	3496
834.267	3458
834.406	3420
834.544	3450
834.682	3428
834.821	3420
834.959	3572
835.097	3454
835.235	3519
835.373	3523
835.511	3534
835.65	3477
835.788	3488
835.926	3435
836.064	3374
836.202	3389
836.34	3557
836.478	3595
836.615	3576
836.753	3591
836.891	3675
837.029	3625
837.167	3572
837.305	3591
837.443	3534
837.58	3549
837.718	3641
837.856	3538
837.993	3519
838.131	3618
838.269	3618
838.406	3587
838.544	3545
838.681	3488
838.819	3443
838.956	3378
839.094	3401
839.231	3435
839.369	3557
839.506	3728
839.643	3648
839.781	3530
839.918	3492
840.055	3561
840.193	3545
840.33	3538
840.467	3587
840.604	3599
840.742	3831
840.879	3564
841.016	3572
841.153	3622
841.29	3778
841.427	3720
841.564	3724
841.701	3740
841.838	3740
841.975	3705
842.112	3713
842.249	3644
842.385	3686
842.522	3804
842.659	3690
842.796	3648
842.933	3736
843.069	3686
843.206	3671
843.343	3846
843.479	3781
843.616	3827
843.752	3709
843.889	3694
844.025	3865
844.162	3724
844.298	3903
844.435	3808
844.571	3785
844.708	3888
844.844	4021
844.98	4082
845.117	4040
845.253	3918
845.389	3873
845.525	4013
845.661	3987
845.798	3937
845.934	4040
846.07	3953
846.206	4078
846.342	4101
846.478	4090
846.614	3987
846.75	3960
846.886	3922
847.022	4059
847.158	3949
847.294	3991
847.429	3994
847.565	3994
847.701	4246
847.837	3888
847.972	3857
848.108	4006
848.244	4029
848.379	3892
848.515	3835
848.65	3800
848.786	3869
848.921	3888
849.057	3930
849.192	3934
849.328	3975
849.463	3964
849.598	3907
849.734	3907
849.869	3812
850.004	3819
850.14	3880
850.275	3865
850.41	3781
850.545	3793
850.68	3793
850.815	3812
850.95	3762
851.085	3945
851.22	3899
851.355	3850
851.49	3812
851.625	3827
851.76	3789
851.895	3740
852.03	3720
852.165	3797
852.299	3857
852.434	3956
852.569	3846
852.703	3907
852.838	3956
852.973	4029
853.107	3991
853.242	3911
853.376	3842
853.511	3770
853.645	3876
853.78	3949
853.914	3915
854.048	3945
854.183	3884
854.317	3896
854.451	4082
854.585	3960
854.72	3926
854.854	4078
854.988	3975
855.122	4017
855.256	3926
855.39	4036
855.524	4143
855.658	4074
855.792	4112
855.926	4177
856.06	4177
856.194	4227
856.327	4128
856.461	4082
856.595	4147
856.729	4223
856.862	4280
856.996	4257
857.13	4299
857.263	4379
857.397	4379
857.53	4303
857.664	4390
857.797	4417
857.931	4432
858.064	4394
858.197	4500
858.331	4417
858.464	4363
858.597	4379
858.731	4500
858.864	4462
858.997	4421
859.13	4516
859.263	4546
859.396	4588
859.529	4527
859.662	4519
859.795	4485
859.928	4615
860.061	4698
860.194	4763
860.327	4691
860.46	4626
860.592	4733
860.725	4771
860.858	4778
860.99	4717
861.123	4679
861.256	4702
861.388	4790
861.521	5402
861.653	4710
861.786	4717
861.918	4744
862.05	4782
862.183	4831
862.315	4889
862.447	5010
862.58	4915
862.712	4812
862.844	4805
862.976	4839
863.108	4824
863.24	5212
863.372	4862
863.504	4904
863.636	4870
863.768	4923
863.9	4980
864.032	4923
864.164	4923
864.296	4980
864.428	5105
864.559	5102
864.691	5086
864.823	5113
864.954	5094
865.086	5121
865.217	5162
865.349	5128
865.48	5147
865.612	5121
865.743	5296
865.875	5174
866.006	5162
866.137	5269
866.269	5250
866.4	5223
866.531	5231
866.662	5185
866.793	5307
866.924	5277
867.055	5299
867.186	5379
867.317	5345
867.448	5299
867.579	5376
867.71	5402
867.841	5417
867.972	5467
868.103	5459
868.233	5493
868.364	5471
868.495	5604
868.625	5726
868.756	5733
868.886	5646
869.017	5733
869.147	5817
869.278	5923
869.408	5870
869.539	5805
869.669	5912
869.799	5904
869.929	5927
870.06	5977
870.19	6213
870.32	6228
870.45	6254
870.58	6361
870.71	6452
870.84	6490
870.97	6445
871.1	6445
871.23	6559
871.36	6654
871.489	6635
871.619	6711
871.749	6814
871.879	6882
872.008	6981
872.138	7008
872.267	7050
872.397	7057
872.526	6981
872.656	7065
872.785	7217
872.915	7377
873.044	7533
873.173	7529
873.303	7613
873.432	7757
873.561	7883
873.69	7894
873.819	7993
873.948	8153
874.077	8244
874.206	8358
874.335	8469
874.464	8682
874.593	8826
874.722	8982
874.851	9176
874.979	9245
875.108	9355
875.237	9481
875.365	9488
875.494	9610
875.623	9819
875.751	9892
875.88	10029
876.008	10150
876.136	10246
876.265	10580
876.393	10668
876.521	10793
876.65	10805
876.778	10881
876.906	10911
877.034	10999
877.162	11105
877.29	11132
877.418	11288
877.546	11337
877.674	11490
877.802	11459
877.93	11474
878.058	11638
878.185	11611
878.313	11707
878.441	11767
878.568	11748
878.696	11908
878.824	11866
878.951	11927
879.079	12015
879.206	12140
879.333	12060
879.461	12034
879.588	12091
879.715	12087
879.842	12266
879.97	12060
880.097	11866
880.224	11923
880.351	12022
880.478	11878
880.605	11840
880.732	11855
880.859	12045
880.986	11824
881.112	11882
881.239	11809
881.366	11665
881.493	11642
881.619	11551
881.746	11570
881.872	11608
881.999	11528
882.125	11577
882.252	11623
882.378	11493
882.505	11604
882.631	11353
882.757	11341
882.883	11296
883.01	11353
883.136	11197
883.262	11067
883.388	11079
883.514	11235
883.64	11159
883.766	11174
883.892	11117
884.018	11022
884.143	11025
884.269	11102
884.395	10850
884.52	10725
884.646	10771
884.772	10672
884.897	10683
885.023	10660
885.148	10736
885.274	10786
885.399	10725
885.524	10687
885.65	10630
885.775	10622
885.9	10478
886.025	10622
886.15	10535
886.275	10428
886.4	10462
886.525	10443
886.65	10356
886.775	10371
886.9	10527
887.025	10500
887.149	10394
887.274	10314
887.399	10204
887.523	10200
887.648	10128
887.773	10147
887.897	10246
888.021	10276
888.146	10120
888.27	10249
888.395	10249
888.519	10249
888.643	10128
888.767	10185
888.891	10105
889.015	10128
889.139	10112
889.263	9975
889.387	10158
889.511	10112
889.635	10059
889.759	9945
889.883	10063
890.006	10082
890.13	10101
890.254	9998
890.377	10006
890.501	9861
890.624	9888
890.748	9850
890.871	9743
890.995	9762
891.118	9682
891.241	9709
891.364	9789
891.488	9915
891.611	9743
891.734	9644
891.857	9785
891.98	9781
892.103	9705
892.226	9755
892.349	9698
892.471	9591
892.594	9622
892.717	9637
892.839	9591
892.962	9603
893.085	9671
893.207	9523
893.33	9500
893.452	9599
893.575	9530
893.697	9515
893.819	9709
893.941	9622
894.064	9553
894.186	9401
894.308	9431
894.43	9553
894.552	9587
894.674	9538
894.796	9332
894.918	9355
895.04	9294
895.161	9355
895.283	9416
895.405	9237
895.526	9302
895.648	9237
895.769	9241
895.891	9222
896.012	9302
896.134	9253
896.255	9146
896.376	9043
896.498	9154
896.619	9108
896.74	9108
896.861	9127
896.982	9329
897.103	9298
897.224	9169
897.345	9138
897.466	9085
897.587	9058
897.708	9112
897.828	9039
897.949	8914
898.07	8880
898.19	8937
898.311	8956
898.431	8967
898.552	8914
898.672	8975
898.792	8921
898.913	8944
899.033	8933
899.153	8785
899.273	8754
899.393	8617
899.513	8762
899.633	8735
899.753	8720
899.873	8731
899.993	8750
900.113	8727
900.232	8712
900.352	8686
900.472	8670
900.591	8602
900.711	8579
900.83	8579
900.95	8785
901.069	8708
901.189	8518
901.308	8412
901.427	8423
901.546	8457
901.665	8450
901.784	8492
901.904	8404
902.023	8419
902.141	8199
902.26	8202
902.379	8263
902.498	8282
902.617	8248
902.735	8271
902.854	8229
902.973	8206
903.091	8145
903.21	8161
903.328	8180
903.446	8153
903.565	8058
903.683	8043
903.801	8073
903.919	8126
904.038	8096
904.156	8039
904.274	8081
904.392	7974
904.51	8043
904.627	8043
904.745	8115
904.863	8058
904.981	7944
905.098	7818
905.216	7917
905.334	7868
905.451	7875
905.569	7909
905.686	7944
905.803	7890
905.921	7776
906.038	7879
906.155	7868
906.272	7765
906.389	7750
906.506	7693
906.623	7689
906.74	7613
906.857	7605
906.974	7624
907.091	7677
907.208	7674
907.324	7613
907.441	7563
907.557	7480
907.674	7487
907.79	7430
907.907	7422
908.023	7468
908.139	7483
908.256	7358
908.372	7384
908.488	7270
908.604	7320
908.72	7259
908.836	7244
908.952	7240
909.068	7285
909.184	7259
909.3	7278
909.415	7308
909.531	7324
909.647	7050
909.762	7133
909.878	7095
909.993	7141
910.108	7027
910.224	7095
910.339	7072
910.454	7065
910.57	7034
910.685	6939
910.8	7141
910.915	7099
911.03	7019
911.145	6947
911.259	6878
911.374	6878
911.489	6764
911.604	6852
911.718	6707
911.833	6776
911.947	6684
912.062	6658
912.176	6741
912.291	6707
912.405	6738
912.519	6833
912.633	6806
912.748	6722
912.862	6764
912.976	6604
913.09	6574
913.204	6612
913.318	6642
913.431	6700
913.545	6669
913.659	6722
913.772	6684
913.886	6627
914	6566
914.113	6665
914.226	6627
914.34	6673
914.453	6559
914.566	6612
914.68	6483
914.793	6532
914.906	6403
915.019	6380
915.132	6403
915.245	6410
915.358	6464
915.47	6456
915.583	6445
915.696	6506
915.809	6494
915.921	6635
916.034	6471
916.146	6445
916.259	6410
916.371	6475
916.483	6490
916.595	6448
916.708	6361
916.82	6433
916.932	6414
917.044	6350
917.156	6452
917.268	6350
917.38	6361
917.491	6361
917.603	6319
917.715	6388
917.826	6418
917.938	6372
918.049	6235
918.161	6372
918.272	6429
918.384	6445
918.495	6346
918.606	6281
918.717	6216
918.828	6292
918.939	6285
919.05	6258
919.161	6277
919.272	6129
919.383	6224
919.494	6304
919.604	6426
919.715	6285
919.826	6273
919.936	6308
920.047	6342
920.157	6289
920.267	6429
920.378	6327
920.488	6327
920.598	6479
920.708	6593
920.818	6464
920.928	6445
921.038	6662
921.148	6574
921.258	6350
921.368	6353
921.477	6239
921.587	6155
921.697	6087
921.806	6175
921.916	6083
922.025	5904
922.134	5912
922.244	5878
922.353	5935
922.462	5836
922.571	5802
922.68	5733
922.789	5665
922.898	5676
923.007	5649
923.116	5665
923.224	5680
923.333	5684
923.442	5581
923.55	5596
923.659	5577
923.767	5665
923.876	5554
923.984	5619
924.092	5467
924.201	5562
924.309	5520
924.417	5535
924.525	5512
924.633	5467
924.741	6296
924.849	5376
924.956	5535
925.064	5341
925.172	5353
925.279	5322
925.387	5379
925.494	5292
925.602	5444
925.709	5376
925.816	5292
925.924	5318
926.031	5379
926.138	5318
926.245	5345
926.352	5223
926.459	5307
926.566	5330
926.673	5223
926.779	5216
926.886	5117
926.993	5060
927.099	4980
927.206	5025
927.312	5045
927.419	5048
927.525	5048
927.631	5037
927.737	4892
927.843	4839
927.95	4824
928.056	4831
928.162	4881
928.267	4946
928.373	5326
928.479	4889
928.585	4694
928.69	4782
928.796	4797
928.901	4714
929.007	4599
929.112	4622
929.218	4672
929.323	4615
929.428	4580
929.533	4687
929.638	4527
929.743	4580
929.848	4584
929.953	4508
930.058	4436
930.163	4333
930.267	4375
930.372	4474
930.477	4318
930.581	4474
930.685	4341
930.79	4223
930.894	4310
930.998	4242
931.103	4402
931.207	4154
931.311	4128
931.415	4090
931.519	3930
931.623	3930
