Data from glass_V78500241_836.txt Node
Date: Wed Sep 01 19:20:17 CST 2021
User: usil
Spectrometer: V785-0024
Trigger mode: 0
Integration Time (sec): 4.000000E-1
Scans to average: 1
Nonlinearity correction enabled: false
Boxcar width: 0
Storing dark spectrum: false
XAxis mode: Wavelengths
Number of Pixels in Spectrum: 1024
>>>>>Begin Spectral Data<<<<<
801.071	3720
801.214	3762
801.356	3728
801.499	3759
801.641	3690
801.783	3812
801.926	3918
802.068	3884
802.211	3873
802.353	3922
802.496	3865
802.638	3907
802.78	3911
802.923	3880
803.065	3884
803.208	3873
803.35	3888
803.492	3873
803.635	3903
803.777	3831
803.919	3869
804.061	4124
804.204	3949
804.346	3941
804.488	3937
804.63	4029
804.773	3972
804.915	4067
805.057	4150
805.199	4013
805.341	4086
805.483	4116
805.626	4154
805.768	4071
805.91	4227
806.052	4272
806.194	4249
806.336	4386
806.478	4295
806.62	4211
806.762	4204
806.904	4284
807.046	4329
807.188	4257
807.33	4196
807.472	4261
807.614	4196
807.756	4295
807.898	4318
808.04	4207
808.182	4337
808.324	4325
808.465	4402
808.607	4474
808.749	4462
808.891	4489
809.033	4493
809.174	4428
809.316	4246
809.458	4257
809.6	4204
809.741	4135
809.883	4169
810.025	4211
810.166	4223
810.308	4238
810.45	4261
810.591	4219
810.733	4325
810.875	4535
811.016	4820
811.158	5201
811.299	5315
811.441	5235
811.582	5090
811.724	4744
811.865	4493
812.007	4474
812.148	4485
812.29	4417
812.431	4417
812.573	4409
812.714	4379
812.855	4375
812.997	4409
813.138	4474
813.279	4390
813.421	4398
813.562	4440
813.703	4371
813.845	4344
813.986	4265
814.127	4253
814.268	4310
814.41	4306
814.551	4219
814.692	4333
814.833	4253
814.974	4299
815.115	4398
815.256	4268
815.397	4261
815.539	4284
815.68	4211
815.821	4230
815.962	4333
816.103	4276
816.244	4276
816.385	4230
816.526	4276
816.666	4234
816.807	4105
816.948	4234
817.089	4192
817.23	4158
817.371	4044
817.512	4044
817.653	4139
817.793	4036
817.934	4029
818.075	4112
818.216	4116
818.356	4059
818.497	4002
818.638	3934
818.778	3888
818.919	3892
819.06	3903
819.2	3926
819.341	3857
819.481	3888
819.622	3911
819.762	4040
819.903	3964
820.043	3892
820.184	3842
820.324	3857
820.465	3896
820.605	3884
820.746	3896
820.886	3842
821.026	3934
821.167	3960
821.307	4025
821.447	3979
821.588	3956
821.728	3979
821.868	3941
822.008	3869
822.149	3911
822.289	3918
822.429	3835
822.569	3808
822.709	3774
822.849	3701
822.99	3766
823.13	3728
823.27	3835
823.41	3751
823.55	3755
823.69	3743
823.83	3736
823.97	3656
824.11	3614
824.25	3629
824.389	3660
824.529	3690
824.669	3648
824.809	3717
824.949	3762
825.089	3728
825.228	3690
825.368	3584
825.508	3564
825.648	3599
825.787	3667
825.927	3652
826.067	3652
826.206	3679
826.346	3766
826.485	3846
826.625	3888
826.765	3953
826.904	3823
827.044	3603
827.183	3553
827.323	3409
827.462	3488
827.601	3450
827.741	3439
827.88	3447
828.02	3405
828.159	3458
828.298	3507
828.437	3526
828.577	3488
828.716	3603
828.855	3507
828.994	3389
829.134	3382
829.273	3359
829.412	3317
829.551	3325
829.69	3386
829.829	3428
829.968	3553
830.107	3462
830.246	3454
830.385	3374
830.524	3351
830.663	3321
830.802	3260
830.941	3218
831.08	3226
831.219	3302
831.357	3275
831.496	3412
831.635	3245
831.774	3211
831.913	3192
832.051	3112
832.19	3169
832.329	3192
832.467	3150
832.606	3135
832.744	3195
832.883	3195
833.022	3192
833.16	3275
833.299	3279
833.437	3321
833.576	3409
833.714	3393
833.852	3424
833.991	3416
834.129	3500
834.267	3439
834.406	3401
834.544	3435
834.682	3393
834.821	3458
834.959	3595
835.097	3424
835.235	3549
835.373	3492
835.511	3523
835.65	3492
835.788	3496
835.926	3401
836.064	3382
836.202	3450
836.34	3557
836.478	3637
836.615	3568
836.753	3625
836.891	3648
837.029	3633
837.167	3606
837.305	3561
837.443	3572
837.58	3507
837.718	3599
837.856	3610
837.993	3519
838.131	3572
838.269	3606
838.406	3584
838.544	3572
838.681	3485
838.819	3469
838.956	3374
839.094	3466
839.231	3458
839.369	3492
839.506	3705
839.643	3625
839.781	3492
839.918	3492
840.055	3542
840.193	3553
840.33	3545
840.467	3572
840.604	3656
840.742	3838
840.879	3549
841.016	3614
841.153	3599
841.29	3800
841.427	3728
841.564	3747
841.701	3724
841.838	3663
841.975	3675
842.112	3732
842.249	3656
842.385	3675
842.522	3816
842.659	3690
842.796	3732
842.933	3713
843.069	3728
843.206	3724
843.343	3793
843.479	3751
843.616	3816
843.752	3694
843.889	3671
844.025	3892
844.162	3713
844.298	3876
844.435	3800
844.571	3819
844.708	3922
844.844	4017
844.98	4032
845.117	4021
845.253	3937
845.389	3888
845.525	3983
845.661	3930
845.798	3937
845.934	4044
846.07	3998
846.206	4063
846.342	4090
846.478	4116
846.614	4006
846.75	3934
846.886	3911
847.022	3983
847.158	3956
847.294	4021
847.429	4063
847.565	4040
847.701	4276
847.837	3941
847.972	3865
848.108	3975
848.244	3956
848.379	3911
848.515	3827
848.65	3797
848.786	3842
848.921	3861
849.057	3964
849.192	3949
849.328	3934
849.463	3945
849.598	3854
849.734	3899
849.869	3835
850.004	3812
850.14	3804
850.275	3797
850.41	3751
850.545	3736
850.68	3800
850.815	3842
850.95	3778
851.085	3941
851.22	3907
851.355	3842
851.49	3770
851.625	3766
851.76	3823
851.895	3751
852.03	3728
852.165	3743
852.299	3888
852.434	3903
852.569	3846
852.703	3876
852.838	3972
852.973	4036
853.107	4029
853.242	3915
853.376	3850
853.511	3759
853.645	3823
853.78	3994
853.914	3918
854.048	3873
854.183	3899
854.317	3937
854.451	4067
854.585	3934
854.72	3922
854.854	4040
854.988	3968
855.122	4040
855.256	3949
855.39	4002
855.524	4105
855.658	4116
855.792	4071
855.926	4166
856.06	4158
856.194	4257
856.327	4181
856.461	4177
856.595	4166
856.729	4169
856.862	4261
856.996	4268
857.13	4276
857.263	4348
857.397	4333
857.53	4268
857.664	4375
857.797	4398
857.931	4413
858.064	4375
858.197	4398
858.331	4383
858.464	4383
858.597	4371
858.731	4500
858.864	4455
858.997	4466
859.13	4542
859.263	4535
859.396	4599
859.529	4546
859.662	4565
859.795	4542
859.928	4603
860.061	4691
860.194	4725
860.327	4698
860.46	4672
860.592	4744
860.725	4752
860.858	4778
860.99	4687
861.123	4706
861.256	4710
861.388	4816
861.521	5448
861.653	4710
861.786	4725
861.918	4752
862.05	4839
862.183	4885
862.315	4885
862.447	4953
862.58	4927
862.712	4759
862.844	4816
862.976	4843
863.108	4877
863.24	5227
863.372	4843
863.504	4908
863.636	4961
863.768	5010
863.9	4961
864.032	4946
864.164	4911
864.296	5067
864.428	5094
864.559	5086
864.691	5128
864.823	5140
864.954	5159
865.086	5155
865.217	5151
865.349	5155
865.48	5170
865.612	5265
865.743	5318
865.875	5197
866.006	5197
866.137	5288
866.269	5269
866.4	5246
866.531	5261
866.662	5239
866.793	5277
866.924	5299
867.055	5353
867.186	5376
867.317	5299
867.448	5296
867.579	5337
867.71	5398
867.841	5357
867.972	5459
868.103	5414
868.233	5512
868.364	5474
868.495	5509
868.625	5661
868.756	5802
868.886	5699
869.017	5745
869.147	5863
869.278	5874
869.408	5844
869.539	5828
869.669	5908
869.799	5882
869.929	5961
870.06	6053
870.19	6182
870.32	6205
870.45	6235
870.58	6399
870.71	6418
870.84	6506
870.97	6433
871.1	6452
871.23	6612
871.36	6730
871.489	6627
871.619	6802
871.749	6821
871.879	6833
872.008	7000
872.138	6977
872.267	7012
872.397	6985
872.526	7015
872.656	7118
872.785	7259
872.915	7381
873.044	7575
873.173	7628
873.303	7651
873.432	7772
873.561	7894
873.69	7963
873.819	8073
873.948	8259
874.077	8286
874.206	8419
874.335	8431
874.464	8674
874.593	8815
874.722	8967
874.851	9127
874.979	9260
875.108	9374
875.237	9405
875.365	9447
875.494	9675
875.623	9915
875.751	9823
875.88	10040
876.008	10128
876.136	10306
876.265	10493
876.393	10675
876.521	10755
876.65	10850
876.778	10843
876.906	10953
877.034	10984
877.162	11094
877.29	11124
877.418	11265
877.546	11360
877.674	11436
877.802	11493
877.93	11573
878.058	11532
878.185	11581
878.313	11653
878.441	11813
878.568	11733
878.696	11779
878.824	11866
878.951	11961
879.079	12079
879.206	12121
879.333	11984
879.461	11984
879.588	12026
879.715	12110
879.842	12201
879.97	11927
880.097	11912
880.224	11878
880.351	11855
880.478	11889
880.605	11855
880.732	11809
880.859	12015
880.986	11809
881.112	11885
881.239	11729
881.366	11665
881.493	11596
881.619	11562
881.746	11608
881.872	11493
881.999	11604
882.125	11482
882.252	11592
882.378	11509
882.505	11535
882.631	11387
882.757	11239
882.883	11341
883.01	11273
883.136	11170
883.262	11079
883.388	11060
883.514	11258
883.64	11132
883.766	11132
883.892	11041
884.018	10976
884.143	11067
884.269	11041
884.395	10843
884.52	10801
884.646	10809
884.772	10706
884.897	10653
885.023	10694
885.148	10714
885.274	10733
885.399	10694
885.524	10645
885.65	10573
885.775	10653
885.9	10527
886.025	10599
886.15	10538
886.275	10455
886.4	10379
886.525	10424
886.65	10329
886.775	10394
886.9	10508
887.025	10546
887.149	10417
887.274	10238
887.399	10242
887.523	10207
887.648	10185
887.773	10101
887.897	10211
888.021	10227
888.146	10139
888.27	10219
888.395	10166
888.519	10135
888.643	10143
888.767	10158
888.891	10078
889.015	10055
889.139	10010
889.263	9975
889.387	10120
889.511	10162
889.635	10074
889.759	10002
889.883	10063
890.006	10074
890.13	10074
890.254	9968
890.377	9941
890.501	9823
890.624	9884
890.748	9922
890.871	9747
890.995	9743
891.118	9770
891.241	9789
891.364	9720
891.488	9869
891.611	9793
891.734	9774
891.857	9774
891.98	9747
892.103	9797
892.226	9698
892.349	9724
892.471	9496
892.594	9549
892.717	9564
892.839	9511
892.962	9606
893.085	9667
893.207	9622
893.33	9481
893.452	9515
893.575	9599
893.697	9534
893.819	9587
893.941	9603
894.064	9633
894.186	9553
894.308	9405
894.43	9481
894.552	9526
894.674	9534
894.796	9488
894.918	9363
895.04	9386
895.161	9416
895.283	9344
895.405	9233
895.526	9253
895.648	9298
895.769	9195
895.891	9283
896.012	9272
896.134	9268
896.255	9161
896.376	9116
896.498	9146
896.619	9108
896.74	9116
896.861	9093
896.982	9241
897.103	9264
897.224	9154
897.345	9070
897.466	9020
897.587	9055
897.708	9074
897.828	9032
897.949	8956
898.07	8925
898.19	8883
898.311	9055
898.431	8876
898.552	8883
898.672	9013
898.792	8982
898.913	8876
899.033	8769
899.153	8800
899.273	8727
899.393	8815
899.513	8785
899.633	8701
899.753	8781
899.873	8762
899.993	8754
900.113	8724
900.232	8693
900.352	8659
900.472	8610
900.591	8522
900.711	8610
900.83	8530
900.95	8746
901.069	8720
901.189	8602
901.308	8469
901.427	8438
901.546	8408
901.665	8526
901.784	8484
901.904	8351
902.023	8298
902.141	8225
902.26	8172
902.379	8240
902.498	8244
902.617	8267
902.735	8355
902.854	8301
902.973	8248
903.091	8134
903.21	8149
903.328	8180
903.446	8214
903.565	8107
903.683	8134
903.801	8081
903.919	8123
904.038	8161
904.156	8107
904.274	8035
904.392	8005
904.51	8050
904.627	8020
904.745	8111
904.863	8103
904.981	7989
905.098	7833
905.216	7837
905.334	7959
905.451	7852
905.569	7849
905.686	7970
905.803	7940
905.921	7799
906.038	7936
906.155	7814
906.272	7734
906.389	7708
906.506	7616
906.623	7670
906.74	7643
906.857	7563
906.974	7624
907.091	7696
907.208	7715
907.324	7712
907.441	7571
907.557	7445
907.674	7468
907.79	7407
907.907	7434
908.023	7468
908.139	7411
908.256	7434
908.372	7396
908.488	7407
908.604	7305
908.72	7232
908.836	7362
908.952	7255
909.068	7255
909.184	7327
909.3	7251
909.415	7285
909.531	7316
909.647	7118
909.762	7088
909.878	7023
909.993	7141
910.108	7095
910.224	7141
910.339	7152
910.454	7027
910.57	7012
910.685	6973
910.8	7198
910.915	7069
911.03	7042
911.145	6920
911.259	6863
911.374	6905
911.489	6882
911.604	6821
911.718	6677
911.833	6730
911.947	6544
912.062	6658
912.176	6707
912.291	6711
912.405	6715
912.519	6806
912.633	6818
912.748	6673
912.862	6642
912.976	6597
913.09	6597
913.204	6597
913.318	6604
913.431	6673
913.545	6669
913.659	6711
913.772	6662
913.886	6582
914	6604
914.113	6585
914.226	6662
914.34	6684
914.453	6532
914.566	6608
914.68	6536
914.793	6559
914.906	6429
915.019	6437
915.132	6437
915.245	6506
915.358	6445
915.47	6471
915.583	6483
915.696	6467
915.809	6589
915.921	6563
916.034	6441
916.146	6433
916.259	6403
916.371	6513
916.483	6441
916.595	6426
916.708	6464
916.82	6414
916.932	6403
917.044	6361
917.156	6433
917.268	6361
917.38	6407
917.491	6369
917.603	6319
917.715	6429
917.826	6426
917.938	6350
918.049	6194
918.161	6353
918.272	6399
918.384	6464
918.495	6384
918.606	6289
918.717	6232
918.828	6300
918.939	6289
919.05	6220
919.161	6228
919.272	6167
919.383	6175
919.494	6251
919.604	6399
919.715	6308
919.826	6201
919.936	6308
920.047	6353
920.157	6243
920.267	6517
920.378	6319
920.488	6243
920.598	6433
920.708	6604
920.818	6506
920.928	6464
921.038	6620
921.148	6585
921.258	6369
921.368	6296
921.477	6247
921.587	6159
921.697	6106
921.806	6175
921.916	6064
922.025	5969
922.134	5912
922.244	5946
922.353	5954
922.462	5817
922.571	5813
922.68	5676
922.789	5707
922.898	5710
923.007	5653
923.116	5699
923.224	5699
923.333	5718
923.442	5566
923.55	5604
923.659	5535
923.767	5592
923.876	5573
923.984	5596
924.092	5486
924.201	5535
924.309	5539
924.417	5592
924.525	5497
924.633	5490
924.741	6129
924.849	5372
924.956	5459
925.064	5322
925.172	5265
925.279	5330
925.387	5360
925.494	5334
925.602	5433
925.709	5395
925.816	5208
925.924	5334
926.031	5341
926.138	5360
926.245	5368
926.352	5258
926.459	5360
926.566	5292
926.673	5258
926.779	5143
926.886	5151
926.993	5048
927.099	5022
927.206	4987
927.312	4946
927.419	5071
927.525	5006
927.631	4995
927.737	4919
927.843	4858
927.95	4786
928.056	4854
928.162	4835
928.267	4862
928.373	5368
928.479	4828
928.585	4675
928.69	4752
928.796	4767
928.901	4653
929.007	4599
929.112	4710
929.218	4615
929.323	4577
929.428	4561
929.533	4683
929.638	4542
929.743	4584
929.848	4569
929.953	4523
930.058	4417
930.163	4333
930.267	4348
930.372	4470
930.477	4318
930.581	4489
930.685	4371
930.79	4246
930.894	4314
930.998	4261
931.103	4432
931.207	4139
931.311	4131
931.415	4071
931.519	3945
931.623	3956
