Data from glass_V78500241_1204.txt Node
Date: Wed Sep 01 19:22:50 CST 2021
User: usil
Spectrometer: V785-0024
Trigger mode: 0
Integration Time (sec): 4.000000E-1
Scans to average: 1
Nonlinearity correction enabled: false
Boxcar width: 0
Storing dark spectrum: false
XAxis mode: Wavelengths
Number of Pixels in Spectrum: 1024
>>>>>Begin Spectral Data<<<<<
801.071	3751
801.214	3766
801.356	3732
801.499	3789
801.641	3747
801.783	3831
801.926	3869
802.068	3842
802.211	3892
802.353	3846
802.496	3850
802.638	3884
802.78	3888
802.923	3956
803.065	3926
803.208	3850
803.35	3869
803.492	3903
803.635	3956
803.777	3781
803.919	3915
804.061	4162
804.204	3979
804.346	3983
804.488	3896
804.63	4048
804.773	4017
804.915	4025
805.057	4116
805.199	4059
805.341	4112
805.483	4124
805.626	4150
805.768	4150
805.91	4207
806.052	4253
806.194	4246
806.336	4352
806.478	4234
806.62	4200
806.762	4219
806.904	4249
807.046	4360
807.188	4227
807.33	4181
807.472	4249
807.614	4181
807.756	4268
807.898	4177
808.04	4265
808.182	4272
808.324	4322
808.465	4348
808.607	4470
808.749	4447
808.891	4500
809.033	4512
809.174	4379
809.316	4280
809.458	4166
809.6	4166
809.741	4154
809.883	4128
810.025	4196
810.166	4219
810.308	4200
810.45	4230
810.591	4227
810.733	4280
810.875	4516
811.016	4805
811.158	5155
811.299	5265
811.441	5292
811.582	4995
811.724	4744
811.865	4459
812.007	4462
812.148	4447
812.29	4405
812.431	4409
812.573	4402
812.714	4383
812.855	4436
812.997	4424
813.138	4497
813.279	4417
813.421	4394
813.562	4375
813.703	4322
813.845	4398
813.986	4246
814.127	4238
814.268	4215
814.41	4295
814.551	4299
814.692	4333
814.833	4272
814.974	4284
815.115	4344
815.256	4268
815.397	4227
815.539	4238
815.68	4200
815.821	4242
815.962	4360
816.103	4257
816.244	4249
816.385	4230
816.526	4253
816.666	4238
816.807	4105
816.948	4169
817.089	4223
817.23	4105
817.371	4002
817.512	4036
817.653	4048
817.793	4044
817.934	4032
818.075	4101
818.216	4090
818.356	4109
818.497	3960
818.638	3911
818.778	3953
818.919	3907
819.06	3854
819.2	3915
819.341	3835
819.481	3835
819.622	3911
819.762	4059
819.903	3930
820.043	3896
820.184	3842
820.324	3861
820.465	3880
820.605	3869
820.746	3876
820.886	3812
821.026	3934
821.167	3926
821.307	4013
821.447	3983
821.588	3899
821.728	3960
821.868	3926
822.008	3835
822.149	3922
822.289	3949
822.429	3793
822.569	3770
822.709	3812
822.849	3720
822.99	3679
823.13	3793
823.27	3789
823.41	3736
823.55	3743
823.69	3682
823.83	3751
823.97	3717
824.11	3595
824.25	3576
824.389	3641
824.529	3694
824.669	3644
824.809	3698
824.949	3743
825.089	3717
825.228	3656
825.368	3595
825.508	3534
825.648	3538
825.787	3652
825.927	3660
826.067	3633
826.206	3686
826.346	3785
826.485	3816
826.625	3880
826.765	3964
826.904	3869
827.044	3641
827.183	3511
827.323	3462
827.462	3504
827.601	3466
827.741	3447
827.88	3443
828.02	3386
828.159	3458
828.298	3496
828.437	3561
828.577	3504
828.716	3641
828.855	3477
828.994	3397
829.134	3386
829.273	3389
829.412	3306
829.551	3359
829.69	3359
829.829	3382
829.968	3515
830.107	3458
830.246	3454
830.385	3389
830.524	3367
830.663	3287
830.802	3241
830.941	3192
831.08	3211
831.219	3275
831.357	3283
831.496	3412
831.635	3245
831.774	3203
831.913	3207
832.051	3146
832.19	3131
832.329	3218
832.467	3180
832.606	3123
832.744	3161
832.883	3188
833.022	3218
833.16	3291
833.299	3317
833.437	3336
833.576	3359
833.714	3405
833.852	3420
833.991	3435
834.129	3466
834.267	3428
834.406	3397
834.544	3424
834.682	3443
834.821	3405
834.959	3553
835.097	3412
835.235	3504
835.373	3530
835.511	3561
835.65	3466
835.788	3458
835.926	3389
836.064	3382
836.202	3378
836.34	3591
836.478	3610
836.615	3572
836.753	3606
836.891	3648
837.029	3595
837.167	3587
837.305	3572
837.443	3599
837.58	3507
837.718	3561
837.856	3553
837.993	3526
838.131	3625
838.269	3572
838.406	3557
838.544	3564
838.681	3473
838.819	3481
838.956	3359
839.094	3409
839.231	3443
839.369	3500
839.506	3762
839.643	3667
839.781	3485
839.918	3466
840.055	3519
840.193	3557
840.33	3542
840.467	3587
840.604	3618
840.742	3797
840.879	3538
841.016	3599
841.153	3587
841.29	3747
841.427	3755
841.564	3701
841.701	3755
841.838	3675
841.975	3652
842.112	3747
842.249	3675
842.385	3667
842.522	3838
842.659	3728
842.796	3701
842.933	3732
843.069	3671
843.206	3743
843.343	3781
843.479	3835
843.616	3842
843.752	3705
843.889	3663
844.025	3857
844.162	3740
844.298	3838
844.435	3789
844.571	3778
844.708	3899
844.844	4013
844.98	4040
845.117	4067
845.253	3941
845.389	3823
845.525	3956
845.661	3945
845.798	3956
845.934	4002
846.07	3972
846.206	4071
846.342	4082
846.478	4074
846.614	4032
846.75	3972
846.886	3945
847.022	4029
847.158	3991
847.294	4006
847.429	4036
847.565	4013
847.701	4215
847.837	3918
847.972	3869
848.108	3979
848.244	3975
848.379	3854
848.515	3823
848.65	3816
848.786	3827
848.921	3903
849.057	3915
849.192	3934
849.328	3896
849.463	3953
849.598	3846
849.734	3827
849.869	3823
850.004	3774
850.14	3804
850.275	3797
850.41	3743
850.545	3789
850.68	3778
850.815	3793
850.95	3838
851.085	3945
851.22	3922
851.355	3823
851.49	3800
851.625	3789
851.76	3800
851.895	3759
852.03	3728
852.165	3827
852.299	3854
852.434	3918
852.569	3876
852.703	3934
852.838	3964
852.973	4025
853.107	4013
853.242	3876
853.376	3827
853.511	3778
853.645	3835
853.78	3937
853.914	3903
854.048	3918
854.183	3896
854.317	3922
854.451	4059
854.585	3964
854.72	3994
854.854	4040
854.988	3975
855.122	4025
855.256	3953
855.39	4017
855.524	4093
855.658	4044
855.792	4097
855.926	4154
856.06	4188
856.194	4249
856.327	4116
856.461	4109
856.595	4196
856.729	4185
856.862	4280
856.996	4227
857.13	4333
857.263	4348
857.397	4383
857.53	4272
857.664	4341
857.797	4379
857.931	4421
858.064	4428
858.197	4489
858.331	4417
858.464	4383
858.597	4348
858.731	4459
858.864	4451
858.997	4474
859.13	4519
859.263	4523
859.396	4580
859.529	4516
859.662	4554
859.795	4542
859.928	4630
860.061	4702
860.194	4752
860.327	4626
860.46	4634
860.592	4755
860.725	4748
860.858	4847
860.99	4725
861.123	4702
861.256	4763
861.388	4797
861.521	5406
861.653	4721
861.786	4729
861.918	4786
862.05	4820
862.183	4854
862.315	4881
862.447	4885
862.58	4892
862.712	4774
862.844	4759
862.976	4942
863.108	4866
863.24	5170
863.372	4862
863.504	4892
863.636	4934
863.768	4953
863.9	4930
864.032	4919
864.164	4972
864.296	5041
864.428	5136
864.559	5102
864.691	5178
864.823	5132
864.954	5136
865.086	5159
865.217	5098
865.349	5117
865.48	5132
865.612	5178
865.743	5254
865.875	5140
866.006	5197
866.137	5284
866.269	5246
866.4	5269
866.531	5258
866.662	5265
866.793	5277
866.924	5299
867.055	5368
867.186	5391
867.317	5372
867.448	5368
867.579	5357
867.71	5406
867.841	5398
867.972	5471
868.103	5414
868.233	5509
868.364	5566
868.495	5581
868.625	5615
868.756	5817
868.886	5699
869.017	5726
869.147	5859
869.278	5798
869.408	5802
869.539	5847
869.669	5889
869.799	5939
869.929	5973
870.06	6060
870.19	6155
870.32	6228
870.45	6281
870.58	6365
870.71	6384
870.84	6494
870.97	6429
871.1	6467
871.23	6616
871.36	6753
871.489	6677
871.619	6711
871.749	6856
871.879	6825
872.008	6989
872.138	6916
872.267	7015
872.397	7027
872.526	7065
872.656	7061
872.785	7213
872.915	7434
873.044	7438
873.173	7476
873.303	7666
873.432	7753
873.561	7811
873.69	7955
873.819	8027
873.948	8138
874.077	8210
874.206	8282
874.335	8454
874.464	8693
874.593	8876
874.722	8944
874.851	9176
874.979	9230
875.108	9401
875.237	9473
875.365	9553
875.494	9576
875.623	9869
875.751	9865
875.88	9956
876.008	10162
876.136	10246
876.265	10493
876.393	10607
876.521	10771
876.65	10759
876.778	10877
876.906	10885
877.034	10991
877.162	11124
877.29	11147
877.418	11299
877.546	11368
877.674	11448
877.802	11372
877.93	11528
878.058	11562
878.185	11615
878.313	11684
878.441	11748
878.568	11722
878.696	11870
878.824	11901
878.951	11980
879.079	11961
879.206	12106
879.333	12030
879.461	11988
879.588	12045
879.715	12114
879.842	12190
879.97	12117
880.097	11927
880.224	11863
880.351	11870
880.478	11908
880.605	11859
880.732	11847
880.859	11996
880.986	11809
881.112	11893
881.239	11718
881.366	11684
881.493	11623
881.619	11600
881.746	11520
881.872	11581
881.999	11585
882.125	11448
882.252	11551
882.378	11600
882.505	11547
882.631	11429
882.757	11261
882.883	11235
883.01	11269
883.136	11223
883.262	11193
883.388	11102
883.514	11174
883.64	11170
883.766	11105
883.892	11045
884.018	11025
884.143	11041
884.269	11090
884.395	10812
884.52	10801
884.646	10767
884.772	10767
884.897	10698
885.023	10694
885.148	10725
885.274	10752
885.399	10721
885.524	10668
885.65	10592
885.775	10588
885.9	10542
886.025	10569
886.15	10630
886.275	10459
886.4	10348
886.525	10398
886.65	10455
886.775	10367
886.9	10474
887.025	10516
887.149	10325
887.274	10284
887.399	10306
887.523	10131
887.648	10223
887.773	10147
887.897	10344
888.021	10211
888.146	10207
888.27	10219
888.395	10242
888.519	10219
888.643	10261
888.767	10131
888.891	10105
889.015	9979
889.139	10044
889.263	10006
889.387	10067
889.511	10200
889.635	10059
889.759	9991
889.883	9972
890.006	10097
890.13	10055
890.254	10006
890.377	9964
890.501	9789
890.624	9888
890.748	9953
890.871	9774
890.995	9774
891.118	9724
891.241	9808
891.364	9812
891.488	9808
891.611	9717
891.734	9755
891.857	9808
891.98	9728
892.103	9720
892.226	9774
892.349	9690
892.471	9500
892.594	9599
892.717	9648
892.839	9568
892.962	9633
893.085	9663
893.207	9625
893.33	9511
893.452	9542
893.575	9663
893.697	9553
893.819	9656
893.941	9564
894.064	9576
894.186	9435
894.308	9397
894.43	9488
894.552	9584
894.674	9496
894.796	9408
894.918	9412
895.04	9351
895.161	9428
895.283	9405
895.405	9226
895.526	9275
895.648	9249
895.769	9298
895.891	9230
896.012	9241
896.134	9211
896.255	9176
896.376	9180
896.498	9104
896.619	9203
896.74	9135
896.861	9097
896.982	9283
897.103	9298
897.224	9138
897.345	9116
897.466	9017
897.587	8956
897.708	9074
897.828	8982
897.949	9013
898.07	8845
898.19	8891
898.311	9017
898.431	8929
898.552	8979
898.672	8944
898.792	8941
898.913	8861
899.033	8758
899.153	8746
899.273	8659
899.393	8758
899.513	8766
899.633	8788
899.753	8788
899.873	8621
899.993	8731
900.113	8644
900.232	8727
900.352	8735
900.472	8655
900.591	8651
900.711	8659
900.83	8583
900.95	8670
901.069	8712
901.189	8522
901.308	8446
901.427	8374
901.546	8434
901.665	8423
901.784	8415
901.904	8393
902.023	8351
902.141	8244
902.26	8271
902.379	8313
902.498	8267
902.617	8214
902.735	8301
902.854	8263
902.973	8237
903.091	8077
903.21	8103
903.328	8183
903.446	8096
903.565	8096
903.683	8096
903.801	8088
903.919	8062
904.038	8221
904.156	8069
904.274	8092
904.392	8008
904.51	8039
904.627	8039
904.745	8043
904.863	8138
904.981	7951
905.098	7898
905.216	7917
905.334	7864
905.451	7902
905.569	7856
905.686	7925
905.803	7944
905.921	7799
906.038	7852
906.155	7772
906.272	7700
906.389	7719
906.506	7601
906.623	7651
906.74	7567
906.857	7495
906.974	7632
907.091	7693
907.208	7795
907.324	7658
907.441	7616
907.557	7453
907.674	7487
907.79	7411
907.907	7472
908.023	7464
908.139	7468
908.256	7419
908.372	7434
908.488	7362
908.604	7285
908.72	7236
908.836	7266
908.952	7327
909.068	7263
909.184	7285
909.3	7194
909.415	7259
909.531	7316
909.647	7152
909.762	7168
909.878	7156
909.993	7129
910.108	7084
910.224	7091
910.339	7091
910.454	7072
910.57	7027
910.685	6962
910.8	7175
910.915	7061
911.03	7038
911.145	6935
911.259	6920
911.374	6905
911.489	6818
911.604	6810
911.718	6764
911.833	6760
911.947	6665
912.062	6608
912.176	6707
912.291	6726
912.405	6711
912.519	6875
912.633	6939
912.748	6726
912.862	6692
912.976	6654
913.09	6544
913.204	6589
913.318	6601
913.431	6700
913.545	6692
913.659	6711
913.772	6639
913.886	6578
914	6582
914.113	6646
914.226	6608
914.34	6608
914.453	6536
914.566	6582
914.68	6517
914.793	6498
914.906	6407
915.019	6437
915.132	6384
915.245	6391
915.358	6418
915.47	6528
915.583	6479
915.696	6525
915.809	6559
915.921	6601
916.034	6456
916.146	6414
916.259	6403
916.371	6490
916.483	6456
916.595	6399
916.708	6399
916.82	6441
916.932	6380
917.044	6391
917.156	6429
917.268	6365
917.38	6471
917.491	6365
917.603	6331
917.715	6399
917.826	6437
917.938	6342
918.049	6266
918.161	6350
918.272	6426
918.384	6486
918.495	6350
918.606	6311
918.717	6277
918.828	6205
918.939	6243
919.05	6232
919.161	6273
919.272	6129
919.383	6167
919.494	6285
919.604	6441
919.715	6285
919.826	6254
919.936	6224
920.047	6372
920.157	6239
920.267	6513
920.378	6292
920.488	6289
920.598	6467
920.708	6559
920.818	6464
920.928	6464
921.038	6582
921.148	6593
921.258	6350
921.368	6300
921.477	6186
921.587	6228
921.697	6144
921.806	6155
921.916	6129
922.025	5939
922.134	5855
922.244	5874
922.353	6015
922.462	5916
922.571	5847
922.68	5695
922.789	5680
922.898	5760
923.007	5615
923.116	5688
923.224	5710
923.333	5684
923.442	5581
923.55	5608
923.659	5589
923.767	5638
923.876	5528
923.984	5600
924.092	5471
924.201	5604
924.309	5520
924.417	5524
924.525	5497
924.633	5543
924.741	6270
924.849	5383
924.956	5452
925.064	5379
925.172	5296
925.279	5353
925.387	5330
925.494	5368
925.602	5421
925.709	5372
925.816	5254
925.924	5353
926.031	5372
926.138	5345
926.245	5326
926.352	5208
926.459	5277
926.566	5368
926.673	5261
926.779	5155
926.886	5105
926.993	5079
927.099	5018
927.206	4987
927.312	4927
927.419	5014
927.525	4999
927.631	5033
927.737	4877
927.843	4889
927.95	4805
928.056	4831
928.162	4854
928.267	4835
928.373	5357
928.479	4923
928.585	4691
928.69	4793
928.796	4786
928.901	4694
929.007	4588
929.112	4698
929.218	4656
929.323	4603
929.428	4592
929.533	4672
929.638	4542
929.743	4542
929.848	4561
929.953	4531
930.058	4474
930.163	4306
930.267	4375
930.372	4470
930.477	4318
930.581	4462
930.685	4383
930.79	4287
930.894	4223
930.998	4287
931.103	4402
931.207	4173
931.311	4120
931.415	4055
931.519	3918
931.623	3956
