Data from glass_V78500241_1268.txt Node
Date: Wed Sep 01 19:23:17 CST 2021
User: usil
Spectrometer: V785-0024
Trigger mode: 0
Integration Time (sec): 4.000000E-1
Scans to average: 1
Nonlinearity correction enabled: false
Boxcar width: 0
Storing dark spectrum: false
XAxis mode: Wavelengths
Number of Pixels in Spectrum: 1024
>>>>>Begin Spectral Data<<<<<
801.071	3736
801.214	3747
801.356	3724
801.499	3720
801.641	3705
801.783	3800
801.926	3888
802.068	3812
802.211	3869
802.353	3903
802.496	3800
802.638	3865
802.78	3888
802.923	3915
803.065	3918
803.208	3876
803.35	3899
803.492	3892
803.635	3876
803.777	3812
803.919	3884
804.061	4131
804.204	3972
804.346	3922
804.488	3922
804.63	4051
804.773	3964
804.915	4063
805.057	4162
805.199	4048
805.341	4090
805.483	4196
805.626	4131
805.768	4128
805.91	4223
806.052	4227
806.194	4215
806.336	4379
806.478	4192
806.62	4196
806.762	4150
806.904	4265
807.046	4386
807.188	4211
807.33	4200
807.472	4253
807.614	4207
807.756	4268
807.898	4219
808.04	4223
808.182	4318
808.324	4329
808.465	4363
808.607	4440
808.749	4459
808.891	4447
809.033	4558
809.174	4375
809.316	4265
809.458	4295
809.6	4116
809.741	4135
809.883	4150
810.025	4204
810.166	4211
810.308	4223
810.45	4295
810.591	4207
810.733	4299
810.875	4500
811.016	4812
811.158	5159
811.299	5254
811.441	5273
811.582	5079
811.724	4691
811.865	4504
812.007	4436
812.148	4455
812.29	4428
812.431	4409
812.573	4428
812.714	4379
812.855	4459
812.997	4428
813.138	4500
813.279	4413
813.421	4455
813.562	4360
813.703	4356
813.845	4352
813.986	4249
814.127	4196
814.268	4242
814.41	4303
814.551	4265
814.692	4337
814.833	4299
814.974	4303
815.115	4337
815.256	4204
815.397	4242
815.539	4223
815.68	4173
815.821	4211
815.962	4333
816.103	4291
816.244	4242
816.385	4200
816.526	4272
816.666	4211
816.807	4135
816.948	4181
817.089	4188
817.23	4135
817.371	4032
817.512	4013
817.653	4074
817.793	4040
817.934	4059
818.075	4063
818.216	4063
818.356	4074
818.497	4029
818.638	3941
818.778	3888
818.919	3915
819.06	3846
819.2	3899
819.341	3903
819.481	3884
819.622	3911
819.762	4025
819.903	3937
820.043	3884
820.184	3846
820.324	3800
820.465	3903
820.605	3880
820.746	3861
820.886	3850
821.026	3880
821.167	3930
821.307	3930
821.447	4010
821.588	3953
821.728	3915
821.868	3918
822.008	3861
822.149	3888
822.289	3922
822.429	3797
822.569	3812
822.709	3755
822.849	3736
822.99	3755
823.13	3751
823.27	3789
823.41	3778
823.55	3766
823.69	3732
823.83	3797
823.97	3679
824.11	3606
824.25	3576
824.389	3641
824.529	3618
824.669	3606
824.809	3682
824.949	3709
825.089	3774
825.228	3720
825.368	3584
825.508	3603
825.648	3591
825.787	3606
825.927	3641
826.067	3622
826.206	3644
826.346	3800
826.485	3819
826.625	3861
826.765	3960
826.904	3850
827.044	3587
827.183	3530
827.323	3416
827.462	3488
827.601	3462
827.741	3420
827.88	3462
828.02	3389
828.159	3435
828.298	3485
828.437	3557
828.577	3488
828.716	3595
828.855	3515
828.994	3409
829.134	3370
829.273	3363
829.412	3351
829.551	3310
829.69	3367
829.829	3447
829.968	3534
830.107	3424
830.246	3450
830.385	3420
830.524	3344
830.663	3268
830.802	3245
830.941	3222
831.08	3199
831.219	3294
831.357	3294
831.496	3386
831.635	3275
831.774	3180
831.913	3199
832.051	3123
832.19	3176
832.329	3226
832.467	3131
832.606	3089
832.744	3176
832.883	3192
833.022	3218
833.16	3237
833.299	3275
833.437	3367
833.576	3355
833.714	3443
833.852	3469
833.991	3466
834.129	3519
834.267	3443
834.406	3386
834.544	3420
834.682	3428
834.821	3393
834.959	3599
835.097	3416
835.235	3549
835.373	3507
835.511	3504
835.65	3477
835.788	3496
835.926	3393
836.064	3370
836.202	3428
836.34	3568
836.478	3591
836.615	3553
836.753	3622
836.891	3652
837.029	3644
837.167	3618
837.305	3530
837.443	3595
837.58	3507
837.718	3622
837.856	3538
837.993	3553
838.131	3580
838.269	3637
838.406	3595
838.544	3599
838.681	3496
838.819	3485
838.956	3397
839.094	3378
839.231	3443
839.369	3526
839.506	3713
839.643	3663
839.781	3507
839.918	3515
840.055	3549
840.193	3538
840.33	3523
840.467	3591
840.604	3637
840.742	3808
840.879	3568
841.016	3538
841.153	3584
841.29	3755
841.427	3709
841.564	3728
841.701	3740
841.838	3705
841.975	3694
842.112	3728
842.249	3633
842.385	3618
842.522	3857
842.659	3690
842.796	3705
842.933	3736
843.069	3698
843.206	3713
843.343	3831
843.479	3800
843.616	3827
843.752	3682
843.889	3713
844.025	3823
844.162	3720
844.298	3865
844.435	3774
844.571	3804
844.708	3937
844.844	3994
844.98	4025
845.117	4021
845.253	3964
845.389	3880
845.525	3930
845.661	3941
845.798	3903
845.934	4002
846.07	3968
846.206	4025
846.342	4147
846.478	4086
846.614	3991
846.75	3941
846.886	3903
847.022	4051
847.158	4029
847.294	4002
847.429	4010
847.565	4006
847.701	4276
847.837	3835
847.972	3854
848.108	4025
848.244	3979
848.379	3884
848.515	3861
848.65	3857
848.786	3857
848.921	3842
849.057	3949
849.192	3998
849.328	3926
849.463	3888
849.598	3892
849.734	3865
849.869	3865
850.004	3804
850.14	3835
850.275	3797
850.41	3759
850.545	3759
850.68	3785
850.815	3774
850.95	3762
851.085	3964
851.22	3869
851.355	3854
851.49	3770
851.625	3770
851.76	3831
851.895	3751
852.03	3724
852.165	3804
852.299	3846
852.434	3922
852.569	3861
852.703	3915
852.838	3968
852.973	3998
853.107	3972
853.242	3884
853.376	3861
853.511	3808
853.645	3857
853.78	3994
853.914	3899
854.048	3926
854.183	3903
854.317	3926
854.451	4097
854.585	3987
854.72	3964
854.854	4063
854.988	3987
855.122	3987
855.256	3956
855.39	4017
855.524	4093
855.658	4086
855.792	4101
855.926	4093
856.06	4166
856.194	4162
856.327	4200
856.461	4143
856.595	4143
856.729	4162
856.862	4299
856.996	4322
857.13	4284
857.263	4322
857.397	4394
857.53	4299
857.664	4360
857.797	4386
857.931	4462
858.064	4466
858.197	4485
858.331	4398
858.464	4375
858.597	4341
858.731	4470
858.864	4470
858.997	4440
859.13	4531
859.263	4546
859.396	4588
859.529	4527
859.662	4512
859.795	4554
859.928	4592
860.061	4733
860.194	4714
860.327	4664
860.46	4683
860.592	4771
860.725	4759
860.858	4748
860.99	4675
861.123	4694
861.256	4660
861.388	4793
861.521	5410
861.653	4748
861.786	4744
861.918	4755
862.05	4847
862.183	4854
862.315	4915
862.447	4942
862.58	4870
862.712	4793
862.844	4733
862.976	4904
863.108	4923
863.24	5193
863.372	4858
863.504	4896
863.636	4870
863.768	5064
863.9	4995
864.032	4923
864.164	4934
864.296	5052
864.428	5079
864.559	5064
864.691	5140
864.823	5166
864.954	5143
865.086	5136
865.217	5128
865.349	5181
865.48	5181
865.612	5155
865.743	5318
865.875	5189
866.006	5155
866.137	5246
866.269	5216
866.4	5280
866.531	5269
866.662	5246
866.793	5284
866.924	5250
867.055	5379
867.186	5345
867.317	5345
867.448	5299
867.579	5410
867.71	5376
867.841	5436
867.972	5493
868.103	5474
868.233	5493
868.364	5554
868.495	5585
868.625	5661
868.756	5748
868.886	5684
869.017	5802
869.147	5870
869.278	5908
869.408	5828
869.539	5908
869.669	5893
869.799	5950
869.929	5999
870.06	6030
870.19	6178
870.32	6144
870.45	6262
870.58	6346
870.71	6467
870.84	6517
870.97	6426
871.1	6426
871.23	6692
871.36	6631
871.489	6642
871.619	6749
871.749	6833
871.879	6901
872.008	7046
872.138	6973
872.267	6973
872.397	7072
872.526	7034
872.656	7057
872.785	7171
872.915	7354
873.044	7548
873.173	7556
873.303	7647
873.432	7769
873.561	7856
873.69	7906
873.819	8012
873.948	8149
874.077	8328
874.206	8320
874.335	8526
874.464	8648
874.593	8906
874.722	8937
874.851	9077
874.979	9241
875.108	9393
875.237	9408
875.365	9492
875.494	9701
875.623	9850
875.751	9918
875.88	10006
876.008	10071
876.136	10284
876.265	10550
876.393	10725
876.521	10755
876.65	10786
876.778	10908
876.906	10881
877.034	11022
877.162	11159
877.29	11178
877.418	11261
877.546	11353
877.674	11452
877.802	11440
877.93	11463
878.058	11539
878.185	11497
878.313	11619
878.441	11790
878.568	11691
878.696	11817
878.824	11824
878.951	12022
879.079	12083
879.206	12057
879.333	12015
879.461	11965
879.588	12114
879.715	12148
879.842	12159
879.97	12125
880.097	11923
880.224	11813
880.351	11916
880.478	11805
880.605	11916
880.732	11802
880.859	11901
880.986	11779
881.112	11805
881.239	11733
881.366	11608
881.493	11661
881.619	11528
881.746	11589
881.872	11570
881.999	11501
882.125	11452
882.252	11589
882.378	11516
882.505	11539
882.631	11368
882.757	11349
882.883	11372
883.01	11284
883.136	11231
883.262	11086
883.388	11105
883.514	11147
883.64	11174
883.766	11109
883.892	11086
884.018	10991
884.143	11094
884.269	11159
884.395	10889
884.52	10767
884.646	10771
884.772	10714
884.897	10694
885.023	10725
885.148	10812
885.274	10744
885.399	10675
885.524	10645
885.65	10683
885.775	10580
885.9	10603
886.025	10603
886.15	10573
886.275	10497
886.4	10432
886.525	10447
886.65	10344
886.775	10265
886.9	10474
887.025	10504
887.149	10337
887.274	10169
887.399	10242
887.523	10204
887.648	10101
887.773	10200
887.897	10211
888.021	10249
888.146	10173
888.27	10230
888.395	10299
888.519	10234
888.643	10227
888.767	10181
888.891	10131
889.015	10017
889.139	10010
889.263	9956
889.387	10074
889.511	10204
889.635	10051
889.759	9979
889.883	10013
890.006	10044
890.13	10154
890.254	9964
890.377	9968
890.501	9846
890.624	9953
890.748	9911
890.871	9823
890.995	9762
891.118	9732
891.241	9831
891.364	9778
891.488	9854
891.611	9682
891.734	9789
891.857	9789
891.98	9713
892.103	9785
892.226	9747
892.349	9698
892.471	9458
892.594	9587
892.717	9610
892.839	9572
892.962	9637
893.085	9641
893.207	9622
893.33	9530
893.452	9530
893.575	9633
893.697	9519
893.819	9576
893.941	9625
894.064	9603
894.186	9443
894.308	9428
894.43	9477
894.552	9591
894.674	9526
894.796	9454
894.918	9439
895.04	9313
895.161	9439
895.283	9408
895.405	9298
895.526	9298
895.648	9199
895.769	9283
895.891	9298
896.012	9291
896.134	9214
896.255	9237
896.376	9112
896.498	9112
896.619	9081
896.74	8994
896.861	9142
896.982	9207
897.103	9386
897.224	9203
897.345	9123
897.466	9043
897.587	9017
897.708	9146
897.828	9009
897.949	8944
898.07	8937
898.19	8914
898.311	9028
898.431	8925
898.552	8971
898.672	8960
898.792	8921
898.913	8891
899.033	8804
899.153	8689
899.273	8678
899.393	8689
899.513	8727
899.633	8716
899.753	8716
899.873	8655
899.993	8766
900.113	8678
900.232	8754
900.352	8670
900.472	8602
900.591	8541
900.711	8644
900.83	8541
900.95	8686
901.069	8720
901.189	8575
901.308	8446
901.427	8381
901.546	8408
901.665	8495
901.784	8457
901.904	8377
902.023	8320
902.141	8271
902.26	8221
902.379	8240
902.498	8252
902.617	8221
902.735	8275
902.854	8290
902.973	8294
903.091	8115
903.21	8176
903.328	8119
903.446	8164
903.565	8031
903.683	8100
903.801	8077
903.919	8180
904.038	8161
904.156	8031
904.274	8096
904.392	8084
904.51	8031
904.627	8058
904.745	8119
904.863	8031
904.981	7963
905.098	7864
905.216	7917
905.334	7906
905.451	7928
905.569	7963
905.686	7928
905.803	7913
905.921	7856
906.038	7871
906.155	7814
906.272	7693
906.389	7704
906.506	7636
906.623	7651
906.74	7605
906.857	7586
906.974	7632
907.091	7601
907.208	7723
907.324	7639
907.441	7586
907.557	7419
907.674	7434
907.79	7400
907.907	7422
908.023	7468
908.139	7472
908.256	7358
908.372	7289
908.488	7293
908.604	7282
908.72	7244
908.836	7263
908.952	7282
909.068	7236
909.184	7346
909.3	7247
909.415	7263
909.531	7301
909.647	7080
909.762	7110
909.878	7149
909.993	7129
910.108	7110
910.224	7034
910.339	7053
910.454	7084
910.57	6970
910.685	6943
910.8	7187
910.915	7118
911.03	6977
911.145	6875
911.259	6894
911.374	6859
911.489	6848
911.604	6871
911.718	6696
911.833	6726
911.947	6669
912.062	6635
912.176	6745
912.291	6715
912.405	6745
912.519	6833
912.633	6890
912.748	6749
912.862	6745
912.976	6684
913.09	6555
913.204	6536
913.318	6639
913.431	6684
913.545	6635
913.659	6741
913.772	6639
913.886	6551
914	6555
914.113	6601
914.226	6658
914.34	6604
914.453	6513
914.566	6623
914.68	6475
914.793	6532
914.906	6391
915.019	6418
915.132	6361
915.245	6456
915.358	6483
915.47	6448
915.583	6494
915.696	6498
915.809	6536
915.921	6563
916.034	6448
916.146	6384
916.259	6391
916.371	6418
916.483	6448
916.595	6395
916.708	6429
916.82	6384
916.932	6372
917.044	6422
917.156	6467
917.268	6331
917.38	6334
917.491	6300
917.603	6391
917.715	6456
917.826	6479
917.938	6334
918.049	6228
918.161	6338
918.272	6414
918.384	6365
918.495	6346
918.606	6194
918.717	6270
918.828	6281
918.939	6300
919.05	6140
919.161	6251
919.272	6091
919.383	6136
919.494	6239
919.604	6410
919.715	6285
919.826	6251
919.936	6216
920.047	6365
920.157	6243
920.267	6460
920.378	6361
920.488	6342
920.598	6384
920.708	6532
920.818	6471
920.928	6445
921.038	6646
921.148	6601
921.258	6403
921.368	6300
921.477	6251
921.587	6209
921.697	6064
921.806	6159
921.916	6053
922.025	5965
922.134	5946
922.244	5885
922.353	5950
922.462	5813
922.571	5844
922.68	5657
922.789	5703
922.898	5714
923.007	5604
923.116	5703
923.224	5653
923.333	5661
923.442	5608
923.55	5566
923.659	5611
923.767	5611
923.876	5554
923.984	5589
924.092	5535
924.201	5551
924.309	5566
924.417	5547
924.525	5497
924.633	5535
924.741	6235
924.849	5379
924.956	5509
925.064	5368
925.172	5307
925.279	5299
925.387	5349
925.494	5372
925.602	5402
925.709	5402
925.816	5250
925.924	5326
926.031	5364
926.138	5318
926.245	5368
926.352	5193
926.459	5383
926.566	5322
926.673	5235
926.779	5170
926.886	5140
926.993	5045
927.099	5041
927.206	4957
927.312	4976
927.419	4968
927.525	5006
927.631	4953
927.737	4892
927.843	4889
927.95	4797
928.056	4793
928.162	4790
928.267	4904
928.373	5349
928.479	4892
928.585	4706
928.69	4767
928.796	4759
928.901	4679
929.007	4630
929.112	4694
929.218	4691
929.323	4637
929.428	4573
929.533	4653
929.638	4485
929.743	4558
929.848	4607
929.953	4508
930.058	4424
930.163	4299
930.267	4344
930.372	4413
930.477	4337
930.581	4466
930.685	4337
930.79	4234
930.894	4265
930.998	4246
931.103	4413
931.207	4158
931.311	4105
931.415	4048
931.519	3949
931.623	3979
