Data from glass_V78500241_2588.txt Node
Date: Wed Sep 01 19:32:26 CST 2021
User: usil
Spectrometer: V785-0024
Trigger mode: 0
Integration Time (sec): 4.000000E-1
Scans to average: 1
Nonlinearity correction enabled: false
Boxcar width: 0
Storing dark spectrum: false
XAxis mode: Wavelengths
Number of Pixels in Spectrum: 1024
>>>>>Begin Spectral Data<<<<<
801.071	3751
801.214	3743
801.356	3679
801.499	3724
801.641	3732
801.783	3705
801.926	3838
802.068	3724
802.211	3838
802.353	3930
802.496	3846
802.638	3861
802.78	3892
802.923	3888
803.065	3896
803.208	3846
803.35	3873
803.492	3880
803.635	3926
803.777	3759
803.919	3888
804.061	4128
804.204	3949
804.346	4002
804.488	3915
804.63	3987
804.773	3930
804.915	4021
805.057	4112
805.199	4017
805.341	4048
805.483	4116
805.626	4059
805.768	4120
805.91	4215
806.052	4196
806.194	4150
806.336	4329
806.478	4166
806.62	4188
806.762	4181
806.904	4207
807.046	4325
807.188	4219
807.33	4154
807.472	4249
807.614	4181
807.756	4268
807.898	4188
808.04	4227
808.182	4295
808.324	4276
808.465	4329
808.607	4386
808.749	4436
808.891	4493
809.033	4489
809.174	4360
809.316	4238
809.458	4234
809.6	4162
809.741	4162
809.883	4150
810.025	4211
810.166	4177
810.308	4200
810.45	4185
810.591	4215
810.733	4295
810.875	4493
811.016	4828
811.158	5143
811.299	5208
811.441	5288
811.582	5033
811.724	4729
811.865	4470
812.007	4485
812.148	4474
812.29	4379
812.431	4455
812.573	4390
812.714	4344
812.855	4402
812.997	4402
813.138	4428
813.279	4367
813.421	4344
813.562	4383
813.703	4310
813.845	4291
813.986	4253
814.127	4223
814.268	4223
814.41	4265
814.551	4268
814.692	4333
814.833	4261
814.974	4291
815.115	4306
815.256	4234
815.397	4272
815.539	4272
815.68	4215
815.821	4219
815.962	4261
816.103	4314
816.244	4204
816.385	4234
816.526	4246
816.666	4158
816.807	4116
816.948	4166
817.089	4112
817.23	4128
817.371	4017
817.512	4071
817.653	4048
817.793	4074
817.934	3994
818.075	4090
818.216	4029
818.356	4090
818.497	3975
818.638	3915
818.778	3926
818.919	3907
819.06	3876
819.2	3873
819.341	3846
819.481	3831
819.622	3903
819.762	4017
819.903	3888
820.043	3896
820.184	3800
820.324	3823
820.465	3911
820.605	3842
820.746	3892
820.886	3816
821.026	3945
821.167	3911
821.307	3960
821.447	3960
821.588	3937
821.728	3941
821.868	3915
822.008	3819
822.149	3896
822.289	3930
822.429	3755
822.569	3736
822.709	3762
822.849	3713
822.99	3736
823.13	3717
823.27	3789
823.41	3705
823.55	3740
823.69	3724
823.83	3762
823.97	3660
824.11	3618
824.25	3610
824.389	3637
824.529	3679
824.669	3557
824.809	3709
824.949	3740
825.089	3717
825.228	3694
825.368	3538
825.508	3580
825.648	3549
825.787	3618
825.927	3610
826.067	3625
826.206	3629
826.346	3812
826.485	3770
826.625	3861
826.765	3922
826.904	3800
827.044	3622
827.183	3515
827.323	3443
827.462	3462
827.601	3454
827.741	3409
827.88	3431
828.02	3416
828.159	3405
828.298	3496
828.437	3519
828.577	3443
828.716	3557
828.855	3492
828.994	3370
829.134	3336
829.273	3355
829.412	3359
829.551	3340
829.69	3382
829.829	3431
829.968	3504
830.107	3424
830.246	3428
830.385	3370
830.524	3313
830.663	3310
830.802	3253
830.941	3188
831.08	3192
831.219	3245
831.357	3275
831.496	3401
831.635	3199
831.774	3176
831.913	3199
832.051	3104
832.19	3135
832.329	3211
832.467	3146
832.606	3104
832.744	3157
832.883	3142
833.022	3176
833.16	3241
833.299	3264
833.437	3370
833.576	3348
833.714	3393
833.852	3416
833.991	3477
834.129	3515
834.267	3447
834.406	3416
834.544	3412
834.682	3431
834.821	3412
834.959	3538
835.097	3412
835.235	3519
835.373	3488
835.511	3454
835.65	3435
835.788	3488
835.926	3370
836.064	3386
836.202	3389
836.34	3534
836.478	3561
836.615	3507
836.753	3568
836.891	3595
837.029	3606
837.167	3591
837.305	3553
837.443	3526
837.58	3450
837.718	3580
837.856	3553
837.993	3549
838.131	3584
838.269	3553
838.406	3580
838.544	3511
838.681	3443
838.819	3454
838.956	3405
839.094	3386
839.231	3405
839.369	3507
839.506	3732
839.643	3603
839.781	3477
839.918	3454
840.055	3545
840.193	3477
840.33	3526
840.467	3584
840.604	3591
840.742	3800
840.879	3568
841.016	3564
841.153	3622
841.29	3755
841.427	3709
841.564	3663
841.701	3751
841.838	3694
841.975	3667
842.112	3732
842.249	3625
842.385	3595
842.522	3850
842.659	3690
842.796	3682
842.933	3660
843.069	3667
843.206	3709
843.343	3789
843.479	3751
843.616	3816
843.752	3682
843.889	3667
844.025	3865
844.162	3705
844.298	3880
844.435	3793
844.571	3781
844.708	3899
844.844	3987
844.98	4013
845.117	3964
845.253	3949
845.389	3888
845.525	3975
845.661	3975
845.798	3899
845.934	4013
846.07	3949
846.206	4048
846.342	4086
846.478	4063
846.614	3964
846.75	3941
846.886	3934
847.022	4055
847.158	3975
847.294	3998
847.429	4006
847.565	3991
847.701	4234
847.837	3880
847.972	3869
848.108	3975
848.244	3975
848.379	3842
848.515	3812
848.65	3800
848.786	3781
848.921	3880
849.057	3949
849.192	3930
849.328	3892
849.463	3896
849.598	3865
849.734	3812
849.869	3838
850.004	3781
850.14	3797
850.275	3751
850.41	3717
850.545	3797
850.68	3751
850.815	3770
850.95	3781
851.085	3903
851.22	3857
851.355	3819
851.49	3778
851.625	3774
851.76	3785
851.895	3740
852.03	3713
852.165	3789
852.299	3823
852.434	3915
852.569	3831
852.703	3869
852.838	3922
852.973	4032
853.107	3983
853.242	3865
853.376	3854
853.511	3743
853.645	3827
853.78	3998
853.914	3911
854.048	3934
854.183	3911
854.317	3941
854.451	4082
854.585	3926
854.72	3918
854.854	4036
854.988	3926
855.122	3987
855.256	3922
855.39	3983
855.524	4090
855.658	4093
855.792	4105
855.926	4139
856.06	4185
856.194	4196
856.327	4150
856.461	4120
856.595	4162
856.729	4135
856.862	4234
856.996	4204
857.13	4261
857.263	4337
857.397	4341
857.53	4265
857.664	4337
857.797	4428
857.931	4421
858.064	4409
858.197	4398
858.331	4386
858.464	4402
858.597	4310
858.731	4386
858.864	4417
858.997	4424
859.13	4531
859.263	4546
859.396	4546
859.529	4535
859.662	4531
859.795	4478
859.928	4565
860.061	4691
860.194	4683
860.327	4615
860.46	4656
860.592	4710
860.725	4778
860.858	4733
860.99	4710
861.123	4702
861.256	4694
861.388	4744
861.521	5284
861.653	4729
861.786	4698
861.918	4717
862.05	4809
862.183	4820
862.315	4904
862.447	4938
862.58	4896
862.712	4790
862.844	4755
862.976	4835
863.108	4915
863.24	5140
863.372	4786
863.504	4889
863.636	4854
863.768	4938
863.9	4946
864.032	4923
864.164	4930
864.296	5048
864.428	5060
864.559	5155
864.691	5109
864.823	5086
864.954	5056
865.086	5121
865.217	5113
865.349	5117
865.48	5193
865.612	5212
865.743	5261
865.875	5151
866.006	5216
866.137	5181
866.269	5159
866.4	5269
866.531	5220
866.662	5212
866.793	5296
866.924	5280
867.055	5292
867.186	5360
867.317	5258
867.448	5322
867.579	5360
867.71	5391
867.841	5345
867.972	5410
868.103	5486
868.233	5474
868.364	5539
868.495	5551
868.625	5672
868.756	5756
868.886	5611
869.017	5707
869.147	5817
869.278	5847
869.408	5794
869.539	5767
869.669	5935
869.799	5916
869.929	5935
870.06	5961
870.19	6167
870.32	6182
870.45	6311
870.58	6350
870.71	6357
870.84	6422
870.97	6391
871.1	6460
871.23	6616
871.36	6669
871.489	6662
871.619	6711
871.749	6810
871.879	6833
872.008	7008
872.138	6954
872.267	6989
872.397	6962
872.526	6993
872.656	7069
872.785	7198
872.915	7301
873.044	7506
873.173	7540
873.303	7704
873.432	7761
873.561	7837
873.69	7879
873.819	8005
873.948	8191
874.077	8225
874.206	8320
874.335	8419
874.464	8724
874.593	8891
874.722	8948
874.851	9112
874.979	9173
875.108	9313
875.237	9351
875.365	9481
875.494	9667
875.623	9804
875.751	9819
875.88	10078
876.008	10147
876.136	10348
876.265	10577
876.393	10733
876.521	10668
876.65	10824
876.778	10858
876.906	10892
877.034	11018
877.162	11090
877.29	11212
877.418	11246
877.546	11341
877.674	11482
877.802	11429
877.93	11501
878.058	11596
878.185	11566
878.313	11703
878.441	11779
878.568	11589
878.696	11786
878.824	11855
878.951	11939
879.079	12003
879.206	12125
879.333	12060
879.461	11927
879.588	12091
879.715	12133
879.842	12167
879.97	12129
880.097	11840
880.224	11863
880.351	11832
880.478	11889
880.605	11904
880.732	11828
880.859	12026
880.986	11836
881.112	11847
881.239	11699
881.366	11718
881.493	11619
881.619	11516
881.746	11589
881.872	11543
881.999	11581
882.125	11509
882.252	11573
882.378	11471
882.505	11672
882.631	11292
882.757	11322
882.883	11379
883.01	11360
883.136	11136
883.262	11102
883.388	11094
883.514	11284
883.64	11124
883.766	11098
883.892	10980
884.018	11060
884.143	11064
884.269	11079
884.395	10828
884.52	10763
884.646	10809
884.772	10725
884.897	10622
885.023	10702
885.148	10759
885.274	10698
885.399	10683
885.524	10596
885.65	10519
885.775	10588
885.9	10607
886.025	10584
886.15	10508
886.275	10459
886.4	10367
886.525	10382
886.65	10398
886.775	10398
886.9	10462
887.025	10550
887.149	10367
887.274	10207
887.399	10173
887.523	10162
887.648	10082
887.773	10177
887.897	10204
888.021	10215
888.146	10131
888.27	10211
888.395	10246
888.519	10192
888.643	10219
888.767	10181
888.891	10025
889.015	9994
889.139	10063
889.263	9964
889.387	10055
889.511	10063
889.635	10078
889.759	10021
889.883	9991
890.006	9983
890.13	10093
890.254	9873
890.377	9892
890.501	9808
890.624	9785
890.748	9895
890.871	9804
890.995	9781
891.118	9690
891.241	9736
891.364	9797
891.488	9812
891.611	9694
891.734	9732
891.857	9762
891.98	9740
892.103	9732
892.226	9709
892.349	9663
892.471	9561
892.594	9603
892.717	9511
892.839	9629
892.962	9644
893.085	9755
893.207	9614
893.33	9500
893.452	9534
893.575	9557
893.697	9496
893.819	9629
893.941	9641
894.064	9682
894.186	9367
894.308	9363
894.43	9534
894.552	9587
894.674	9469
894.796	9355
894.918	9363
895.04	9294
895.161	9313
895.283	9294
895.405	9287
895.526	9298
895.648	9298
895.769	9283
895.891	9294
896.012	9264
896.134	9264
896.255	9150
896.376	9112
896.498	9112
896.619	9097
896.74	9017
896.861	9028
896.982	9245
897.103	9283
897.224	9146
897.345	9043
897.466	9009
897.587	9005
897.708	9024
897.828	9058
897.949	8975
898.07	8868
898.19	8864
898.311	9009
898.431	8883
898.552	8857
898.672	8994
898.792	8933
898.913	8899
899.033	8857
899.153	8731
899.273	8644
899.393	8727
899.513	8735
899.633	8720
899.753	8697
899.873	8720
899.993	8731
900.113	8708
900.232	8670
900.352	8648
900.472	8560
900.591	8545
900.711	8587
900.83	8492
900.95	8625
901.069	8636
901.189	8549
901.308	8415
901.427	8427
901.546	8518
901.665	8503
901.784	8511
901.904	8408
902.023	8279
902.141	8252
902.26	8164
902.379	8298
902.498	8103
902.617	8202
902.735	8347
902.854	8259
902.973	8240
903.091	8202
903.21	8073
903.328	8214
903.446	8081
903.565	8126
903.683	8168
903.801	8065
903.919	8092
904.038	8153
904.156	8031
904.274	8065
904.392	8058
904.51	8024
904.627	8069
904.745	8008
904.863	8077
904.981	7936
905.098	7856
905.216	7925
905.334	7871
905.451	7849
905.569	7837
905.686	7974
905.803	7936
905.921	7731
906.038	7864
906.155	7750
906.272	7674
906.389	7693
906.506	7624
906.623	7651
906.74	7571
906.857	7483
906.974	7563
907.091	7693
907.208	7765
907.324	7601
907.441	7487
907.557	7422
907.674	7426
907.79	7381
907.907	7396
908.023	7430
908.139	7407
908.256	7377
908.372	7362
908.488	7236
908.604	7301
908.72	7263
908.836	7324
908.952	7225
909.068	7198
909.184	7305
909.3	7160
909.415	7259
909.531	7232
909.647	7069
909.762	7152
909.878	7084
909.993	7114
910.108	7023
910.224	7038
910.339	7129
910.454	7023
910.57	6973
910.685	6901
910.8	7175
910.915	7099
911.03	7053
911.145	6886
911.259	6825
911.374	6890
911.489	6871
911.604	6837
911.718	6741
911.833	6722
911.947	6669
912.062	6604
912.176	6726
912.291	6741
912.405	6665
912.519	6772
912.633	6848
912.748	6688
912.862	6642
912.976	6604
913.09	6471
913.204	6658
913.318	6582
913.431	6658
913.545	6684
913.659	6696
913.772	6620
913.886	6532
914	6570
914.113	6570
914.226	6658
914.34	6563
914.453	6437
914.566	6650
914.68	6517
914.793	6475
914.906	6410
915.019	6361
915.132	6395
915.245	6422
915.358	6426
915.47	6429
915.583	6441
915.696	6429
915.809	6483
915.921	6551
916.034	6467
916.146	6384
916.259	6327
916.371	6498
916.483	6471
916.595	6372
916.708	6422
916.82	6388
916.932	6353
917.044	6376
917.156	6429
917.268	6315
917.38	6331
917.491	6266
917.603	6304
917.715	6448
917.826	6494
917.938	6315
918.049	6251
918.161	6308
918.272	6388
918.384	6403
918.495	6281
918.606	6285
918.717	6247
918.828	6258
918.939	6273
919.05	6220
919.161	6273
919.272	6072
919.383	6110
919.494	6224
919.604	6407
919.715	6331
919.826	6205
919.936	6285
920.047	6338
920.157	6323
920.267	6460
920.378	6331
920.488	6300
920.598	6407
920.708	6521
920.818	6467
920.928	6464
921.038	6563
921.148	6585
921.258	6289
921.368	6296
921.477	6152
921.587	6144
921.697	6053
921.806	6163
921.916	6007
922.025	5965
922.134	5920
922.244	5870
922.353	5939
922.462	5863
922.571	5809
922.68	5707
922.789	5638
922.898	5676
923.007	5596
923.116	5680
923.224	5657
923.333	5653
923.442	5615
923.55	5581
923.659	5558
923.767	5581
923.876	5539
923.984	5551
924.092	5558
924.201	5551
924.309	5524
924.417	5589
924.525	5459
924.633	5440
924.741	6296
924.849	5387
924.956	5463
925.064	5353
925.172	5292
925.279	5265
925.387	5364
925.494	5330
925.602	5364
925.709	5398
925.816	5277
925.924	5337
926.031	5349
926.138	5292
926.245	5349
926.352	5235
926.459	5299
926.566	5277
926.673	5197
926.779	5086
926.886	5075
926.993	5048
927.099	4980
927.206	4934
927.312	4991
927.419	4987
927.525	4968
927.631	4923
927.737	4919
927.843	4824
927.95	4801
928.056	4809
928.162	4797
928.267	4866
928.373	5280
928.479	4828
928.585	4615
928.69	4797
928.796	4763
928.901	4672
929.007	4599
929.112	4668
929.218	4637
929.323	4523
929.428	4538
929.533	4622
929.638	4489
929.743	4527
929.848	4535
929.953	4493
930.058	4443
930.163	4329
930.267	4306
930.372	4390
930.477	4291
930.581	4493
930.685	4371
930.79	4223
930.894	4265
930.998	4257
931.103	4386
931.207	4109
931.311	4063
931.415	4006
931.519	3937
931.623	3911
