Data from glass_V78500241_697.txt Node
Date: Wed Sep 01 19:19:19 CST 2021
User: usil
Spectrometer: V785-0024
Trigger mode: 0
Integration Time (sec): 4.000000E-1
Scans to average: 1
Nonlinearity correction enabled: false
Boxcar width: 0
Storing dark spectrum: false
XAxis mode: Wavelengths
Number of Pixels in Spectrum: 1024
>>>>>Begin Spectral Data<<<<<
801.071	3724
801.214	3759
801.356	3736
801.499	3808
801.641	3740
801.783	3747
801.926	3823
802.068	3865
802.211	3835
802.353	3907
802.496	3857
802.638	3880
802.78	3911
802.923	3945
803.065	3968
803.208	3930
803.35	3934
803.492	3907
803.635	3926
803.777	3842
803.919	3930
804.061	4173
804.204	4032
804.346	3926
804.488	3945
804.63	4071
804.773	3945
804.915	3991
805.057	4143
805.199	4063
805.341	4143
805.483	4105
805.626	4139
805.768	4139
805.91	4211
806.052	4230
806.194	4249
806.336	4333
806.478	4253
806.62	4207
806.762	4207
806.904	4219
807.046	4352
807.188	4196
807.33	4192
807.472	4234
807.614	4207
807.756	4272
807.898	4230
808.04	4223
808.182	4299
808.324	4318
808.465	4360
808.607	4512
808.749	4440
808.891	4440
809.033	4500
809.174	4409
809.316	4303
809.458	4227
809.6	4139
809.741	4181
809.883	4177
810.025	4211
810.166	4211
810.308	4196
810.45	4238
810.591	4265
810.733	4299
810.875	4565
811.016	4790
811.158	5147
811.299	5318
811.441	5303
811.582	5056
811.724	4687
811.865	4516
812.007	4516
812.148	4470
812.29	4413
812.431	4459
812.573	4424
812.714	4360
812.855	4417
812.997	4394
813.138	4512
813.279	4462
813.421	4413
813.562	4390
813.703	4329
813.845	4394
813.986	4318
814.127	4223
814.268	4280
814.41	4314
814.551	4280
814.692	4352
814.833	4280
814.974	4341
815.115	4348
815.256	4265
815.397	4268
815.539	4272
815.68	4204
815.821	4200
815.962	4318
816.103	4310
816.244	4268
816.385	4303
816.526	4310
816.666	4219
816.807	4135
816.948	4188
817.089	4181
817.23	4135
817.371	4048
817.512	4109
817.653	4067
817.793	4059
817.934	4059
818.075	4101
818.216	4128
818.356	4086
818.497	3994
818.638	3937
818.778	3945
818.919	3899
819.06	3876
819.2	3945
819.341	3865
819.481	3857
819.622	3945
819.762	3994
819.903	3915
820.043	3903
820.184	3850
820.324	3846
820.465	3903
820.605	3869
820.746	3869
820.886	3785
821.026	3953
821.167	3945
821.307	3983
821.447	4021
821.588	3941
821.728	3968
821.868	3918
822.008	3869
822.149	3911
822.289	3899
822.429	3766
822.569	3816
822.709	3808
822.849	3717
822.99	3770
823.13	3724
823.27	3781
823.41	3720
823.55	3713
823.69	3713
823.83	3747
823.97	3690
824.11	3587
824.25	3599
824.389	3667
824.529	3671
824.669	3652
824.809	3686
824.949	3747
825.089	3736
825.228	3694
825.368	3553
825.508	3587
825.648	3610
825.787	3618
825.927	3644
826.067	3633
826.206	3667
826.346	3781
826.485	3842
826.625	3869
826.765	3937
826.904	3846
827.044	3633
827.183	3542
827.323	3443
827.462	3477
827.601	3454
827.741	3431
827.88	3439
828.02	3401
828.159	3466
828.298	3504
828.437	3580
828.577	3504
828.716	3614
828.855	3504
828.994	3412
829.134	3409
829.273	3382
829.412	3389
829.551	3321
829.69	3374
829.829	3412
829.968	3549
830.107	3496
830.246	3454
830.385	3412
830.524	3367
830.663	3321
830.802	3245
830.941	3211
831.08	3256
831.219	3302
831.357	3298
831.496	3450
831.635	3272
831.774	3230
831.913	3203
832.051	3135
832.19	3112
832.329	3237
832.467	3138
832.606	3104
832.744	3195
832.883	3188
833.022	3195
833.16	3283
833.299	3298
833.437	3329
833.576	3370
833.714	3420
833.852	3439
833.991	3466
834.129	3492
834.267	3431
834.406	3431
834.544	3458
834.682	3424
834.821	3401
834.959	3606
835.097	3416
835.235	3572
835.373	3496
835.511	3511
835.65	3500
835.788	3511
835.926	3416
836.064	3401
836.202	3439
836.34	3534
836.478	3656
836.615	3538
836.753	3625
836.891	3663
837.029	3667
837.167	3576
837.305	3587
837.443	3507
837.58	3488
837.718	3610
837.856	3591
837.993	3526
838.131	3606
838.269	3622
838.406	3629
838.544	3572
838.681	3485
838.819	3447
838.956	3363
839.094	3450
839.231	3469
839.369	3557
839.506	3743
839.643	3652
839.781	3523
839.918	3454
840.055	3568
840.193	3561
840.33	3511
840.467	3599
840.604	3637
840.742	3816
840.879	3545
841.016	3561
841.153	3595
841.29	3781
841.427	3709
841.564	3724
841.701	3705
841.838	3698
841.975	3694
842.112	3717
842.249	3671
842.385	3629
842.522	3850
842.659	3698
842.796	3709
842.933	3705
843.069	3732
843.206	3732
843.343	3842
843.479	3808
843.616	3846
843.752	3724
843.889	3663
844.025	3857
844.162	3701
844.298	3835
844.435	3816
844.571	3804
844.708	3888
844.844	3991
844.98	4040
845.117	4013
845.253	3941
845.389	3903
845.525	3937
845.661	3983
845.798	3907
845.934	4006
846.07	4002
846.206	4086
846.342	4150
846.478	4124
846.614	4017
846.75	3922
846.886	3922
847.022	4055
847.158	3964
847.294	4006
847.429	4048
847.565	4025
847.701	4219
847.837	3892
847.972	3865
848.108	4017
848.244	4044
848.379	3873
848.515	3846
848.65	3789
848.786	3850
848.921	3873
849.057	3926
849.192	3960
849.328	3926
849.463	3941
849.598	3907
849.734	3831
849.869	3842
850.004	3797
850.14	3797
850.275	3831
850.41	3781
850.545	3717
850.68	3827
850.815	3831
850.95	3804
851.085	3968
851.22	3861
851.355	3835
851.49	3808
851.625	3831
851.76	3808
851.895	3785
852.03	3770
852.165	3827
852.299	3846
852.434	3899
852.569	3876
852.703	3865
852.838	3953
852.973	4013
853.107	4017
853.242	3884
853.376	3838
853.511	3793
853.645	3884
853.78	3998
853.914	3941
854.048	3869
854.183	3888
854.317	3949
854.451	4044
854.585	3953
854.72	3945
854.854	4013
854.988	3945
855.122	3964
855.256	3953
855.39	4025
855.524	4105
855.658	4105
855.792	4101
855.926	4223
856.06	4120
856.194	4246
856.327	4124
856.461	4139
856.595	4139
856.729	4143
856.862	4287
856.996	4234
857.13	4314
857.263	4348
857.397	4367
857.53	4337
857.664	4398
857.797	4386
857.931	4424
858.064	4383
858.197	4451
858.331	4383
858.464	4386
858.597	4322
858.731	4455
858.864	4485
858.997	4504
859.13	4542
859.263	4592
859.396	4596
859.529	4538
859.662	4531
859.795	4538
859.928	4611
860.061	4759
860.194	4767
860.327	4653
860.46	4664
860.592	4744
860.725	4752
860.858	4778
860.99	4710
861.123	4725
861.256	4698
861.388	4755
861.521	5311
861.653	4706
861.786	4740
861.918	4748
862.05	4752
862.183	4858
862.315	4930
862.447	4904
862.58	4930
862.712	4816
862.844	4778
862.976	4839
863.108	4831
863.24	5273
863.372	4820
863.504	4938
863.636	4881
863.768	4949
863.9	4968
864.032	4919
864.164	4927
864.296	4987
864.428	5105
864.559	5113
864.691	5136
864.823	5113
864.954	5086
865.086	5181
865.217	5121
865.349	5174
865.48	5140
865.612	5204
865.743	5322
865.875	5201
866.006	5204
866.137	5261
866.269	5189
866.4	5277
866.531	5239
866.662	5280
866.793	5246
866.924	5349
867.055	5334
867.186	5357
867.317	5273
867.448	5273
867.579	5364
867.71	5368
867.841	5360
867.972	5471
868.103	5474
868.233	5467
868.364	5516
868.495	5573
868.625	5714
868.756	5832
868.886	5695
869.017	5733
869.147	5904
869.278	5847
869.408	5824
869.539	5847
869.669	5927
869.799	5889
869.929	5977
870.06	6003
870.19	6201
870.32	6216
870.45	6178
870.58	6323
870.71	6426
870.84	6452
870.97	6448
871.1	6448
871.23	6631
871.36	6711
871.489	6639
871.619	6772
871.749	6795
871.879	6848
872.008	6985
872.138	7015
872.267	7053
872.397	6996
872.526	7053
872.656	7031
872.785	7194
872.915	7343
873.044	7514
873.173	7601
873.303	7674
873.432	7689
873.561	7868
873.69	7887
873.819	8050
873.948	8168
874.077	8313
874.206	8336
874.335	8423
874.464	8670
874.593	8861
874.722	8948
874.851	9085
874.979	9275
875.108	9336
875.237	9454
875.365	9488
875.494	9625
875.623	9873
875.751	9804
875.88	10044
876.008	10207
876.136	10268
876.265	10500
876.393	10660
876.521	10733
876.65	10854
876.778	10942
876.906	10850
877.034	11010
877.162	11071
877.29	11136
877.418	11311
877.546	11337
877.674	11478
877.802	11482
877.93	11558
878.058	11573
878.185	11615
878.313	11646
878.441	11813
878.568	11657
878.696	11855
878.824	11923
878.951	11916
879.079	11904
879.206	12121
879.333	12133
879.461	11980
879.588	12144
879.715	12133
879.842	12239
879.97	12095
880.097	11843
880.224	11859
880.351	11874
880.478	11946
880.605	11798
880.732	11889
880.859	12152
880.986	11794
881.112	11817
881.239	11752
881.366	11596
881.493	11581
881.619	11638
881.746	11581
881.872	11520
881.999	11539
882.125	11471
882.252	11520
882.378	11566
882.505	11570
882.631	11376
882.757	11372
882.883	11326
883.01	11311
883.136	11216
883.262	11140
883.388	11117
883.514	11277
883.64	11189
883.766	11083
883.892	10942
884.018	11014
884.143	11113
884.269	11159
884.395	10866
884.52	10828
884.646	10850
884.772	10721
884.897	10683
885.023	10717
885.148	10782
885.274	10744
885.399	10656
885.524	10588
885.65	10554
885.775	10649
885.9	10538
886.025	10687
886.15	10569
886.275	10443
886.4	10459
886.525	10489
886.65	10284
886.775	10306
886.9	10394
887.025	10527
887.149	10409
887.274	10322
887.399	10192
887.523	10166
887.648	10063
887.773	10196
887.897	10265
888.021	10268
888.146	10112
888.27	10246
888.395	10207
888.519	10181
888.643	10204
888.767	10227
888.891	10093
889.015	10051
889.139	10093
889.263	10002
889.387	10086
889.511	10150
889.635	10131
889.759	9972
889.883	10010
890.006	10090
890.13	10067
890.254	9926
890.377	9968
890.501	9850
890.624	9884
890.748	9835
890.871	9903
890.995	9759
891.118	9759
891.241	9838
891.364	9740
891.488	9880
891.611	9755
891.734	9808
891.857	9804
891.98	9740
892.103	9781
892.226	9732
892.349	9690
892.471	9561
892.594	9625
892.717	9667
892.839	9637
892.962	9652
893.085	9724
893.207	9644
893.33	9530
893.452	9576
893.575	9587
893.697	9553
893.819	9690
893.941	9591
894.064	9591
894.186	9466
894.308	9374
894.43	9545
894.552	9610
894.674	9553
894.796	9389
894.918	9367
895.04	9329
895.161	9348
895.283	9412
895.405	9260
895.526	9218
895.648	9222
895.769	9272
895.891	9230
896.012	9348
896.134	9245
896.255	9173
896.376	9157
896.498	9237
896.619	9169
896.74	9104
896.861	9108
896.982	9313
897.103	9344
897.224	9173
897.345	9100
897.466	8990
897.587	9066
897.708	9123
897.828	9062
897.949	8998
898.07	8921
898.19	8967
898.311	8986
898.431	8948
898.552	8883
898.672	8975
898.792	8975
898.913	8880
899.033	8807
899.153	8743
899.273	8663
899.393	8705
899.513	8720
899.633	8735
899.753	8735
899.873	8701
899.993	8705
900.113	8724
900.232	8689
900.352	8697
900.472	8629
900.591	8583
900.711	8663
900.83	8606
900.95	8701
901.069	8735
901.189	8625
901.308	8454
901.427	8404
901.546	8374
901.665	8446
901.784	8537
901.904	8351
902.023	8438
902.141	8187
902.26	8206
902.379	8225
902.498	8168
902.617	8202
902.735	8328
902.854	8320
902.973	8320
903.091	8164
903.21	8164
903.328	8164
903.446	8237
903.565	8107
903.683	8168
903.801	8016
903.919	8149
904.038	8142
904.156	8046
904.274	8092
904.392	8043
904.51	8050
904.627	8039
904.745	8092
904.863	8153
904.981	7940
905.098	7940
905.216	7849
905.334	7894
905.451	7894
905.569	7875
905.686	7963
905.803	7849
905.921	7742
906.038	7852
906.155	7811
906.272	7784
906.389	7772
906.506	7552
906.623	7677
906.74	7658
906.857	7586
906.974	7613
907.091	7681
907.208	7757
907.324	7643
907.441	7559
907.557	7468
907.674	7415
907.79	7457
907.907	7381
908.023	7419
908.139	7525
908.256	7354
908.372	7381
908.488	7373
908.604	7343
908.72	7202
908.836	7259
908.952	7228
909.068	7339
909.184	7285
909.3	7335
909.415	7369
909.531	7293
909.647	7141
909.762	7126
909.878	7088
909.993	7164
910.108	7122
910.224	7099
910.339	7149
910.454	7084
910.57	7012
910.685	6996
910.8	7137
910.915	7152
911.03	7023
911.145	6920
911.259	6901
911.374	6894
911.489	6814
911.604	6772
911.718	6726
911.833	6741
911.947	6658
912.062	6612
912.176	6730
912.291	6669
912.405	6798
912.519	6810
912.633	6798
912.748	6722
912.862	6719
912.976	6635
913.09	6559
913.204	6582
913.318	6642
913.431	6684
913.545	6703
913.659	6726
913.772	6589
913.886	6608
914	6544
914.113	6616
914.226	6620
914.34	6570
914.453	6528
914.566	6532
914.68	6536
914.793	6498
914.906	6418
915.019	6380
915.132	6448
915.245	6448
915.358	6494
915.47	6502
915.583	6391
915.696	6467
915.809	6544
915.921	6585
916.034	6456
916.146	6445
916.259	6369
916.371	6475
916.483	6403
916.595	6410
916.708	6388
916.82	6429
916.932	6426
917.044	6407
917.156	6395
917.268	6327
917.38	6319
917.491	6323
917.603	6361
917.715	6441
917.826	6441
917.938	6331
918.049	6270
918.161	6346
918.272	6460
918.384	6490
918.495	6369
918.606	6254
918.717	6247
918.828	6300
918.939	6331
919.05	6220
919.161	6334
919.272	6117
919.383	6216
919.494	6292
919.604	6471
919.715	6220
919.826	6243
919.936	6289
920.047	6350
920.157	6285
920.267	6506
920.378	6346
920.488	6289
920.598	6475
920.708	6547
920.818	6494
920.928	6498
921.038	6635
921.148	6578
921.258	6353
921.368	6308
921.477	6216
921.587	6251
921.697	6079
921.806	6155
921.916	6106
922.025	6022
922.134	5904
922.244	5923
922.353	5958
922.462	5844
922.571	5790
922.68	5767
922.789	5657
922.898	5676
923.007	5649
923.116	5737
923.224	5661
923.333	5707
923.442	5608
923.55	5592
923.659	5600
923.767	5592
923.876	5558
923.984	5592
924.092	5516
924.201	5570
924.309	5558
924.417	5566
924.525	5547
924.633	5448
924.741	6152
924.849	5429
924.956	5505
925.064	5360
925.172	5395
925.279	5322
925.387	5326
925.494	5349
925.602	5486
925.709	5383
925.816	5288
925.924	5315
926.031	5395
926.138	5337
926.245	5330
926.352	5277
926.459	5273
926.566	5368
926.673	5277
926.779	5140
926.886	5147
926.993	5045
927.099	5033
927.206	4972
927.312	4949
927.419	5022
927.525	4972
927.631	5025
927.737	4885
927.843	4850
927.95	4820
928.056	4850
928.162	4850
928.267	4862
928.373	5379
928.479	4858
928.585	4706
928.69	4816
928.796	4763
928.901	4668
929.007	4599
929.112	4694
929.218	4653
929.323	4641
929.428	4561
929.533	4691
929.638	4565
929.743	4542
929.848	4584
929.953	4516
930.058	4500
930.163	4341
930.267	4322
930.372	4462
930.477	4272
930.581	4459
930.685	4375
930.79	4242
930.894	4284
930.998	4303
931.103	4409
931.207	4124
931.311	4051
931.415	4025
931.519	3934
931.623	3991
