Data from glass_V78500241_1344.txt Node
Date: Wed Sep 01 19:23:48 CST 2021
User: usil
Spectrometer: V785-0024
Trigger mode: 0
Integration Time (sec): 4.000000E-1
Scans to average: 1
Nonlinearity correction enabled: false
Boxcar width: 0
Storing dark spectrum: false
XAxis mode: Wavelengths
Number of Pixels in Spectrum: 1024
>>>>>Begin Spectral Data<<<<<
801.071	3713
801.214	3736
801.356	3690
801.499	3762
801.641	3724
801.783	3770
801.926	3835
802.068	3838
802.211	3804
802.353	3915
802.496	3797
802.638	3865
802.78	3899
802.923	3953
803.065	3892
803.208	3865
803.35	3861
803.492	3918
803.635	3880
803.777	3827
803.919	3884
804.061	4200
804.204	3972
804.346	3994
804.488	3937
804.63	4013
804.773	3953
804.915	4074
805.057	4139
805.199	4013
805.341	4128
805.483	4112
805.626	4139
805.768	4109
805.91	4230
806.052	4230
806.194	4230
806.336	4341
806.478	4234
806.62	4181
806.762	4154
806.904	4242
807.046	4280
807.188	4230
807.33	4215
807.472	4227
807.614	4188
807.756	4242
807.898	4238
808.04	4192
808.182	4299
808.324	4348
808.465	4405
808.607	4447
808.749	4447
808.891	4489
809.033	4485
809.174	4417
809.316	4253
809.458	4272
809.6	4192
809.741	4162
809.883	4158
810.025	4215
810.166	4223
810.308	4238
810.45	4253
810.591	4215
810.733	4272
810.875	4523
811.016	4831
811.158	5132
811.299	5265
811.441	5307
811.582	5094
811.724	4710
811.865	4538
812.007	4436
812.148	4424
812.29	4409
812.431	4451
812.573	4405
812.714	4341
812.855	4402
812.997	4462
813.138	4474
813.279	4360
813.421	4417
813.562	4352
813.703	4333
813.845	4360
813.986	4261
814.127	4249
814.268	4287
814.41	4299
814.551	4253
814.692	4371
814.833	4253
814.974	4299
815.115	4337
815.256	4265
815.397	4268
815.539	4295
815.68	4181
815.821	4207
815.962	4299
816.103	4261
816.244	4265
816.385	4253
816.526	4280
816.666	4200
816.807	4086
816.948	4173
817.089	4204
817.23	4112
817.371	4071
817.512	4074
817.653	4078
817.793	4067
817.934	4040
818.075	4074
818.216	4090
818.356	4044
818.497	4002
818.638	3876
818.778	3918
818.919	3884
819.06	3857
819.2	3949
819.341	3876
819.481	3857
819.622	3941
819.762	3979
819.903	3945
820.043	3865
820.184	3888
820.324	3827
820.465	3930
820.605	3876
820.746	3876
820.886	3797
821.026	3968
821.167	3899
821.307	3983
821.447	3960
821.588	3941
821.728	3964
821.868	3975
822.008	3873
822.149	3937
822.289	3934
822.429	3816
822.569	3819
822.709	3785
822.849	3671
822.99	3690
823.13	3781
823.27	3800
823.41	3724
823.55	3740
823.69	3736
823.83	3724
823.97	3671
824.11	3606
824.25	3610
824.389	3667
824.529	3656
824.669	3637
824.809	3751
824.949	3778
825.089	3701
825.228	3690
825.368	3561
825.508	3549
825.648	3530
825.787	3576
825.927	3644
826.067	3686
826.206	3690
826.346	3804
826.485	3854
826.625	3865
826.765	3956
826.904	3876
827.044	3625
827.183	3500
827.323	3412
827.462	3439
827.601	3462
827.741	3450
827.88	3435
828.02	3397
828.159	3454
828.298	3485
828.437	3557
828.577	3477
828.716	3599
828.855	3511
828.994	3393
829.134	3351
829.273	3359
829.412	3382
829.551	3370
829.69	3325
829.829	3447
829.968	3530
830.107	3435
830.246	3443
830.385	3378
830.524	3313
830.663	3340
830.802	3222
830.941	3165
831.08	3184
831.219	3283
831.357	3264
831.496	3378
831.635	3176
831.774	3207
831.913	3203
832.051	3116
832.19	3123
832.329	3199
832.467	3119
832.606	3138
832.744	3146
832.883	3188
833.022	3218
833.16	3291
833.299	3321
833.437	3336
833.576	3367
833.714	3424
833.852	3428
833.991	3500
834.129	3500
834.267	3428
834.406	3355
834.544	3458
834.682	3405
834.821	3367
834.959	3561
835.097	3428
835.235	3572
835.373	3485
835.511	3523
835.65	3504
835.788	3485
835.926	3458
836.064	3367
836.202	3416
836.34	3564
836.478	3644
836.615	3542
836.753	3603
836.891	3633
837.029	3648
837.167	3610
837.305	3584
837.443	3538
837.58	3519
837.718	3580
837.856	3580
837.993	3561
838.131	3603
838.269	3572
838.406	3618
838.544	3572
838.681	3488
838.819	3435
838.956	3378
839.094	3409
839.231	3458
839.369	3538
839.506	3724
839.643	3656
839.781	3515
839.918	3428
840.055	3511
840.193	3545
840.33	3538
840.467	3519
840.604	3576
840.742	3838
840.879	3553
841.016	3576
841.153	3591
841.29	3720
841.427	3709
841.564	3717
841.701	3793
841.838	3675
841.975	3717
842.112	3686
842.249	3648
842.385	3614
842.522	3842
842.659	3698
842.796	3660
842.933	3701
843.069	3698
843.206	3732
843.343	3804
843.479	3797
843.616	3800
843.752	3671
843.889	3622
844.025	3816
844.162	3743
844.298	3812
844.435	3800
844.571	3781
844.708	3892
844.844	3968
844.98	4013
845.117	3979
845.253	3964
845.389	3907
845.525	3941
845.661	4002
845.798	3876
845.934	4002
846.07	3979
846.206	4074
846.342	4082
846.478	4097
846.614	3998
846.75	3949
846.886	3907
847.022	4074
847.158	3983
847.294	4021
847.429	4082
847.565	4017
847.701	4207
847.837	3873
847.972	3892
848.108	4032
848.244	3953
848.379	3907
848.515	3823
848.65	3804
848.786	3869
848.921	3846
849.057	3960
849.192	3945
849.328	3888
849.463	3945
849.598	3926
849.734	3884
849.869	3892
850.004	3808
850.14	3808
850.275	3793
850.41	3743
850.545	3759
850.68	3823
850.815	3827
850.95	3762
851.085	3945
851.22	3850
851.355	3831
851.49	3797
851.625	3781
851.76	3827
851.895	3762
852.03	3736
852.165	3838
852.299	3842
852.434	3915
852.569	3899
852.703	3884
852.838	3918
852.973	4017
853.107	3991
853.242	3918
853.376	3850
853.511	3762
853.645	3785
853.78	3956
853.914	3876
854.048	3907
854.183	3907
854.317	3956
854.451	4040
854.585	3953
854.72	3960
854.854	4074
854.988	3987
855.122	3998
855.256	3892
855.39	4002
855.524	4074
855.658	4082
855.792	4097
855.926	4150
856.06	4188
856.194	4211
856.327	4162
856.461	4147
856.595	4166
856.729	4166
856.862	4276
856.996	4257
857.13	4314
857.263	4341
857.397	4329
857.53	4276
857.664	4394
857.797	4337
857.931	4402
858.064	4436
858.197	4470
858.331	4424
858.464	4447
858.597	4337
858.731	4394
858.864	4459
858.997	4455
859.13	4504
859.263	4531
859.396	4565
859.529	4538
859.662	4569
859.795	4508
859.928	4588
860.061	4717
860.194	4717
860.327	4603
860.46	4626
860.592	4729
860.725	4793
860.858	4778
860.99	4710
861.123	4702
861.256	4736
861.388	4812
861.521	5501
861.653	4664
861.786	4717
861.918	4748
862.05	4778
862.183	4771
862.315	4904
862.447	4930
862.58	4873
862.712	4812
862.844	4801
862.976	4889
863.108	4854
863.24	5239
863.372	4835
863.504	4915
863.636	4877
863.768	4953
863.9	4984
864.032	4984
864.164	4984
864.296	5071
864.428	5075
864.559	5086
864.691	5159
864.823	5090
864.954	5140
865.086	5140
865.217	5128
865.349	5090
865.48	5178
865.612	5204
865.743	5277
865.875	5242
866.006	5212
866.137	5220
866.269	5254
866.4	5197
866.531	5250
866.662	5181
866.793	5235
866.924	5269
867.055	5357
867.186	5398
867.317	5292
867.448	5292
867.579	5410
867.71	5376
867.841	5406
867.972	5467
868.103	5444
868.233	5429
868.364	5482
868.495	5589
868.625	5627
868.756	5790
868.886	5699
869.017	5752
869.147	5794
869.278	5802
869.408	5783
869.539	5836
869.669	5912
869.799	5935
869.929	6019
870.06	6011
870.19	6216
870.32	6197
870.45	6266
870.58	6369
870.71	6445
870.84	6456
870.97	6376
871.1	6471
871.23	6684
871.36	6726
871.489	6635
871.619	6772
871.749	6806
871.879	6848
872.008	6939
872.138	6947
872.267	7031
872.397	6977
872.526	7088
872.656	7107
872.785	7209
872.915	7365
873.044	7480
873.173	7540
873.303	7666
873.432	7753
873.561	7837
873.69	7879
873.819	8050
873.948	8176
874.077	8256
874.206	8279
874.335	8476
874.464	8648
874.593	8921
874.722	8902
874.851	9161
874.979	9188
875.108	9348
875.237	9355
875.365	9462
875.494	9759
875.623	9854
875.751	9804
875.88	9998
876.008	10101
876.136	10238
876.265	10550
876.393	10714
876.521	10850
876.65	10778
876.778	10839
876.906	10904
877.034	10991
877.162	11189
877.29	11121
877.418	11288
877.546	11387
877.674	11391
877.802	11486
877.93	11501
878.058	11535
878.185	11535
878.313	11630
878.441	11710
878.568	11665
878.696	11733
878.824	11851
878.951	11882
879.079	12034
879.206	12091
879.333	12064
879.461	11984
879.588	11984
879.715	12091
879.842	12175
879.97	12053
880.097	11855
880.224	11904
880.351	11866
880.478	11870
880.605	11916
880.732	11847
880.859	12011
880.986	11767
881.112	11878
881.239	11752
881.366	11589
881.493	11577
881.619	11535
881.746	11623
881.872	11558
881.999	11497
882.125	11425
882.252	11512
882.378	11516
882.505	11452
882.631	11356
882.757	11372
882.883	11433
883.01	11280
883.136	11231
883.262	11113
883.388	11090
883.514	11155
883.64	11102
883.766	11117
883.892	11029
884.018	11006
884.143	11102
884.269	11064
884.395	10908
884.52	10793
884.646	10771
884.772	10778
884.897	10645
885.023	10588
885.148	10698
885.274	10843
885.399	10675
885.524	10542
885.65	10660
885.775	10546
885.9	10531
886.025	10573
886.15	10531
886.275	10432
886.4	10409
886.525	10485
886.65	10333
886.775	10363
886.9	10485
887.025	10546
887.149	10390
887.274	10280
887.399	10227
887.523	10196
887.648	10147
887.773	10158
887.897	10257
888.021	10227
888.146	10112
888.27	10185
888.395	10211
888.519	10131
888.643	10219
888.767	10093
888.891	10029
889.015	10044
889.139	10120
889.263	9930
889.387	10044
889.511	10166
889.635	10112
889.759	9945
889.883	9941
890.006	9987
890.13	10051
890.254	9956
890.377	9945
890.501	9888
890.624	9816
890.748	9915
890.871	9804
890.995	9759
891.118	9690
891.241	9819
891.364	9766
891.488	9827
891.611	9675
891.734	9740
891.857	9766
891.98	9656
892.103	9857
892.226	9770
892.349	9660
892.471	9564
892.594	9622
892.717	9618
892.839	9545
892.962	9660
893.085	9713
893.207	9648
893.33	9526
893.452	9568
893.575	9648
893.697	9553
893.819	9614
893.941	9629
894.064	9675
894.186	9450
894.308	9416
894.43	9614
894.552	9530
894.674	9641
894.796	9477
894.918	9370
895.04	9306
895.161	9332
895.283	9397
895.405	9226
895.526	9245
895.648	9192
895.769	9279
895.891	9245
896.012	9344
896.134	9184
896.255	9195
896.376	9192
896.498	9116
896.619	9104
896.74	9001
896.861	9085
896.982	9256
897.103	9287
897.224	9157
897.345	9119
897.466	8956
897.587	9055
897.708	9119
897.828	9020
897.949	8914
898.07	8804
898.19	8895
898.311	9062
898.431	8895
898.552	8948
898.672	9017
898.792	8925
898.913	8899
899.033	8830
899.153	8807
899.273	8678
899.393	8746
899.513	8769
899.633	8762
899.753	8762
899.873	8773
899.993	8804
900.113	8735
900.232	8705
900.352	8663
900.472	8606
900.591	8571
900.711	8602
900.83	8549
900.95	8575
901.069	8629
901.189	8602
901.308	8480
901.427	8393
901.546	8419
901.665	8446
901.784	8476
901.904	8389
902.023	8332
902.141	8187
902.26	8195
902.379	8279
902.498	8225
902.617	8218
902.735	8351
902.854	8317
902.973	8210
903.091	8096
903.21	8115
903.328	8168
903.446	8142
903.565	8046
903.683	8107
903.801	8020
903.919	8202
904.038	8111
904.156	8126
904.274	8088
904.392	7997
904.51	8001
904.627	8012
904.745	8119
904.863	8107
904.981	7925
905.098	7890
905.216	7959
905.334	7932
905.451	7864
905.569	7833
905.686	7925
905.803	7932
905.921	7784
906.038	7894
906.155	7776
906.272	7719
906.389	7738
906.506	7677
906.623	7620
906.74	7559
906.857	7586
906.974	7628
907.091	7677
907.208	7696
907.324	7609
907.441	7559
907.557	7502
907.674	7453
907.79	7472
907.907	7396
908.023	7441
908.139	7419
908.256	7460
908.372	7365
908.488	7324
908.604	7301
908.72	7232
908.836	7259
908.952	7282
909.068	7232
909.184	7213
909.3	7213
909.415	7335
909.531	7308
909.647	7141
909.762	7072
909.878	7103
909.993	7149
910.108	7095
910.224	7053
910.339	7069
910.454	7038
910.57	7015
910.685	6977
910.8	7179
910.915	7183
911.03	7050
911.145	6928
911.259	6878
911.374	6871
911.489	6848
911.604	6859
911.718	6703
911.833	6673
911.947	6639
912.062	6616
912.176	6707
912.291	6715
912.405	6711
912.519	6787
912.633	6856
912.748	6757
912.862	6677
912.976	6623
913.09	6570
913.204	6563
913.318	6662
913.431	6597
913.545	6681
913.659	6654
913.772	6654
913.886	6509
914	6517
914.113	6635
914.226	6665
914.34	6578
914.453	6506
914.566	6635
914.68	6494
914.793	6528
914.906	6418
915.019	6422
915.132	6376
915.245	6441
915.358	6433
915.47	6464
915.583	6460
915.696	6441
915.809	6551
915.921	6563
916.034	6433
916.146	6456
916.259	6300
916.371	6422
916.483	6418
916.595	6388
916.708	6391
916.82	6372
916.932	6399
917.044	6391
917.156	6437
917.268	6350
917.38	6350
917.491	6277
917.603	6372
917.715	6376
917.826	6395
917.938	6296
918.049	6205
918.161	6353
918.272	6471
918.384	6464
918.495	6422
918.606	6277
918.717	6228
918.828	6311
918.939	6319
919.05	6239
919.161	6273
919.272	6136
919.383	6178
919.494	6296
919.604	6395
919.715	6292
919.826	6251
919.936	6247
920.047	6391
920.157	6292
920.267	6456
920.378	6323
920.488	6289
920.598	6445
920.708	6563
920.818	6452
920.928	6475
921.038	6635
921.148	6612
921.258	6327
921.368	6361
921.477	6251
921.587	6243
921.697	6136
921.806	6186
921.916	6087
922.025	5923
922.134	5904
922.244	5889
922.353	5942
922.462	5836
922.571	5813
922.68	5688
922.789	5707
922.898	5688
923.007	5676
923.116	5649
923.224	5668
923.333	5649
923.442	5608
923.55	5554
923.659	5623
923.767	5604
923.876	5532
923.984	5577
924.092	5532
924.201	5554
924.309	5554
924.417	5581
924.525	5512
924.633	5478
924.741	6262
924.849	5364
924.956	5474
925.064	5334
925.172	5296
925.279	5315
925.387	5360
925.494	5357
925.602	5429
925.709	5349
925.816	5288
925.924	5360
926.031	5353
926.138	5288
926.245	5334
926.352	5242
926.459	5315
926.566	5345
926.673	5178
926.779	5170
926.886	5155
926.993	5083
927.099	5018
927.206	4961
927.312	4923
927.419	5033
927.525	4930
927.631	4927
927.737	4923
927.843	4854
927.95	4809
928.056	4854
928.162	4877
928.267	4839
928.373	5372
928.479	4889
928.585	4668
928.69	4763
928.796	4767
928.901	4675
929.007	4607
929.112	4656
929.218	4630
929.323	4580
929.428	4626
929.533	4668
929.638	4519
929.743	4538
929.848	4554
929.953	4512
930.058	4440
930.163	4356
930.267	4314
930.372	4455
930.477	4329
930.581	4440
930.685	4348
930.79	4242
930.894	4295
930.998	4287
931.103	4409
931.207	4162
931.311	4059
931.415	4059
931.519	3949
931.623	3934
