Data from glass_V78500241_2748.txt Node
Date: Wed Sep 01 19:33:33 CST 2021
User: usil
Spectrometer: V785-0024
Trigger mode: 0
Integration Time (sec): 4.000000E-1
Scans to average: 1
Nonlinearity correction enabled: false
Boxcar width: 0
Storing dark spectrum: false
XAxis mode: Wavelengths
Number of Pixels in Spectrum: 1024
>>>>>Begin Spectral Data<<<<<
801.071	3709
801.214	3698
801.356	3656
801.499	3713
801.641	3720
801.783	3762
801.926	3850
802.068	3842
802.211	3838
802.353	3838
802.496	3835
802.638	3861
802.78	3892
802.923	3926
803.065	3903
803.208	3816
803.35	3861
803.492	3873
803.635	3884
803.777	3808
803.919	3899
804.061	4158
804.204	3956
804.346	3907
804.488	3903
804.63	3975
804.773	3937
804.915	4025
805.057	4101
805.199	4063
805.341	4074
805.483	4105
805.626	4131
805.768	4097
805.91	4215
806.052	4238
806.194	4177
806.336	4291
806.478	4230
806.62	4177
806.762	4188
806.904	4230
807.046	4253
807.188	4207
807.33	4173
807.472	4215
807.614	4188
807.756	4257
807.898	4204
808.04	4246
808.182	4246
808.324	4242
808.465	4325
808.607	4451
808.749	4428
808.891	4436
809.033	4481
809.174	4379
809.316	4215
809.458	4246
809.6	4131
809.741	4135
809.883	4128
810.025	4173
810.166	4230
810.308	4173
810.45	4276
810.591	4211
810.733	4299
810.875	4500
811.016	4782
811.158	5098
811.299	5296
811.441	5254
811.582	4976
811.724	4679
811.865	4447
812.007	4470
812.148	4413
812.29	4459
812.431	4341
812.573	4402
812.714	4383
812.855	4390
812.997	4390
813.138	4493
813.279	4436
813.421	4356
813.562	4405
813.703	4306
813.845	4295
813.986	4253
814.127	4242
814.268	4253
814.41	4295
814.551	4223
814.692	4299
814.833	4310
814.974	4291
815.115	4337
815.256	4242
815.397	4207
815.539	4234
815.68	4211
815.821	4207
815.962	4238
816.103	4268
816.244	4227
816.385	4204
816.526	4303
816.666	4185
816.807	4131
816.948	4185
817.089	4154
817.23	4074
817.371	4055
817.512	4032
817.653	4063
817.793	3998
817.934	4017
818.075	4040
818.216	4059
818.356	4143
818.497	4006
818.638	3857
818.778	3850
818.919	3892
819.06	3850
819.2	3941
819.341	3865
819.481	3827
819.622	3857
819.762	3979
819.903	3934
820.043	3846
820.184	3793
820.324	3827
820.465	3884
820.605	3838
820.746	3842
820.886	3800
821.026	3922
821.167	3880
821.307	3953
821.447	3941
821.588	3888
821.728	3949
821.868	3937
822.008	3876
822.149	3903
822.289	3930
822.429	3785
822.569	3736
822.709	3747
822.849	3686
822.99	3728
823.13	3740
823.27	3781
823.41	3698
823.55	3732
823.69	3671
823.83	3747
823.97	3648
824.11	3603
824.25	3584
824.389	3637
824.529	3660
824.669	3606
824.809	3660
824.949	3812
825.089	3694
825.228	3679
825.368	3576
825.508	3584
825.648	3595
825.787	3572
825.927	3610
826.067	3595
826.206	3637
826.346	3800
826.485	3789
826.625	3831
826.765	3968
826.904	3827
827.044	3599
827.183	3496
827.323	3439
827.462	3435
827.601	3409
827.741	3409
827.88	3405
828.02	3321
828.159	3435
828.298	3511
828.437	3523
828.577	3435
828.716	3580
828.855	3488
828.994	3355
829.134	3313
829.273	3393
829.412	3344
829.551	3321
829.69	3344
829.829	3389
829.968	3481
830.107	3428
830.246	3435
830.385	3378
830.524	3351
830.663	3294
830.802	3245
830.941	3195
831.08	3169
831.219	3237
831.357	3237
831.496	3386
831.635	3249
831.774	3184
831.913	3188
832.051	3127
832.19	3135
832.329	3188
832.467	3104
832.606	3108
832.744	3192
832.883	3165
833.022	3169
833.16	3237
833.299	3249
833.437	3351
833.576	3359
833.714	3382
833.852	3393
833.991	3420
834.129	3469
834.267	3443
834.406	3416
834.544	3389
834.682	3439
834.821	3367
834.959	3542
835.097	3462
835.235	3526
835.373	3477
835.511	3466
835.65	3439
835.788	3492
835.926	3355
836.064	3359
836.202	3355
836.34	3557
836.478	3595
836.615	3564
836.753	3591
836.891	3599
837.029	3606
837.167	3549
837.305	3534
837.443	3523
837.58	3492
837.718	3618
837.856	3545
837.993	3530
838.131	3610
838.269	3523
838.406	3534
838.544	3538
838.681	3466
838.819	3439
838.956	3355
839.094	3393
839.231	3428
839.369	3500
839.506	3679
839.643	3629
839.781	3488
839.918	3443
840.055	3500
840.193	3511
840.33	3530
840.467	3580
840.604	3538
840.742	3740
840.879	3526
841.016	3549
841.153	3542
841.29	3728
841.427	3679
841.564	3690
841.701	3713
841.838	3717
841.975	3682
842.112	3694
842.249	3656
842.385	3572
842.522	3823
842.659	3713
842.796	3686
842.933	3679
843.069	3675
843.206	3675
843.343	3800
843.479	3736
843.616	3800
843.752	3618
843.889	3660
844.025	3808
844.162	3698
844.298	3770
844.435	3762
844.571	3759
844.708	3896
844.844	3937
844.98	4040
845.117	4025
845.253	3941
845.389	3888
845.525	3907
845.661	3960
845.798	3934
845.934	3987
846.07	3918
846.206	3998
846.342	4143
846.478	4063
846.614	3968
846.75	3953
846.886	3896
847.022	3983
847.158	3968
847.294	3987
847.429	4010
847.565	3983
847.701	4207
847.837	3850
847.972	3869
848.108	3945
848.244	3960
848.379	3869
848.515	3812
848.65	3823
848.786	3827
848.921	3831
849.057	3903
849.192	3903
849.328	3930
849.463	3926
849.598	3869
849.734	3846
849.869	3785
850.004	3785
850.14	3747
850.275	3774
850.41	3709
850.545	3736
850.68	3770
850.815	3793
850.95	3789
851.085	3896
851.22	3861
851.355	3838
851.49	3732
851.625	3770
851.76	3793
851.895	3736
852.03	3713
852.165	3789
852.299	3823
852.434	3915
852.569	3873
852.703	3823
852.838	3918
852.973	3956
853.107	3934
853.242	3937
853.376	3785
853.511	3751
853.645	3785
853.78	3949
853.914	3865
854.048	3865
854.183	3846
854.317	3911
854.451	4051
854.585	3949
854.72	3926
854.854	4021
854.988	3949
855.122	3975
855.256	3884
855.39	3991
855.524	4097
855.658	4086
855.792	4074
855.926	4116
856.06	4166
856.194	4158
856.327	4135
856.461	4109
856.595	4097
856.729	4147
856.862	4287
856.996	4196
857.13	4272
857.263	4352
857.397	4337
857.53	4291
857.664	4344
857.797	4337
857.931	4398
858.064	4375
858.197	4440
858.331	4341
858.464	4375
858.597	4337
858.731	4409
858.864	4417
858.997	4432
859.13	4466
859.263	4493
859.396	4588
859.529	4565
859.662	4542
859.795	4478
859.928	4535
860.061	4691
860.194	4618
860.327	4634
860.46	4603
860.592	4706
860.725	4755
860.858	4763
860.99	4668
861.123	4645
861.256	4656
861.388	4717
861.521	5315
861.653	4714
861.786	4668
861.918	4740
862.05	4771
862.183	4793
862.315	4870
862.447	4957
862.58	4866
862.712	4793
862.844	4729
862.976	4850
863.108	4828
863.24	5174
863.372	4828
863.504	4885
863.636	4870
863.768	4942
863.9	4949
864.032	4923
864.164	4908
864.296	5037
864.428	5109
864.559	5064
864.691	5025
864.823	5124
864.954	5090
865.086	5166
865.217	5102
865.349	5094
865.48	5136
865.612	5166
865.743	5227
865.875	5220
866.006	5193
866.137	5208
866.269	5269
866.4	5185
866.531	5189
866.662	5231
866.793	5261
866.924	5284
867.055	5379
867.186	5261
867.317	5330
867.448	5337
867.579	5360
867.71	5417
867.841	5318
867.972	5440
868.103	5417
868.233	5440
868.364	5505
868.495	5474
868.625	5649
868.756	5783
868.886	5688
869.017	5718
869.147	5824
869.278	5859
869.408	5809
869.539	5870
869.669	5901
869.799	5882
869.929	5977
870.06	6007
870.19	6171
870.32	6171
870.45	6258
870.58	6308
870.71	6399
870.84	6407
870.97	6441
871.1	6426
871.23	6597
871.36	6639
871.489	6623
871.619	6726
871.749	6829
871.879	6829
872.008	6924
872.138	7000
872.267	6932
872.397	6954
872.526	7012
872.656	7095
872.785	7156
872.915	7381
873.044	7491
873.173	7518
873.303	7575
873.432	7742
873.561	7780
873.69	7887
873.819	7970
873.948	8183
874.077	8225
874.206	8317
874.335	8415
874.464	8682
874.593	8781
874.722	8876
874.851	9085
874.979	9207
875.108	9306
875.237	9359
875.365	9420
875.494	9637
875.623	9781
875.751	9800
875.88	10082
876.008	10109
876.136	10242
876.265	10489
876.393	10679
876.521	10748
876.65	10748
876.778	10801
876.906	10927
877.034	10991
877.162	11060
877.29	11174
877.418	11292
877.546	11303
877.674	11455
877.802	11505
877.93	11490
878.058	11547
878.185	11543
878.313	11695
878.441	11649
878.568	11672
878.696	11726
878.824	11870
878.951	11874
879.079	11961
879.206	12083
879.333	11965
879.461	11999
879.588	12095
879.715	12068
879.842	12251
879.97	12011
880.097	11832
880.224	11859
880.351	11866
880.478	11863
880.605	11828
880.732	11786
880.859	11950
880.986	11824
881.112	11840
881.239	11790
881.366	11737
881.493	11608
881.619	11532
881.746	11581
881.872	11440
881.999	11505
882.125	11421
882.252	11520
882.378	11535
882.505	11490
882.631	11414
882.757	11322
882.883	11318
883.01	11261
883.136	11197
883.262	11140
883.388	11086
883.514	11098
883.64	11254
883.766	11094
883.892	10995
884.018	10942
884.143	11022
884.269	11185
884.395	10839
884.52	10801
884.646	10767
884.772	10687
884.897	10596
885.023	10656
885.148	10767
885.274	10771
885.399	10736
885.524	10634
885.65	10580
885.775	10561
885.9	10584
886.025	10569
886.15	10599
886.275	10436
886.4	10371
886.525	10382
886.65	10432
886.775	10272
886.9	10421
887.025	10504
887.149	10306
887.274	10246
887.399	10215
887.523	10196
887.648	10071
887.773	10112
887.897	10185
888.021	10246
888.146	10063
888.27	10204
888.395	10196
888.519	10173
888.643	10166
888.767	10173
888.891	10166
889.015	9968
889.139	9968
889.263	9983
889.387	10101
889.511	10074
889.635	10063
889.759	9888
889.883	9960
890.006	9930
890.13	10124
890.254	10021
890.377	9975
890.501	9816
890.624	9778
890.748	9926
890.871	9743
890.995	9743
891.118	9648
891.241	9698
891.364	9740
891.488	9857
891.611	9705
891.734	9701
891.857	9705
891.98	9728
892.103	9759
892.226	9713
892.349	9679
892.471	9469
892.594	9603
892.717	9656
892.839	9648
892.962	9595
893.085	9606
893.207	9519
893.33	9515
893.452	9485
893.575	9580
893.697	9496
893.819	9648
893.941	9568
894.064	9576
894.186	9428
894.308	9397
894.43	9454
894.552	9568
894.674	9526
894.796	9405
894.918	9332
895.04	9310
895.161	9287
895.283	9325
895.405	9237
895.526	9253
895.648	9226
895.769	9310
895.891	9211
896.012	9214
896.134	9218
896.255	9112
896.376	9093
896.498	9154
896.619	9135
896.74	9036
896.861	9112
896.982	9214
897.103	9275
897.224	9062
897.345	8990
897.466	8956
897.587	9032
897.708	9108
897.828	8910
897.949	8902
898.07	8842
898.19	8933
898.311	8952
898.431	8826
898.552	8895
898.672	8967
898.792	8952
898.913	8906
899.033	8815
899.153	8678
899.273	8598
899.393	8655
899.513	8766
899.633	8712
899.753	8743
899.873	8674
899.993	8716
900.113	8682
900.232	8674
900.352	8629
900.472	8571
900.591	8583
900.711	8594
900.83	8522
900.95	8769
901.069	8632
901.189	8556
901.308	8400
901.427	8336
901.546	8419
901.665	8446
901.784	8465
901.904	8362
902.023	8332
902.141	8183
902.26	8191
902.379	8240
902.498	8229
902.617	8202
902.735	8275
902.854	8336
902.973	8263
903.091	8138
903.21	8096
903.328	8161
903.446	8123
903.565	8081
903.683	8092
903.801	8073
903.919	8119
904.038	8119
904.156	8012
904.274	8050
904.392	8031
904.51	7978
904.627	7993
904.745	8035
904.863	8012
904.981	7955
905.098	7868
905.216	7849
905.334	7902
905.451	7826
905.569	7852
905.686	7970
905.803	7909
905.921	7788
906.038	7841
906.155	7757
906.272	7685
906.389	7719
906.506	7662
906.623	7556
906.74	7639
906.857	7559
906.974	7586
907.091	7655
907.208	7632
907.324	7582
907.441	7597
907.557	7453
907.674	7460
907.79	7346
907.907	7343
908.023	7449
908.139	7331
908.256	7415
908.372	7358
908.488	7354
908.604	7244
908.72	7221
908.836	7255
908.952	7236
909.068	7232
909.184	7263
909.3	7171
909.415	7255
909.531	7289
909.647	7103
909.762	7065
909.878	7091
909.993	7137
910.108	7042
910.224	7091
910.339	7137
910.454	7008
910.57	6977
910.685	6947
910.8	7095
910.915	7088
911.03	7023
911.145	6943
911.259	6840
911.374	6894
911.489	6844
911.604	6764
911.718	6662
911.833	6692
911.947	6650
912.062	6616
912.176	6681
912.291	6730
912.405	6654
912.519	6818
912.633	6764
912.748	6696
912.862	6692
912.976	6582
913.09	6498
913.204	6608
913.318	6612
913.431	6639
913.545	6616
913.659	6700
913.772	6646
913.886	6604
914	6517
914.113	6604
914.226	6601
914.34	6620
914.453	6475
914.566	6525
914.68	6517
914.793	6513
914.906	6441
915.019	6376
915.132	6350
915.245	6388
915.358	6422
915.47	6407
915.583	6483
915.696	6437
915.809	6528
915.921	6521
916.034	6437
916.146	6372
916.259	6311
916.371	6410
916.483	6395
916.595	6384
916.708	6391
916.82	6384
916.932	6361
917.044	6319
917.156	6448
917.268	6262
917.38	6380
917.491	6224
917.603	6391
917.715	6327
917.826	6395
917.938	6296
918.049	6205
918.161	6338
918.272	6384
918.384	6395
918.495	6304
918.606	6213
918.717	6273
918.828	6235
918.939	6239
919.05	6117
919.161	6239
919.272	6114
919.383	6159
919.494	6239
919.604	6426
919.715	6258
919.826	6197
919.936	6243
920.047	6319
920.157	6258
920.267	6456
920.378	6258
920.488	6243
920.598	6407
920.708	6597
920.818	6479
920.928	6448
921.038	6547
921.148	6604
921.258	6319
921.368	6281
921.477	6178
921.587	6144
921.697	6076
921.806	6152
921.916	6041
922.025	5958
922.134	5901
922.244	5916
922.353	5939
922.462	5813
922.571	5729
922.68	5722
922.789	5680
922.898	5661
923.007	5627
923.116	5714
923.224	5642
923.333	5611
923.442	5600
923.55	5554
923.659	5573
923.767	5573
923.876	5539
923.984	5627
924.092	5459
924.201	5520
924.309	5478
924.417	5539
924.525	5463
924.633	5524
924.741	6273
924.849	5372
924.956	5459
925.064	5334
925.172	5261
925.279	5345
925.387	5303
925.494	5334
925.602	5410
925.709	5315
925.816	5254
925.924	5307
926.031	5349
926.138	5269
926.245	5307
926.352	5258
926.459	5315
926.566	5330
926.673	5178
926.779	5121
926.886	5094
926.993	5003
927.099	4987
927.206	4949
927.312	4923
927.419	4987
927.525	4980
927.631	5006
927.737	4908
927.843	4854
927.95	4801
928.056	4778
928.162	4809
928.267	4797
928.373	5261
928.479	4839
928.585	4637
928.69	4763
928.796	4782
928.901	4683
929.007	4546
929.112	4672
929.218	4607
929.323	4618
929.428	4550
929.533	4649
929.638	4538
929.743	4519
929.848	4554
929.953	4516
930.058	4428
930.163	4314
930.267	4325
930.372	4451
930.477	4314
930.581	4466
930.685	4360
930.79	4234
930.894	4246
930.998	4272
931.103	4306
931.207	4101
931.311	4090
931.415	4040
931.519	3880
931.623	3884
