Data from glass_V78500241_1623.txt Node
Date: Wed Sep 01 19:25:45 CST 2021
User: usil
Spectrometer: V785-0024
Trigger mode: 0
Integration Time (sec): 4.000000E-1
Scans to average: 1
Nonlinearity correction enabled: false
Boxcar width: 0
Storing dark spectrum: false
XAxis mode: Wavelengths
Number of Pixels in Spectrum: 1024
>>>>>Begin Spectral Data<<<<<
801.071	3743
801.214	3751
801.356	3709
801.499	3755
801.641	3736
801.783	3793
801.926	3838
802.068	3831
802.211	3876
802.353	3876
802.496	3838
802.638	3873
802.78	3915
802.923	3960
803.065	3869
803.208	3865
803.35	3857
803.492	3907
803.635	3911
803.777	3800
803.919	3846
804.061	4143
804.204	3945
804.346	3953
804.488	3926
804.63	4078
804.773	3949
804.915	4048
805.057	4124
805.199	4059
805.341	4093
805.483	4120
805.626	4128
805.768	4124
805.91	4246
806.052	4242
806.194	4215
806.336	4306
806.478	4261
806.62	4154
806.762	4185
806.904	4238
807.046	4329
807.188	4234
807.33	4242
807.472	4257
807.614	4223
807.756	4265
807.898	4246
808.04	4238
808.182	4295
808.324	4310
808.465	4356
808.607	4409
808.749	4436
808.891	4546
809.033	4527
809.174	4402
809.316	4257
809.458	4242
809.6	4109
809.741	4162
809.883	4120
810.025	4234
810.166	4276
810.308	4227
810.45	4257
810.591	4291
810.733	4265
810.875	4535
811.016	4809
811.158	5136
811.299	5273
811.441	5357
811.582	5056
811.724	4691
811.865	4421
812.007	4485
812.148	4428
812.29	4432
812.431	4405
812.573	4424
812.714	4371
812.855	4367
812.997	4398
813.138	4497
813.279	4443
813.421	4386
813.562	4371
813.703	4299
813.845	4344
813.986	4268
814.127	4230
814.268	4215
814.41	4314
814.551	4272
814.692	4314
814.833	4303
814.974	4310
815.115	4344
815.256	4246
815.397	4253
815.539	4299
815.68	4181
815.821	4246
815.962	4329
816.103	4310
816.244	4249
816.385	4253
816.526	4265
816.666	4249
816.807	4128
816.948	4166
817.089	4131
817.23	4071
817.371	4055
817.512	4067
817.653	4074
817.793	4048
817.934	4010
818.075	4090
818.216	4059
818.356	4025
818.497	3998
818.638	3915
818.778	3949
818.919	3865
819.06	3896
819.2	3884
819.341	3873
819.481	3857
819.622	3888
819.762	4029
819.903	3937
820.043	3865
820.184	3842
820.324	3835
820.465	3896
820.605	3823
820.746	3899
820.886	3770
821.026	3930
821.167	3911
821.307	3953
821.447	4021
821.588	3922
821.728	3934
821.868	3945
822.008	3899
822.149	3937
822.289	3884
822.429	3793
822.569	3793
822.709	3781
822.849	3709
822.99	3747
823.13	3766
823.27	3793
823.41	3736
823.55	3732
823.69	3709
823.83	3724
823.97	3652
824.11	3629
824.25	3584
824.389	3637
824.529	3656
824.669	3625
824.809	3713
824.949	3762
825.089	3709
825.228	3698
825.368	3580
825.508	3564
825.648	3576
825.787	3599
825.927	3648
826.067	3606
826.206	3701
826.346	3816
826.485	3846
826.625	3896
826.765	3953
826.904	3816
827.044	3599
827.183	3549
827.323	3409
827.462	3469
827.601	3428
827.741	3412
827.88	3420
828.02	3374
828.159	3458
828.298	3507
828.437	3549
828.577	3511
828.716	3618
828.855	3500
828.994	3435
829.134	3397
829.273	3412
829.412	3340
829.551	3325
829.69	3355
829.829	3420
829.968	3564
830.107	3424
830.246	3416
830.385	3363
830.524	3351
830.663	3294
830.802	3241
830.941	3214
831.08	3184
831.219	3260
831.357	3245
831.496	3359
831.635	3253
831.774	3138
831.913	3184
832.051	3119
832.19	3112
832.329	3192
832.467	3154
832.606	3089
832.744	3161
832.883	3188
833.022	3180
833.16	3283
833.299	3306
833.437	3332
833.576	3386
833.714	3416
833.852	3420
833.991	3477
834.129	3454
834.267	3435
834.406	3409
834.544	3397
834.682	3393
834.821	3405
834.959	3523
835.097	3416
835.235	3511
835.373	3473
835.511	3492
835.65	3477
835.788	3477
835.926	3428
836.064	3374
836.202	3431
836.34	3595
836.478	3633
836.615	3500
836.753	3625
836.891	3660
837.029	3606
837.167	3606
837.305	3561
837.443	3526
837.58	3500
837.718	3622
837.856	3542
837.993	3549
838.131	3572
838.269	3576
838.406	3504
838.544	3587
838.681	3454
838.819	3454
838.956	3393
839.094	3355
839.231	3443
839.369	3507
839.506	3717
839.643	3614
839.781	3526
839.918	3511
840.055	3488
840.193	3523
840.33	3515
840.467	3538
840.604	3614
840.742	3835
840.879	3576
841.016	3553
841.153	3644
841.29	3774
841.427	3778
841.564	3728
841.701	3789
841.838	3694
841.975	3675
842.112	3736
842.249	3660
842.385	3648
842.522	3804
842.659	3679
842.796	3701
842.933	3698
843.069	3732
843.206	3732
843.343	3766
843.479	3785
843.616	3778
843.752	3671
843.889	3679
844.025	3896
844.162	3724
844.298	3892
844.435	3762
844.571	3812
844.708	3915
844.844	4025
844.98	4006
845.117	4010
845.253	3888
845.389	3880
845.525	3956
845.661	3956
845.798	3861
845.934	4032
846.07	3937
846.206	4044
846.342	4135
846.478	4063
846.614	3968
846.75	3937
846.886	3892
847.022	4051
847.158	3964
847.294	4006
847.429	3998
847.565	4025
847.701	4246
847.837	3835
847.972	3854
848.108	3994
848.244	3968
848.379	3873
848.515	3827
848.65	3816
848.786	3854
848.921	3907
849.057	3949
849.192	3941
849.328	3899
849.463	3896
849.598	3896
849.734	3846
849.869	3770
850.004	3804
850.14	3819
850.275	3808
850.41	3770
850.545	3747
850.68	3789
850.815	3823
850.95	3797
851.085	3949
851.22	3835
851.355	3808
851.49	3804
851.625	3804
851.76	3793
851.895	3747
852.03	3709
852.165	3835
852.299	3831
852.434	3922
852.569	3850
852.703	3892
852.838	3945
852.973	3991
853.107	3983
853.242	3892
853.376	3865
853.511	3781
853.645	3800
853.78	3979
853.914	3869
854.048	3926
854.183	3899
854.317	3934
854.451	4074
854.585	3994
854.72	3949
854.854	4036
854.988	3949
855.122	3983
855.256	3922
855.39	3994
855.524	4124
855.658	4090
855.792	4078
855.926	4120
856.06	4162
856.194	4207
856.327	4150
856.461	4147
856.595	4124
856.729	4185
856.862	4253
856.996	4211
857.13	4284
857.263	4295
857.397	4333
857.53	4284
857.664	4398
857.797	4413
857.931	4413
858.064	4390
858.197	4459
858.331	4405
858.464	4386
858.597	4356
858.731	4447
858.864	4455
858.997	4478
859.13	4470
859.263	4527
859.396	4596
859.529	4523
859.662	4485
859.795	4523
859.928	4573
860.061	4721
860.194	4721
860.327	4622
860.46	4660
860.592	4656
860.725	4740
860.858	4786
860.99	4683
861.123	4744
861.256	4664
861.388	4782
861.521	5566
861.653	4717
861.786	4706
861.918	4736
862.05	4778
862.183	4850
862.315	4862
862.447	4911
862.58	4889
862.712	4786
862.844	4767
862.976	4873
863.108	4866
863.24	5231
863.372	4828
863.504	4919
863.636	4923
863.768	4946
863.9	4965
864.032	4957
864.164	4995
864.296	5037
864.428	5067
864.559	5086
864.691	5132
864.823	5113
864.954	5170
865.086	5132
865.217	5109
865.349	5132
865.48	5162
865.612	5181
865.743	5311
865.875	5204
866.006	5181
866.137	5246
866.269	5223
866.4	5254
866.531	5273
866.662	5246
866.793	5242
866.924	5284
867.055	5322
867.186	5334
867.317	5345
867.448	5353
867.579	5368
867.71	5311
867.841	5376
867.972	5444
868.103	5444
868.233	5478
868.364	5478
868.495	5471
868.625	5672
868.756	5786
868.886	5680
869.017	5710
869.147	5851
869.278	5931
869.408	5824
869.539	5847
869.669	5965
869.799	5882
869.929	5999
870.06	5996
870.19	6197
870.32	6251
870.45	6300
870.58	6357
870.71	6452
870.84	6498
870.97	6384
871.1	6395
871.23	6585
871.36	6669
871.489	6684
871.619	6757
871.749	6738
871.879	6939
872.008	6996
872.138	6939
872.267	6878
872.397	6909
872.526	6996
872.656	7103
872.785	7190
872.915	7407
873.044	7559
873.173	7537
873.303	7677
873.432	7803
873.561	7909
873.69	7917
873.819	8062
873.948	8157
874.077	8267
874.206	8271
874.335	8404
874.464	8670
874.593	8811
874.722	8918
874.851	9131
874.979	9279
875.108	9355
875.237	9447
875.365	9530
875.494	9656
875.623	9774
875.751	9854
875.88	9918
876.008	10135
876.136	10223
876.265	10474
876.393	10683
876.521	10790
876.65	10824
876.778	10828
876.906	10938
877.034	11045
877.162	11113
877.29	11151
877.418	11318
877.546	11368
877.674	11383
877.802	11471
877.93	11539
878.058	11532
878.185	11604
878.313	11657
878.441	11771
878.568	11668
878.696	11794
878.824	11885
878.951	11882
879.079	12022
879.206	11992
879.333	11931
879.461	11977
879.588	12110
879.715	12117
879.842	12308
879.97	12026
880.097	11855
880.224	11863
880.351	11874
880.478	11901
880.605	11878
880.732	11809
880.859	11939
880.986	11813
881.112	11874
881.239	11752
881.366	11657
881.493	11570
881.619	11528
881.746	11562
881.872	11493
881.999	11532
882.125	11410
882.252	11558
882.378	11570
882.505	11566
882.631	11334
882.757	11242
882.883	11220
883.01	11239
883.136	11227
883.262	11132
883.388	11109
883.514	11147
883.64	11151
883.766	11052
883.892	11037
884.018	11029
884.143	11071
884.269	11056
884.395	10892
884.52	10748
884.646	10774
884.772	10645
884.897	10672
885.023	10702
885.148	10687
885.274	10759
885.399	10706
885.524	10565
885.65	10630
885.775	10599
885.9	10622
886.025	10611
886.15	10558
886.275	10500
886.4	10402
886.525	10360
886.65	10314
886.775	10318
886.9	10398
887.025	10538
887.149	10287
887.274	10268
887.399	10173
887.523	10158
887.648	10128
887.773	10017
887.897	10276
888.021	10238
888.146	10101
888.27	10204
888.395	10135
888.519	10200
888.643	10188
888.767	10196
888.891	10078
889.015	10029
889.139	10071
889.263	10032
889.387	10063
889.511	10032
889.635	10097
889.759	9987
889.883	9907
890.006	9968
890.13	10048
890.254	9922
890.377	9968
890.501	9861
890.624	9895
890.748	9918
890.871	9770
890.995	9717
891.118	9759
891.241	9705
891.364	9800
891.488	9770
891.611	9675
891.734	9797
891.857	9789
891.98	9686
892.103	9766
892.226	9751
892.349	9675
892.471	9523
892.594	9564
892.717	9523
892.839	9641
892.962	9644
893.085	9614
893.207	9576
893.33	9534
893.452	9553
893.575	9667
893.697	9496
893.819	9660
893.941	9614
894.064	9568
894.186	9424
894.308	9485
894.43	9591
894.552	9504
894.674	9519
894.796	9416
894.918	9450
895.04	9344
895.161	9435
895.283	9355
895.405	9294
895.526	9298
895.648	9237
895.769	9249
895.891	9313
896.012	9272
896.134	9203
896.255	9138
896.376	9146
896.498	9146
896.619	9119
896.74	9066
896.861	9093
896.982	9279
897.103	9272
897.224	9237
897.345	9081
897.466	8963
897.587	9028
897.708	9112
897.828	8963
897.949	8925
898.07	8929
898.19	8925
898.311	9036
898.431	8895
898.552	8941
898.672	8963
898.792	8975
898.913	8906
899.033	8842
899.153	8754
899.273	8613
899.393	8758
899.513	8720
899.633	8773
899.753	8766
899.873	8697
899.993	8777
900.113	8689
900.232	8678
900.352	8670
900.472	8613
900.591	8522
900.711	8564
900.83	8560
900.95	8674
901.069	8648
901.189	8571
901.308	8389
901.427	8358
901.546	8419
901.665	8434
901.784	8480
901.904	8438
902.023	8324
902.141	8301
902.26	8210
902.379	8221
902.498	8240
902.617	8263
902.735	8305
902.854	8263
902.973	8290
903.091	8119
903.21	8123
903.328	8100
903.446	8123
903.565	8065
903.683	8084
903.801	8081
903.919	8073
904.038	8092
904.156	8062
904.274	8134
904.392	8054
904.51	7970
904.627	8043
904.745	8096
904.863	8138
904.981	7970
905.098	7856
905.216	7811
905.334	7887
905.451	7875
905.569	7921
905.686	7913
905.803	7845
905.921	7738
906.038	7860
906.155	7788
906.272	7712
906.389	7719
906.506	7624
906.623	7696
906.74	7651
906.857	7639
906.974	7586
907.091	7685
907.208	7715
907.324	7651
907.441	7597
907.557	7460
907.674	7464
907.79	7365
907.907	7438
908.023	7415
908.139	7400
908.256	7392
908.372	7415
908.488	7358
908.604	7285
908.72	7236
908.836	7285
908.952	7183
909.068	7179
909.184	7293
909.3	7263
909.415	7278
909.531	7247
909.647	7088
909.762	7171
909.878	7061
909.993	7053
910.108	7072
910.224	7038
910.339	7156
910.454	7095
910.57	6996
910.685	6951
910.8	7187
910.915	7129
911.03	7042
911.145	6909
911.259	6886
911.374	6859
911.489	6810
911.604	6825
911.718	6677
911.833	6749
911.947	6604
912.062	6631
912.176	6642
912.291	6776
912.405	6673
912.519	6863
912.633	6852
912.748	6760
912.862	6719
912.976	6642
913.09	6517
913.204	6642
913.318	6612
913.431	6700
913.545	6673
913.659	6684
913.772	6642
913.886	6570
914	6563
914.113	6623
914.226	6646
914.34	6627
914.453	6521
914.566	6612
914.68	6551
914.793	6566
914.906	6410
915.019	6365
915.132	6369
915.245	6464
915.358	6460
915.47	6433
915.583	6426
915.696	6490
915.809	6555
915.921	6547
916.034	6456
916.146	6376
916.259	6372
916.371	6437
916.483	6525
916.595	6391
916.708	6410
916.82	6422
916.932	6338
917.044	6410
917.156	6388
917.268	6350
917.38	6369
917.491	6346
917.603	6338
917.715	6357
917.826	6471
917.938	6273
918.049	6258
918.161	6369
918.272	6399
918.384	6445
918.495	6319
918.606	6273
918.717	6178
918.828	6289
918.939	6296
919.05	6247
919.161	6201
919.272	6148
919.383	6163
919.494	6315
919.604	6471
919.715	6239
919.826	6224
919.936	6194
920.047	6384
920.157	6243
920.267	6502
920.378	6331
920.488	6289
920.598	6460
920.708	6540
920.818	6452
920.928	6445
921.038	6604
921.148	6601
921.258	6369
921.368	6300
921.477	6235
921.587	6148
921.697	6133
921.806	6175
921.916	6098
922.025	5935
922.134	5958
922.244	5935
922.353	5942
922.462	5855
922.571	5870
922.68	5710
922.789	5707
922.898	5668
923.007	5630
923.116	5722
923.224	5695
923.333	5691
923.442	5615
923.55	5570
923.659	5619
923.767	5646
923.876	5570
923.984	5570
924.092	5520
924.201	5581
924.309	5547
924.417	5566
924.525	5463
924.633	5520
924.741	6273
924.849	5311
924.956	5509
925.064	5337
925.172	5299
925.279	5326
925.387	5349
925.494	5265
925.602	5414
925.709	5410
925.816	5273
925.924	5299
926.031	5372
926.138	5277
926.245	5299
926.352	5170
926.459	5334
926.566	5265
926.673	5231
926.779	5117
926.886	5094
926.993	5006
927.099	4995
927.206	4957
927.312	4942
927.419	5041
927.525	4961
927.631	5006
927.737	4908
927.843	4866
927.95	4786
928.056	4854
928.162	4843
928.267	4892
928.373	5345
928.479	4877
928.585	4698
928.69	4801
928.796	4763
928.901	4679
929.007	4611
929.112	4675
929.218	4672
929.323	4596
929.428	4584
929.533	4641
929.638	4531
929.743	4569
929.848	4569
929.953	4497
930.058	4428
930.163	4291
930.267	4299
930.372	4436
930.477	4272
930.581	4455
930.685	4367
930.79	4261
930.894	4287
930.998	4238
931.103	4405
931.207	4120
931.311	4090
931.415	4040
931.519	3964
931.623	3975
