Data from glass_V78500241_1814.txt Node
Date: Wed Sep 01 19:27:04 CST 2021
User: usil
Spectrometer: V785-0024
Trigger mode: 0
Integration Time (sec): 4.000000E-1
Scans to average: 1
Nonlinearity correction enabled: false
Boxcar width: 0
Storing dark spectrum: false
XAxis mode: Wavelengths
Number of Pixels in Spectrum: 1024
>>>>>Begin Spectral Data<<<<<
801.071	3762
801.214	3778
801.356	3686
801.499	3736
801.641	3743
801.783	3781
801.926	3831
802.068	3808
802.211	3918
802.353	3873
802.496	3812
802.638	3884
802.78	3915
802.923	3918
803.065	3857
803.208	3876
803.35	3865
803.492	3934
803.635	3915
803.777	3816
803.919	3876
804.061	4120
804.204	3945
804.346	3911
804.488	3911
804.63	4048
804.773	3945
804.915	4044
805.057	4105
805.199	4071
805.341	4082
805.483	4067
805.626	4158
805.768	4120
805.91	4238
806.052	4246
806.194	4234
806.336	4344
806.478	4227
806.62	4143
806.762	4154
806.904	4257
807.046	4371
807.188	4211
807.33	4166
807.472	4265
807.614	4166
807.756	4238
807.898	4242
808.04	4211
808.182	4306
808.324	4322
808.465	4322
808.607	4455
808.749	4440
808.891	4478
809.033	4523
809.174	4402
809.316	4291
809.458	4238
809.6	4120
809.741	4158
809.883	4120
810.025	4227
810.166	4204
810.308	4234
810.45	4272
810.591	4257
810.733	4356
810.875	4558
811.016	4820
811.158	5113
811.299	5239
811.441	5265
811.582	5071
811.724	4679
811.865	4432
812.007	4478
812.148	4459
812.29	4405
812.431	4413
812.573	4367
812.714	4363
812.855	4402
812.997	4375
813.138	4500
813.279	4440
813.421	4360
813.562	4375
813.703	4284
813.845	4352
813.986	4246
814.127	4242
814.268	4246
814.41	4329
814.551	4295
814.692	4314
814.833	4261
814.974	4314
815.115	4367
815.256	4253
815.397	4230
815.539	4185
815.68	4188
815.821	4181
815.962	4287
816.103	4230
816.244	4196
816.385	4230
816.526	4242
816.666	4200
816.807	4086
816.948	4181
817.089	4173
817.23	4109
817.371	4044
817.512	4048
817.653	4090
817.793	4029
817.934	4025
818.075	4078
818.216	4071
818.356	4078
818.497	3998
818.638	3911
818.778	3884
818.919	3869
819.06	3865
819.2	3899
819.341	3888
819.481	3827
819.622	3896
819.762	4051
819.903	3968
820.043	3846
820.184	3808
820.324	3827
820.465	3869
820.605	3876
820.746	3850
820.886	3793
821.026	3960
821.167	3953
821.307	3945
821.447	3949
821.588	3975
821.728	3896
821.868	3953
822.008	3861
822.149	3911
822.289	3918
822.429	3736
822.569	3762
822.709	3766
822.849	3724
822.99	3717
823.13	3755
823.27	3766
823.41	3743
823.55	3720
823.69	3720
823.83	3736
823.97	3686
824.11	3633
824.25	3549
824.389	3637
824.529	3622
824.669	3603
824.809	3713
824.949	3740
825.089	3736
825.228	3679
825.368	3595
825.508	3568
825.648	3568
825.787	3572
825.927	3614
826.067	3648
826.206	3644
826.346	3762
826.485	3884
826.625	3869
826.765	3922
826.904	3819
827.044	3633
827.183	3507
827.323	3397
827.462	3538
827.601	3428
827.741	3405
827.88	3447
828.02	3382
828.159	3458
828.298	3500
828.437	3530
828.577	3466
828.716	3603
828.855	3485
828.994	3393
829.134	3382
829.273	3374
829.412	3348
829.551	3374
829.69	3370
829.829	3428
829.968	3549
830.107	3466
830.246	3420
830.385	3367
830.524	3374
830.663	3329
830.802	3249
830.941	3184
831.08	3192
831.219	3283
831.357	3253
831.496	3363
831.635	3211
831.774	3180
831.913	3173
832.051	3154
832.19	3138
832.329	3230
832.467	3154
832.606	3070
832.744	3157
832.883	3173
833.022	3207
833.16	3249
833.299	3306
833.437	3367
833.576	3374
833.714	3378
833.852	3397
833.991	3458
834.129	3477
834.267	3454
834.406	3344
834.544	3386
834.682	3382
834.821	3405
834.959	3568
835.097	3424
835.235	3526
835.373	3526
835.511	3481
835.65	3466
835.788	3526
835.926	3393
836.064	3367
836.202	3389
836.34	3564
836.478	3606
836.615	3561
836.753	3618
836.891	3656
837.029	3595
837.167	3614
837.305	3545
837.443	3549
837.58	3504
837.718	3564
837.856	3530
837.993	3538
838.131	3572
838.269	3595
838.406	3526
838.544	3564
838.681	3466
838.819	3469
838.956	3363
839.094	3416
839.231	3416
839.369	3481
839.506	3751
839.643	3622
839.781	3462
839.918	3450
840.055	3526
840.193	3496
840.33	3523
840.467	3606
840.604	3603
840.742	3762
840.879	3549
841.016	3564
841.153	3576
841.29	3759
841.427	3686
841.564	3747
841.701	3751
841.838	3675
841.975	3644
842.112	3663
842.249	3606
842.385	3637
842.522	3812
842.659	3667
842.796	3629
842.933	3690
843.069	3671
843.206	3736
843.343	3808
843.479	3743
843.616	3816
843.752	3622
843.889	3652
844.025	3846
844.162	3717
844.298	3857
844.435	3793
844.571	3812
844.708	3918
844.844	3960
844.98	4021
845.117	3968
845.253	3979
845.389	3934
845.525	3953
845.661	3953
845.798	3915
845.934	4029
846.07	3945
846.206	4078
846.342	4154
846.478	4040
846.614	3934
846.75	3960
846.886	3907
847.022	4025
847.158	4010
847.294	4002
847.429	4021
847.565	3983
847.701	4253
847.837	3899
847.972	3915
848.108	3987
848.244	3960
848.379	3823
848.515	3819
848.65	3823
848.786	3827
848.921	3857
849.057	3911
849.192	3930
849.328	3850
849.463	3911
849.598	3884
849.734	3884
849.869	3854
850.004	3781
850.14	3793
850.275	3774
850.41	3770
850.545	3728
850.68	3781
850.815	3827
850.95	3816
851.085	3949
851.22	3857
851.355	3819
851.49	3740
851.625	3823
851.76	3778
851.895	3732
852.03	3747
852.165	3774
852.299	3861
852.434	3903
852.569	3835
852.703	3888
852.838	3903
852.973	3994
853.107	4002
853.242	3907
853.376	3857
853.511	3743
853.645	3816
853.78	4006
853.914	3831
854.048	3903
854.183	3865
854.317	3937
854.451	4059
854.585	3930
854.72	3926
854.854	4051
854.988	3915
855.122	3994
855.256	3941
855.39	4040
855.524	4082
855.658	4097
855.792	4120
855.926	4120
856.06	4204
856.194	4177
856.327	4143
856.461	4086
856.595	4150
856.729	4188
856.862	4272
856.996	4238
857.13	4261
857.263	4306
857.397	4356
857.53	4257
857.664	4299
857.797	4375
857.931	4413
858.064	4390
858.197	4443
858.331	4417
858.464	4394
858.597	4375
858.731	4432
858.864	4443
858.997	4409
859.13	4527
859.263	4577
859.396	4573
859.529	4516
859.662	4538
859.795	4561
859.928	4649
860.061	4710
860.194	4717
860.327	4584
860.46	4615
860.592	4717
860.725	4752
860.858	4771
860.99	4714
861.123	4702
861.256	4706
861.388	4759
861.521	5455
861.653	4683
861.786	4679
861.918	4744
862.05	4797
862.183	4828
862.315	4904
862.447	4911
862.58	4858
862.712	4801
862.844	4763
862.976	4919
863.108	4923
863.24	5204
863.372	4793
863.504	4900
863.636	4923
863.768	5006
863.9	4915
864.032	4934
864.164	4999
864.296	4999
864.428	5083
864.559	5064
864.691	5105
864.823	5121
864.954	5113
865.086	5151
865.217	5117
865.349	5109
865.48	5132
865.612	5143
865.743	5284
865.875	5162
866.006	5189
866.137	5227
866.269	5239
866.4	5250
866.531	5250
866.662	5231
866.793	5299
866.924	5311
867.055	5307
867.186	5284
867.317	5326
867.448	5284
867.579	5337
867.71	5353
867.841	5345
867.972	5486
868.103	5395
868.233	5478
868.364	5459
868.495	5604
868.625	5710
868.756	5764
868.886	5691
869.017	5695
869.147	5863
869.278	5802
869.408	5855
869.539	5824
869.669	5939
869.799	5942
869.929	6007
870.06	5977
870.19	6201
870.32	6190
870.45	6304
870.58	6334
870.71	6445
870.84	6506
870.97	6460
871.1	6452
871.23	6692
871.36	6730
871.489	6616
871.619	6757
871.749	6818
871.879	6837
872.008	6996
872.138	6985
872.267	7034
872.397	6947
872.526	7057
872.656	7076
872.785	7251
872.915	7362
873.044	7548
873.173	7601
873.303	7620
873.432	7765
873.561	7860
873.69	7871
873.819	8050
873.948	8218
874.077	8252
874.206	8385
874.335	8454
874.464	8632
874.593	8834
874.722	8918
874.851	9157
874.979	9226
875.108	9382
875.237	9393
875.365	9469
875.494	9641
875.623	9728
875.751	9842
875.88	9975
876.008	10158
876.136	10268
876.265	10546
876.393	10664
876.521	10717
876.65	10873
876.778	10771
876.906	10919
877.034	11025
877.162	11102
877.29	11113
877.418	11277
877.546	11322
877.674	11490
877.802	11433
877.93	11524
878.058	11520
878.185	11581
878.313	11615
878.441	11786
878.568	11649
878.696	11745
878.824	11756
878.951	11954
879.079	11973
879.206	12129
879.333	12087
879.461	12007
879.588	12110
879.715	12076
879.842	12239
879.97	12030
880.097	11889
880.224	11870
880.351	11878
880.478	11893
880.605	11832
880.732	11817
880.859	12015
880.986	11840
881.112	11859
881.239	11783
881.366	11741
881.493	11627
881.619	11543
881.746	11600
881.872	11478
881.999	11486
882.125	11478
882.252	11467
882.378	11509
882.505	11512
882.631	11273
882.757	11223
882.883	11383
883.01	11197
883.136	11143
883.262	11174
883.388	11204
883.514	11193
883.64	11143
883.766	11105
883.892	11045
884.018	10968
884.143	11048
884.269	11025
884.395	10858
884.52	10748
884.646	10767
884.772	10755
884.897	10664
885.023	10649
885.148	10767
885.274	10782
885.399	10706
885.524	10645
885.65	10569
885.775	10603
885.9	10599
886.025	10626
886.15	10615
886.275	10474
886.4	10310
886.525	10424
886.65	10405
886.775	10394
886.9	10466
887.025	10512
887.149	10386
887.274	10253
887.399	10120
887.523	10219
887.648	10158
887.773	10154
887.897	10291
888.021	10177
888.146	10074
888.27	10253
888.395	10246
888.519	10112
888.643	10173
888.767	10211
888.891	10029
889.015	10032
889.139	10101
889.263	9998
889.387	10124
889.511	10112
889.635	10025
889.759	9983
889.883	9949
890.006	9960
890.13	10131
890.254	10017
890.377	9926
890.501	9835
890.624	9876
890.748	9945
890.871	9804
890.995	9751
891.118	9766
891.241	9785
891.364	9701
891.488	9778
891.611	9770
891.734	9720
891.857	9770
891.98	9717
892.103	9778
892.226	9732
892.349	9648
892.471	9504
892.594	9564
892.717	9584
892.839	9606
892.962	9545
893.085	9713
893.207	9591
893.33	9462
893.452	9610
893.575	9584
893.697	9530
893.819	9519
893.941	9557
894.064	9557
894.186	9443
894.308	9393
894.43	9511
894.552	9542
894.674	9485
894.796	9374
894.918	9382
895.04	9325
895.161	9370
895.283	9374
895.405	9165
895.526	9287
895.648	9230
895.769	9207
895.891	9291
896.012	9237
896.134	9154
896.255	9176
896.376	9157
896.498	9157
896.619	9146
896.74	9089
896.861	9142
896.982	9222
897.103	9245
897.224	9127
897.345	9070
897.466	8998
897.587	8933
897.708	9108
897.828	9062
897.949	8914
898.07	8914
898.19	8823
898.311	9013
898.431	8925
898.552	8933
898.672	8948
898.792	8941
898.913	8891
899.033	8826
899.153	8781
899.273	8655
899.393	8743
899.513	8750
899.633	8727
899.753	8788
899.873	8731
899.993	8708
900.113	8727
900.232	8682
900.352	8667
900.472	8587
900.591	8587
900.711	8610
900.83	8549
900.95	8678
901.069	8598
901.189	8613
901.308	8446
901.427	8393
901.546	8442
901.665	8412
901.784	8484
901.904	8355
902.023	8351
902.141	8259
902.26	8199
902.379	8301
902.498	8176
902.617	8199
902.735	8294
902.854	8259
902.973	8237
903.091	8107
903.21	8126
903.328	8161
903.446	8126
903.565	8081
903.683	8103
903.801	8043
903.919	8134
904.038	8107
904.156	8008
904.274	8024
904.392	8020
904.51	7997
904.627	8005
904.745	8043
904.863	8081
904.981	7864
905.098	7879
905.216	7830
905.334	7849
905.451	7928
905.569	7887
905.686	7982
905.803	7852
905.921	7750
906.038	7826
906.155	7746
906.272	7670
906.389	7715
906.506	7651
906.623	7597
906.74	7605
906.857	7594
906.974	7544
907.091	7658
907.208	7666
907.324	7628
907.441	7586
907.557	7419
907.674	7350
907.79	7388
907.907	7335
908.023	7449
908.139	7415
908.256	7388
908.372	7331
908.488	7354
908.604	7263
908.72	7251
908.836	7228
908.952	7255
909.068	7316
909.184	7293
909.3	7274
909.415	7305
909.531	7331
909.647	7072
909.762	7149
909.878	7152
909.993	7091
910.108	7168
910.224	7084
910.339	7228
910.454	7088
910.57	7038
910.685	7000
910.8	7168
910.915	7076
911.03	7019
911.145	6863
911.259	6890
911.374	6947
911.489	6863
911.604	6821
911.718	6707
911.833	6715
911.947	6688
912.062	6654
912.176	6760
912.291	6722
912.405	6650
912.519	6806
912.633	6787
912.748	6730
912.862	6734
912.976	6544
913.09	6585
913.204	6559
913.318	6654
913.431	6650
913.545	6593
913.659	6711
913.772	6597
913.886	6593
914	6536
914.113	6654
914.226	6658
914.34	6631
914.453	6475
914.566	6612
914.68	6528
914.793	6593
914.906	6426
915.019	6441
915.132	6384
915.245	6426
915.358	6471
915.47	6448
915.583	6471
915.696	6467
915.809	6566
915.921	6551
916.034	6407
916.146	6384
916.259	6437
916.371	6509
916.483	6475
916.595	6384
916.708	6372
916.82	6399
916.932	6323
917.044	6418
917.156	6407
917.268	6296
917.38	6353
917.491	6384
917.603	6311
917.715	6391
917.826	6361
917.938	6308
918.049	6228
918.161	6315
918.272	6391
918.384	6422
918.495	6315
918.606	6281
918.717	6285
918.828	6251
918.939	6262
919.05	6209
919.161	6205
919.272	6102
919.383	6114
919.494	6300
919.604	6361
919.715	6315
919.826	6235
919.936	6239
920.047	6361
920.157	6296
920.267	6429
920.378	6338
920.488	6285
920.598	6429
920.708	6494
920.818	6467
920.928	6464
921.038	6593
921.148	6623
921.258	6353
921.368	6285
921.477	6205
921.587	6194
921.697	6102
921.806	6186
921.916	6087
922.025	6007
922.134	5889
922.244	5828
922.353	5939
922.462	5897
922.571	5832
922.68	5703
922.789	5691
922.898	5722
923.007	5642
923.116	5672
923.224	5642
923.333	5627
923.442	5558
923.55	5558
923.659	5589
923.767	5577
923.876	5543
923.984	5581
924.092	5505
924.201	5600
924.309	5490
924.417	5581
924.525	5467
924.633	5490
924.741	6266
924.849	5364
924.956	5467
925.064	5349
925.172	5277
925.279	5364
925.387	5360
925.494	5345
925.602	5368
925.709	5379
925.816	5299
925.924	5307
926.031	5383
926.138	5326
926.245	5345
926.352	5246
926.459	5220
926.566	5326
926.673	5208
926.779	5113
926.886	5174
926.993	5010
927.099	5048
927.206	4942
927.312	4938
927.419	4965
927.525	4953
927.631	4972
927.737	4908
927.843	4885
927.95	4721
928.056	4797
928.162	4797
928.267	4847
928.373	5368
928.479	4790
928.585	4733
928.69	4733
928.796	4763
928.901	4710
929.007	4573
929.112	4683
929.218	4687
929.323	4527
929.428	4584
929.533	4714
929.638	4542
929.743	4561
929.848	4550
929.953	4497
930.058	4436
930.163	4344
930.267	4363
930.372	4428
930.477	4284
930.581	4451
930.685	4348
930.79	4268
930.894	4272
930.998	4253
931.103	4405
931.207	4097
931.311	4086
931.415	4067
931.519	3956
931.623	3937
