Data from glass_V78500241_2022.txt Node
Date: Wed Sep 01 19:28:31 CST 2021
User: usil
Spectrometer: V785-0024
Trigger mode: 0
Integration Time (sec): 4.000000E-1
Scans to average: 1
Nonlinearity correction enabled: false
Boxcar width: 0
Storing dark spectrum: false
XAxis mode: Wavelengths
Number of Pixels in Spectrum: 1024
>>>>>Begin Spectral Data<<<<<
801.071	3717
801.214	3812
801.356	3694
801.499	3755
801.641	3717
801.783	3781
801.926	3876
802.068	3838
802.211	3823
802.353	3880
802.496	3869
802.638	3907
802.78	3876
802.923	3907
803.065	3857
803.208	3846
803.35	3876
803.492	3922
803.635	3884
803.777	3793
803.919	3930
804.061	4143
804.204	3953
804.346	4002
804.488	3911
804.63	3991
804.773	3949
804.915	3968
805.057	4166
805.199	4013
805.341	4086
805.483	4124
805.626	4063
805.768	4097
805.91	4196
806.052	4211
806.194	4192
806.336	4341
806.478	4230
806.62	4177
806.762	4147
806.904	4268
807.046	4329
807.188	4181
807.33	4177
807.472	4230
807.614	4200
807.756	4257
807.898	4242
808.04	4162
808.182	4310
808.324	4295
808.465	4348
808.607	4455
808.749	4462
808.891	4466
809.033	4497
809.174	4383
809.316	4272
809.458	4211
809.6	4147
809.741	4131
809.883	4093
810.025	4219
810.166	4204
810.308	4242
810.45	4230
810.591	4211
810.733	4314
810.875	4500
811.016	4858
811.158	5166
811.299	5296
811.441	5299
811.582	5075
811.724	4702
811.865	4500
812.007	4455
812.148	4455
812.29	4417
812.431	4424
812.573	4383
812.714	4383
812.855	4417
812.997	4432
813.138	4516
813.279	4440
813.421	4360
813.562	4344
813.703	4322
813.845	4329
813.986	4227
814.127	4234
814.268	4284
814.41	4253
814.551	4265
814.692	4280
814.833	4249
814.974	4314
815.115	4348
815.256	4249
815.397	4227
815.539	4284
815.68	4234
815.821	4238
815.962	4295
816.103	4291
816.244	4215
816.385	4230
816.526	4303
816.666	4246
816.807	4116
816.948	4177
817.089	4124
817.23	4131
817.371	4067
817.512	4067
817.653	4101
817.793	4013
817.934	4051
818.075	4120
818.216	4059
818.356	4078
818.497	4010
818.638	3937
818.778	3930
818.919	3903
819.06	3842
819.2	3896
819.341	3876
819.481	3812
819.622	3918
819.762	4017
819.903	3979
820.043	3842
820.184	3838
820.324	3846
820.465	3876
820.605	3865
820.746	3876
820.886	3785
821.026	3903
821.167	3899
821.307	3918
821.447	3956
821.588	3960
821.728	3903
821.868	3918
822.008	3835
822.149	3865
822.289	3899
822.429	3808
822.569	3774
822.709	3766
822.849	3694
822.99	3724
823.13	3747
823.27	3797
823.41	3736
823.55	3728
823.69	3724
823.83	3747
823.97	3652
824.11	3614
824.25	3603
824.389	3652
824.529	3625
824.669	3603
824.809	3682
824.949	3728
825.089	3717
825.228	3709
825.368	3568
825.508	3534
825.648	3568
825.787	3625
825.927	3606
826.067	3652
826.206	3644
826.346	3762
826.485	3812
826.625	3854
826.765	3934
826.904	3831
827.044	3576
827.183	3519
827.323	3412
827.462	3496
827.601	3435
827.741	3435
827.88	3454
828.02	3374
828.159	3416
828.298	3481
828.437	3534
828.577	3454
828.716	3610
828.855	3431
828.994	3393
829.134	3348
829.273	3393
829.412	3344
829.551	3344
829.69	3416
829.829	3473
829.968	3485
830.107	3454
830.246	3431
830.385	3382
830.524	3370
830.663	3310
830.802	3294
830.941	3211
831.08	3203
831.219	3253
831.357	3241
831.496	3412
831.635	3226
831.774	3180
831.913	3192
832.051	3150
832.19	3150
832.329	3211
832.467	3146
832.606	3123
832.744	3195
832.883	3165
833.022	3161
833.16	3241
833.299	3313
833.437	3370
833.576	3378
833.714	3405
833.852	3458
833.991	3447
834.129	3473
834.267	3428
834.406	3389
834.544	3412
834.682	3401
834.821	3409
834.959	3564
835.097	3428
835.235	3515
835.373	3496
835.511	3450
835.65	3466
835.788	3492
835.926	3374
836.064	3412
836.202	3351
836.34	3515
836.478	3656
836.615	3564
836.753	3610
836.891	3618
837.029	3629
837.167	3606
837.305	3511
837.443	3561
837.58	3561
837.718	3561
837.856	3526
837.993	3549
838.131	3599
838.269	3584
838.406	3553
838.544	3591
838.681	3507
838.819	3443
838.956	3416
839.094	3363
839.231	3450
839.369	3496
839.506	3709
839.643	3622
839.781	3496
839.918	3424
840.055	3507
840.193	3553
840.33	3545
840.467	3549
840.604	3618
840.742	3770
840.879	3526
841.016	3561
841.153	3587
841.29	3755
841.427	3679
841.564	3720
841.701	3740
841.838	3717
841.975	3690
842.112	3720
842.249	3629
842.385	3652
842.522	3770
842.659	3690
842.796	3641
842.933	3709
843.069	3694
843.206	3713
843.343	3797
843.479	3823
843.616	3812
843.752	3660
843.889	3644
844.025	3869
844.162	3740
844.298	3854
844.435	3762
844.571	3804
844.708	3911
844.844	3979
844.98	4036
845.117	3998
845.253	3907
845.389	3876
845.525	4002
845.661	3941
845.798	3903
845.934	4010
846.07	3960
846.206	4002
846.342	4101
846.478	4040
846.614	3979
846.75	3956
846.886	3911
847.022	4013
847.158	3998
847.294	4017
847.429	4017
847.565	3968
847.701	4242
847.837	3861
847.972	3861
848.108	3941
848.244	3941
848.379	3823
848.515	3800
848.65	3793
848.786	3838
848.921	3819
849.057	3915
849.192	3968
849.328	3884
849.463	3941
849.598	3827
849.734	3827
849.869	3823
850.004	3797
850.14	3812
850.275	3781
850.41	3755
850.545	3740
850.68	3785
850.815	3785
850.95	3762
851.085	3964
851.22	3896
851.355	3804
851.49	3770
851.625	3740
851.76	3808
851.895	3709
852.03	3705
852.165	3755
852.299	3797
852.434	3876
852.569	3816
852.703	3918
852.838	3918
852.973	3960
853.107	3975
853.242	3865
853.376	3869
853.511	3728
853.645	3823
853.78	3941
853.914	3869
854.048	3945
854.183	3842
854.317	3953
854.451	4029
854.585	3937
854.72	3911
854.854	4032
854.988	3941
855.122	4036
855.256	3926
855.39	4025
855.524	4109
855.658	4150
855.792	4109
855.926	4101
856.06	4147
856.194	4242
856.327	4120
856.461	4101
856.595	4185
856.729	4154
856.862	4261
856.996	4246
857.13	4280
857.263	4333
857.397	4329
857.53	4287
857.664	4341
857.797	4390
857.931	4363
858.064	4352
858.197	4428
858.331	4424
858.464	4390
858.597	4375
858.731	4451
858.864	4478
858.997	4447
859.13	4512
859.263	4527
859.396	4615
859.529	4527
859.662	4542
859.795	4535
859.928	4607
860.061	4706
860.194	4721
860.327	4634
860.46	4615
860.592	4744
860.725	4710
860.858	4717
860.99	4710
861.123	4656
861.256	4683
861.388	4793
861.521	5406
861.653	4694
861.786	4656
861.918	4759
862.05	4824
862.183	4820
862.315	4915
862.447	4930
862.58	4866
862.712	4778
862.844	4782
862.976	4885
863.108	4847
863.24	5155
863.372	4828
863.504	4847
863.636	4889
863.768	4938
863.9	4953
864.032	4953
864.164	4961
864.296	4999
864.428	5060
864.559	5071
864.691	5098
864.823	5102
864.954	5113
865.086	5102
865.217	5098
865.349	5045
865.48	5136
865.612	5197
865.743	5299
865.875	5140
866.006	5170
866.137	5231
866.269	5235
866.4	5235
866.531	5288
866.662	5197
866.793	5242
866.924	5250
867.055	5292
867.186	5341
867.317	5353
867.448	5322
867.579	5379
867.71	5391
867.841	5387
867.972	5436
868.103	5463
868.233	5486
868.364	5482
868.495	5554
868.625	5680
868.756	5828
868.886	5623
869.017	5745
869.147	5870
869.278	5870
869.408	5866
869.539	5779
869.669	5920
869.799	5878
869.929	5961
870.06	5965
870.19	6152
870.32	6148
870.45	6270
870.58	6327
870.71	6486
870.84	6429
870.97	6441
871.1	6475
871.23	6616
871.36	6673
871.489	6684
871.619	6791
871.749	6840
871.879	6886
872.008	6932
872.138	6981
872.267	6993
872.397	6951
872.526	7019
872.656	7103
872.785	7194
872.915	7381
873.044	7533
873.173	7491
873.303	7628
873.432	7731
873.561	7906
873.69	7841
873.819	7997
873.948	8126
874.077	8225
874.206	8301
874.335	8450
874.464	8670
874.593	8868
874.722	8876
874.851	9100
874.979	9222
875.108	9336
875.237	9469
875.365	9428
875.494	9622
875.623	9762
875.751	9915
875.88	10017
876.008	10120
876.136	10257
876.265	10611
876.393	10755
876.521	10645
876.65	10820
876.778	10900
876.906	10908
877.034	10984
877.162	11121
877.29	11140
877.418	11341
877.546	11383
877.674	11448
877.802	11402
877.93	11558
878.058	11520
878.185	11566
878.313	11592
878.441	11809
878.568	11596
878.696	11722
878.824	11802
878.951	11935
879.079	12049
879.206	12095
879.333	11980
879.461	12019
879.588	12045
879.715	12011
879.842	12155
879.97	12007
880.097	11908
880.224	11923
880.351	11931
880.478	11882
880.605	11798
880.732	11824
880.859	11999
880.986	11840
881.112	11714
881.239	11737
881.366	11653
881.493	11604
881.619	11459
881.746	11562
881.872	11547
881.999	11493
882.125	11478
882.252	11512
882.378	11490
882.505	11596
882.631	11326
882.757	11368
882.883	11391
883.01	11231
883.136	11235
883.262	11048
883.388	11075
883.514	11208
883.64	11189
883.766	11151
883.892	10915
884.018	10980
884.143	11060
884.269	11098
884.395	10793
884.52	10767
884.646	10744
884.772	10717
884.897	10675
885.023	10683
885.148	10717
885.274	10710
885.399	10641
885.524	10679
885.65	10538
885.775	10580
885.9	10580
886.025	10550
886.15	10607
886.275	10443
886.4	10329
886.525	10390
886.65	10417
886.775	10333
886.9	10527
887.025	10508
887.149	10310
887.274	10234
887.399	10253
887.523	10181
887.648	10135
887.773	10055
887.897	10238
888.021	10185
888.146	10158
888.27	10192
888.395	10242
888.519	10192
888.643	10257
888.767	10169
888.891	10044
889.015	10128
889.139	10029
889.263	10010
889.387	10029
889.511	10135
889.635	10131
889.759	9949
889.883	9987
890.006	9953
890.13	10109
890.254	9991
890.377	9956
890.501	9800
890.624	9857
890.748	9861
890.871	9713
890.995	9743
891.118	9736
891.241	9766
891.364	9724
891.488	9797
891.611	9720
891.734	9667
891.857	9705
891.98	9770
892.103	9701
892.226	9732
892.349	9667
892.471	9511
892.594	9561
892.717	9667
892.839	9549
892.962	9553
893.085	9603
893.207	9572
893.33	9477
893.452	9515
893.575	9587
893.697	9511
893.819	9564
893.941	9625
894.064	9599
894.186	9435
894.308	9435
894.43	9485
894.552	9591
894.674	9530
894.796	9351
894.918	9386
895.04	9348
895.161	9355
895.283	9336
895.405	9237
895.526	9245
895.648	9214
895.769	9176
895.891	9298
896.012	9291
896.134	9127
896.255	9081
896.376	9154
896.498	9173
896.619	9032
896.74	9017
896.861	9062
896.982	9237
897.103	9325
897.224	9161
897.345	9116
897.466	8925
897.587	9055
897.708	9100
897.828	9024
897.949	8986
898.07	8857
898.19	8849
898.311	8960
898.431	8845
898.552	8849
898.672	8952
898.792	8990
898.913	8853
899.033	8834
899.153	8766
899.273	8651
899.393	8727
899.513	8811
899.633	8716
899.753	8739
899.873	8682
899.993	8743
900.113	8705
900.232	8655
900.352	8602
900.472	8598
900.591	8526
900.711	8579
900.83	8492
900.95	8583
901.069	8667
901.189	8632
901.308	8473
901.427	8412
901.546	8400
901.665	8415
901.784	8461
901.904	8381
902.023	8309
902.141	8279
902.26	8244
902.379	8313
902.498	8214
902.617	8259
902.735	8275
902.854	8256
902.973	8263
903.091	8119
903.21	8149
903.328	8134
903.446	8092
903.565	8073
903.683	8134
903.801	8062
903.919	8206
904.038	8142
904.156	8058
904.274	8092
904.392	7997
904.51	7959
904.627	8005
904.745	8069
904.863	8081
904.981	7921
905.098	7864
905.216	7845
905.334	7875
905.451	7868
905.569	7887
905.686	8016
905.803	7860
905.921	7814
906.038	7871
906.155	7712
906.272	7700
906.389	7753
906.506	7597
906.623	7643
906.74	7567
906.857	7529
906.974	7628
907.091	7636
907.208	7769
907.324	7594
907.441	7601
907.557	7445
907.674	7388
907.79	7343
907.907	7396
908.023	7426
908.139	7426
908.256	7403
908.372	7388
908.488	7346
908.604	7282
908.72	7255
908.836	7285
908.952	7274
909.068	7179
909.184	7369
909.3	7228
909.415	7308
909.531	7263
909.647	7107
909.762	7168
909.878	7114
909.993	7107
910.108	7171
910.224	7088
910.339	7129
910.454	7031
910.57	7034
910.685	6943
910.8	7217
910.915	7084
911.03	7046
911.145	6947
911.259	6837
911.374	6871
911.489	6878
911.604	6783
911.718	6772
911.833	6730
911.947	6692
912.062	6608
912.176	6700
912.291	6688
912.405	6677
912.519	6745
912.633	6856
912.748	6779
912.862	6741
912.976	6662
913.09	6525
913.204	6635
913.318	6623
913.431	6696
913.545	6696
913.659	6719
913.772	6623
913.886	6547
914	6494
914.113	6578
914.226	6646
914.34	6635
914.453	6483
914.566	6593
914.68	6502
914.793	6525
914.906	6441
915.019	6407
915.132	6350
915.245	6441
915.358	6391
915.47	6448
915.583	6403
915.696	6441
915.809	6544
915.921	6528
916.034	6475
916.146	6410
916.259	6414
916.371	6483
916.483	6429
916.595	6403
916.708	6361
916.82	6399
916.932	6407
917.044	6346
917.156	6369
917.268	6292
917.38	6327
917.491	6308
917.603	6331
917.715	6414
917.826	6471
917.938	6323
918.049	6277
918.161	6308
918.272	6418
918.384	6391
918.495	6346
918.606	6262
918.717	6201
918.828	6232
918.939	6327
919.05	6205
919.161	6266
919.272	6091
919.383	6155
919.494	6270
919.604	6441
919.715	6277
919.826	6190
919.936	6235
920.047	6270
920.157	6327
920.267	6475
920.378	6289
920.488	6296
920.598	6479
920.708	6525
920.818	6422
920.928	6467
921.038	6566
921.148	6502
921.258	6376
921.368	6311
921.477	6182
921.587	6144
921.697	6057
921.806	6155
921.916	6003
922.025	5931
922.134	5893
922.244	5927
922.353	5946
922.462	5783
922.571	5794
922.68	5680
922.789	5661
922.898	5760
923.007	5619
923.116	5596
923.224	5710
923.333	5630
923.442	5558
923.55	5592
923.659	5566
923.767	5672
923.876	5535
923.984	5634
924.092	5474
924.201	5573
924.309	5581
924.417	5532
924.525	5512
924.633	5471
924.741	6235
924.849	5337
924.956	5452
925.064	5379
925.172	5326
925.279	5326
925.387	5337
925.494	5353
925.602	5406
925.709	5341
925.816	5231
925.924	5315
926.031	5341
926.138	5261
926.245	5288
926.352	5166
926.459	5341
926.566	5303
926.673	5201
926.779	5147
926.886	5113
926.993	5045
927.099	4972
927.206	4965
927.312	4930
927.419	4999
927.525	4976
927.631	4995
927.737	4919
927.843	4831
927.95	4778
928.056	4889
928.162	4831
928.267	4809
928.373	5261
928.479	4866
928.585	4691
928.69	4767
928.796	4831
928.901	4668
929.007	4580
929.112	4706
929.218	4615
929.323	4569
929.428	4535
929.533	4641
929.638	4535
929.743	4558
929.848	4485
929.953	4527
930.058	4459
930.163	4322
930.267	4356
930.372	4424
930.477	4295
930.581	4474
930.685	4394
930.79	4227
930.894	4306
930.998	4200
931.103	4409
931.207	4128
931.311	4067
931.415	4051
931.519	3968
931.623	3945
