Data from glass_V78500241_1622.txt Node
Date: Wed Sep 01 19:25:44 CST 2021
User: usil
Spectrometer: V785-0024
Trigger mode: 0
Integration Time (sec): 4.000000E-1
Scans to average: 1
Nonlinearity correction enabled: false
Boxcar width: 0
Storing dark spectrum: false
XAxis mode: Wavelengths
Number of Pixels in Spectrum: 1024
>>>>>Begin Spectral Data<<<<<
801.071	3770
801.214	3747
801.356	3679
801.499	3751
801.641	3701
801.783	3774
801.926	3850
802.068	3869
802.211	3861
802.353	3876
802.496	3827
802.638	3892
802.78	3880
802.923	3949
803.065	3865
803.208	3888
803.35	3842
803.492	3922
803.635	3911
803.777	3770
803.919	3918
804.061	4124
804.204	3960
804.346	3972
804.488	3907
804.63	4021
804.773	3998
804.915	3998
805.057	4124
805.199	4071
805.341	4109
805.483	4177
805.626	4147
805.768	4116
805.91	4227
806.052	4246
806.194	4207
806.336	4329
806.478	4230
806.62	4154
806.762	4181
806.904	4234
807.046	4341
807.188	4249
807.33	4188
807.472	4261
807.614	4215
807.756	4173
807.898	4211
808.04	4215
808.182	4238
808.324	4341
808.465	4367
808.607	4478
808.749	4447
808.891	4466
809.033	4500
809.174	4424
809.316	4268
809.458	4223
809.6	4143
809.741	4105
809.883	4105
810.025	4211
810.166	4215
810.308	4223
810.45	4215
810.591	4227
810.733	4303
810.875	4516
811.016	4839
811.158	5109
811.299	5242
811.441	5284
811.582	5086
811.724	4710
811.865	4504
812.007	4432
812.148	4409
812.29	4383
812.431	4390
812.573	4409
812.714	4390
812.855	4413
812.997	4375
813.138	4481
813.279	4424
813.421	4390
813.562	4348
813.703	4329
813.845	4322
813.986	4272
814.127	4188
814.268	4253
814.41	4291
814.551	4295
814.692	4306
814.833	4329
814.974	4318
815.115	4360
815.256	4253
815.397	4246
815.539	4238
815.68	4128
815.821	4257
815.962	4287
816.103	4265
816.244	4234
816.385	4265
816.526	4299
816.666	4185
816.807	4139
816.948	4223
817.089	4200
817.23	4109
817.371	4067
817.512	4036
817.653	4059
817.793	4010
817.934	4040
818.075	4112
818.216	4021
818.356	4067
818.497	4021
818.638	3907
818.778	3915
818.919	3922
819.06	3865
819.2	3896
819.341	3865
819.481	3869
819.622	3842
819.762	4013
819.903	3918
820.043	3800
820.184	3831
820.324	3835
820.465	3888
820.605	3869
820.746	3884
820.886	3842
821.026	3922
821.167	3907
821.307	4013
821.447	3972
821.588	3994
821.728	3907
821.868	3934
822.008	3892
822.149	3907
822.289	3911
822.429	3816
822.569	3743
822.709	3827
822.849	3698
822.99	3705
823.13	3770
823.27	3759
823.41	3751
823.55	3690
823.69	3736
823.83	3705
823.97	3644
824.11	3618
824.25	3557
824.389	3610
824.529	3660
824.669	3667
824.809	3701
824.949	3762
825.089	3686
825.228	3667
825.368	3568
825.508	3591
825.648	3587
825.787	3599
825.927	3652
826.067	3606
826.206	3622
826.346	3781
826.485	3838
826.625	3850
826.765	3911
826.904	3804
827.044	3614
827.183	3504
827.323	3443
827.462	3477
827.601	3420
827.741	3428
827.88	3462
828.02	3393
828.159	3435
828.298	3481
828.437	3542
828.577	3447
828.716	3637
828.855	3488
828.994	3420
829.134	3412
829.273	3389
829.412	3310
829.551	3321
829.69	3386
829.829	3401
829.968	3545
830.107	3481
830.246	3386
830.385	3367
830.524	3336
830.663	3260
830.802	3283
830.941	3211
831.08	3157
831.219	3260
831.357	3291
831.496	3382
831.635	3253
831.774	3161
831.913	3203
832.051	3104
832.19	3146
832.329	3173
832.467	3169
832.606	3131
832.744	3218
832.883	3203
833.022	3226
833.16	3294
833.299	3313
833.437	3348
833.576	3363
833.714	3386
833.852	3424
833.991	3500
834.129	3504
834.267	3412
834.406	3382
834.544	3405
834.682	3424
834.821	3412
834.959	3572
835.097	3431
835.235	3507
835.373	3519
835.511	3564
835.65	3458
835.788	3530
835.926	3363
836.064	3393
836.202	3435
836.34	3595
836.478	3584
836.615	3538
836.753	3614
836.891	3663
837.029	3637
837.167	3618
837.305	3519
837.443	3530
837.58	3511
837.718	3591
837.856	3576
837.993	3496
838.131	3584
838.269	3606
838.406	3580
838.544	3576
838.681	3447
838.819	3462
838.956	3351
839.094	3401
839.231	3473
839.369	3534
839.506	3751
839.643	3614
839.781	3500
839.918	3469
840.055	3530
840.193	3534
840.33	3466
840.467	3545
840.604	3625
840.742	3789
840.879	3515
841.016	3561
841.153	3618
841.29	3766
841.427	3717
841.564	3698
841.701	3717
841.838	3679
841.975	3675
842.112	3728
842.249	3648
842.385	3599
842.522	3827
842.659	3690
842.796	3663
842.933	3694
843.069	3698
843.206	3724
843.343	3804
843.479	3774
843.616	3816
843.752	3698
843.889	3705
844.025	3857
844.162	3778
844.298	3831
844.435	3793
844.571	3819
844.708	3937
844.844	3994
844.98	4051
845.117	4032
845.253	3918
845.389	3869
845.525	3953
845.661	3994
845.798	3899
845.934	4036
846.07	3968
846.206	4029
846.342	4131
846.478	4059
846.614	4017
846.75	3968
846.886	3861
847.022	4040
847.158	3987
847.294	3987
847.429	3991
847.565	4032
847.701	4303
847.837	3884
847.972	3846
848.108	3994
848.244	3998
848.379	3816
848.515	3823
848.65	3793
848.786	3819
848.921	3876
849.057	3945
849.192	3949
849.328	3876
849.463	3903
849.598	3892
849.734	3816
849.869	3831
850.004	3762
850.14	3876
850.275	3785
850.41	3736
850.545	3751
850.68	3778
850.815	3823
850.95	3854
851.085	3983
851.22	3876
851.355	3846
851.49	3785
851.625	3808
851.76	3766
851.895	3755
852.03	3724
852.165	3823
852.299	3865
852.434	3922
852.569	3880
852.703	3884
852.838	3918
852.973	3979
853.107	4021
853.242	3892
853.376	3861
853.511	3732
853.645	3827
853.78	3915
853.914	3869
854.048	3953
854.183	3884
854.317	3949
854.451	4082
854.585	3926
854.72	3926
854.854	4036
854.988	3892
855.122	3960
855.256	3941
855.39	3987
855.524	4116
855.658	4090
855.792	4093
855.926	4093
856.06	4147
856.194	4154
856.327	4120
856.461	4120
856.595	4131
856.729	4177
856.862	4314
856.996	4253
857.13	4287
857.263	4291
857.397	4337
857.53	4276
857.664	4363
857.797	4402
857.931	4413
858.064	4436
858.197	4481
858.331	4402
858.464	4386
858.597	4356
858.731	4447
858.864	4462
858.997	4447
859.13	4523
859.263	4497
859.396	4596
859.529	4512
859.662	4500
859.795	4504
859.928	4603
860.061	4759
860.194	4733
860.327	4653
860.46	4626
860.592	4767
860.725	4759
860.858	4790
860.99	4740
861.123	4668
861.256	4721
861.388	4801
861.521	5573
861.653	4702
861.786	4755
861.918	4733
862.05	4831
862.183	4854
862.315	4889
862.447	4885
862.58	4911
862.712	4774
862.844	4801
862.976	4911
863.108	4873
863.24	5292
863.372	4889
863.504	4915
863.636	4938
863.768	4957
863.9	4942
864.032	4934
864.164	4930
864.296	5056
864.428	5079
864.559	5140
864.691	5178
864.823	5132
864.954	5132
865.086	5113
865.217	5170
865.349	5090
865.48	5132
865.612	5178
865.743	5322
865.875	5132
866.006	5223
866.137	5231
866.269	5227
866.4	5265
866.531	5265
866.662	5296
866.793	5280
866.924	5299
867.055	5360
867.186	5368
867.317	5330
867.448	5307
867.579	5379
867.71	5349
867.841	5440
867.972	5440
868.103	5452
868.233	5448
868.364	5482
868.495	5558
868.625	5699
868.756	5752
868.886	5646
869.017	5714
869.147	5748
869.278	5908
869.408	5798
869.539	5824
869.669	5878
869.799	5946
869.929	5946
870.06	6038
870.19	6190
870.32	6190
870.45	6216
870.58	6304
870.71	6467
870.84	6391
870.97	6407
871.1	6475
871.23	6578
871.36	6665
871.489	6703
871.619	6734
871.749	6768
871.879	6913
872.008	6996
872.138	6954
872.267	7053
872.397	6989
872.526	6985
872.656	7084
872.785	7194
872.915	7384
873.044	7552
873.173	7544
873.303	7655
873.432	7765
873.561	7864
873.69	7875
873.819	7997
873.948	8107
874.077	8275
874.206	8271
874.335	8431
874.464	8659
874.593	8891
874.722	8963
874.851	9119
874.979	9211
875.108	9420
875.237	9408
875.365	9462
875.494	9599
875.623	9808
875.751	9800
875.88	10013
876.008	10124
876.136	10230
876.265	10485
876.393	10733
876.521	10736
876.65	10824
876.778	10850
876.906	10904
877.034	11037
877.162	11075
877.29	11174
877.418	11258
877.546	11356
877.674	11349
877.802	11467
877.93	11520
878.058	11585
878.185	11611
878.313	11585
878.441	11695
878.568	11627
878.696	11726
878.824	11805
878.951	11969
879.079	12083
879.206	12125
879.333	12011
879.461	11904
879.588	12129
879.715	12129
879.842	12163
879.97	12015
880.097	11931
880.224	11878
880.351	11889
880.478	11920
880.605	11863
880.732	11809
880.859	11961
880.986	11832
881.112	11813
881.239	11726
881.366	11642
881.493	11646
881.619	11520
881.746	11604
881.872	11501
881.999	11482
882.125	11501
882.252	11524
882.378	11490
882.505	11528
882.631	11448
882.757	11299
882.883	11242
883.01	11258
883.136	11212
883.262	11109
883.388	11140
883.514	11174
883.64	11220
883.766	11140
883.892	10961
884.018	11010
884.143	11041
884.269	11143
884.395	10873
884.52	10763
884.646	10812
884.772	10740
884.897	10630
885.023	10755
885.148	10687
885.274	10820
885.399	10596
885.524	10687
885.65	10584
885.775	10516
885.9	10611
886.025	10535
886.15	10573
886.275	10440
886.4	10390
886.525	10432
886.65	10379
886.775	10367
886.9	10451
887.025	10512
887.149	10363
887.274	10306
887.399	10162
887.523	10253
887.648	10188
887.773	10124
887.897	10211
888.021	10257
888.146	10154
888.27	10223
888.395	10242
888.519	10246
888.643	10276
888.767	10135
888.891	10109
889.015	10090
889.139	10051
889.263	9979
889.387	10090
889.511	10071
889.635	10093
889.759	9895
889.883	9960
890.006	10032
890.13	10131
890.254	9953
890.377	10029
890.501	9873
890.624	9892
890.748	9892
890.871	9892
890.995	9709
891.118	9743
891.241	9785
891.364	9789
891.488	9770
891.611	9774
891.734	9762
891.857	9816
891.98	9698
892.103	9770
892.226	9660
892.349	9667
892.471	9504
892.594	9591
892.717	9709
892.839	9610
892.962	9553
893.085	9629
893.207	9545
893.33	9450
893.452	9584
893.575	9553
893.697	9530
893.819	9610
893.941	9591
894.064	9545
894.186	9386
894.308	9462
894.43	9500
894.552	9564
894.674	9473
894.796	9412
894.918	9462
895.04	9389
895.161	9420
895.283	9283
895.405	9275
895.526	9313
895.648	9283
895.769	9222
895.891	9253
896.012	9310
896.134	9199
896.255	9123
896.376	9146
896.498	9176
896.619	9184
896.74	9104
896.861	9112
896.982	9260
897.103	9287
897.224	9207
897.345	9036
897.466	9032
897.587	8937
897.708	9085
897.828	9100
897.949	8956
898.07	8910
898.19	8872
898.311	9028
898.431	8914
898.552	8929
898.672	8986
898.792	8952
898.913	8906
899.033	8815
899.153	8762
899.273	8629
899.393	8758
899.513	8766
899.633	8746
899.753	8724
899.873	8735
899.993	8727
900.113	8731
900.232	8727
900.352	8659
900.472	8629
900.591	8594
900.711	8602
900.83	8545
900.95	8636
901.069	8750
901.189	8552
901.308	8473
901.427	8366
901.546	8450
901.665	8476
901.784	8507
901.904	8381
902.023	8385
902.141	8267
902.26	8214
902.379	8267
902.498	8225
902.617	8145
902.735	8294
902.854	8309
902.973	8248
903.091	8134
903.21	8180
903.328	8134
903.446	8065
903.565	8081
903.683	8035
903.801	8001
903.919	8111
904.038	8153
904.156	8062
904.274	8100
904.392	8035
904.51	8020
904.627	8035
904.745	8077
904.863	8119
904.981	7955
905.098	7883
905.216	7837
905.334	7917
905.451	7890
905.569	7864
905.686	7871
905.803	7906
905.921	7772
906.038	7830
906.155	7818
906.272	7788
906.389	7731
906.506	7708
906.623	7662
906.74	7643
906.857	7529
906.974	7597
907.091	7639
907.208	7731
907.324	7609
907.441	7578
907.557	7396
907.674	7438
907.79	7422
907.907	7430
908.023	7449
908.139	7449
908.256	7365
908.372	7362
908.488	7331
908.604	7285
908.72	7171
908.836	7278
908.952	7289
909.068	7247
909.184	7343
909.3	7255
909.415	7320
909.531	7247
909.647	7126
909.762	7168
909.878	7095
909.993	7126
910.108	7183
910.224	7095
910.339	7129
910.454	7008
910.57	7000
910.685	6920
910.8	7194
910.915	7091
911.03	6989
911.145	6962
911.259	6878
911.374	6905
911.489	6852
911.604	6818
911.718	6745
911.833	6650
911.947	6639
912.062	6608
912.176	6684
912.291	6700
912.405	6677
912.519	6848
912.633	6840
912.748	6719
912.862	6738
912.976	6631
913.09	6559
913.204	6589
913.318	6631
913.431	6642
913.545	6673
913.659	6669
913.772	6582
913.886	6521
914	6593
914.113	6635
914.226	6589
914.34	6616
914.453	6528
914.566	6604
914.68	6544
914.793	6528
914.906	6422
915.019	6414
915.132	6365
915.245	6414
915.358	6483
915.47	6422
915.583	6486
915.696	6414
915.809	6528
915.921	6570
916.034	6426
916.146	6372
916.259	6407
916.371	6445
916.483	6452
916.595	6395
916.708	6422
916.82	6410
916.932	6403
917.044	6410
917.156	6448
917.268	6323
917.38	6380
917.491	6350
917.603	6380
917.715	6384
917.826	6467
917.938	6342
918.049	6247
918.161	6319
918.272	6403
918.384	6448
918.495	6353
918.606	6270
918.717	6201
918.828	6270
918.939	6304
919.05	6171
919.161	6273
919.272	6106
919.383	6106
919.494	6254
919.604	6429
919.715	6289
919.826	6194
919.936	6327
920.047	6338
920.157	6251
920.267	6448
920.378	6311
920.488	6205
920.598	6426
920.708	6570
920.818	6460
920.928	6502
921.038	6650
921.148	6544
921.258	6380
921.368	6323
921.477	6197
921.587	6136
921.697	6068
921.806	6220
921.916	6087
922.025	5950
922.134	5897
922.244	5832
922.353	5996
922.462	5855
922.571	5794
922.68	5729
922.789	5684
922.898	5680
923.007	5547
923.116	5714
923.224	5619
923.333	5695
923.442	5604
923.55	5596
923.659	5520
923.767	5707
923.876	5520
923.984	5600
924.092	5543
924.201	5566
924.309	5539
924.417	5551
924.525	5493
924.633	5463
924.741	6327
924.849	5349
924.956	5478
925.064	5360
925.172	5364
925.279	5315
925.387	5349
925.494	5360
925.602	5444
925.709	5402
925.816	5284
925.924	5315
926.031	5349
926.138	5284
926.245	5345
926.352	5261
926.459	5315
926.566	5292
926.673	5201
926.779	5159
926.886	5143
926.993	5048
927.099	5045
927.206	4984
927.312	4965
927.419	5033
927.525	4976
927.631	4984
927.737	4904
927.843	4820
927.95	4820
928.056	4839
928.162	4812
928.267	4862
928.373	5364
928.479	4854
928.585	4694
928.69	4774
928.796	4733
928.901	4706
929.007	4603
929.112	4641
929.218	4611
929.323	4588
929.428	4580
929.533	4691
929.638	4519
929.743	4516
929.848	4554
929.953	4535
930.058	4413
930.163	4360
930.267	4341
930.372	4398
930.477	4310
930.581	4489
930.685	4344
930.79	4284
930.894	4268
930.998	4276
931.103	4428
931.207	4120
931.311	4051
931.415	4029
931.519	3934
931.623	3934
