Data from glass_V78500241_1645.txt Node
Date: Wed Sep 01 19:25:54 CST 2021
User: usil
Spectrometer: V785-0024
Trigger mode: 0
Integration Time (sec): 4.000000E-1
Scans to average: 1
Nonlinearity correction enabled: false
Boxcar width: 0
Storing dark spectrum: false
XAxis mode: Wavelengths
Number of Pixels in Spectrum: 1024
>>>>>Begin Spectral Data<<<<<
801.071	3766
801.214	3740
801.356	3717
801.499	3762
801.641	3766
801.783	3800
801.926	3861
802.068	3842
802.211	3865
802.353	3892
802.496	3819
802.638	3896
802.78	3869
802.923	3922
803.065	3857
803.208	3892
803.35	3899
803.492	3876
803.635	3907
803.777	3800
803.919	3865
804.061	4169
804.204	3964
804.346	3968
804.488	3956
804.63	4059
804.773	4002
804.915	4032
805.057	4139
805.199	4071
805.341	4105
805.483	4128
805.626	4131
805.768	4116
805.91	4211
806.052	4177
806.194	4215
806.336	4352
806.478	4200
806.62	4173
806.762	4200
806.904	4276
807.046	4337
807.188	4211
807.33	4204
807.472	4261
807.614	4173
807.756	4268
807.898	4166
808.04	4234
808.182	4276
808.324	4318
808.465	4386
808.607	4455
808.749	4455
808.891	4497
809.033	4432
809.174	4421
809.316	4249
809.458	4291
809.6	4200
809.741	4135
809.883	4166
810.025	4177
810.166	4219
810.308	4230
810.45	4246
810.591	4192
810.733	4272
810.875	4504
811.016	4790
811.158	5166
811.299	5299
811.441	5235
811.582	5022
811.724	4675
811.865	4497
812.007	4493
812.148	4417
812.29	4398
812.431	4375
812.573	4432
812.714	4363
812.855	4459
812.997	4447
813.138	4481
813.279	4424
813.421	4432
813.562	4402
813.703	4352
813.845	4299
813.986	4249
814.127	4234
814.268	4272
814.41	4310
814.551	4287
814.692	4322
814.833	4265
814.974	4367
815.115	4348
815.256	4261
815.397	4215
815.539	4253
815.68	4196
815.821	4204
815.962	4318
816.103	4265
816.244	4234
816.385	4230
816.526	4253
816.666	4230
816.807	4105
816.948	4162
817.089	4135
817.23	4112
817.371	4051
817.512	4067
817.653	4116
817.793	4025
817.934	4040
818.075	4097
818.216	4090
818.356	4074
818.497	3953
818.638	3903
818.778	3918
818.919	3922
819.06	3838
819.2	3934
819.341	3880
819.481	3857
819.622	3873
819.762	4040
819.903	3926
820.043	3850
820.184	3827
820.324	3808
820.465	3880
820.605	3869
820.746	3816
820.886	3835
821.026	3911
821.167	3941
821.307	3911
821.447	4002
821.588	3937
821.728	3945
821.868	3918
822.008	3888
822.149	3941
822.289	3896
822.429	3804
822.569	3740
822.709	3770
822.849	3694
822.99	3728
823.13	3743
823.27	3785
823.41	3694
823.55	3736
823.69	3713
823.83	3778
823.97	3675
824.11	3591
824.25	3629
824.389	3652
824.529	3660
824.669	3644
824.809	3740
824.949	3724
825.089	3732
825.228	3667
825.368	3591
825.508	3572
825.648	3576
825.787	3614
825.927	3671
826.067	3663
826.206	3671
826.346	3785
826.485	3804
826.625	3835
826.765	3953
826.904	3873
827.044	3641
827.183	3534
827.323	3477
827.462	3447
827.601	3439
827.741	3393
827.88	3450
828.02	3401
828.159	3416
828.298	3469
828.437	3568
828.577	3458
828.716	3587
828.855	3492
828.994	3428
829.134	3359
829.273	3370
829.412	3389
829.551	3317
829.69	3386
829.829	3439
829.968	3481
830.107	3450
830.246	3439
830.385	3389
830.524	3329
830.663	3310
830.802	3245
830.941	3214
831.08	3169
831.219	3272
831.357	3268
831.496	3428
831.635	3253
831.774	3199
831.913	3207
832.051	3123
832.19	3150
832.329	3218
832.467	3146
832.606	3093
832.744	3173
832.883	3192
833.022	3173
833.16	3211
833.299	3306
833.437	3321
833.576	3397
833.714	3401
833.852	3435
833.991	3485
834.129	3481
834.267	3401
834.406	3450
834.544	3420
834.682	3401
834.821	3401
834.959	3576
835.097	3431
835.235	3542
835.373	3488
835.511	3466
835.65	3454
835.788	3485
835.926	3389
836.064	3412
836.202	3428
836.34	3614
836.478	3610
836.615	3549
836.753	3576
836.891	3641
837.029	3622
837.167	3622
837.305	3568
837.443	3553
837.58	3530
837.718	3614
837.856	3507
837.993	3530
838.131	3614
838.269	3553
838.406	3561
838.544	3557
838.681	3431
838.819	3443
838.956	3367
839.094	3382
839.231	3485
839.369	3519
839.506	3755
839.643	3603
839.781	3473
839.918	3507
840.055	3553
840.193	3515
840.33	3557
840.467	3557
840.604	3595
840.742	3823
840.879	3545
841.016	3576
841.153	3591
841.29	3743
841.427	3709
841.564	3705
841.701	3740
841.838	3740
841.975	3671
842.112	3740
842.249	3644
842.385	3618
842.522	3823
842.659	3663
842.796	3720
842.933	3686
843.069	3701
843.206	3698
843.343	3846
843.479	3770
843.616	3831
843.752	3671
843.889	3705
844.025	3831
844.162	3736
844.298	3854
844.435	3778
844.571	3759
844.708	3907
844.844	4013
844.98	4048
845.117	3975
845.253	3991
845.389	3911
845.525	3964
845.661	3953
845.798	3941
845.934	3987
846.07	4029
846.206	4036
846.342	4093
846.478	4067
846.614	3903
846.75	3903
846.886	3918
847.022	3975
847.158	4021
847.294	4036
847.429	4029
847.565	4006
847.701	4295
847.837	3911
847.972	3884
848.108	3930
848.244	4002
848.379	3850
848.515	3778
848.65	3808
848.786	3835
848.921	3892
849.057	3937
849.192	3960
849.328	3899
849.463	3964
849.598	3865
849.734	3819
849.869	3842
850.004	3827
850.14	3827
850.275	3785
850.41	3759
850.545	3747
850.68	3789
850.815	3785
850.95	3770
851.085	3968
851.22	3842
851.355	3892
851.49	3781
851.625	3762
851.76	3781
851.895	3759
852.03	3732
852.165	3789
852.299	3835
852.434	3915
852.569	3880
852.703	3865
852.838	3941
852.973	3968
853.107	4013
853.242	3869
853.376	3804
853.511	3793
853.645	3831
853.78	3972
853.914	3907
854.048	3903
854.183	3884
854.317	3945
854.451	4032
854.585	3956
854.72	3953
854.854	4055
854.988	3937
855.122	3983
855.256	3930
855.39	4021
855.524	4131
855.658	4147
855.792	4124
855.926	4147
856.06	4207
856.194	4192
856.327	4150
856.461	4150
856.595	4154
856.729	4181
856.862	4295
856.996	4223
857.13	4280
857.263	4299
857.397	4398
857.53	4272
857.664	4363
857.797	4428
857.931	4402
858.064	4421
858.197	4459
858.331	4375
858.464	4405
858.597	4394
858.731	4459
858.864	4462
858.997	4485
859.13	4512
859.263	4577
859.396	4573
859.529	4497
859.662	4485
859.795	4516
859.928	4645
860.061	4714
860.194	4698
860.327	4618
860.46	4611
860.592	4740
860.725	4774
860.858	4755
860.99	4656
861.123	4744
861.256	4702
861.388	4812
861.521	5372
861.653	4664
861.786	4714
861.918	4706
862.05	4740
862.183	4850
862.315	4885
862.447	4961
862.58	4847
862.712	4790
862.844	4786
862.976	4866
863.108	4850
863.24	5212
863.372	4839
863.504	4904
863.636	4915
863.768	4961
863.9	4946
864.032	4949
864.164	4938
864.296	4999
864.428	5018
864.559	5121
864.691	5109
864.823	5086
864.954	5105
865.086	5109
865.217	5079
865.349	5086
865.48	5128
865.612	5185
865.743	5311
865.875	5185
866.006	5220
866.137	5269
866.269	5204
866.4	5223
866.531	5216
866.662	5261
866.793	5284
866.924	5280
867.055	5364
867.186	5322
867.317	5334
867.448	5334
867.579	5349
867.71	5379
867.841	5391
867.972	5493
868.103	5436
868.233	5497
868.364	5535
868.495	5558
868.625	5684
868.756	5729
868.886	5691
869.017	5726
869.147	5863
869.278	5870
869.408	5805
869.539	5836
869.669	5908
869.799	5923
869.929	5996
870.06	6030
870.19	6163
870.32	6155
870.45	6281
870.58	6342
870.71	6456
870.84	6494
870.97	6445
871.1	6448
871.23	6620
871.36	6722
871.489	6673
871.619	6734
871.749	6821
871.879	6818
872.008	6962
872.138	7012
872.267	7034
872.397	6951
872.526	7076
872.656	7118
872.785	7187
872.915	7411
873.044	7502
873.173	7540
873.303	7685
873.432	7742
873.561	7822
873.69	7947
873.819	8043
873.948	8176
874.077	8191
874.206	8343
874.335	8469
874.464	8663
874.593	8872
874.722	8941
874.851	9135
874.979	9283
875.108	9405
875.237	9435
875.365	9515
875.494	9629
875.623	9831
875.751	9850
875.88	10017
876.008	10162
876.136	10344
876.265	10485
876.393	10736
876.521	10683
876.65	10839
876.778	10835
876.906	10847
877.034	10961
877.162	11094
877.29	11159
877.418	11318
877.546	11334
877.674	11353
877.802	11474
877.93	11501
878.058	11543
878.185	11589
878.313	11672
878.441	11745
878.568	11642
878.696	11821
878.824	11805
878.951	11965
879.079	11977
879.206	12125
879.333	12003
879.461	11897
879.588	12034
879.715	12060
879.842	12330
879.97	12091
880.097	11851
880.224	11874
880.351	11920
880.478	11840
880.605	11786
880.732	11737
880.859	12034
880.986	11813
881.112	11863
881.239	11756
881.366	11615
881.493	11600
881.619	11585
881.746	11573
881.872	11585
881.999	11532
882.125	11482
882.252	11490
882.378	11425
882.505	11474
882.631	11364
882.757	11265
882.883	11364
883.01	11273
883.136	11181
883.262	11124
883.388	11143
883.514	11246
883.64	11166
883.766	11143
883.892	11090
884.018	11022
884.143	11128
884.269	11140
884.395	10850
884.52	10797
884.646	10752
884.772	10687
884.897	10660
885.023	10725
885.148	10725
885.274	10748
885.399	10691
885.524	10649
885.65	10626
885.775	10694
885.9	10592
886.025	10588
886.15	10618
886.275	10417
886.4	10459
886.525	10432
886.65	10405
886.775	10303
886.9	10459
887.025	10516
887.149	10363
887.274	10268
887.399	10200
887.523	10105
887.648	10166
887.773	10051
887.897	10238
888.021	10204
888.146	10128
888.27	10268
888.395	10249
888.519	10128
888.643	10185
888.767	10173
888.891	10074
889.015	9968
889.139	10128
889.263	9964
889.387	10017
889.511	10082
889.635	10067
889.759	9930
889.883	9918
890.006	10006
890.13	10078
890.254	9937
890.377	10010
890.501	9854
890.624	9823
890.748	9949
890.871	9835
890.995	9793
891.118	9690
891.241	9736
891.364	9675
891.488	9819
891.611	9717
891.734	9736
891.857	9690
891.98	9656
892.103	9797
892.226	9648
892.349	9682
892.471	9580
892.594	9599
892.717	9637
892.839	9603
892.962	9610
893.085	9572
893.207	9557
893.33	9526
893.452	9523
893.575	9641
893.697	9538
893.819	9728
893.941	9591
894.064	9576
894.186	9424
894.308	9420
894.43	9561
894.552	9580
894.674	9488
894.796	9405
894.918	9397
895.04	9386
895.161	9412
895.283	9348
895.405	9287
895.526	9241
895.648	9249
895.769	9249
895.891	9218
896.012	9214
896.134	9211
896.255	9211
896.376	9165
896.498	9165
896.619	9142
896.74	9036
896.861	9116
896.982	9291
897.103	9348
897.224	9142
897.345	9085
897.466	8967
897.587	9036
897.708	9142
897.828	9001
897.949	8952
898.07	8804
898.19	8944
898.311	9028
898.431	8868
898.552	8956
898.672	8960
898.792	8918
898.913	8914
899.033	8766
899.153	8823
899.273	8674
899.393	8651
899.513	8750
899.633	8750
899.753	8701
899.873	8678
899.993	8739
900.113	8636
900.232	8655
900.352	8613
900.472	8644
900.591	8602
900.711	8598
900.83	8552
900.95	8640
901.069	8743
901.189	8568
901.308	8431
901.427	8393
901.546	8400
901.665	8434
901.784	8495
901.904	8450
902.023	8351
902.141	8183
902.26	8210
902.379	8275
902.498	8225
902.617	8164
902.735	8305
902.854	8240
902.973	8279
903.091	8130
903.21	8187
903.328	8130
903.446	8142
903.565	8069
903.683	8058
903.801	8024
903.919	8111
904.038	8062
904.156	8065
904.274	8134
904.392	8035
904.51	8123
904.627	8054
904.745	8145
904.863	8107
904.981	7932
905.098	7898
905.216	7879
905.334	7906
905.451	7883
905.569	7913
905.686	7913
905.803	7860
905.921	7757
906.038	7852
906.155	7727
906.272	7696
906.389	7727
906.506	7658
906.623	7586
906.74	7681
906.857	7548
906.974	7590
907.091	7651
907.208	7651
907.324	7578
907.441	7594
907.557	7453
907.674	7491
907.79	7407
907.907	7339
908.023	7419
908.139	7419
908.256	7327
908.372	7400
908.488	7282
908.604	7259
908.72	7202
908.836	7194
908.952	7244
909.068	7213
909.184	7335
909.3	7244
909.415	7316
909.531	7350
909.647	7145
909.762	7091
909.878	7057
909.993	7149
910.108	7129
910.224	7107
910.339	7061
910.454	7088
910.57	6966
910.685	6970
910.8	7183
910.915	7069
911.03	7084
911.145	6954
911.259	6867
911.374	6882
911.489	6802
911.604	6802
911.718	6677
911.833	6730
911.947	6665
912.062	6616
912.176	6646
912.291	6745
912.405	6703
912.519	6779
912.633	6825
912.748	6757
912.862	6639
912.976	6669
913.09	6544
913.204	6631
913.318	6612
913.431	6726
913.545	6654
913.659	6696
913.772	6635
913.886	6566
914	6574
914.113	6650
914.226	6563
914.34	6574
914.453	6475
914.566	6646
914.68	6517
914.793	6574
914.906	6388
915.019	6467
915.132	6365
915.245	6391
915.358	6410
915.47	6448
915.583	6483
915.696	6475
915.809	6540
915.921	6517
916.034	6376
916.146	6456
916.259	6388
916.371	6441
916.483	6445
916.595	6388
916.708	6376
916.82	6403
916.932	6380
917.044	6399
917.156	6369
917.268	6331
917.38	6350
917.491	6350
917.603	6342
917.715	6380
917.826	6422
917.938	6319
918.049	6308
918.161	6323
918.272	6357
918.384	6357
918.495	6350
918.606	6205
918.717	6197
918.828	6315
918.939	6319
919.05	6194
919.161	6289
919.272	6182
919.383	6205
919.494	6292
919.604	6369
919.715	6258
919.826	6201
919.936	6311
920.047	6304
920.157	6243
920.267	6445
920.378	6296
920.488	6315
920.598	6471
920.708	6639
920.818	6471
920.928	6483
921.038	6650
921.148	6578
921.258	6357
921.368	6323
921.477	6247
921.587	6194
921.697	6121
921.806	6121
921.916	6064
922.025	5901
922.134	5897
922.244	5897
922.353	5977
922.462	5828
922.571	5809
922.68	5707
922.789	5688
922.898	5680
923.007	5619
923.116	5668
923.224	5710
923.333	5676
923.442	5608
923.55	5589
923.659	5539
923.767	5630
923.876	5482
923.984	5653
924.092	5505
924.201	5589
924.309	5615
924.417	5512
924.525	5532
924.633	5528
924.741	6300
924.849	5364
924.956	5486
925.064	5379
925.172	5296
925.279	5322
925.387	5318
925.494	5345
925.602	5349
925.709	5353
925.816	5292
925.924	5326
926.031	5372
926.138	5280
926.245	5315
926.352	5197
926.459	5277
926.566	5337
926.673	5193
926.779	5143
926.886	5159
926.993	5018
927.099	5003
927.206	4999
927.312	4976
927.419	5029
927.525	5003
927.631	4953
927.737	4892
927.843	4816
927.95	4778
928.056	4778
928.162	4831
928.267	4870
928.373	5334
928.479	4843
928.585	4691
928.69	4793
928.796	4801
928.901	4691
929.007	4516
929.112	4622
929.218	4675
929.323	4603
929.428	4580
929.533	4694
929.638	4561
929.743	4554
929.848	4508
929.953	4500
930.058	4428
930.163	4310
930.267	4356
930.372	4440
930.477	4299
930.581	4493
930.685	4360
930.79	4253
930.894	4280
930.998	4188
931.103	4386
931.207	4120
931.311	4071
931.415	4078
931.519	3911
931.623	3911
