Data from glass_V78500241_2415.txt Node
Date: Wed Sep 01 19:31:14 CST 2021
User: usil
Spectrometer: V785-0024
Trigger mode: 0
Integration Time (sec): 4.000000E-1
Scans to average: 1
Nonlinearity correction enabled: false
Boxcar width: 0
Storing dark spectrum: false
XAxis mode: Wavelengths
Number of Pixels in Spectrum: 1024
>>>>>Begin Spectral Data<<<<<
801.071	3740
801.214	3755
801.356	3667
801.499	3713
801.641	3663
801.783	3766
801.926	3884
802.068	3835
802.211	3831
802.353	3888
802.496	3804
802.638	3892
802.78	3903
802.923	3926
803.065	3907
803.208	3808
803.35	3869
803.492	3922
803.635	3926
803.777	3785
803.919	3907
804.061	4124
804.204	3968
804.346	3983
804.488	3922
804.63	4040
804.773	3991
804.915	4010
805.057	4120
805.199	4006
805.341	4082
805.483	4101
805.626	4105
805.768	4131
805.91	4223
806.052	4246
806.194	4204
806.336	4352
806.478	4230
806.62	4162
806.762	4188
806.904	4242
807.046	4348
807.188	4207
807.33	4166
807.472	4234
807.614	4215
807.756	4227
807.898	4135
808.04	4234
808.182	4253
808.324	4284
808.465	4337
808.607	4424
808.749	4455
808.891	4421
809.033	4500
809.174	4405
809.316	4280
809.458	4207
809.6	4154
809.741	4162
809.883	4112
810.025	4169
810.166	4207
810.308	4207
810.45	4238
810.591	4268
810.733	4287
810.875	4512
811.016	4820
811.158	5117
811.299	5261
811.441	5265
811.582	5121
811.724	4656
811.865	4443
812.007	4474
812.148	4462
812.29	4398
812.431	4390
812.573	4375
812.714	4447
812.855	4383
812.997	4379
813.138	4478
813.279	4409
813.421	4367
813.562	4386
813.703	4303
813.845	4265
813.986	4200
814.127	4215
814.268	4287
814.41	4303
814.551	4238
814.692	4329
814.833	4249
814.974	4272
815.115	4325
815.256	4284
815.397	4261
815.539	4265
815.68	4154
815.821	4219
815.962	4284
816.103	4261
816.244	4223
816.385	4196
816.526	4261
816.666	4177
816.807	4090
816.948	4173
817.089	4143
817.23	4101
817.371	4044
817.512	4055
817.653	4036
817.793	4025
817.934	4082
818.075	4105
818.216	4071
818.356	4051
818.497	3991
818.638	3888
818.778	3865
818.919	3850
819.06	3835
819.2	3934
819.341	3884
819.481	3819
819.622	3896
819.762	3972
819.903	3953
820.043	3846
820.184	3816
820.324	3819
820.465	3884
820.605	3861
820.746	3850
820.886	3759
821.026	3918
821.167	3911
821.307	3972
821.447	3987
821.588	3953
821.728	3926
821.868	3907
822.008	3888
822.149	3865
822.289	3857
822.429	3804
822.569	3743
822.709	3759
822.849	3690
822.99	3694
823.13	3766
823.27	3751
823.41	3698
823.55	3736
823.69	3755
823.83	3694
823.97	3675
824.11	3606
824.25	3603
824.389	3603
824.529	3652
824.669	3629
824.809	3679
824.949	3724
825.089	3751
825.228	3667
825.368	3564
825.508	3545
825.648	3557
825.787	3576
825.927	3584
826.067	3614
826.206	3663
826.346	3755
826.485	3850
826.625	3907
826.765	3953
826.904	3812
827.044	3606
827.183	3500
827.323	3458
827.462	3519
827.601	3405
827.741	3462
827.88	3450
828.02	3355
828.159	3435
828.298	3477
828.437	3511
828.577	3447
828.716	3622
828.855	3500
828.994	3397
829.134	3332
829.273	3397
829.412	3348
829.551	3329
829.69	3405
829.829	3420
829.968	3511
830.107	3412
830.246	3450
830.385	3374
830.524	3367
830.663	3283
830.802	3264
830.941	3169
831.08	3165
831.219	3222
831.357	3214
831.496	3409
831.635	3237
831.774	3188
831.913	3203
832.051	3100
832.19	3119
832.329	3192
832.467	3119
832.606	3116
832.744	3165
832.883	3154
833.022	3203
833.16	3207
833.299	3291
833.437	3355
833.576	3332
833.714	3382
833.852	3435
833.991	3485
834.129	3454
834.267	3397
834.406	3409
834.544	3424
834.682	3435
834.821	3382
834.959	3534
835.097	3412
835.235	3504
835.373	3488
835.511	3488
835.65	3492
835.788	3424
835.926	3397
836.064	3397
836.202	3431
836.34	3519
836.478	3568
836.615	3564
836.753	3584
836.891	3663
837.029	3633
837.167	3591
837.305	3564
837.443	3549
837.58	3462
837.718	3557
837.856	3568
837.993	3477
838.131	3622
838.269	3564
838.406	3595
838.544	3576
838.681	3443
838.819	3435
838.956	3329
839.094	3405
839.231	3409
839.369	3454
839.506	3724
839.643	3576
839.781	3492
839.918	3428
840.055	3515
840.193	3523
840.33	3511
840.467	3561
840.604	3549
840.742	3804
840.879	3561
841.016	3530
841.153	3568
841.29	3720
841.427	3690
841.564	3732
841.701	3717
841.838	3694
841.975	3663
842.112	3682
842.249	3606
842.385	3568
842.522	3793
842.659	3701
842.796	3682
842.933	3694
843.069	3701
843.206	3667
843.343	3762
843.479	3766
843.616	3747
843.752	3698
843.889	3675
844.025	3846
844.162	3724
844.298	3827
844.435	3778
844.571	3736
844.708	3930
844.844	3937
844.98	3998
845.117	3998
845.253	3934
845.389	3865
845.525	3911
845.661	3907
845.798	3911
845.934	4025
846.07	3907
846.206	4029
846.342	4082
846.478	4059
846.614	3960
846.75	3953
846.886	3857
847.022	4029
847.158	3945
847.294	3983
847.429	3972
847.565	4010
847.701	4196
847.837	3915
847.972	3857
848.108	3953
848.244	3998
848.379	3816
848.515	3842
848.65	3766
848.786	3819
848.921	3907
849.057	3941
849.192	3949
849.328	3873
849.463	3934
849.598	3857
849.734	3850
849.869	3865
850.004	3816
850.14	3842
850.275	3755
850.41	3717
850.545	3755
850.68	3766
850.815	3808
850.95	3816
851.085	3922
851.22	3850
851.355	3800
851.49	3789
851.625	3785
851.76	3774
851.895	3728
852.03	3743
852.165	3797
852.299	3850
852.434	3876
852.569	3876
852.703	3838
852.838	3964
852.973	3956
853.107	3979
853.242	3911
853.376	3812
853.511	3816
853.645	3823
853.78	3922
853.914	3873
854.048	3907
854.183	3842
854.317	3953
854.451	4051
854.585	3918
854.72	3941
854.854	4006
854.988	3941
855.122	4025
855.256	3949
855.39	3975
855.524	4063
855.658	4101
855.792	4078
855.926	4139
856.06	4128
856.194	4204
856.327	4131
856.461	4135
856.595	4101
856.729	4207
856.862	4230
856.996	4238
857.13	4299
857.263	4360
857.397	4310
857.53	4280
857.664	4367
857.797	4394
857.931	4447
858.064	4394
858.197	4447
858.331	4398
858.464	4390
858.597	4348
858.731	4402
858.864	4421
858.997	4481
859.13	4489
859.263	4554
859.396	4607
859.529	4504
859.662	4535
859.795	4489
859.928	4622
860.061	4668
860.194	4729
860.327	4660
860.46	4592
860.592	4729
860.725	4797
860.858	4755
860.99	4660
861.123	4668
861.256	4706
861.388	4774
861.521	5520
861.653	4687
861.786	4702
861.918	4698
862.05	4763
862.183	4820
862.315	4828
862.447	4919
862.58	4877
862.712	4736
862.844	4755
862.976	4889
863.108	4885
863.24	5220
863.372	4839
863.504	4900
863.636	4908
863.768	4930
863.9	5006
864.032	4911
864.164	4934
864.296	5075
864.428	5136
864.559	5079
864.691	5109
864.823	5117
864.954	5086
865.086	5079
865.217	5197
865.349	5079
865.48	5162
865.612	5162
865.743	5258
865.875	5193
866.006	5162
866.137	5284
866.269	5204
866.4	5231
866.531	5227
866.662	5212
866.793	5223
866.924	5299
867.055	5269
867.186	5337
867.317	5254
867.448	5322
867.579	5364
867.71	5368
867.841	5391
867.972	5501
868.103	5471
868.233	5482
868.364	5493
868.495	5611
868.625	5672
868.756	5794
868.886	5653
869.017	5748
869.147	5847
869.278	5847
869.408	5832
869.539	5790
869.669	5920
869.799	5851
869.929	5988
870.06	6011
870.19	6205
870.32	6136
870.45	6285
870.58	6361
870.71	6437
870.84	6448
870.97	6456
871.1	6441
871.23	6646
871.36	6719
871.489	6669
871.619	6753
871.749	6700
871.879	6814
872.008	6993
872.138	6962
872.267	6985
872.397	6951
872.526	7038
872.656	7133
872.785	7164
872.915	7339
873.044	7540
873.173	7487
873.303	7594
873.432	7784
873.561	7822
873.69	7871
873.819	8027
873.948	8149
874.077	8294
874.206	8313
874.335	8438
874.464	8636
874.593	8845
874.722	8910
874.851	9039
874.979	9218
875.108	9428
875.237	9363
875.365	9523
875.494	9625
875.623	9781
875.751	9800
875.88	10013
876.008	10139
876.136	10246
876.265	10512
876.393	10691
876.521	10702
876.65	10824
876.778	10831
876.906	10843
877.034	10942
877.162	11109
877.29	11170
877.418	11261
877.546	11292
877.674	11391
877.802	11471
877.93	11558
878.058	11497
878.185	11528
878.313	11589
878.441	11714
878.568	11600
878.696	11737
878.824	11828
878.951	12007
879.079	11969
879.206	12133
879.333	12068
879.461	12011
879.588	12053
879.715	12064
879.842	12190
879.97	12095
880.097	11897
880.224	11824
880.351	11832
880.478	11874
880.605	11847
880.732	11805
880.859	11984
880.986	11783
881.112	11760
881.239	11764
881.366	11657
881.493	11600
881.619	11570
881.746	11615
881.872	11497
881.999	11585
882.125	11478
882.252	11619
882.378	11440
882.505	11490
882.631	11296
882.757	11299
882.883	11250
883.01	11322
883.136	11079
883.262	11090
883.388	11056
883.514	11128
883.64	11147
883.766	11071
883.892	11014
884.018	10995
884.143	11018
884.269	11052
884.395	10850
884.52	10790
884.646	10812
884.772	10714
884.897	10660
885.023	10618
885.148	10767
885.274	10797
885.399	10603
885.524	10634
885.65	10603
885.775	10565
885.9	10546
886.025	10538
886.15	10523
886.275	10497
886.4	10367
886.525	10440
886.65	10371
886.775	10356
886.9	10459
887.025	10569
887.149	10303
887.274	10204
887.399	10154
887.523	10227
887.648	10143
887.773	10150
887.897	10318
888.021	10192
888.146	10093
888.27	10211
888.395	10147
888.519	10169
888.643	10147
888.767	10188
888.891	10101
889.015	10006
889.139	10040
889.263	9941
889.387	10116
889.511	10173
889.635	10010
889.759	9941
889.883	9964
890.006	9956
890.13	10135
890.254	9922
890.377	9888
890.501	9861
890.624	9816
890.748	9892
890.871	9793
890.995	9736
891.118	9663
891.241	9732
891.364	9698
891.488	9823
891.611	9732
891.734	9713
891.857	9720
891.98	9732
892.103	9728
892.226	9724
892.349	9648
892.471	9523
892.594	9549
892.717	9584
892.839	9610
892.962	9656
893.085	9682
893.207	9595
893.33	9466
893.452	9481
893.575	9671
893.697	9492
893.819	9660
893.941	9591
894.064	9641
894.186	9382
894.308	9408
894.43	9481
894.552	9595
894.674	9542
894.796	9325
894.918	9351
895.04	9313
895.161	9363
895.283	9317
895.405	9180
895.526	9245
895.648	9313
895.769	9237
895.891	9294
896.012	9325
896.134	9180
896.255	9203
896.376	9112
896.498	9146
896.619	9173
896.74	9039
896.861	9062
896.982	9161
897.103	9275
897.224	9161
897.345	9093
897.466	9009
897.587	8948
897.708	9135
897.828	9032
897.949	8948
898.07	8766
898.19	8887
898.311	9036
898.431	8807
898.552	8925
898.672	9005
898.792	8883
898.913	8834
899.033	8762
899.153	8750
899.273	8655
899.393	8686
899.513	8727
899.633	8754
899.753	8838
899.873	8693
899.993	8693
900.113	8720
900.232	8720
900.352	8655
900.472	8583
900.591	8583
900.711	8579
900.83	8594
900.95	8716
901.069	8686
901.189	8522
901.308	8461
901.427	8370
901.546	8377
901.665	8526
901.784	8518
901.904	8366
902.023	8286
902.141	8210
902.26	8183
902.379	8256
902.498	8183
902.617	8202
902.735	8362
902.854	8271
902.973	8286
903.091	8100
903.21	8126
903.328	8172
903.446	8103
903.565	8058
903.683	8130
903.801	8054
903.919	8103
904.038	8107
904.156	8050
904.274	8027
904.392	7959
904.51	8016
904.627	8081
904.745	8024
904.863	8103
904.981	7944
905.098	7814
905.216	7856
905.334	7898
905.451	7944
905.569	7841
905.686	7894
905.803	7978
905.921	7761
906.038	7890
906.155	7746
906.272	7731
906.389	7658
906.506	7674
906.623	7636
906.74	7613
906.857	7548
906.974	7616
907.091	7681
907.208	7681
907.324	7628
907.441	7540
907.557	7468
907.674	7422
907.79	7384
907.907	7362
908.023	7407
908.139	7403
908.256	7362
908.372	7335
908.488	7312
908.604	7346
908.72	7187
908.836	7236
908.952	7137
909.068	7259
909.184	7297
909.3	7244
909.415	7221
909.531	7183
909.647	7129
909.762	7156
909.878	7065
909.993	7156
910.108	7046
910.224	7012
910.339	7099
910.454	7050
910.57	6993
910.685	6954
910.8	7175
910.915	7095
911.03	6958
911.145	6943
911.259	6844
911.374	6932
911.489	6795
911.604	6814
911.718	6707
911.833	6726
911.947	6654
912.062	6601
912.176	6711
912.291	6703
912.405	6673
912.519	6802
912.633	6783
912.748	6745
912.862	6677
912.976	6578
913.09	6620
913.204	6601
913.318	6555
913.431	6669
913.545	6642
913.659	6665
913.772	6642
913.886	6509
914	6494
914.113	6551
914.226	6639
914.34	6566
914.453	6502
914.566	6559
914.68	6525
914.793	6460
914.906	6410
915.019	6334
915.132	6315
915.245	6353
915.358	6429
915.47	6422
915.583	6429
915.696	6448
915.809	6479
915.921	6486
916.034	6448
916.146	6414
916.259	6384
916.371	6490
916.483	6433
916.595	6388
916.708	6418
916.82	6346
916.932	6388
917.044	6334
917.156	6380
917.268	6296
917.38	6319
917.491	6323
917.603	6319
917.715	6380
917.826	6338
917.938	6319
918.049	6251
918.161	6285
918.272	6414
918.384	6441
918.495	6327
918.606	6190
918.717	6159
918.828	6205
918.939	6300
919.05	6201
919.161	6239
919.272	6079
919.383	6194
919.494	6224
919.604	6464
919.715	6277
919.826	6247
919.936	6235
920.047	6308
920.157	6285
920.267	6445
920.378	6300
920.488	6220
920.598	6426
920.708	6513
920.818	6433
920.928	6486
921.038	6635
921.148	6597
921.258	6308
921.368	6239
921.477	6186
921.587	6167
921.697	6076
921.806	6159
921.916	6030
922.025	5980
922.134	5855
922.244	5874
922.353	5942
922.462	5832
922.571	5817
922.68	5657
922.789	5707
922.898	5676
923.007	5623
923.116	5722
923.224	5627
923.333	5684
923.442	5543
923.55	5551
923.659	5585
923.767	5589
923.876	5493
923.984	5608
924.092	5478
924.201	5543
924.309	5566
924.417	5539
924.525	5497
924.633	5493
924.741	6235
924.849	5334
924.956	5417
925.064	5357
925.172	5341
925.279	5277
925.387	5353
925.494	5322
925.602	5410
925.709	5337
925.816	5242
925.924	5326
926.031	5353
926.138	5265
926.245	5334
926.352	5227
926.459	5288
926.566	5372
926.673	5201
926.779	5159
926.886	5147
926.993	5037
927.099	5037
927.206	4972
927.312	4995
927.419	5064
927.525	4968
927.631	5010
927.737	4862
927.843	4828
927.95	4763
928.056	4809
928.162	4816
928.267	4854
928.373	5269
928.479	4866
928.585	4725
928.69	4771
928.796	4763
928.901	4668
929.007	4577
929.112	4706
929.218	4664
929.323	4558
929.428	4558
929.533	4641
929.638	4538
929.743	4546
929.848	4580
929.953	4485
930.058	4413
930.163	4291
930.267	4306
930.372	4398
930.477	4325
930.581	4462
930.685	4329
930.79	4234
930.894	4257
930.998	4185
931.103	4390
931.207	4135
931.311	4086
931.415	4013
931.519	3941
931.623	3907
