Data from glass_V78500241_1849.txt Node
Date: Wed Sep 01 19:27:19 CST 2021
User: usil
Spectrometer: V785-0024
Trigger mode: 0
Integration Time (sec): 4.000000E-1
Scans to average: 1
Nonlinearity correction enabled: false
Boxcar width: 0
Storing dark spectrum: false
XAxis mode: Wavelengths
Number of Pixels in Spectrum: 1024
>>>>>Begin Spectral Data<<<<<
801.071	3720
801.214	3762
801.356	3747
801.499	3717
801.641	3720
801.783	3755
801.926	3854
802.068	3899
802.211	3846
802.353	3888
802.496	3819
802.638	3865
802.78	3884
802.923	3937
803.065	3873
803.208	3842
803.35	3873
803.492	3892
803.635	3941
803.777	3797
803.919	3861
804.061	4150
804.204	3903
804.346	3983
804.488	3911
804.63	4078
804.773	4002
804.915	4006
805.057	4097
805.199	4048
805.341	4036
805.483	4135
805.626	4071
805.768	4131
805.91	4200
806.052	4272
806.194	4177
806.336	4348
806.478	4200
806.62	4230
806.762	4173
806.904	4276
807.046	4341
807.188	4249
807.33	4139
807.472	4268
807.614	4181
807.756	4227
807.898	4200
808.04	4234
808.182	4261
808.324	4299
808.465	4405
808.607	4443
808.749	4470
808.891	4470
809.033	4519
809.174	4432
809.316	4253
809.458	4234
809.6	4135
809.741	4154
809.883	4131
810.025	4230
810.166	4238
810.308	4204
810.45	4230
810.591	4257
810.733	4337
810.875	4443
811.016	4805
811.158	5098
811.299	5246
811.441	5307
811.582	5048
811.724	4675
811.865	4512
812.007	4451
812.148	4440
812.29	4413
812.431	4405
812.573	4413
812.714	4390
812.855	4375
812.997	4436
813.138	4527
813.279	4394
813.421	4375
813.562	4379
813.703	4322
813.845	4333
813.986	4272
814.127	4242
814.268	4257
814.41	4268
814.551	4253
814.692	4337
814.833	4287
814.974	4310
815.115	4348
815.256	4272
815.397	4234
815.539	4261
815.68	4173
815.821	4272
815.962	4303
816.103	4280
816.244	4211
816.385	4265
816.526	4287
816.666	4215
816.807	4116
816.948	4192
817.089	4177
817.23	4162
817.371	4044
817.512	4010
817.653	4059
817.793	4051
817.934	4051
818.075	4101
818.216	4010
818.356	4074
818.497	4017
818.638	3911
818.778	3930
818.919	3922
819.06	3850
819.2	3911
819.341	3842
819.481	3800
819.622	3865
819.762	4036
819.903	3926
820.043	3850
820.184	3838
820.324	3831
820.465	3857
820.605	3816
820.746	3854
820.886	3793
821.026	3930
821.167	3876
821.307	3953
821.447	3918
821.588	3903
821.728	3896
821.868	3915
822.008	3903
822.149	3876
822.289	3930
822.429	3778
822.569	3747
822.709	3819
822.849	3701
822.99	3709
823.13	3770
823.27	3785
823.41	3709
823.55	3728
823.69	3736
823.83	3755
823.97	3641
824.11	3591
824.25	3572
824.389	3625
824.529	3652
824.669	3625
824.809	3686
824.949	3804
825.089	3701
825.228	3724
825.368	3580
825.508	3568
825.648	3549
825.787	3591
825.927	3667
826.067	3618
826.206	3660
826.346	3789
826.485	3781
826.625	3880
826.765	3953
826.904	3823
827.044	3580
827.183	3538
827.323	3424
827.462	3462
827.601	3473
827.741	3447
827.88	3424
828.02	3393
828.159	3416
828.298	3496
828.437	3526
828.577	3462
828.716	3599
828.855	3469
828.994	3382
829.134	3397
829.273	3367
829.412	3332
829.551	3272
829.69	3382
829.829	3450
829.968	3500
830.107	3477
830.246	3439
830.385	3374
830.524	3344
830.663	3310
830.802	3241
830.941	3192
831.08	3207
831.219	3291
831.357	3272
831.496	3416
831.635	3260
831.774	3199
831.913	3176
832.051	3127
832.19	3146
832.329	3222
832.467	3135
832.606	3089
832.744	3165
832.883	3176
833.022	3192
833.16	3272
833.299	3283
833.437	3351
833.576	3363
833.714	3428
833.852	3428
833.991	3443
834.129	3504
834.267	3450
834.406	3409
834.544	3409
834.682	3435
834.821	3374
834.959	3557
835.097	3424
835.235	3576
835.373	3496
835.511	3469
835.65	3454
835.788	3473
835.926	3397
836.064	3374
836.202	3428
836.34	3553
836.478	3599
836.615	3530
836.753	3629
836.891	3648
837.029	3606
837.167	3610
837.305	3561
837.443	3530
837.58	3496
837.718	3625
837.856	3561
837.993	3500
838.131	3576
838.269	3584
838.406	3557
838.544	3606
838.681	3477
838.819	3473
838.956	3386
839.094	3389
839.231	3447
839.369	3545
839.506	3709
839.643	3591
839.781	3507
839.918	3469
840.055	3496
840.193	3530
840.33	3496
840.467	3545
840.604	3614
840.742	3797
840.879	3519
841.016	3545
841.153	3618
841.29	3755
841.427	3709
841.564	3740
841.701	3751
841.838	3682
841.975	3686
842.112	3679
842.249	3644
842.385	3591
842.522	3842
842.659	3663
842.796	3698
842.933	3701
843.069	3709
843.206	3717
843.343	3808
843.479	3759
843.616	3785
843.752	3671
843.889	3663
844.025	3869
844.162	3740
844.298	3850
844.435	3759
844.571	3785
844.708	3869
844.844	3945
844.98	4032
845.117	3987
845.253	3896
845.389	3892
845.525	3987
845.661	3983
845.798	3903
845.934	4017
846.07	3945
846.206	4063
846.342	4188
846.478	4067
846.614	3918
846.75	3945
846.886	3915
847.022	4013
847.158	3968
847.294	4025
847.429	4006
847.565	3972
847.701	4196
847.837	3876
847.972	3869
848.108	3975
848.244	3975
848.379	3816
848.515	3823
848.65	3812
848.786	3816
848.921	3842
849.057	3945
849.192	3937
849.328	3850
849.463	3873
849.598	3861
849.734	3888
849.869	3804
850.004	3785
850.14	3808
850.275	3846
850.41	3740
850.545	3781
850.68	3770
850.815	3774
850.95	3770
851.085	3960
851.22	3857
851.355	3823
851.49	3797
851.625	3793
851.76	3755
851.895	3732
852.03	3762
852.165	3800
852.299	3850
852.434	3884
852.569	3884
852.703	3880
852.838	3934
852.973	3998
853.107	3987
853.242	3835
853.376	3823
853.511	3808
853.645	3831
853.78	3964
853.914	3907
854.048	3899
854.183	3876
854.317	3968
854.451	4055
854.585	3945
854.72	3975
854.854	4006
854.988	3884
855.122	3991
855.256	3934
855.39	4013
855.524	4116
855.658	4074
855.792	4143
855.926	4086
856.06	4173
856.194	4188
856.327	4147
856.461	4086
856.595	4166
856.729	4211
856.862	4276
856.996	4234
857.13	4337
857.263	4360
857.397	4375
857.53	4261
857.664	4375
857.797	4432
857.931	4398
858.064	4409
858.197	4432
858.331	4398
858.464	4386
858.597	4318
858.731	4470
858.864	4489
858.997	4478
859.13	4535
859.263	4527
859.396	4569
859.529	4531
859.662	4561
859.795	4459
859.928	4679
860.061	4717
860.194	4736
860.327	4675
860.46	4687
860.592	4748
860.725	4725
860.858	4759
860.99	4702
861.123	4698
861.256	4641
861.388	4774
861.521	5421
861.653	4679
861.786	4675
861.918	4752
862.05	4805
862.183	4816
862.315	4877
862.447	4908
862.58	4858
862.712	4831
862.844	4763
862.976	4858
863.108	4854
863.24	5235
863.372	4850
863.504	4889
863.636	4904
863.768	4938
863.9	4965
864.032	4911
864.164	4991
864.296	5041
864.428	5079
864.559	5056
864.691	5086
864.823	5075
864.954	5098
865.086	5151
865.217	5128
865.349	5083
865.48	5170
865.612	5162
865.743	5261
865.875	5223
866.006	5151
866.137	5235
866.269	5201
866.4	5239
866.531	5273
866.662	5258
866.793	5273
866.924	5299
867.055	5311
867.186	5307
867.317	5315
867.448	5318
867.579	5360
867.71	5410
867.841	5376
867.972	5467
868.103	5486
868.233	5524
868.364	5490
868.495	5528
868.625	5707
868.756	5809
868.886	5649
869.017	5748
869.147	5836
869.278	5870
869.408	5786
869.539	5870
869.669	5863
869.799	5855
869.929	6022
870.06	5996
870.19	6194
870.32	6201
870.45	6281
870.58	6372
870.71	6384
870.84	6528
870.97	6384
871.1	6448
871.23	6726
871.36	6646
871.489	6722
871.619	6749
871.749	6825
871.879	6871
872.008	7019
872.138	6989
872.267	7042
872.397	6981
872.526	7034
872.656	7084
872.785	7232
872.915	7305
873.044	7537
873.173	7521
873.303	7636
873.432	7727
873.561	7784
873.69	7830
873.819	7940
873.948	8157
874.077	8305
874.206	8343
874.335	8518
874.464	8587
874.593	8842
874.722	8914
874.851	9047
874.979	9264
875.108	9408
875.237	9374
875.365	9481
875.494	9625
875.623	9812
875.751	9804
875.88	9987
876.008	10109
876.136	10204
876.265	10466
876.393	10691
876.521	10733
876.65	10858
876.778	10858
876.906	10949
877.034	10881
877.162	11124
877.29	11193
877.418	11311
877.546	11341
877.674	11402
877.802	11440
877.93	11505
878.058	11581
878.185	11505
878.313	11646
878.441	11741
878.568	11661
878.696	11741
878.824	11893
878.951	11851
879.079	12045
879.206	12076
879.333	12072
879.461	11980
879.588	11958
879.715	12087
879.842	12182
879.97	12083
880.097	11882
880.224	11847
880.351	11908
880.478	11882
880.605	11805
880.732	11836
880.859	12041
880.986	11783
881.112	11893
881.239	11756
881.366	11714
881.493	11589
881.619	11478
881.746	11554
881.872	11551
881.999	11505
882.125	11463
882.252	11566
882.378	11478
882.505	11573
882.631	11330
882.757	11356
882.883	11307
883.01	11231
883.136	11170
883.262	11083
883.388	11162
883.514	11208
883.64	11155
883.766	11124
883.892	11056
884.018	10953
884.143	11083
884.269	11143
884.395	10854
884.52	10740
884.646	10805
884.772	10717
884.897	10702
885.023	10630
885.148	10793
885.274	10816
885.399	10698
885.524	10702
885.65	10546
885.775	10546
885.9	10546
886.025	10672
886.15	10573
886.275	10440
886.4	10409
886.525	10417
886.65	10394
886.775	10303
886.9	10417
887.025	10497
887.149	10280
887.274	10284
887.399	10185
887.523	10227
887.648	10105
887.773	10135
887.897	10257
888.021	10196
888.146	10135
888.27	10280
888.395	10215
888.519	10207
888.643	10147
888.767	10238
888.891	10124
889.015	9953
889.139	10017
889.263	9994
889.387	10044
889.511	10006
889.635	10063
889.759	9979
889.883	9964
890.006	10013
890.13	10105
890.254	9934
890.377	9979
890.501	9816
890.624	9873
890.748	9903
890.871	9838
890.995	9747
891.118	9736
891.241	9816
891.364	9728
891.488	9842
891.611	9690
891.734	9732
891.857	9800
891.98	9755
892.103	9671
892.226	9698
892.349	9755
892.471	9572
892.594	9549
892.717	9622
892.839	9561
892.962	9606
893.085	9641
893.207	9572
893.33	9568
893.452	9515
893.575	9595
893.697	9515
893.819	9618
893.941	9595
894.064	9584
894.186	9462
894.308	9477
894.43	9469
894.552	9564
894.674	9500
894.796	9310
894.918	9408
895.04	9389
895.161	9386
895.283	9317
895.405	9233
895.526	9211
895.648	9199
895.769	9268
895.891	9230
896.012	9348
896.134	9211
896.255	9157
896.376	9142
896.498	9207
896.619	9142
896.74	9070
896.861	9077
896.982	9298
897.103	9249
897.224	9203
897.345	9020
897.466	8998
897.587	8960
897.708	9085
897.828	8967
897.949	8956
898.07	8842
898.19	8872
898.311	8998
898.431	8910
898.552	8975
898.672	8956
898.792	8883
898.913	8899
899.033	8811
899.153	8777
899.273	8670
899.393	8750
899.513	8705
899.633	8724
899.753	8678
899.873	8708
899.993	8746
900.113	8720
900.232	8762
900.352	8670
900.472	8613
900.591	8579
900.711	8587
900.83	8560
900.95	8651
901.069	8727
901.189	8598
901.308	8450
901.427	8469
901.546	8514
901.665	8492
901.784	8556
901.904	8385
902.023	8317
902.141	8191
902.26	8206
902.379	8267
902.498	8214
902.617	8210
902.735	8317
902.854	8279
902.973	8301
903.091	8149
903.21	8180
903.328	8202
903.446	8050
903.565	8039
903.683	8062
903.801	8062
903.919	8111
904.038	8161
904.156	8035
904.274	8088
904.392	8115
904.51	8012
904.627	8012
904.745	8062
904.863	8100
904.981	7936
905.098	7826
905.216	7833
905.334	7967
905.451	7856
905.569	7871
905.686	7887
905.803	7913
905.921	7803
906.038	7845
906.155	7780
906.272	7734
906.389	7765
906.506	7658
906.623	7616
906.74	7597
906.857	7548
906.974	7529
907.091	7594
907.208	7719
907.324	7647
907.441	7601
907.557	7510
907.674	7518
907.79	7350
907.907	7400
908.023	7400
908.139	7464
908.256	7396
908.372	7282
908.488	7335
908.604	7259
908.72	7187
908.836	7259
908.952	7247
909.068	7301
909.184	7327
909.3	7240
909.415	7301
909.531	7305
909.647	7110
909.762	7114
909.878	7065
909.993	7145
910.108	7095
910.224	7084
910.339	7095
910.454	7015
910.57	6973
910.685	6966
910.8	7152
910.915	7103
911.03	7057
911.145	6935
911.259	6928
911.374	6856
911.489	6802
911.604	6795
911.718	6726
911.833	6753
911.947	6604
912.062	6593
912.176	6730
912.291	6620
912.405	6669
912.519	6798
912.633	6818
912.748	6738
912.862	6662
912.976	6589
913.09	6551
913.204	6616
913.318	6620
913.431	6635
913.545	6658
913.659	6688
913.772	6642
913.886	6593
914	6597
914.113	6608
914.226	6650
914.34	6608
914.453	6414
914.566	6623
914.68	6521
914.793	6532
914.906	6418
915.019	6399
915.132	6399
915.245	6418
915.358	6528
915.47	6445
915.583	6475
915.696	6490
915.809	6566
915.921	6532
916.034	6426
916.146	6448
916.259	6418
916.371	6559
916.483	6445
916.595	6414
916.708	6418
916.82	6388
916.932	6346
917.044	6388
917.156	6342
917.268	6327
917.38	6376
917.491	6270
917.603	6353
917.715	6391
917.826	6448
917.938	6323
918.049	6220
918.161	6292
918.272	6388
918.384	6452
918.495	6323
918.606	6232
918.717	6273
918.828	6213
918.939	6258
919.05	6186
919.161	6235
919.272	6140
919.383	6133
919.494	6270
919.604	6464
919.715	6273
919.826	6262
919.936	6262
920.047	6323
920.157	6289
920.267	6467
920.378	6281
920.488	6311
920.598	6357
920.708	6525
920.818	6483
920.928	6369
921.038	6601
921.148	6574
921.258	6376
921.368	6296
921.477	6209
921.587	6205
921.697	6148
921.806	6186
921.916	6064
922.025	5946
922.134	5882
922.244	5882
922.353	5931
922.462	5847
922.571	5786
922.68	5703
922.789	5710
922.898	5718
923.007	5627
923.116	5699
923.224	5665
923.333	5638
923.442	5570
923.55	5573
923.659	5558
923.767	5619
923.876	5558
923.984	5665
924.092	5463
924.201	5524
924.309	5577
924.417	5554
924.525	5512
924.633	5493
924.741	6243
924.849	5383
924.956	5436
925.064	5368
925.172	5273
925.279	5322
925.387	5379
925.494	5383
925.602	5448
925.709	5444
925.816	5273
925.924	5341
926.031	5372
926.138	5334
926.245	5303
926.352	5193
926.459	5353
926.566	5265
926.673	5212
926.779	5113
926.886	5132
926.993	5060
927.099	4976
927.206	4946
927.312	4972
927.419	5048
927.525	4949
927.631	5022
927.737	4927
927.843	4824
927.95	4790
928.056	4778
928.162	4854
928.267	4854
928.373	5265
928.479	4847
928.585	4714
928.69	4778
928.796	4778
928.901	4706
929.007	4599
929.112	4649
929.218	4607
929.323	4615
929.428	4596
929.533	4672
929.638	4531
929.743	4527
929.848	4561
929.953	4493
930.058	4428
930.163	4337
930.267	4284
930.372	4428
930.477	4223
930.581	4432
930.685	4337
930.79	4306
930.894	4257
930.998	4249
931.103	4409
931.207	4150
931.311	4067
931.415	4067
931.519	3930
931.623	3918
