Data from glass_V78500241_1452.txt Node
Date: Wed Sep 01 19:24:33 CST 2021
User: usil
Spectrometer: V785-0024
Trigger mode: 0
Integration Time (sec): 4.000000E-1
Scans to average: 1
Nonlinearity correction enabled: false
Boxcar width: 0
Storing dark spectrum: false
XAxis mode: Wavelengths
Number of Pixels in Spectrum: 1024
>>>>>Begin Spectral Data<<<<<
801.071	3705
801.214	3747
801.356	3724
801.499	3755
801.641	3701
801.783	3762
801.926	3880
802.068	3812
802.211	3804
802.353	3873
802.496	3831
802.638	3854
802.78	3899
802.923	3930
803.065	3896
803.208	3865
803.35	3850
803.492	3903
803.635	3903
803.777	3812
803.919	3865
804.061	4162
804.204	3960
804.346	3991
804.488	3892
804.63	4032
804.773	3972
804.915	3991
805.057	4158
805.199	4025
805.341	4059
805.483	4128
805.626	4082
805.768	4116
805.91	4181
806.052	4242
806.194	4192
806.336	4348
806.478	4211
806.62	4147
806.762	4227
806.904	4246
807.046	4325
807.188	4223
807.33	4158
807.472	4238
807.614	4223
807.756	4261
807.898	4238
808.04	4268
808.182	4291
808.324	4329
808.465	4383
808.607	4478
808.749	4428
808.891	4493
809.033	4500
809.174	4417
809.316	4272
809.458	4204
809.6	4169
809.741	4166
809.883	4147
810.025	4192
810.166	4219
810.308	4238
810.45	4253
810.591	4238
810.733	4280
810.875	4531
811.016	4790
811.158	5151
811.299	5235
811.441	5227
811.582	5083
811.724	4717
811.865	4447
812.007	4424
812.148	4398
812.29	4409
812.431	4417
812.573	4440
812.714	4375
812.855	4413
812.997	4394
813.138	4516
813.279	4363
813.421	4363
813.562	4322
813.703	4306
813.845	4375
813.986	4223
814.127	4249
814.268	4295
814.41	4257
814.551	4238
814.692	4363
814.833	4234
814.974	4291
815.115	4363
815.256	4242
815.397	4192
815.539	4272
815.68	4192
815.821	4169
815.962	4284
816.103	4265
816.244	4238
816.385	4268
816.526	4291
816.666	4215
816.807	4097
816.948	4169
817.089	4200
817.23	4124
817.371	4059
817.512	4044
817.653	4097
817.793	4044
817.934	3991
818.075	4086
818.216	4044
818.356	4067
818.497	4002
818.638	3937
818.778	3934
818.919	3873
819.06	3884
819.2	3949
819.341	3880
819.481	3899
819.622	3926
819.762	4002
819.903	3956
820.043	3876
820.184	3778
820.324	3850
820.465	3861
820.605	3861
820.746	3896
820.886	3816
821.026	3968
821.167	3930
821.307	3994
821.447	3979
821.588	3972
821.728	3975
821.868	3945
822.008	3846
822.149	3918
822.289	3903
822.429	3800
822.569	3774
822.709	3774
822.849	3713
822.99	3720
823.13	3740
823.27	3789
823.41	3709
823.55	3728
823.69	3690
823.83	3747
823.97	3686
824.11	3603
824.25	3603
824.389	3644
824.529	3671
824.669	3610
824.809	3740
824.949	3724
825.089	3709
825.228	3675
825.368	3576
825.508	3538
825.648	3564
825.787	3576
825.927	3629
826.067	3606
826.206	3675
826.346	3781
826.485	3823
826.625	3850
826.765	3941
826.904	3816
827.044	3648
827.183	3534
827.323	3428
827.462	3481
827.601	3469
827.741	3454
827.88	3431
828.02	3378
828.159	3428
828.298	3477
828.437	3511
828.577	3496
828.716	3572
828.855	3496
828.994	3393
829.134	3370
829.273	3370
829.412	3336
829.551	3363
829.69	3393
829.829	3428
829.968	3511
830.107	3412
830.246	3428
830.385	3344
830.524	3374
830.663	3294
830.802	3214
830.941	3211
831.08	3154
831.219	3256
831.357	3264
831.496	3367
831.635	3211
831.774	3173
831.913	3218
832.051	3135
832.19	3173
832.329	3233
832.467	3112
832.606	3127
832.744	3165
832.883	3165
833.022	3195
833.16	3245
833.299	3294
833.437	3306
833.576	3382
833.714	3382
833.852	3416
833.991	3473
834.129	3454
834.267	3477
834.406	3405
834.544	3412
834.682	3443
834.821	3428
834.959	3564
835.097	3443
835.235	3511
835.373	3500
835.511	3507
835.65	3458
835.788	3526
835.926	3416
836.064	3370
836.202	3409
836.34	3603
836.478	3625
836.615	3584
836.753	3595
836.891	3656
837.029	3625
837.167	3572
837.305	3591
837.443	3549
837.58	3542
837.718	3595
837.856	3545
837.993	3564
838.131	3587
838.269	3580
838.406	3591
838.544	3599
838.681	3454
838.819	3454
838.956	3363
839.094	3359
839.231	3473
839.369	3504
839.506	3713
839.643	3644
839.781	3519
839.918	3492
840.055	3526
840.193	3504
840.33	3568
840.467	3580
840.604	3599
840.742	3797
840.879	3580
841.016	3572
841.153	3584
841.29	3755
841.427	3694
841.564	3698
841.701	3732
841.838	3705
841.975	3652
842.112	3671
842.249	3633
842.385	3648
842.522	3873
842.659	3682
842.796	3675
842.933	3709
843.069	3694
843.206	3701
843.343	3854
843.479	3797
843.616	3827
843.752	3679
843.889	3694
844.025	3816
844.162	3736
844.298	3846
844.435	3831
844.571	3781
844.708	3884
844.844	3968
844.98	4010
845.117	3937
845.253	3934
845.389	3884
845.525	3972
845.661	3968
845.798	3930
845.934	3972
846.07	3972
846.206	4044
846.342	4150
846.478	4090
846.614	3964
846.75	3941
846.886	3876
847.022	3998
847.158	3949
847.294	4017
847.429	4017
847.565	3979
847.701	4253
847.837	3918
847.972	3880
848.108	4010
848.244	3991
848.379	3857
848.515	3854
848.65	3842
848.786	3911
848.921	3850
849.057	3915
849.192	3975
849.328	3934
849.463	3899
849.598	3896
849.734	3888
849.869	3819
850.004	3770
850.14	3846
850.275	3823
850.41	3751
850.545	3724
850.68	3781
850.815	3808
850.95	3823
851.085	3922
851.22	3873
851.355	3816
851.49	3785
851.625	3774
851.76	3835
851.895	3713
852.03	3759
852.165	3812
852.299	3869
852.434	3941
852.569	3861
852.703	3880
852.838	3956
852.973	4013
853.107	3994
853.242	3888
853.376	3835
853.511	3797
853.645	3850
853.78	3960
853.914	3884
854.048	3907
854.183	3911
854.317	3945
854.451	4044
854.585	4010
854.72	3918
854.854	4036
854.988	3968
855.122	4025
855.256	3953
855.39	4025
855.524	4147
855.658	4067
855.792	4154
855.926	4097
856.06	4150
856.194	4204
856.327	4112
856.461	4124
856.595	4143
856.729	4181
856.862	4257
856.996	4261
857.13	4352
857.263	4318
857.397	4363
857.53	4291
857.664	4337
857.797	4375
857.931	4451
858.064	4424
858.197	4451
858.331	4417
858.464	4367
858.597	4367
858.731	4455
858.864	4443
858.997	4443
859.13	4500
859.263	4504
859.396	4603
859.529	4504
859.662	4573
859.795	4546
859.928	4584
860.061	4675
860.194	4744
860.327	4668
860.46	4641
860.592	4717
860.725	4778
860.858	4759
860.99	4729
861.123	4687
861.256	4744
861.388	4790
861.521	5326
861.653	4698
861.786	4706
861.918	4736
862.05	4797
862.183	4831
862.315	4904
862.447	4976
862.58	4881
862.712	4812
862.844	4755
862.976	4896
863.108	4866
863.24	5201
863.372	4797
863.504	4892
863.636	4949
863.768	4984
863.9	4946
864.032	4934
864.164	4930
864.296	5033
864.428	5041
864.559	5094
864.691	5105
864.823	5117
864.954	5094
865.086	5102
865.217	5083
865.349	5113
865.48	5170
865.612	5178
865.743	5311
865.875	5216
866.006	5193
866.137	5235
866.269	5204
866.4	5220
866.531	5265
866.662	5212
866.793	5239
866.924	5280
867.055	5315
867.186	5311
867.317	5303
867.448	5311
867.579	5391
867.71	5383
867.841	5448
867.972	5421
868.103	5490
868.233	5459
868.364	5512
868.495	5516
868.625	5668
868.756	5817
868.886	5680
869.017	5714
869.147	5840
869.278	5904
869.408	5783
869.539	5893
869.669	5847
869.799	5912
869.929	5954
870.06	5999
870.19	6182
870.32	6159
870.45	6224
870.58	6365
870.71	6422
870.84	6426
870.97	6475
871.1	6441
871.23	6620
871.36	6684
871.489	6669
871.619	6764
871.749	6829
871.879	6878
872.008	6920
872.138	7012
872.267	7042
872.397	6909
872.526	7080
872.656	7095
872.785	7183
872.915	7415
873.044	7495
873.173	7624
873.303	7670
873.432	7753
873.561	7894
873.69	7947
873.819	8024
873.948	8191
874.077	8233
874.206	8339
874.335	8465
874.464	8621
874.593	8876
874.722	8921
874.851	9123
874.979	9199
875.108	9348
875.237	9443
875.365	9443
875.494	9622
875.623	9850
875.751	9781
875.88	10067
876.008	10143
876.136	10227
876.265	10558
876.393	10622
876.521	10797
876.65	10831
876.778	10847
876.906	10968
877.034	10987
877.162	11056
877.29	11102
877.418	11269
877.546	11440
877.674	11414
877.802	11490
877.93	11505
878.058	11551
878.185	11490
878.313	11596
878.441	11786
878.568	11619
878.696	11798
878.824	11828
878.951	11973
879.079	12034
879.206	12152
879.333	12034
879.461	12003
879.588	12102
879.715	12102
879.842	12117
879.97	12022
880.097	11824
880.224	11958
880.351	11775
880.478	11840
880.605	11752
880.732	11836
880.859	11885
880.986	11805
881.112	11882
881.239	11767
881.366	11676
881.493	11653
881.619	11554
881.746	11604
881.872	11558
881.999	11539
882.125	11463
882.252	11592
882.378	11573
882.505	11611
882.631	11315
882.757	11296
882.883	11296
883.01	11258
883.136	11143
883.262	11140
883.388	11185
883.514	11220
883.64	11208
883.766	11208
883.892	10961
884.018	10999
884.143	11048
884.269	11132
884.395	10946
884.52	10793
884.646	10850
884.772	10698
884.897	10683
885.023	10668
885.148	10653
885.274	10736
885.399	10710
885.524	10691
885.65	10668
885.775	10569
885.9	10584
886.025	10630
886.15	10481
886.275	10516
886.4	10451
886.525	10344
886.65	10352
886.775	10352
886.9	10470
887.025	10500
887.149	10322
887.274	10265
887.399	10204
887.523	10200
887.648	10120
887.773	10109
887.897	10234
888.021	10306
888.146	10086
888.27	10173
888.395	10276
888.519	10162
888.643	10158
888.767	10257
888.891	10048
889.015	10120
889.139	10002
889.263	10067
889.387	10112
889.511	10112
889.635	10059
889.759	9975
889.883	9972
890.006	10032
890.13	10059
890.254	9953
890.377	9979
890.501	9888
890.624	9903
890.748	9895
890.871	9793
890.995	9759
891.118	9823
891.241	9740
891.364	9751
891.488	9907
891.611	9705
891.734	9800
891.857	9797
891.98	9728
892.103	9717
892.226	9736
892.349	9671
892.471	9507
892.594	9568
892.717	9690
892.839	9644
892.962	9625
893.085	9641
893.207	9595
893.33	9515
893.452	9504
893.575	9580
893.697	9511
893.819	9584
893.941	9641
894.064	9561
894.186	9462
894.308	9416
894.43	9557
894.552	9568
894.674	9530
894.796	9397
894.918	9389
895.04	9344
895.161	9329
895.283	9374
895.405	9294
895.526	9199
895.648	9268
895.769	9214
895.891	9233
896.012	9253
896.134	9226
896.255	9176
896.376	9108
896.498	9123
896.619	9180
896.74	9043
896.861	9116
896.982	9268
897.103	9294
897.224	9218
897.345	9112
897.466	8990
897.587	9013
897.708	9135
897.828	9097
897.949	8963
898.07	8861
898.19	8880
898.311	8960
898.431	8834
898.552	8948
898.672	8941
898.792	8944
898.913	8937
899.033	8861
899.153	8785
899.273	8590
899.393	8746
899.513	8705
899.633	8762
899.753	8716
899.873	8651
899.993	8758
900.113	8651
900.232	8701
900.352	8663
900.472	8686
900.591	8541
900.711	8594
900.83	8640
900.95	8674
901.069	8648
901.189	8571
901.308	8465
901.427	8385
901.546	8393
901.665	8454
901.784	8488
901.904	8377
902.023	8324
902.141	8229
902.26	8309
902.379	8343
902.498	8172
902.617	8301
902.735	8309
902.854	8282
902.973	8225
903.091	8065
903.21	8126
903.328	8134
903.446	8119
903.565	8050
903.683	8103
903.801	8111
903.919	8115
904.038	8149
904.156	8039
904.274	8005
904.392	7989
904.51	8073
904.627	7997
904.745	8084
904.863	8027
904.981	7883
905.098	7856
905.216	7845
905.334	7883
905.451	7856
905.569	7906
905.686	7932
905.803	7913
905.921	7742
906.038	7909
906.155	7811
906.272	7765
906.389	7685
906.506	7620
906.623	7628
906.74	7582
906.857	7552
906.974	7597
907.091	7693
907.208	7719
907.324	7647
907.441	7601
907.557	7495
907.674	7430
907.79	7346
907.907	7510
908.023	7438
908.139	7445
908.256	7453
908.372	7403
908.488	7377
908.604	7251
908.72	7221
908.836	7305
908.952	7236
909.068	7335
909.184	7350
909.3	7244
909.415	7270
909.531	7236
909.647	7099
909.762	7061
909.878	7084
909.993	7175
910.108	7133
910.224	7126
910.339	7164
910.454	7050
910.57	6973
910.685	6943
910.8	7145
910.915	7118
911.03	7023
911.145	6916
911.259	6878
911.374	6916
911.489	6810
911.604	6863
911.718	6700
911.833	6745
911.947	6604
912.062	6639
912.176	6688
912.291	6745
912.405	6703
912.519	6806
912.633	6825
912.748	6749
912.862	6711
912.976	6658
913.09	6525
913.204	6517
913.318	6658
913.431	6741
913.545	6715
913.659	6715
913.772	6563
913.886	6604
914	6578
914.113	6650
914.226	6662
914.34	6635
914.453	6513
914.566	6608
914.68	6479
914.793	6536
914.906	6445
915.019	6445
915.132	6426
915.245	6369
915.358	6498
915.47	6475
915.583	6448
915.696	6528
915.809	6563
915.921	6509
916.034	6429
916.146	6418
916.259	6414
916.371	6456
916.483	6452
916.595	6437
916.708	6452
916.82	6380
916.932	6418
917.044	6350
917.156	6399
917.268	6304
917.38	6384
917.491	6327
917.603	6300
917.715	6407
917.826	6437
917.938	6304
918.049	6232
918.161	6331
918.272	6456
918.384	6418
918.495	6372
918.606	6239
918.717	6186
918.828	6285
918.939	6270
919.05	6186
919.161	6220
919.272	6152
919.383	6171
919.494	6285
919.604	6433
919.715	6216
919.826	6251
919.936	6270
920.047	6391
920.157	6308
920.267	6433
920.378	6350
920.488	6281
920.598	6460
920.708	6494
920.818	6452
920.928	6483
921.038	6593
921.148	6536
921.258	6380
921.368	6270
921.477	6239
921.587	6190
921.697	6068
921.806	6186
921.916	6098
922.025	5977
922.134	5927
922.244	5874
922.353	5977
922.462	5882
922.571	5771
922.68	5729
922.789	5688
922.898	5695
923.007	5661
923.116	5737
923.224	5630
923.333	5665
923.442	5585
923.55	5577
923.659	5581
923.767	5615
923.876	5558
923.984	5611
924.092	5493
924.201	5573
924.309	5528
924.417	5539
924.525	5497
924.633	5490
924.741	6095
924.849	5398
924.956	5505
925.064	5349
925.172	5311
925.279	5307
925.387	5349
925.494	5326
925.602	5440
925.709	5334
925.816	5280
925.924	5341
926.031	5383
926.138	5311
926.245	5345
926.352	5208
926.459	5311
926.566	5345
926.673	5170
926.779	5178
926.886	5121
926.993	4995
927.099	4965
927.206	4957
927.312	4987
927.419	4987
927.525	4991
927.631	4984
927.737	4904
927.843	4847
927.95	4820
928.056	4847
928.162	4896
928.267	4892
928.373	5239
928.479	4839
928.585	4729
928.69	4759
928.796	4767
928.901	4653
929.007	4573
929.112	4710
929.218	4668
929.323	4573
929.428	4592
929.533	4660
929.638	4531
929.743	4512
929.848	4580
929.953	4542
930.058	4455
930.163	4337
930.267	4344
930.372	4451
930.477	4322
930.581	4451
930.685	4375
930.79	4242
930.894	4272
930.998	4223
931.103	4413
931.207	4128
931.311	4067
931.415	4055
931.519	3949
931.623	3930
