Data from glass_V78500241_1146.txt Node
Date: Wed Sep 01 19:22:26 CST 2021
User: usil
Spectrometer: V785-0024
Trigger mode: 0
Integration Time (sec): 4.000000E-1
Scans to average: 1
Nonlinearity correction enabled: false
Boxcar width: 0
Storing dark spectrum: false
XAxis mode: Wavelengths
Number of Pixels in Spectrum: 1024
>>>>>Begin Spectral Data<<<<<
801.071	3755
801.214	3781
801.356	3736
801.499	3724
801.641	3770
801.783	3751
801.926	3865
802.068	3854
802.211	3899
802.353	3911
802.496	3835
802.638	3888
802.78	3907
802.923	3964
803.065	3930
803.208	3846
803.35	3857
803.492	3911
803.635	3884
803.777	3819
803.919	3880
804.061	4147
804.204	3956
804.346	3941
804.488	3926
804.63	4025
804.773	3994
804.915	4036
805.057	4147
805.199	4055
805.341	4147
805.483	4139
805.626	4139
805.768	4162
805.91	4246
806.052	4238
806.194	4196
806.336	4348
806.478	4200
806.62	4192
806.762	4188
806.904	4242
807.046	4329
807.188	4215
807.33	4139
807.472	4227
807.614	4230
807.756	4249
807.898	4261
808.04	4185
808.182	4314
808.324	4261
808.465	4360
808.607	4481
808.749	4459
808.891	4493
809.033	4519
809.174	4417
809.316	4265
809.458	4287
809.6	4177
809.741	4147
809.883	4154
810.025	4234
810.166	4200
810.308	4192
810.45	4291
810.591	4246
810.733	4306
810.875	4535
811.016	4828
811.158	5128
811.299	5280
811.441	5288
811.582	5151
811.724	4740
811.865	4535
812.007	4466
812.148	4451
812.29	4432
812.431	4394
812.573	4428
812.714	4409
812.855	4375
812.997	4390
813.138	4489
813.279	4478
813.421	4443
813.562	4405
813.703	4299
813.845	4318
813.986	4291
814.127	4246
814.268	4280
814.41	4318
814.551	4257
814.692	4348
814.833	4306
814.974	4333
815.115	4318
815.256	4238
815.397	4272
815.539	4280
815.68	4177
815.821	4272
815.962	4333
816.103	4299
816.244	4227
816.385	4215
816.526	4306
816.666	4185
816.807	4128
816.948	4196
817.089	4177
817.23	4124
817.371	4055
817.512	4032
817.653	4067
817.793	4048
817.934	4021
818.075	4131
818.216	4082
818.356	4071
818.497	3991
818.638	3945
818.778	3945
818.919	3922
819.06	3873
819.2	3903
819.341	3865
819.481	3831
819.622	3930
819.762	4010
819.903	3968
820.043	3888
820.184	3865
820.324	3854
820.465	3846
820.605	3876
820.746	3892
820.886	3816
821.026	3926
821.167	3899
821.307	3975
821.447	3953
821.588	3975
821.728	3926
821.868	3903
822.008	3884
822.149	3934
822.289	3918
822.429	3857
822.569	3755
822.709	3831
822.849	3717
822.99	3762
823.13	3747
823.27	3781
823.41	3755
823.55	3743
823.69	3728
823.83	3743
823.97	3701
824.11	3576
824.25	3625
824.389	3660
824.529	3656
824.669	3660
824.809	3686
824.949	3766
825.089	3747
825.228	3686
825.368	3603
825.508	3568
825.648	3564
825.787	3606
825.927	3705
826.067	3675
826.206	3682
826.346	3762
826.485	3850
826.625	3861
826.765	3960
826.904	3831
827.044	3599
827.183	3568
827.323	3473
827.462	3496
827.601	3424
827.741	3431
827.88	3458
828.02	3367
828.159	3424
828.298	3504
828.437	3538
828.577	3492
828.716	3641
828.855	3466
828.994	3367
829.134	3374
829.273	3389
829.412	3367
829.551	3336
829.69	3405
829.829	3405
829.968	3507
830.107	3454
830.246	3405
830.385	3378
830.524	3374
830.663	3268
830.802	3272
830.941	3207
831.08	3226
831.219	3253
831.357	3260
831.496	3409
831.635	3218
831.774	3161
831.913	3264
832.051	3157
832.19	3131
832.329	3245
832.467	3127
832.606	3089
832.744	3142
832.883	3173
833.022	3237
833.16	3260
833.299	3268
833.437	3363
833.576	3363
833.714	3397
833.852	3412
833.991	3424
834.129	3477
834.267	3443
834.406	3409
834.544	3439
834.682	3450
834.821	3424
834.959	3587
835.097	3409
835.235	3580
835.373	3504
835.511	3504
835.65	3462
835.788	3485
835.926	3416
836.064	3374
836.202	3412
836.34	3572
836.478	3622
836.615	3545
836.753	3625
836.891	3637
837.029	3610
837.167	3580
837.305	3572
837.443	3526
837.58	3515
837.718	3606
837.856	3515
837.993	3504
838.131	3614
838.269	3561
838.406	3572
838.544	3568
838.681	3500
838.819	3447
838.956	3401
839.094	3378
839.231	3447
839.369	3511
839.506	3759
839.643	3637
839.781	3534
839.918	3447
840.055	3538
840.193	3542
840.33	3553
840.467	3587
840.604	3660
840.742	3797
840.879	3576
841.016	3572
841.153	3599
841.29	3816
841.427	3705
841.564	3724
841.701	3743
841.838	3705
841.975	3648
842.112	3724
842.249	3660
842.385	3641
842.522	3850
842.659	3724
842.796	3679
842.933	3743
843.069	3705
843.206	3698
843.343	3812
843.479	3762
843.616	3846
843.752	3671
843.889	3690
844.025	3899
844.162	3740
844.298	3804
844.435	3797
844.571	3774
844.708	3876
844.844	4010
844.98	4059
845.117	4051
845.253	3907
845.389	3899
845.525	4010
845.661	3953
845.798	3926
845.934	3987
846.07	3964
846.206	4051
846.342	4150
846.478	4086
846.614	3994
846.75	3953
846.886	3930
847.022	4010
847.158	4002
847.294	4002
847.429	4063
847.565	3983
847.701	4211
847.837	3930
847.972	3861
848.108	3979
848.244	3991
848.379	3888
848.515	3778
848.65	3800
848.786	3861
848.921	3888
849.057	3926
849.192	3979
849.328	3907
849.463	3918
849.598	3880
849.734	3846
849.869	3835
850.004	3755
850.14	3857
850.275	3797
850.41	3736
850.545	3724
850.68	3808
850.815	3770
850.95	3816
851.085	3987
851.22	3880
851.355	3808
851.49	3793
851.625	3804
851.76	3808
851.895	3751
852.03	3747
852.165	3819
852.299	3850
852.434	3899
852.569	3873
852.703	3918
852.838	3956
852.973	4002
853.107	4010
853.242	3915
853.376	3846
853.511	3812
853.645	3854
853.78	4006
853.914	3892
854.048	3945
854.183	3857
854.317	3945
854.451	4090
854.585	3998
854.72	3953
854.854	4063
854.988	3987
855.122	4025
855.256	3911
855.39	3994
855.524	4116
855.658	4158
855.792	4143
855.926	4166
856.06	4188
856.194	4223
856.327	4196
856.461	4120
856.595	4166
856.729	4177
856.862	4341
856.996	4257
857.13	4363
857.263	4348
857.397	4402
857.53	4287
857.664	4341
857.797	4386
857.931	4409
858.064	4409
858.197	4470
858.331	4413
858.464	4394
858.597	4325
858.731	4474
858.864	4447
858.997	4451
859.13	4546
859.263	4561
859.396	4603
859.529	4554
859.662	4592
859.795	4550
859.928	4607
860.061	4698
860.194	4805
860.327	4687
860.46	4679
860.592	4721
860.725	4790
860.858	4767
860.99	4687
861.123	4683
861.256	4725
861.388	4763
861.521	5227
861.653	4675
861.786	4691
861.918	4721
862.05	4816
862.183	4839
862.315	4862
862.447	4942
862.58	4908
862.712	4809
862.844	4854
862.976	4908
863.108	4885
863.24	5174
863.372	4820
863.504	4892
863.636	4892
863.768	4942
863.9	4961
864.032	4900
864.164	4965
864.296	5079
864.428	5109
864.559	5086
864.691	5086
864.823	5105
864.954	5094
865.086	5143
865.217	5155
865.349	5166
865.48	5170
865.612	5193
865.743	5307
865.875	5155
866.006	5178
866.137	5265
866.269	5258
866.4	5269
866.531	5201
866.662	5265
866.793	5258
866.924	5303
867.055	5364
867.186	5337
867.317	5357
867.448	5326
867.579	5379
867.71	5387
867.841	5376
867.972	5455
868.103	5433
868.233	5448
868.364	5497
868.495	5554
868.625	5695
868.756	5745
868.886	5676
869.017	5745
869.147	5821
869.278	5885
869.408	5817
869.539	5832
869.669	5969
869.799	5904
869.929	6026
870.06	6045
870.19	6197
870.32	6167
870.45	6300
870.58	6327
870.71	6456
870.84	6532
870.97	6414
871.1	6456
871.23	6593
871.36	6707
871.489	6700
871.619	6757
871.749	6844
871.879	6814
872.008	6996
872.138	6939
872.267	6966
872.397	7019
872.526	7069
872.656	7099
872.785	7221
872.915	7396
873.044	7571
873.173	7586
873.303	7666
873.432	7727
873.561	7902
873.69	7917
873.819	8065
873.948	8138
874.077	8275
874.206	8385
874.335	8522
874.464	8697
874.593	8906
874.722	8982
874.851	9070
874.979	9222
875.108	9374
875.237	9526
875.365	9454
875.494	9610
875.623	9857
875.751	9865
875.88	10025
876.008	10131
876.136	10356
876.265	10558
876.393	10733
876.521	10687
876.65	10805
876.778	10828
876.906	10968
877.034	10987
877.162	11128
877.29	11155
877.418	11299
877.546	11330
877.674	11410
877.802	11433
877.93	11516
878.058	11611
878.185	11497
878.313	11649
878.441	11798
878.568	11699
878.696	11824
878.824	11866
878.951	11954
879.079	12045
879.206	12163
879.333	12117
879.461	11984
879.588	12140
879.715	12167
879.842	12171
879.97	12087
880.097	11893
880.224	11950
880.351	11954
880.478	11859
880.605	11942
880.732	11878
880.859	12087
880.986	11798
881.112	11874
881.239	11790
881.366	11668
881.493	11562
881.619	11573
881.746	11630
881.872	11532
881.999	11482
882.125	11505
882.252	11657
882.378	11539
882.505	11520
882.631	11398
882.757	11353
882.883	11311
883.01	11250
883.136	11269
883.262	11109
883.388	11136
883.514	11231
883.64	11147
883.766	11075
883.892	11041
884.018	10957
884.143	11113
884.269	11128
884.395	10843
884.52	10805
884.646	10748
884.772	10740
884.897	10691
885.023	10698
885.148	10710
885.274	10820
885.399	10637
885.524	10618
885.65	10588
885.775	10489
885.9	10622
886.025	10622
886.15	10527
886.275	10432
886.4	10424
886.525	10470
886.65	10447
886.775	10390
886.9	10386
887.025	10550
887.149	10363
887.274	10253
887.399	10169
887.523	10192
887.648	10173
887.773	10135
887.897	10253
888.021	10257
888.146	10147
888.27	10299
888.395	10185
888.519	10150
888.643	10227
888.767	10227
888.891	10036
889.015	10044
889.139	10063
889.263	9960
889.387	10131
889.511	10196
889.635	10097
889.759	9945
889.883	10055
890.006	10021
890.13	10131
890.254	10006
890.377	9956
890.501	9865
890.624	9884
890.748	9895
890.871	9831
890.995	9812
891.118	9743
891.241	9827
891.364	9698
891.488	9808
891.611	9736
891.734	9759
891.857	9827
891.98	9736
892.103	9797
892.226	9755
892.349	9705
892.471	9534
892.594	9584
892.717	9606
892.839	9622
892.962	9614
893.085	9622
893.207	9564
893.33	9564
893.452	9538
893.575	9523
893.697	9450
893.819	9622
893.941	9610
894.064	9671
894.186	9382
894.308	9401
894.43	9561
894.552	9618
894.674	9576
894.796	9355
894.918	9450
895.04	9344
895.161	9393
895.283	9374
895.405	9233
895.526	9245
895.648	9218
895.769	9283
895.891	9321
896.012	9260
896.134	9245
896.255	9195
896.376	9123
896.498	9127
896.619	9161
896.74	9127
896.861	9176
896.982	9203
897.103	9332
897.224	9165
897.345	9112
897.466	8998
897.587	9108
897.708	9108
897.828	9047
897.949	8994
898.07	8899
898.19	8960
898.311	9051
898.431	8880
898.552	8971
898.672	8986
898.792	8979
898.913	8967
899.033	8785
899.153	8720
899.273	8697
899.393	8686
899.513	8857
899.633	8766
899.753	8678
899.873	8735
899.993	8758
900.113	8758
900.232	8762
900.352	8613
900.472	8602
900.591	8606
900.711	8606
900.83	8610
900.95	8701
901.069	8693
901.189	8579
901.308	8526
901.427	8347
901.546	8488
901.665	8408
901.784	8492
901.904	8362
902.023	8305
902.141	8199
902.26	8180
902.379	8237
902.498	8195
902.617	8221
902.735	8263
902.854	8218
902.973	8244
903.091	8107
903.21	8153
903.328	8161
903.446	8191
903.565	8043
903.683	8123
903.801	7978
903.919	8119
904.038	8180
904.156	8046
904.274	8012
904.392	8012
904.51	8119
904.627	8107
904.745	8077
904.863	8027
904.981	7940
905.098	7830
905.216	7860
905.334	7868
905.451	7845
905.569	7871
905.686	7959
905.803	7928
905.921	7795
906.038	7894
906.155	7799
906.272	7674
906.389	7734
906.506	7681
906.623	7674
906.74	7575
906.857	7537
906.974	7567
907.091	7696
907.208	7677
907.324	7624
907.441	7578
907.557	7422
907.674	7457
907.79	7415
907.907	7377
908.023	7468
908.139	7449
908.256	7350
908.372	7445
908.488	7377
908.604	7228
908.72	7259
908.836	7266
908.952	7282
909.068	7282
909.184	7365
909.3	7206
909.415	7316
909.531	7209
909.647	7175
909.762	7069
909.878	7091
909.993	7126
910.108	7103
910.224	7118
910.339	7107
910.454	7057
910.57	6981
910.685	6985
910.8	7149
910.915	7137
911.03	6989
911.145	6905
911.259	6901
911.374	6856
911.489	6821
911.604	6825
911.718	6692
911.833	6791
911.947	6642
912.062	6608
912.176	6681
912.291	6745
912.405	6707
912.519	6833
912.633	6821
912.748	6776
912.862	6707
912.976	6555
913.09	6559
913.204	6654
913.318	6631
913.431	6738
913.545	6700
913.659	6700
913.772	6658
913.886	6604
914	6509
914.113	6703
914.226	6642
914.34	6646
914.453	6509
914.566	6642
914.68	6506
914.793	6544
914.906	6456
915.019	6422
915.132	6372
915.245	6407
915.358	6456
915.47	6448
915.583	6483
915.696	6471
915.809	6547
915.921	6589
916.034	6460
916.146	6403
916.259	6410
916.371	6464
916.483	6418
916.595	6403
916.708	6426
916.82	6452
916.932	6395
917.044	6467
917.156	6429
917.268	6331
917.38	6376
917.491	6353
917.603	6403
917.715	6403
917.826	6410
917.938	6380
918.049	6235
918.161	6323
918.272	6380
918.384	6433
918.495	6338
918.606	6224
918.717	6266
918.828	6277
918.939	6296
919.05	6201
919.161	6220
919.272	6175
919.383	6148
919.494	6315
919.604	6448
919.715	6273
919.826	6216
919.936	6235
920.047	6296
920.157	6273
920.267	6456
920.378	6369
920.488	6346
920.598	6486
920.708	6506
920.818	6437
920.928	6471
921.038	6631
921.148	6597
921.258	6376
921.368	6292
921.477	6216
921.587	6232
921.697	6087
921.806	6194
921.916	6079
922.025	5942
922.134	5969
922.244	5882
922.353	5973
922.462	5874
922.571	5771
922.68	5710
922.789	5752
922.898	5680
923.007	5627
923.116	5722
923.224	5604
923.333	5707
923.442	5688
923.55	5535
923.659	5554
923.767	5661
923.876	5520
923.984	5604
924.092	5532
924.201	5581
924.309	5554
924.417	5547
924.525	5490
924.633	5535
924.741	6296
924.849	5364
924.956	5467
925.064	5398
925.172	5349
925.279	5315
925.387	5315
925.494	5349
925.602	5376
925.709	5421
925.816	5265
925.924	5353
926.031	5398
926.138	5330
926.245	5349
926.352	5246
926.459	5303
926.566	5337
926.673	5185
926.779	5170
926.886	5159
926.993	5060
927.099	5041
927.206	5018
927.312	4927
927.419	5056
927.525	4995
927.631	5071
927.737	4873
927.843	4927
927.95	4771
928.056	4839
928.162	4824
928.267	4870
928.373	5410
928.479	4908
928.585	4714
928.69	4759
928.796	4763
928.901	4653
929.007	4603
929.112	4694
929.218	4653
929.323	4599
929.428	4550
929.533	4641
929.638	4531
929.743	4546
929.848	4550
929.953	4531
930.058	4421
930.163	4337
930.267	4383
930.372	4447
930.477	4295
930.581	4481
930.685	4375
930.79	4268
930.894	4333
930.998	4265
931.103	4421
931.207	4090
931.311	4097
931.415	4059
931.519	3956
931.623	3960
