Data from glass_V78500241_459.txt Node
Date: Wed Sep 01 19:17:40 CST 2021
User: usil
Spectrometer: V785-0024
Trigger mode: 0
Integration Time (sec): 4.000000E-1
Scans to average: 1
Nonlinearity correction enabled: false
Boxcar width: 0
Storing dark spectrum: false
XAxis mode: Wavelengths
Number of Pixels in Spectrum: 1024
>>>>>Begin Spectral Data<<<<<
801.071	3743
801.214	3774
801.356	3751
801.499	3770
801.641	3724
801.783	3751
801.926	3857
802.068	3838
802.211	3896
802.353	3896
802.496	3831
802.638	3854
802.78	3911
802.923	3926
803.065	3850
803.208	3884
803.35	3838
803.492	3888
803.635	3915
803.777	3835
803.919	3888
804.061	4139
804.204	3979
804.346	3975
804.488	3937
804.63	4025
804.773	3987
804.915	4071
805.057	4154
805.199	4086
805.341	4105
805.483	4131
805.626	4158
805.768	4086
805.91	4257
806.052	4215
806.194	4207
806.336	4333
806.478	4227
806.62	4177
806.762	4230
806.904	4314
807.046	4371
807.188	4257
807.33	4219
807.472	4200
807.614	4188
807.756	4238
807.898	4211
808.04	4257
808.182	4280
808.324	4314
808.465	4371
808.607	4455
808.749	4451
808.891	4481
809.033	4504
809.174	4421
809.316	4268
809.458	4234
809.6	4177
809.741	4181
809.883	4158
810.025	4242
810.166	4238
810.308	4246
810.45	4219
810.591	4242
810.733	4322
810.875	4527
811.016	4752
811.158	5117
811.299	5277
811.441	5315
811.582	5067
811.724	4710
811.865	4474
812.007	4440
812.148	4459
812.29	4428
812.431	4421
812.573	4421
812.714	4360
812.855	4413
812.997	4436
813.138	4447
813.279	4405
813.421	4432
813.562	4360
813.703	4341
813.845	4329
813.986	4272
814.127	4219
814.268	4253
814.41	4272
814.551	4219
814.692	4295
814.833	4291
814.974	4303
815.115	4367
815.256	4299
815.397	4287
815.539	4261
815.68	4234
815.821	4173
815.962	4310
816.103	4295
816.244	4204
816.385	4234
816.526	4284
816.666	4204
816.807	4116
816.948	4185
817.089	4234
817.23	4139
817.371	4082
817.512	4051
817.653	4093
817.793	4029
817.934	4112
818.075	4097
818.216	4101
818.356	4063
818.497	4002
818.638	3899
818.778	3915
818.919	3930
819.06	3899
819.2	3922
819.341	3831
819.481	3846
819.622	3918
819.762	4002
819.903	3991
820.043	3854
820.184	3819
820.324	3808
820.465	3846
820.605	3876
820.746	3892
820.886	3846
821.026	3907
821.167	3903
821.307	3953
821.447	3987
821.588	3979
821.728	4036
821.868	3934
822.008	3892
822.149	3922
822.289	3949
822.429	3793
822.569	3800
822.709	3819
822.849	3698
822.99	3766
823.13	3793
823.27	3816
823.41	3762
823.55	3736
823.69	3713
823.83	3743
823.97	3698
824.11	3610
824.25	3618
824.389	3610
824.529	3679
824.669	3698
824.809	3755
824.949	3781
825.089	3717
825.228	3709
825.368	3610
825.508	3553
825.648	3587
825.787	3591
825.927	3671
826.067	3671
826.206	3682
826.346	3789
826.485	3831
826.625	3896
826.765	3975
826.904	3850
827.044	3587
827.183	3561
827.323	3481
827.462	3507
827.601	3447
827.741	3447
827.88	3454
828.02	3393
828.159	3462
828.298	3504
828.437	3549
828.577	3462
828.716	3614
828.855	3504
828.994	3409
829.134	3340
829.273	3393
829.412	3374
829.551	3340
829.69	3397
829.829	3428
829.968	3545
830.107	3507
830.246	3431
830.385	3378
830.524	3355
830.663	3321
830.802	3245
830.941	3222
831.08	3176
831.219	3264
831.357	3287
831.496	3412
831.635	3253
831.774	3180
831.913	3214
832.051	3142
832.19	3176
832.329	3237
832.467	3150
832.606	3074
832.744	3180
832.883	3169
833.022	3226
833.16	3268
833.299	3351
833.437	3378
833.576	3367
833.714	3370
833.852	3397
833.991	3462
834.129	3481
834.267	3447
834.406	3420
834.544	3420
834.682	3454
834.821	3389
834.959	3587
835.097	3401
835.235	3519
835.373	3481
835.511	3553
835.65	3454
835.788	3481
835.926	3405
836.064	3389
836.202	3435
836.34	3538
836.478	3606
836.615	3591
836.753	3618
836.891	3637
837.029	3603
837.167	3595
837.305	3584
837.443	3580
837.58	3530
837.718	3591
837.856	3618
837.993	3542
838.131	3618
838.269	3576
838.406	3580
838.544	3587
838.681	3458
838.819	3477
838.956	3401
839.094	3420
839.231	3412
839.369	3564
839.506	3720
839.643	3622
839.781	3557
839.918	3485
840.055	3530
840.193	3523
840.33	3572
840.467	3553
840.604	3656
840.742	3816
840.879	3545
841.016	3587
841.153	3584
841.29	3747
841.427	3736
841.564	3736
841.701	3762
841.838	3747
841.975	3686
842.112	3709
842.249	3660
842.385	3652
842.522	3831
842.659	3682
842.796	3671
842.933	3717
843.069	3732
843.206	3736
843.343	3785
843.479	3781
843.616	3816
843.752	3656
843.889	3675
844.025	3873
844.162	3713
844.298	3857
844.435	3816
844.571	3766
844.708	3888
844.844	3994
844.98	4017
845.117	4048
845.253	3941
845.389	3930
845.525	3968
845.661	3972
845.798	3930
845.934	4036
846.07	3991
846.206	4055
846.342	4112
846.478	4010
846.614	4025
846.75	3998
846.886	3911
847.022	4051
847.158	3953
847.294	3953
847.429	4002
847.565	3987
847.701	4207
847.837	3922
847.972	3854
848.108	4021
848.244	3968
848.379	3888
848.515	3846
848.65	3842
848.786	3869
848.921	3850
849.057	3911
849.192	3941
849.328	3956
849.463	3934
849.598	3869
849.734	3831
849.869	3838
850.004	3766
850.14	3819
850.275	3827
850.41	3759
850.545	3759
850.68	3793
850.815	3778
850.95	3819
851.085	3949
851.22	3888
851.355	3873
851.49	3835
851.625	3762
851.76	3823
851.895	3732
852.03	3720
852.165	3823
852.299	3880
852.434	3945
852.569	3907
852.703	3899
852.838	3953
852.973	3991
853.107	3987
853.242	3949
853.376	3850
853.511	3827
853.645	3850
853.78	3998
853.914	3934
854.048	3903
854.183	3876
854.317	3991
854.451	4109
854.585	3987
854.72	3960
854.854	4071
854.988	3937
855.122	3998
855.256	3880
855.39	4010
855.524	4135
855.658	4112
855.792	4120
855.926	4139
856.06	4181
856.194	4257
856.327	4207
856.461	4116
856.595	4154
856.729	4154
856.862	4287
856.996	4230
857.13	4276
857.263	4390
857.397	4337
857.53	4306
857.664	4367
857.797	4394
857.931	4390
858.064	4409
858.197	4478
858.331	4428
858.464	4379
858.597	4337
858.731	4497
858.864	4474
858.997	4436
859.13	4519
859.263	4577
859.396	4607
859.529	4531
859.662	4580
859.795	4508
859.928	4599
860.061	4687
860.194	4782
860.327	4679
860.46	4607
860.592	4797
860.725	4774
860.858	4782
860.99	4710
861.123	4683
861.256	4687
861.388	4828
861.521	5372
861.653	4660
861.786	4729
861.918	4721
862.05	4831
862.183	4839
862.315	4904
862.447	4953
862.58	4900
862.712	4881
862.844	4759
862.976	4858
863.108	4892
863.24	5201
863.372	4839
863.504	4858
863.636	4885
863.768	4995
863.9	4987
864.032	4919
864.164	4961
864.296	5083
864.428	5109
864.559	5086
864.691	5117
864.823	5136
864.954	5109
865.086	5113
865.217	5105
865.349	5117
865.48	5178
865.612	5208
865.743	5303
865.875	5208
866.006	5212
866.137	5299
866.269	5250
866.4	5284
866.531	5231
866.662	5212
866.793	5284
866.924	5284
867.055	5372
867.186	5379
867.317	5326
867.448	5349
867.579	5391
867.71	5410
867.841	5349
867.972	5459
868.103	5467
868.233	5493
868.364	5547
868.495	5532
868.625	5737
868.756	5813
868.886	5733
869.017	5718
869.147	5840
869.278	5897
869.408	5809
869.539	5756
869.669	5954
869.799	5988
869.929	6015
870.06	6034
870.19	6186
870.32	6216
870.45	6300
870.58	6357
870.71	6441
870.84	6464
870.97	6441
871.1	6452
871.23	6684
871.36	6707
871.489	6673
871.619	6814
871.749	6844
871.879	6875
872.008	6958
872.138	6966
872.267	6973
872.397	6977
872.526	7000
872.656	7095
872.785	7240
872.915	7407
873.044	7586
873.173	7548
873.303	7685
873.432	7628
873.561	7913
873.69	7936
873.819	8016
873.948	8172
874.077	8286
874.206	8282
874.335	8381
874.464	8640
874.593	8918
874.722	8956
874.851	9116
874.979	9253
875.108	9378
875.237	9466
875.365	9488
875.494	9663
875.623	9781
875.751	9800
875.88	9949
876.008	10219
876.136	10268
876.265	10523
876.393	10733
876.521	10683
876.65	10866
876.778	10862
876.906	10938
877.034	11003
877.162	11033
877.29	11216
877.418	11307
877.546	11356
877.674	11406
877.802	11482
877.93	11509
878.058	11452
878.185	11634
878.313	11604
878.441	11722
878.568	11688
878.696	11802
878.824	11859
878.951	11992
879.079	12098
879.206	12220
879.333	12057
879.461	11973
879.588	12117
879.715	12136
879.842	12197
879.97	12129
880.097	11882
880.224	11893
880.351	11958
880.478	11965
880.605	11916
880.732	11889
880.859	11969
880.986	11855
881.112	11893
881.239	11821
881.366	11600
881.493	11638
881.619	11570
881.746	11547
881.872	11490
881.999	11463
882.125	11509
882.252	11581
882.378	11520
882.505	11551
882.631	11349
882.757	11391
882.883	11246
883.01	11292
883.136	11242
883.262	11143
883.388	11048
883.514	11189
883.64	11147
883.766	11041
883.892	10999
884.018	10987
884.143	11052
884.269	11109
884.395	10831
884.52	10831
884.646	10786
884.772	10744
884.897	10683
885.023	10714
885.148	10733
885.274	10660
885.399	10725
885.524	10577
885.65	10653
885.775	10672
885.9	10603
886.025	10611
886.15	10508
886.275	10421
886.4	10443
886.525	10405
886.65	10390
886.775	10367
886.9	10432
887.025	10447
887.149	10405
887.274	10249
887.399	10230
887.523	10139
887.648	10090
887.773	10150
887.897	10280
888.021	10246
888.146	10154
888.27	10268
888.395	10173
888.519	10211
888.643	10154
888.767	10207
888.891	10120
889.015	9987
889.139	10048
889.263	9956
889.387	10048
889.511	10063
889.635	10086
889.759	9983
889.883	10029
890.006	9987
890.13	10109
890.254	10006
890.377	10006
890.501	9861
890.624	9819
890.748	9873
890.871	9800
890.995	9717
891.118	9690
891.241	9808
891.364	9694
891.488	9835
891.611	9701
891.734	9736
891.857	9800
891.98	9751
892.103	9797
892.226	9770
892.349	9701
892.471	9488
892.594	9618
892.717	9648
892.839	9637
892.962	9568
893.085	9671
893.207	9515
893.33	9488
893.452	9492
893.575	9625
893.697	9561
893.819	9667
893.941	9663
894.064	9667
894.186	9504
894.308	9466
894.43	9542
894.552	9629
894.674	9542
894.796	9412
894.918	9420
895.04	9348
895.161	9363
895.283	9363
895.405	9241
895.526	9298
895.648	9211
895.769	9310
895.891	9287
896.012	9195
896.134	9199
896.255	9230
896.376	9081
896.498	9165
896.619	9199
896.74	9074
896.861	9180
896.982	9313
897.103	9344
897.224	9176
897.345	9051
897.466	8895
897.587	9036
897.708	9097
897.828	9085
897.949	8906
898.07	8887
898.19	8944
898.311	9020
898.431	8887
898.552	8967
898.672	8994
898.792	8990
898.913	8929
899.033	8845
899.153	8705
899.273	8743
899.393	8739
899.513	8720
899.633	8743
899.753	8746
899.873	8674
899.993	8758
900.113	8724
900.232	8724
900.352	8613
900.472	8636
900.591	8533
900.711	8617
900.83	8610
900.95	8701
901.069	8724
901.189	8575
901.308	8465
901.427	8457
901.546	8457
901.665	8434
901.784	8511
901.904	8309
902.023	8351
902.141	8240
902.26	8202
902.379	8252
902.498	8244
902.617	8256
902.735	8324
902.854	8298
902.973	8301
903.091	8123
903.21	8183
903.328	8176
903.446	8084
903.565	8126
903.683	8088
903.801	8088
903.919	8157
904.038	8180
904.156	8054
904.274	8035
904.392	7986
904.51	8062
904.627	8054
904.745	8058
904.863	8092
904.981	7860
905.098	7898
905.216	7864
905.334	7921
905.451	7940
905.569	7970
905.686	7883
905.803	7928
905.921	7803
906.038	7894
906.155	7792
906.272	7753
906.389	7753
906.506	7620
906.623	7586
906.74	7613
906.857	7563
906.974	7575
907.091	7719
907.208	7784
907.324	7658
907.441	7613
907.557	7422
907.674	7369
907.79	7388
907.907	7476
908.023	7514
908.139	7472
908.256	7354
908.372	7335
908.488	7373
908.604	7236
908.72	7274
908.836	7308
908.952	7308
909.068	7282
909.184	7305
909.3	7217
909.415	7282
909.531	7316
909.647	7122
909.762	7152
909.878	7099
909.993	7183
910.108	7206
910.224	7038
910.339	7129
910.454	7053
910.57	7042
910.685	6985
910.8	7194
910.915	7057
911.03	7042
911.145	6867
911.259	6886
911.374	6897
911.489	6791
911.604	6837
911.718	6715
911.833	6764
911.947	6627
912.062	6662
912.176	6738
912.291	6779
912.405	6776
912.519	6802
912.633	6848
912.748	6787
912.862	6707
912.976	6559
913.09	6532
913.204	6589
913.318	6654
913.431	6768
913.545	6688
913.659	6688
913.772	6642
913.886	6540
914	6555
914.113	6612
914.226	6612
914.34	6563
914.453	6471
914.566	6669
914.68	6566
914.793	6525
914.906	6426
915.019	6456
915.132	6361
915.245	6429
915.358	6448
915.47	6414
915.583	6490
915.696	6486
915.809	6525
915.921	6528
916.034	6410
916.146	6437
916.259	6388
916.371	6502
916.483	6456
916.595	6399
916.708	6414
916.82	6376
916.932	6395
917.044	6426
917.156	6384
917.268	6323
917.38	6407
917.491	6338
917.603	6376
917.715	6429
917.826	6422
917.938	6323
918.049	6304
918.161	6376
918.272	6494
918.384	6429
918.495	6384
918.606	6296
918.717	6220
918.828	6292
918.939	6350
919.05	6254
919.161	6251
919.272	6117
919.383	6205
919.494	6285
919.604	6441
919.715	6281
919.826	6251
919.936	6273
920.047	6315
920.157	6281
920.267	6441
920.378	6319
920.488	6277
920.598	6452
920.708	6563
920.818	6437
920.928	6517
921.038	6551
921.148	6631
921.258	6418
921.368	6273
921.477	6251
921.587	6159
921.697	6125
921.806	6213
921.916	6030
922.025	5946
922.134	5935
922.244	5866
922.353	5923
922.462	5863
922.571	5821
922.68	5733
922.789	5726
922.898	5741
923.007	5661
923.116	5726
923.224	5672
923.333	5722
923.442	5611
923.55	5615
923.659	5570
923.767	5630
923.876	5543
923.984	5672
924.092	5547
924.201	5532
924.309	5623
924.417	5562
924.525	5520
924.633	5551
924.741	6308
924.849	5387
924.956	5562
925.064	5395
925.172	5299
925.279	5280
925.387	5376
925.494	5311
925.602	5436
925.709	5402
925.816	5242
925.924	5311
926.031	5417
926.138	5250
926.245	5383
926.352	5265
926.459	5376
926.566	5307
926.673	5231
926.779	5140
926.886	5132
926.993	5029
927.099	5003
927.206	4938
927.312	4949
927.419	5003
927.525	4980
927.631	5010
927.737	4858
927.843	4900
927.95	4774
928.056	4877
928.162	4793
928.267	4797
928.373	5261
928.479	4801
928.585	4691
928.69	4812
928.796	4771
928.901	4740
929.007	4607
929.112	4687
929.218	4634
929.323	4611
929.428	4565
929.533	4660
929.638	4535
929.743	4535
929.848	4615
929.953	4504
930.058	4478
930.163	4356
930.267	4371
930.372	4447
930.477	4322
930.581	4424
930.685	4379
930.79	4272
930.894	4276
930.998	4238
931.103	4421
931.207	4086
931.311	4067
931.415	4071
931.519	3956
931.623	3918
