Data from glass_V78500241_1118.txt Node
Date: Wed Sep 01 19:22:14 CST 2021
User: usil
Spectrometer: V785-0024
Trigger mode: 0
Integration Time (sec): 4.000000E-1
Scans to average: 1
Nonlinearity correction enabled: false
Boxcar width: 0
Storing dark spectrum: false
XAxis mode: Wavelengths
Number of Pixels in Spectrum: 1024
>>>>>Begin Spectral Data<<<<<
801.071	3720
801.214	3774
801.356	3732
801.499	3762
801.641	3709
801.783	3785
801.926	3899
802.068	3838
802.211	3873
802.353	3907
802.496	3838
802.638	3892
802.78	3911
802.923	3956
803.065	3869
803.208	3850
803.35	3876
803.492	3911
803.635	3926
803.777	3819
803.919	3915
804.061	4124
804.204	3972
804.346	3926
804.488	3918
804.63	4063
804.773	3987
804.915	4025
805.057	4128
805.199	4071
805.341	4071
805.483	4131
805.626	4147
805.768	4150
805.91	4219
806.052	4257
806.194	4211
806.336	4337
806.478	4223
806.62	4188
806.762	4215
806.904	4276
807.046	4356
807.188	4223
807.33	4188
807.472	4211
807.614	4249
807.756	4284
807.898	4223
808.04	4246
808.182	4265
808.324	4299
808.465	4455
808.607	4466
808.749	4474
808.891	4470
809.033	4481
809.174	4360
809.316	4253
809.458	4215
809.6	4143
809.741	4173
809.883	4166
810.025	4242
810.166	4185
810.308	4188
810.45	4246
810.591	4253
810.733	4352
810.875	4516
811.016	4801
811.158	5113
811.299	5273
811.441	5239
811.582	5075
811.724	4744
811.865	4478
812.007	4466
812.148	4432
812.29	4421
812.431	4367
812.573	4417
812.714	4383
812.855	4436
812.997	4413
813.138	4485
813.279	4421
813.421	4394
813.562	4379
813.703	4325
813.845	4379
813.986	4265
814.127	4207
814.268	4337
814.41	4371
814.551	4299
814.692	4360
814.833	4265
814.974	4360
815.115	4322
815.256	4280
815.397	4227
815.539	4287
815.68	4230
815.821	4223
815.962	4348
816.103	4287
816.244	4242
816.385	4230
816.526	4242
816.666	4207
816.807	4112
816.948	4177
817.089	4169
817.23	4128
817.371	4093
817.512	4074
817.653	4074
817.793	4051
817.934	4044
818.075	4116
818.216	4059
818.356	4093
818.497	4051
818.638	3873
818.778	3903
818.919	3873
819.06	3896
819.2	3926
819.341	3873
819.481	3831
819.622	3930
819.762	4013
819.903	3956
820.043	3876
820.184	3842
820.324	3827
820.465	3918
820.605	3865
820.746	3884
820.886	3789
821.026	3964
821.167	3941
821.307	3979
821.447	4013
821.588	3911
821.728	3945
821.868	3960
822.008	3846
822.149	3922
822.289	3975
822.429	3800
822.569	3766
822.709	3800
822.849	3705
822.99	3732
823.13	3781
823.27	3816
823.41	3694
823.55	3759
823.69	3724
823.83	3755
823.97	3641
824.11	3603
824.25	3622
824.389	3633
824.529	3675
824.669	3663
824.809	3728
824.949	3751
825.089	3698
825.228	3705
825.368	3618
825.508	3584
825.648	3587
825.787	3614
825.927	3637
826.067	3618
826.206	3701
826.346	3812
826.485	3823
826.625	3865
826.765	3884
826.904	3835
827.044	3572
827.183	3545
827.323	3428
827.462	3500
827.601	3447
827.741	3428
827.88	3431
828.02	3382
828.159	3439
828.298	3511
828.437	3538
828.577	3435
828.716	3637
828.855	3466
828.994	3386
829.134	3344
829.273	3359
829.412	3351
829.551	3355
829.69	3355
829.829	3420
829.968	3511
830.107	3424
830.246	3443
830.385	3367
830.524	3374
830.663	3317
830.802	3272
830.941	3207
831.08	3233
831.219	3272
831.357	3294
831.496	3397
831.635	3241
831.774	3203
831.913	3222
832.051	3154
832.19	3161
832.329	3203
832.467	3142
832.606	3108
832.744	3169
832.883	3173
833.022	3211
833.16	3275
833.299	3332
833.437	3351
833.576	3367
833.714	3424
833.852	3454
833.991	3496
834.129	3515
834.267	3469
834.406	3401
834.544	3447
834.682	3401
834.821	3428
834.959	3603
835.097	3443
835.235	3534
835.373	3523
835.511	3542
835.65	3458
835.788	3485
835.926	3397
836.064	3401
836.202	3435
836.34	3576
836.478	3633
836.615	3545
836.753	3633
836.891	3637
837.029	3656
837.167	3564
837.305	3530
837.443	3561
837.58	3492
837.718	3599
837.856	3557
837.993	3538
838.131	3629
838.269	3587
838.406	3576
838.544	3576
838.681	3454
838.819	3439
838.956	3401
839.094	3405
839.231	3424
839.369	3549
839.506	3747
839.643	3629
839.781	3515
839.918	3485
840.055	3519
840.193	3500
840.33	3572
840.467	3561
840.604	3595
840.742	3816
840.879	3549
841.016	3591
841.153	3564
841.29	3740
841.427	3755
841.564	3740
841.701	3724
841.838	3774
841.975	3701
842.112	3736
842.249	3675
842.385	3652
842.522	3835
842.659	3679
842.796	3679
842.933	3713
843.069	3709
843.206	3728
843.343	3888
843.479	3774
843.616	3804
843.752	3675
843.889	3698
844.025	3899
844.162	3698
844.298	3823
844.435	3827
844.571	3827
844.708	3873
844.844	4040
844.98	4021
845.117	4010
845.253	3941
845.389	3903
845.525	3953
845.661	4006
845.798	3945
845.934	3998
846.07	3937
846.206	4063
846.342	4124
846.478	4086
846.614	3975
846.75	3915
846.886	3873
847.022	4029
847.158	4002
847.294	3998
847.429	4010
847.565	3991
847.701	4268
847.837	3873
847.972	3907
848.108	3956
848.244	3972
848.379	3869
848.515	3831
848.65	3823
848.786	3892
848.921	3907
849.057	3983
849.192	3991
849.328	3941
849.463	3937
849.598	3880
849.734	3873
849.869	3876
850.004	3770
850.14	3785
850.275	3743
850.41	3732
850.545	3732
850.68	3781
850.815	3800
850.95	3770
851.085	3899
851.22	3884
851.355	3846
851.49	3797
851.625	3766
851.76	3819
851.895	3720
852.03	3751
852.165	3819
852.299	3823
852.434	3888
852.569	3892
852.703	3857
852.838	3941
852.973	3956
853.107	3991
853.242	3922
853.376	3865
853.511	3804
853.645	3865
853.78	3983
853.914	3968
854.048	3937
854.183	3884
854.317	3960
854.451	4074
854.585	3975
854.72	3960
854.854	4044
854.988	3941
855.122	3991
855.256	3918
855.39	4013
855.524	4097
855.658	4120
855.792	4101
855.926	4124
856.06	4150
856.194	4230
856.327	4135
856.461	4143
856.595	4124
856.729	4200
856.862	4318
856.996	4230
857.13	4295
857.263	4333
857.397	4398
857.53	4272
857.664	4360
857.797	4405
857.931	4443
858.064	4428
858.197	4474
858.331	4375
858.464	4383
858.597	4352
858.731	4470
858.864	4462
858.997	4455
859.13	4542
859.263	4561
859.396	4565
859.529	4558
859.662	4519
859.795	4481
859.928	4596
860.061	4714
860.194	4790
860.327	4580
860.46	4649
860.592	4748
860.725	4767
860.858	4805
860.99	4698
861.123	4721
861.256	4702
861.388	4854
861.521	5379
861.653	4691
861.786	4744
861.918	4778
862.05	4744
862.183	4873
862.315	4908
862.447	4915
862.58	4900
862.712	4801
862.844	4805
862.976	4873
863.108	4919
863.24	5185
863.372	4843
863.504	4915
863.636	4885
863.768	4984
863.9	4991
864.032	4927
864.164	4953
864.296	5071
864.428	5090
864.559	5067
864.691	5136
864.823	5098
864.954	5075
865.086	5178
865.217	5147
865.349	5155
865.48	5162
865.612	5216
865.743	5315
865.875	5204
866.006	5166
866.137	5227
866.269	5223
866.4	5220
866.531	5299
866.662	5242
866.793	5307
866.924	5303
867.055	5311
867.186	5360
867.317	5357
867.448	5349
867.579	5417
867.71	5402
867.841	5459
867.972	5429
868.103	5402
868.233	5452
868.364	5505
868.495	5524
868.625	5649
868.756	5786
868.886	5695
869.017	5741
869.147	5859
869.278	5844
869.408	5840
869.539	5824
869.669	5923
869.799	5851
869.929	5980
870.06	6022
870.19	6194
870.32	6239
870.45	6270
870.58	6403
870.71	6403
870.84	6407
870.97	6452
871.1	6456
871.23	6639
871.36	6738
871.489	6627
871.619	6692
871.749	6829
871.879	6871
872.008	6924
872.138	6970
872.267	7000
872.397	7042
872.526	7088
872.656	7103
872.785	7187
872.915	7358
873.044	7510
873.173	7605
873.303	7655
873.432	7750
873.561	7936
873.69	7852
873.819	8031
873.948	8225
874.077	8309
874.206	8385
874.335	8404
874.464	8564
874.593	8876
874.722	8967
874.851	9097
874.979	9264
875.108	9374
875.237	9428
875.365	9511
875.494	9625
875.623	9888
875.751	9846
875.88	10025
876.008	10154
876.136	10291
876.265	10523
876.393	10729
876.521	10744
876.65	10850
876.778	10850
876.906	10938
877.034	10980
877.162	11128
877.29	11185
877.418	11307
877.546	11299
877.674	11520
877.802	11459
877.93	11570
878.058	11512
878.185	11520
878.313	11672
878.441	11703
878.568	11756
878.696	11843
878.824	11878
878.951	11977
879.079	11999
879.206	12114
879.333	12072
879.461	12003
879.588	12121
879.715	12114
879.842	12258
879.97	12060
880.097	11939
880.224	11931
880.351	11863
880.478	11840
880.605	11779
880.732	11832
880.859	12049
880.986	11882
881.112	11866
881.239	11775
881.366	11760
881.493	11657
881.619	11615
881.746	11539
881.872	11440
881.999	11547
882.125	11486
882.252	11589
882.378	11535
882.505	11608
882.631	11341
882.757	11273
882.883	11391
883.01	11265
883.136	11273
883.262	11117
883.388	11143
883.514	11181
883.64	11216
883.766	11185
883.892	11029
884.018	10915
884.143	11075
884.269	11098
884.395	10892
884.52	10805
884.646	10820
884.772	10763
884.897	10592
885.023	10698
885.148	10725
885.274	10771
885.399	10710
885.524	10622
885.65	10687
885.775	10653
885.9	10599
886.025	10554
886.15	10508
886.275	10428
886.4	10356
886.525	10432
886.65	10367
886.775	10341
886.9	10516
887.025	10577
887.149	10382
887.274	10227
887.399	10207
887.523	10143
887.648	10177
887.773	10116
887.897	10234
888.021	10204
888.146	10116
888.27	10204
888.395	10265
888.519	10177
888.643	10219
888.767	10249
888.891	10059
889.015	10074
889.139	10055
889.263	9994
889.387	10101
889.511	10120
889.635	10074
889.759	9941
889.883	9964
890.006	10021
890.13	10032
890.254	9960
890.377	9949
890.501	9857
890.624	9876
890.748	9926
890.871	9854
890.995	9808
891.118	9762
891.241	9762
891.364	9793
891.488	9823
891.611	9762
891.734	9740
891.857	9766
891.98	9682
892.103	9880
892.226	9812
892.349	9625
892.471	9519
892.594	9568
892.717	9610
892.839	9625
892.962	9656
893.085	9675
893.207	9595
893.33	9507
893.452	9496
893.575	9580
893.697	9530
893.819	9599
893.941	9622
894.064	9584
894.186	9416
894.308	9466
894.43	9595
894.552	9610
894.674	9568
894.796	9443
894.918	9401
895.04	9397
895.161	9389
895.283	9382
895.405	9268
895.526	9313
895.648	9340
895.769	9313
895.891	9283
896.012	9340
896.134	9199
896.255	9188
896.376	9161
896.498	9142
896.619	9108
896.74	9104
896.861	9077
896.982	9294
897.103	9332
897.224	9173
897.345	9097
897.466	8960
897.587	9009
897.708	9085
897.828	9024
897.949	8933
898.07	8876
898.19	8952
898.311	9058
898.431	8899
898.552	8933
898.672	8994
898.792	8937
898.913	8952
899.033	8823
899.153	8743
899.273	8655
899.393	8705
899.513	8712
899.633	8743
899.753	8800
899.873	8708
899.993	8739
900.113	8701
900.232	8670
900.352	8655
900.472	8663
900.591	8632
900.711	8602
900.83	8552
900.95	8724
901.069	8689
901.189	8560
901.308	8431
901.427	8438
901.546	8541
901.665	8431
901.784	8560
901.904	8419
902.023	8377
902.141	8271
902.26	8259
902.379	8305
902.498	8206
902.617	8267
902.735	8263
902.854	8225
902.973	8214
903.091	8187
903.21	8157
903.328	8187
903.446	8126
903.565	8027
903.683	8088
903.801	8043
903.919	8157
904.038	8161
904.156	8046
904.274	8073
904.392	7989
904.51	8050
904.627	8103
904.745	8084
904.863	8054
904.981	7947
905.098	7906
905.216	7879
905.334	7906
905.451	7860
905.569	7925
905.686	7932
905.803	7860
905.921	7792
906.038	7822
906.155	7753
906.272	7685
906.389	7757
906.506	7647
906.623	7662
906.74	7605
906.857	7597
906.974	7620
907.091	7677
907.208	7746
907.324	7662
907.441	7628
907.557	7476
907.674	7377
907.79	7365
907.907	7400
908.023	7525
908.139	7430
908.256	7403
908.372	7381
908.488	7358
908.604	7339
908.72	7255
908.836	7270
908.952	7228
909.068	7278
909.184	7327
909.3	7289
909.415	7247
909.531	7278
909.647	7141
909.762	7095
909.878	7107
909.993	7084
910.108	7050
910.224	7118
910.339	7110
910.454	7107
910.57	7061
910.685	7019
910.8	7198
910.915	7057
911.03	6981
911.145	6951
911.259	6859
911.374	6894
911.489	6837
911.604	6821
911.718	6715
911.833	6730
911.947	6677
912.062	6620
912.176	6623
912.291	6760
912.405	6650
912.519	6829
912.633	6840
912.748	6776
912.862	6711
912.976	6551
913.09	6544
913.204	6623
913.318	6654
913.431	6745
913.545	6688
913.659	6734
913.772	6620
913.886	6589
914	6540
914.113	6608
914.226	6673
914.34	6593
914.453	6547
914.566	6597
914.68	6551
914.793	6532
914.906	6464
915.019	6388
915.132	6327
915.245	6388
915.358	6517
915.47	6456
915.583	6471
915.696	6475
915.809	6540
915.921	6544
916.034	6391
916.146	6395
916.259	6391
916.371	6448
916.483	6475
916.595	6391
916.708	6456
916.82	6410
916.932	6399
917.044	6376
917.156	6407
917.268	6357
917.38	6369
917.491	6327
917.603	6311
917.715	6429
917.826	6407
917.938	6296
918.049	6266
918.161	6357
918.272	6369
918.384	6437
918.495	6334
918.606	6270
918.717	6239
918.828	6296
918.939	6327
919.05	6239
919.161	6277
919.272	6098
919.383	6163
919.494	6285
919.604	6418
919.715	6292
919.826	6266
919.936	6285
920.047	6353
920.157	6311
920.267	6448
920.378	6323
920.488	6331
920.598	6471
920.708	6525
920.818	6513
920.928	6448
921.038	6582
921.148	6597
921.258	6346
921.368	6300
921.477	6182
921.587	6175
921.697	6015
921.806	6178
921.916	6110
922.025	5946
922.134	5916
922.244	5855
922.353	5942
922.462	5870
922.571	5836
922.68	5722
922.789	5630
922.898	5611
923.007	5619
923.116	5680
923.224	5680
923.333	5665
923.442	5630
923.55	5543
923.659	5562
923.767	5623
923.876	5539
923.984	5630
924.092	5528
924.201	5535
924.309	5543
924.417	5539
924.525	5478
924.633	5512
924.741	6300
924.849	5349
924.956	5524
925.064	5398
925.172	5307
925.279	5292
925.387	5383
925.494	5368
925.602	5414
925.709	5345
925.816	5299
925.924	5357
926.031	5417
926.138	5277
926.245	5326
926.352	5246
926.459	5265
926.566	5334
926.673	5246
926.779	5105
926.886	5105
926.993	5067
927.099	5029
927.206	4991
927.312	4915
927.419	5022
927.525	5041
927.631	4995
927.737	4850
927.843	4797
927.95	4790
928.056	4831
928.162	4839
928.267	4881
928.373	5387
928.479	4930
928.585	4683
928.69	4759
928.796	4790
928.901	4714
929.007	4569
929.112	4721
929.218	4668
929.323	4622
929.428	4561
929.533	4668
929.638	4497
929.743	4584
929.848	4561
929.953	4519
930.058	4409
930.163	4352
930.267	4360
930.372	4466
930.477	4363
930.581	4531
930.685	4394
930.79	4299
930.894	4284
930.998	4238
931.103	4379
931.207	4139
931.311	4101
931.415	4029
931.519	3918
931.623	3975
