Data from glass_V78500241_265.txt Node
Date: Wed Sep 01 19:16:20 CST 2021
User: usil
Spectrometer: V785-0024
Trigger mode: 0
Integration Time (sec): 4.000000E-1
Scans to average: 1
Nonlinearity correction enabled: false
Boxcar width: 0
Storing dark spectrum: false
XAxis mode: Wavelengths
Number of Pixels in Spectrum: 1024
>>>>>Begin Spectral Data<<<<<
801.071	3751
801.214	3762
801.356	3720
801.499	3774
801.641	3732
801.783	3793
801.926	3857
802.068	3835
802.211	3873
802.353	3899
802.496	3850
802.638	3907
802.78	3896
802.923	3972
803.065	3911
803.208	3861
803.35	3911
803.492	3937
803.635	3880
803.777	3861
803.919	3899
804.061	4200
804.204	3975
804.346	3979
804.488	3945
804.63	4051
804.773	3987
804.915	4067
805.057	4116
805.199	4017
805.341	4093
805.483	4173
805.626	4128
805.768	4162
805.91	4234
806.052	4238
806.194	4169
806.336	4386
806.478	4238
806.62	4207
806.762	4223
806.904	4299
807.046	4314
807.188	4253
807.33	4177
807.472	4253
807.614	4169
807.756	4265
807.898	4215
808.04	4230
808.182	4261
808.324	4360
808.465	4390
808.607	4455
808.749	4466
808.891	4466
809.033	4523
809.174	4432
809.316	4223
809.458	4280
809.6	4166
809.741	4181
809.883	4128
810.025	4204
810.166	4223
810.308	4215
810.45	4215
810.591	4192
810.733	4333
810.875	4504
811.016	4862
811.158	5143
811.299	5258
811.441	5315
811.582	5136
811.724	4733
811.865	4424
812.007	4474
812.148	4443
812.29	4421
812.431	4440
812.573	4405
812.714	4405
812.855	4424
812.997	4462
813.138	4485
813.279	4417
813.421	4379
813.562	4356
813.703	4360
813.845	4363
813.986	4234
814.127	4219
814.268	4238
814.41	4344
814.551	4249
814.692	4303
814.833	4280
814.974	4280
815.115	4379
815.256	4272
815.397	4230
815.539	4253
815.68	4219
815.821	4215
815.962	4253
816.103	4276
816.244	4246
816.385	4166
816.526	4322
816.666	4227
816.807	4116
816.948	4207
817.089	4234
817.23	4143
817.371	4051
817.512	4051
817.653	4090
817.793	4071
817.934	4051
818.075	4067
818.216	4074
818.356	4078
818.497	4029
818.638	3896
818.778	3979
818.919	3937
819.06	3896
819.2	3956
819.341	3869
819.481	3846
819.622	3972
819.762	4036
819.903	3949
820.043	3907
820.184	3850
820.324	3831
820.465	3888
820.605	3838
820.746	3903
820.886	3800
821.026	3934
821.167	3926
821.307	3979
821.447	3987
821.588	3960
821.728	3949
821.868	3956
822.008	3899
822.149	3937
822.289	3945
822.429	3766
822.569	3797
822.709	3842
822.849	3720
822.99	3747
823.13	3736
823.27	3789
823.41	3705
823.55	3740
823.69	3720
823.83	3736
823.97	3682
824.11	3652
824.25	3591
824.389	3675
824.529	3656
824.669	3618
824.809	3690
824.949	3759
825.089	3766
825.228	3713
825.368	3625
825.508	3576
825.648	3572
825.787	3606
825.927	3682
826.067	3652
826.206	3648
826.346	3797
826.485	3854
826.625	3869
826.765	3972
826.904	3850
827.044	3652
827.183	3572
827.323	3466
827.462	3488
827.601	3424
827.741	3469
827.88	3450
828.02	3412
828.159	3454
828.298	3488
828.437	3496
828.577	3443
828.716	3648
828.855	3496
828.994	3405
829.134	3424
829.273	3424
829.412	3393
829.551	3374
829.69	3397
829.829	3458
829.968	3530
830.107	3439
830.246	3447
830.385	3416
830.524	3367
830.663	3332
830.802	3268
830.941	3214
831.08	3195
831.219	3253
831.357	3245
831.496	3382
831.635	3264
831.774	3188
831.913	3226
832.051	3150
832.19	3119
832.329	3222
832.467	3116
832.606	3085
832.744	3207
832.883	3195
833.022	3199
833.16	3279
833.299	3329
833.437	3374
833.576	3401
833.714	3443
833.852	3431
833.991	3439
834.129	3473
834.267	3466
834.406	3386
834.544	3435
834.682	3439
834.821	3416
834.959	3606
835.097	3397
835.235	3534
835.373	3519
835.511	3545
835.65	3492
835.788	3526
835.926	3382
836.064	3397
836.202	3420
836.34	3622
836.478	3603
836.615	3542
836.753	3610
836.891	3656
837.029	3622
837.167	3614
837.305	3564
837.443	3530
837.58	3557
837.718	3633
837.856	3549
837.993	3542
838.131	3614
838.269	3599
838.406	3599
838.544	3625
838.681	3492
838.819	3500
838.956	3409
839.094	3378
839.231	3477
839.369	3507
839.506	3717
839.643	3644
839.781	3523
839.918	3469
840.055	3591
840.193	3534
840.33	3584
840.467	3557
840.604	3637
840.742	3846
840.879	3584
841.016	3561
841.153	3587
841.29	3755
841.427	3728
841.564	3762
841.701	3774
841.838	3701
841.975	3747
842.112	3728
842.249	3675
842.385	3641
842.522	3873
842.659	3705
842.796	3694
842.933	3762
843.069	3713
843.206	3740
843.343	3785
843.479	3797
843.616	3854
843.752	3644
843.889	3690
844.025	3842
844.162	3740
844.298	3842
844.435	3819
844.571	3793
844.708	3953
844.844	3994
844.98	4021
845.117	4044
845.253	3926
845.389	3926
845.525	3979
845.661	3956
845.798	3892
845.934	4048
846.07	3956
846.206	4097
846.342	4128
846.478	4044
846.614	4002
846.75	3960
846.886	3918
847.022	4044
847.158	4006
847.294	4021
847.429	4044
847.565	3975
847.701	4265
847.837	3876
847.972	3861
848.108	3964
848.244	4006
848.379	3861
848.515	3899
848.65	3835
848.786	3865
848.921	3907
849.057	3975
849.192	3945
849.328	3888
849.463	3937
849.598	3907
849.734	3896
849.869	3857
850.004	3831
850.14	3854
850.275	3762
850.41	3755
850.545	3755
850.68	3804
850.815	3823
850.95	3812
851.085	3968
851.22	3907
851.355	3854
851.49	3774
851.625	3800
851.76	3785
851.895	3770
852.03	3740
852.165	3797
852.299	3876
852.434	3949
852.569	3892
852.703	3880
852.838	3922
852.973	4029
853.107	4025
853.242	3922
853.376	3869
853.511	3793
853.645	3846
853.78	3979
853.914	3915
854.048	3926
854.183	3892
854.317	3972
854.451	4074
854.585	3953
854.72	3983
854.854	4051
854.988	3953
855.122	3991
855.256	3918
855.39	3998
855.524	4143
855.658	4131
855.792	4139
855.926	4158
856.06	4188
856.194	4227
856.327	4169
856.461	4143
856.595	4177
856.729	4177
856.862	4280
856.996	4181
857.13	4303
857.263	4375
857.397	4356
857.53	4299
857.664	4394
857.797	4394
857.931	4417
858.064	4417
858.197	4455
858.331	4398
858.464	4360
858.597	4371
858.731	4462
858.864	4485
858.997	4466
859.13	4538
859.263	4565
859.396	4611
859.529	4512
859.662	4538
859.795	4607
859.928	4573
860.061	4721
860.194	4733
860.327	4687
860.46	4725
860.592	4740
860.725	4748
860.858	4778
860.99	4729
861.123	4691
861.256	4736
861.388	4805
861.521	5288
861.653	4740
861.786	4721
861.918	4729
862.05	4835
862.183	4908
862.315	4904
862.447	4999
862.58	4923
862.712	4847
862.844	4801
862.976	4847
863.108	4900
863.24	5258
863.372	4816
863.504	4911
863.636	4976
863.768	4984
863.9	4953
864.032	4980
864.164	4980
864.296	5025
864.428	5067
864.559	5143
864.691	5197
864.823	5143
864.954	5102
865.086	5174
865.217	5090
865.349	5067
865.48	5155
865.612	5193
865.743	5334
865.875	5208
866.006	5197
866.137	5322
866.269	5261
866.4	5265
866.531	5258
866.662	5212
866.793	5246
866.924	5337
867.055	5318
867.186	5341
867.317	5357
867.448	5383
867.579	5391
867.71	5395
867.841	5387
867.972	5444
868.103	5444
868.233	5471
868.364	5482
868.495	5554
868.625	5688
868.756	5832
868.886	5703
869.017	5737
869.147	5870
869.278	5805
869.408	5779
869.539	5893
869.669	5912
869.799	5950
869.929	6026
870.06	6022
870.19	6232
870.32	6281
870.45	6323
870.58	6327
870.71	6445
870.84	6483
870.97	6471
871.1	6494
871.23	6597
871.36	6738
871.489	6692
871.619	6753
871.749	6840
871.879	6867
872.008	6977
872.138	6943
872.267	7046
872.397	7019
872.526	7091
872.656	7034
872.785	7209
872.915	7403
873.044	7499
873.173	7594
873.303	7632
873.432	7776
873.561	7913
873.69	7932
873.819	7963
873.948	8214
874.077	8256
874.206	8324
874.335	8461
874.464	8705
874.593	8830
874.722	8933
874.851	9154
874.979	9218
875.108	9378
875.237	9450
875.365	9412
875.494	9701
875.623	9781
875.751	9903
875.88	9998
876.008	10101
876.136	10322
876.265	10558
876.393	10664
876.521	10683
876.65	10850
876.778	10911
876.906	10839
877.034	10972
877.162	11064
877.29	11109
877.418	11356
877.546	11345
877.674	11402
877.802	11566
877.93	11611
878.058	11589
878.185	11604
878.313	11600
878.441	11748
878.568	11695
878.696	11863
878.824	11912
878.951	11961
879.079	12041
879.206	12159
879.333	12053
879.461	11984
879.588	12110
879.715	12106
879.842	12228
879.97	12121
880.097	11889
880.224	11893
880.351	11977
880.478	11923
880.605	11885
880.732	11870
880.859	12034
880.986	11878
881.112	11817
881.239	11745
881.366	11680
881.493	11623
881.619	11585
881.746	11585
881.872	11604
881.999	11543
882.125	11478
882.252	11649
882.378	11512
882.505	11532
882.631	11303
882.757	11322
882.883	11337
883.01	11250
883.136	11204
883.262	11166
883.388	11166
883.514	11235
883.64	11162
883.766	11140
883.892	11018
884.018	10980
884.143	11121
884.269	11178
884.395	10850
884.52	10763
884.646	10786
884.772	10717
884.897	10736
885.023	10668
885.148	10733
885.274	10736
885.399	10774
885.524	10649
885.65	10577
885.775	10626
885.9	10497
886.025	10615
886.15	10527
886.275	10466
886.4	10466
886.525	10405
886.65	10440
886.775	10356
886.9	10516
887.025	10546
887.149	10417
887.274	10257
887.399	10185
887.523	10215
887.648	10154
887.773	10135
887.897	10341
888.021	10204
888.146	10120
888.27	10211
888.395	10268
888.519	10162
888.643	10162
888.767	10185
888.891	10150
889.015	10097
889.139	10116
889.263	9998
889.387	10029
889.511	10112
889.635	10158
889.759	9994
889.883	10013
890.006	9960
890.13	10147
890.254	9918
890.377	10006
890.501	9892
890.624	9888
890.748	9884
890.871	9804
890.995	9808
891.118	9751
891.241	9740
891.364	9770
891.488	9835
891.611	9812
891.734	9823
891.857	9827
891.98	9785
892.103	9827
892.226	9690
892.349	9701
892.471	9492
892.594	9618
892.717	9606
892.839	9614
892.962	9622
893.085	9690
893.207	9629
893.33	9557
893.452	9488
893.575	9576
893.697	9523
893.819	9656
893.941	9682
894.064	9557
894.186	9382
894.308	9431
894.43	9488
894.552	9603
894.674	9530
894.796	9450
894.918	9412
895.04	9336
895.161	9310
895.283	9351
895.405	9211
895.526	9253
895.648	9275
895.769	9249
895.891	9294
896.012	9256
896.134	9283
896.255	9176
896.376	9036
896.498	9097
896.619	9146
896.74	9100
896.861	9055
896.982	9272
897.103	9374
897.224	9161
897.345	9150
897.466	9055
897.587	9028
897.708	9146
897.828	9039
897.949	8948
898.07	8979
898.19	8952
898.311	9039
898.431	8895
898.552	8880
898.672	8952
898.792	8963
898.913	8914
899.033	8819
899.153	8689
899.273	8640
899.393	8689
899.513	8712
899.633	8781
899.753	8712
899.873	8590
899.993	8815
900.113	8697
900.232	8724
900.352	8655
900.472	8571
900.591	8518
900.711	8606
900.83	8526
900.95	8758
901.069	8678
901.189	8571
901.308	8461
901.427	8419
901.546	8442
901.665	8465
901.784	8499
901.904	8469
902.023	8351
902.141	8252
902.26	8225
902.379	8271
902.498	8279
902.617	8263
902.735	8301
902.854	8256
902.973	8244
903.091	8149
903.21	8164
903.328	8134
903.446	8107
903.565	8100
903.683	8111
903.801	8046
903.919	8180
904.038	8126
904.156	7993
904.274	8088
904.392	8005
904.51	8054
904.627	8088
904.745	8115
904.863	8111
904.981	7989
905.098	7822
905.216	7913
905.334	7913
905.451	7921
905.569	7951
905.686	7955
905.803	7925
905.921	7852
906.038	7898
906.155	7849
906.272	7742
906.389	7700
906.506	7696
906.623	7639
906.74	7681
906.857	7586
906.974	7632
907.091	7639
907.208	7734
907.324	7628
907.441	7529
907.557	7449
907.674	7430
907.79	7369
907.907	7449
908.023	7438
908.139	7449
908.256	7415
908.372	7438
908.488	7407
908.604	7289
908.72	7240
908.836	7324
908.952	7209
909.068	7259
909.184	7308
909.3	7297
909.415	7297
909.531	7289
909.647	7122
909.762	7175
909.878	7080
909.993	7141
910.108	7160
910.224	7080
910.339	7118
910.454	7061
910.57	7027
910.685	7004
910.8	7141
910.915	7160
911.03	7107
911.145	6989
911.259	6905
911.374	6970
911.489	6878
911.604	6814
911.718	6730
911.833	6745
911.947	6684
912.062	6627
912.176	6730
912.291	6730
912.405	6730
912.519	6871
912.633	6863
912.748	6696
912.862	6711
912.976	6627
913.09	6566
913.204	6601
913.318	6654
913.431	6673
913.545	6654
913.659	6745
913.772	6662
913.886	6620
914	6517
914.113	6574
914.226	6601
914.34	6681
914.453	6540
914.566	6597
914.68	6528
914.793	6563
914.906	6388
915.019	6365
915.132	6388
915.245	6437
915.358	6445
915.47	6483
915.583	6494
915.696	6517
915.809	6532
915.921	6574
916.034	6486
916.146	6388
916.259	6441
916.371	6445
916.483	6399
916.595	6365
916.708	6475
916.82	6433
916.932	6380
917.044	6403
917.156	6395
917.268	6319
917.38	6342
917.491	6414
917.603	6350
917.715	6407
917.826	6426
917.938	6319
918.049	6243
918.161	6422
918.272	6471
918.384	6471
918.495	6414
918.606	6205
918.717	6216
918.828	6327
918.939	6273
919.05	6224
919.161	6209
919.272	6155
919.383	6129
919.494	6254
919.604	6426
919.715	6315
919.826	6178
919.936	6224
920.047	6342
920.157	6304
920.267	6429
920.378	6311
920.488	6228
920.598	6498
920.708	6578
920.818	6540
920.928	6467
921.038	6650
921.148	6578
921.258	6365
921.368	6289
921.477	6190
921.587	6102
921.697	6106
921.806	6209
921.916	6030
922.025	5969
922.134	5958
922.244	5904
922.353	5965
922.462	5889
922.571	5805
922.68	5710
922.789	5653
922.898	5699
923.007	5615
923.116	5714
923.224	5733
923.333	5630
923.442	5592
923.55	5608
923.659	5604
923.767	5642
923.876	5585
923.984	5676
924.092	5524
924.201	5581
924.309	5604
924.417	5562
924.525	5528
924.633	5474
924.741	6323
924.849	5341
924.956	5452
925.064	5334
925.172	5345
925.279	5360
925.387	5364
925.494	5398
925.602	5421
925.709	5421
925.816	5303
925.924	5299
926.031	5379
926.138	5280
926.245	5398
926.352	5197
926.459	5353
926.566	5357
926.673	5193
926.779	5140
926.886	5132
926.993	5048
927.099	4999
927.206	5003
927.312	4968
927.419	4999
927.525	4968
927.631	5029
927.737	4904
927.843	4866
927.95	4809
928.056	4870
928.162	4866
928.267	4870
928.373	5292
928.479	4896
928.585	4679
928.69	4778
928.796	4809
928.901	4710
929.007	4630
929.112	4706
929.218	4626
929.323	4649
929.428	4622
929.533	4687
929.638	4558
929.743	4561
929.848	4569
929.953	4519
930.058	4459
930.163	4333
930.267	4344
930.372	4405
930.477	4333
930.581	4421
930.685	4428
930.79	4287
930.894	4303
930.998	4234
931.103	4409
931.207	4109
931.311	4109
931.415	4055
931.519	3918
931.623	3953
