Data from glass_V78500241_1324.txt Node
Date: Wed Sep 01 19:23:40 CST 2021
User: usil
Spectrometer: V785-0024
Trigger mode: 0
Integration Time (sec): 4.000000E-1
Scans to average: 1
Nonlinearity correction enabled: false
Boxcar width: 0
Storing dark spectrum: false
XAxis mode: Wavelengths
Number of Pixels in Spectrum: 1024
>>>>>Begin Spectral Data<<<<<
801.071	3762
801.214	3793
801.356	3698
801.499	3728
801.641	3747
801.783	3831
801.926	3873
802.068	3857
802.211	3865
802.353	3896
802.496	3857
802.638	3865
802.78	3922
802.923	3956
803.065	3899
803.208	3835
803.35	3930
803.492	3888
803.635	3903
803.777	3831
803.919	3899
804.061	4158
804.204	3968
804.346	3987
804.488	3941
804.63	4051
804.773	3956
804.915	4048
805.057	4143
805.199	4002
805.341	4105
805.483	4124
805.626	4150
805.768	4143
805.91	4204
806.052	4257
806.194	4234
806.336	4371
806.478	4234
806.62	4188
806.762	4177
806.904	4276
807.046	4341
807.188	4249
807.33	4185
807.472	4211
807.614	4223
807.756	4284
807.898	4295
808.04	4230
808.182	4280
808.324	4318
808.465	4390
808.607	4508
808.749	4424
808.891	4459
809.033	4554
809.174	4398
809.316	4276
809.458	4284
809.6	4181
809.741	4143
809.883	4166
810.025	4219
810.166	4207
810.308	4223
810.45	4238
810.591	4249
810.733	4325
810.875	4523
811.016	4782
811.158	5064
811.299	5311
811.441	5334
811.582	5090
811.724	4702
811.865	4493
812.007	4474
812.148	4447
812.29	4398
812.431	4409
812.573	4413
812.714	4379
812.855	4398
812.997	4440
813.138	4478
813.279	4402
813.421	4367
813.562	4383
813.703	4371
813.845	4360
813.986	4303
814.127	4246
814.268	4253
814.41	4249
814.551	4280
814.692	4303
814.833	4299
814.974	4310
815.115	4344
815.256	4280
815.397	4246
815.539	4265
815.68	4207
815.821	4276
815.962	4363
816.103	4272
816.244	4242
816.385	4227
816.526	4280
816.666	4223
816.807	4101
816.948	4150
817.089	4173
817.23	4139
817.371	4044
817.512	4017
817.653	4109
817.793	4021
817.934	4029
818.075	4120
818.216	4112
818.356	4090
818.497	4032
818.638	3911
818.778	3915
818.919	3911
819.06	3884
819.2	3899
819.341	3911
819.481	3842
819.622	3941
819.762	4021
819.903	3953
820.043	3861
820.184	3869
820.324	3819
820.465	3865
820.605	3884
820.746	3888
820.886	3861
821.026	3922
821.167	3918
821.307	3994
821.447	3972
821.588	3945
821.728	3968
821.868	3987
822.008	3854
822.149	3903
822.289	3960
822.429	3816
822.569	3812
822.709	3781
822.849	3701
822.99	3705
823.13	3793
823.27	3835
823.41	3717
823.55	3819
823.69	3732
823.83	3736
823.97	3641
824.11	3629
824.25	3622
824.389	3633
824.529	3675
824.669	3644
824.809	3679
824.949	3800
825.089	3747
825.228	3675
825.368	3633
825.508	3549
825.648	3584
825.787	3614
825.927	3633
826.067	3622
826.206	3686
826.346	3823
826.485	3827
826.625	3907
826.765	3949
826.904	3819
827.044	3599
827.183	3515
827.323	3416
827.462	3466
827.601	3443
827.741	3454
827.88	3496
828.02	3412
828.159	3454
828.298	3515
828.437	3545
828.577	3488
828.716	3587
828.855	3492
828.994	3431
829.134	3367
829.273	3374
829.412	3363
829.551	3389
829.69	3355
829.829	3439
829.968	3504
830.107	3473
830.246	3443
830.385	3382
830.524	3321
830.663	3332
830.802	3283
830.941	3203
831.08	3173
831.219	3283
831.357	3283
831.496	3405
831.635	3268
831.774	3226
831.913	3199
832.051	3161
832.19	3108
832.329	3233
832.467	3142
832.606	3108
832.744	3203
832.883	3195
833.022	3173
833.16	3283
833.299	3310
833.437	3321
833.576	3370
833.714	3424
833.852	3454
833.991	3412
834.129	3473
834.267	3435
834.406	3435
834.544	3450
834.682	3462
834.821	3412
834.959	3580
835.097	3424
835.235	3515
835.373	3466
835.511	3496
835.65	3477
835.788	3500
835.926	3405
836.064	3424
836.202	3416
836.34	3557
836.478	3599
836.615	3557
836.753	3587
836.891	3641
837.029	3660
837.167	3576
837.305	3530
837.443	3549
837.58	3511
837.718	3591
837.856	3564
837.993	3557
838.131	3587
838.269	3633
838.406	3622
838.544	3538
838.681	3504
838.819	3466
838.956	3389
839.094	3401
839.231	3431
839.369	3561
839.506	3732
839.643	3606
839.781	3466
839.918	3492
840.055	3538
840.193	3485
840.33	3549
840.467	3526
840.604	3637
840.742	3865
840.879	3553
841.016	3599
841.153	3591
841.29	3717
841.427	3720
841.564	3774
841.701	3690
841.838	3732
841.975	3671
842.112	3736
842.249	3648
842.385	3644
842.522	3835
842.659	3709
842.796	3656
842.933	3713
843.069	3720
843.206	3736
843.343	3808
843.479	3808
843.616	3865
843.752	3641
843.889	3675
844.025	3850
844.162	3751
844.298	3831
844.435	3816
844.571	3808
844.708	3907
844.844	3994
844.98	4044
845.117	4010
845.253	3960
845.389	3937
845.525	3945
845.661	4002
845.798	3945
845.934	3972
846.07	3972
846.206	4055
846.342	4097
846.478	4090
846.614	3994
846.75	3937
846.886	3911
847.022	4063
847.158	3987
847.294	4040
847.429	4048
847.565	4006
847.701	4261
847.837	3888
847.972	3838
848.108	3975
848.244	3987
848.379	3873
848.515	3842
848.65	3831
848.786	3838
848.921	3888
849.057	3934
849.192	3911
849.328	3861
849.463	3911
849.598	3880
849.734	3831
849.869	3831
850.004	3816
850.14	3819
850.275	3789
850.41	3774
850.545	3800
850.68	3743
850.815	3808
850.95	3823
851.085	3979
851.22	3865
851.355	3842
851.49	3793
851.625	3778
851.76	3808
851.895	3774
852.03	3740
852.165	3827
852.299	3869
852.434	3937
852.569	3884
852.703	3876
852.838	3911
852.973	4006
853.107	4002
853.242	3888
853.376	3850
853.511	3778
853.645	3819
853.78	3964
853.914	3915
854.048	3926
854.183	3899
854.317	3998
854.451	4090
854.585	3972
854.72	3941
854.854	4010
854.988	3926
855.122	4006
855.256	3892
855.39	4051
855.524	4101
855.658	4135
855.792	4082
855.926	4166
856.06	4196
856.194	4177
856.327	4150
856.461	4158
856.595	4135
856.729	4169
856.862	4287
856.996	4280
857.13	4261
857.263	4371
857.397	4371
857.53	4272
857.664	4379
857.797	4390
857.931	4447
858.064	4443
858.197	4428
858.331	4421
858.464	4360
858.597	4360
858.731	4443
858.864	4424
858.997	4428
859.13	4497
859.263	4535
859.396	4577
859.529	4542
859.662	4523
859.795	4561
859.928	4634
860.061	4664
860.194	4706
860.327	4687
860.46	4668
860.592	4748
860.725	4744
860.858	4755
860.99	4691
861.123	4683
861.256	4717
861.388	4752
861.521	5448
861.653	4717
861.786	4710
861.918	4782
862.05	4778
862.183	4873
862.315	4866
862.447	4915
862.58	4866
862.712	4801
862.844	4771
862.976	4896
863.108	4896
863.24	5159
863.372	4820
863.504	4896
863.636	4885
863.768	4984
863.9	4976
864.032	4942
864.164	4965
864.296	5056
864.428	5060
864.559	5105
864.691	5151
864.823	5136
864.954	5155
865.086	5094
865.217	5147
865.349	5067
865.48	5162
865.612	5216
865.743	5292
865.875	5216
866.006	5197
866.137	5242
866.269	5242
866.4	5284
866.531	5288
866.662	5208
866.793	5280
866.924	5326
867.055	5383
867.186	5318
867.317	5334
867.448	5292
867.579	5330
867.71	5360
867.841	5372
867.972	5440
868.103	5543
868.233	5505
868.364	5532
868.495	5539
868.625	5668
868.756	5798
868.886	5657
869.017	5714
869.147	5844
869.278	5863
869.408	5710
869.539	5832
869.669	5889
869.799	5863
869.929	5984
870.06	6011
870.19	6159
870.32	6270
870.45	6213
870.58	6350
870.71	6407
870.84	6452
870.97	6471
871.1	6452
871.23	6604
871.36	6715
871.489	6662
871.619	6768
871.749	6829
871.879	6905
872.008	6947
872.138	6973
872.267	7034
872.397	7000
872.526	6985
872.656	7126
872.785	7194
872.915	7381
873.044	7499
873.173	7582
873.303	7670
873.432	7708
873.561	7894
873.69	7955
873.819	8027
873.948	8161
874.077	8259
874.206	8290
874.335	8507
874.464	8682
874.593	8891
874.722	8941
874.851	9203
874.979	9256
875.108	9382
875.237	9431
875.365	9443
875.494	9629
875.623	9816
875.751	9732
875.88	9960
876.008	10207
876.136	10333
876.265	10542
876.393	10714
876.521	10782
876.65	10752
876.778	10816
876.906	10957
877.034	11025
877.162	11121
877.29	11105
877.418	11372
877.546	11345
877.674	11410
877.802	11486
877.93	11585
878.058	11649
878.185	11455
878.313	11592
878.441	11752
878.568	11710
878.696	11840
878.824	11866
878.951	11954
879.079	11996
879.206	12072
879.333	12110
879.461	11920
879.588	12083
879.715	12136
879.842	12262
879.97	12095
880.097	11885
880.224	11843
880.351	11794
880.478	11904
880.605	11836
880.732	11798
880.859	12068
880.986	11889
881.112	11904
881.239	11786
881.366	11760
881.493	11676
881.619	11627
881.746	11497
881.872	11566
881.999	11535
882.125	11482
882.252	11627
882.378	11486
882.505	11646
882.631	11414
882.757	11288
882.883	11330
883.01	11162
883.136	11132
883.262	11094
883.388	11143
883.514	11296
883.64	11178
883.766	11075
883.892	11003
884.018	10968
884.143	11025
884.269	11159
884.395	10850
884.52	10824
884.646	10763
884.772	10691
884.897	10733
885.023	10717
885.148	10843
885.274	10790
885.399	10645
885.524	10611
885.65	10500
885.775	10554
885.9	10580
886.025	10634
886.15	10573
886.275	10459
886.4	10436
886.525	10394
886.65	10344
886.775	10249
886.9	10489
887.025	10527
887.149	10337
887.274	10200
887.399	10215
887.523	10265
887.648	10044
887.773	10116
887.897	10154
888.021	10223
888.146	10131
888.27	10230
888.395	10181
888.519	10162
888.643	10211
888.767	10230
888.891	10120
889.015	10071
889.139	10051
889.263	10002
889.387	10150
889.511	10139
889.635	10036
889.759	9975
889.883	10048
890.006	9998
890.13	10044
890.254	9945
890.377	10025
890.501	9899
890.624	9854
890.748	9956
890.871	9747
890.995	9709
891.118	9701
891.241	9743
891.364	9743
891.488	9823
891.611	9713
891.734	9743
891.857	9736
891.98	9755
892.103	9732
892.226	9732
892.349	9686
892.471	9526
892.594	9591
892.717	9587
892.839	9576
892.962	9682
893.085	9671
893.207	9625
893.33	9519
893.452	9511
893.575	9561
893.697	9507
893.819	9641
893.941	9625
894.064	9473
894.186	9420
894.308	9450
894.43	9595
894.552	9507
894.674	9534
894.796	9355
894.918	9367
895.04	9370
895.161	9348
895.283	9382
895.405	9313
895.526	9199
895.648	9275
895.769	9214
895.891	9275
896.012	9249
896.134	9245
896.255	9214
896.376	9188
896.498	9226
896.619	9161
896.74	9058
896.861	9097
896.982	9298
897.103	9325
897.224	9184
897.345	9036
897.466	9066
897.587	9051
897.708	9028
897.828	9009
897.949	8944
898.07	8948
898.19	8910
898.311	8975
898.431	8891
898.552	8952
898.672	8929
898.792	8921
898.913	8937
899.033	8906
899.153	8667
899.273	8705
899.393	8708
899.513	8773
899.633	8788
899.753	8746
899.873	8705
899.993	8838
900.113	8655
900.232	8731
900.352	8686
900.472	8648
900.591	8613
900.711	8537
900.83	8545
900.95	8724
901.069	8727
901.189	8594
901.308	8469
901.427	8393
901.546	8495
901.665	8457
901.784	8492
901.904	8408
902.023	8358
902.141	8275
902.26	8168
902.379	8301
902.498	8221
902.617	8229
902.735	8298
902.854	8259
902.973	8244
903.091	8202
903.21	8176
903.328	8180
903.446	8081
903.565	8073
903.683	8107
903.801	8046
903.919	8161
904.038	8168
904.156	8046
904.274	8046
904.392	7947
904.51	8005
904.627	8073
904.745	8065
904.863	8058
904.981	7967
905.098	7868
905.216	7814
905.334	7909
905.451	7917
905.569	7883
905.686	7989
905.803	7928
905.921	7780
906.038	7883
906.155	7769
906.272	7753
906.389	7677
906.506	7658
906.623	7590
906.74	7552
906.857	7495
906.974	7616
907.091	7620
907.208	7677
907.324	7658
907.441	7578
907.557	7464
907.674	7415
907.79	7419
907.907	7464
908.023	7491
908.139	7407
908.256	7426
908.372	7403
908.488	7373
908.604	7251
908.72	7179
908.836	7362
908.952	7225
909.068	7255
909.184	7320
909.3	7266
909.415	7263
909.531	7305
909.647	7065
909.762	7141
909.878	7061
909.993	7156
910.108	7080
910.224	7038
910.339	7050
910.454	7027
910.57	7004
910.685	6966
910.8	7164
910.915	7069
911.03	7004
911.145	6867
911.259	6920
911.374	6943
911.489	6848
911.604	6833
911.718	6738
911.833	6745
911.947	6658
912.062	6608
912.176	6776
912.291	6696
912.405	6726
912.519	6798
912.633	6863
912.748	6772
912.862	6726
912.976	6589
913.09	6536
913.204	6578
913.318	6585
913.431	6658
913.545	6627
913.659	6711
913.772	6665
913.886	6563
914	6467
914.113	6604
914.226	6741
914.34	6601
914.453	6486
914.566	6631
914.68	6566
914.793	6517
914.906	6414
915.019	6403
915.132	6399
915.245	6479
915.358	6494
915.47	6464
915.583	6475
915.696	6471
915.809	6502
915.921	6528
916.034	6437
916.146	6422
916.259	6441
916.371	6437
916.483	6407
916.595	6403
916.708	6391
916.82	6376
916.932	6388
917.044	6350
917.156	6395
917.268	6285
917.38	6369
917.491	6323
917.603	6357
917.715	6422
917.826	6452
917.938	6323
918.049	6254
918.161	6262
918.272	6456
918.384	6418
918.495	6410
918.606	6277
918.717	6178
918.828	6311
918.939	6285
919.05	6194
919.161	6235
919.272	6114
919.383	6205
919.494	6235
919.604	6395
919.715	6296
919.826	6220
919.936	6292
920.047	6361
920.157	6266
920.267	6456
920.378	6338
920.488	6300
920.598	6452
920.708	6555
920.818	6456
920.928	6452
921.038	6570
921.148	6559
921.258	6353
921.368	6281
921.477	6235
921.587	6159
921.697	6125
921.806	6194
921.916	6140
922.025	5973
922.134	5935
922.244	5901
922.353	5935
922.462	5805
922.571	5863
922.68	5714
922.789	5665
922.898	5752
923.007	5611
923.116	5707
923.224	5688
923.333	5676
923.442	5596
923.55	5570
923.659	5581
923.767	5611
923.876	5543
923.984	5604
924.092	5532
924.201	5596
924.309	5543
924.417	5509
924.525	5558
924.633	5497
924.741	6315
924.849	5372
924.956	5490
925.064	5357
925.172	5277
925.279	5273
925.387	5334
925.494	5326
925.602	5444
925.709	5410
925.816	5258
925.924	5296
926.031	5368
926.138	5307
926.245	5353
926.352	5216
926.459	5341
926.566	5296
926.673	5239
926.779	5143
926.886	5159
926.993	5037
927.099	4995
927.206	4968
927.312	4961
927.419	5006
927.525	4949
927.631	5014
927.737	4873
927.843	4877
927.95	4767
928.056	4850
928.162	4809
928.267	4820
928.373	5337
928.479	4877
928.585	4687
928.69	4782
928.796	4843
928.901	4660
929.007	4599
929.112	4660
929.218	4634
929.323	4637
929.428	4558
929.533	4683
929.638	4493
929.743	4561
929.848	4599
929.953	4485
930.058	4462
930.163	4303
930.267	4356
930.372	4428
930.477	4322
930.581	4504
930.685	4352
930.79	4284
930.894	4322
930.998	4265
931.103	4394
931.207	4120
931.311	4082
931.415	4051
931.519	3922
931.623	3915
