Data from glass_V78500241_2279.txt Node
Date: Wed Sep 01 19:30:17 CST 2021
User: usil
Spectrometer: V785-0024
Trigger mode: 0
Integration Time (sec): 4.000000E-1
Scans to average: 1
Nonlinearity correction enabled: false
Boxcar width: 0
Storing dark spectrum: false
XAxis mode: Wavelengths
Number of Pixels in Spectrum: 1024
>>>>>Begin Spectral Data<<<<<
801.071	3740
801.214	3759
801.356	3728
801.499	3747
801.641	3717
801.783	3759
801.926	3850
802.068	3800
802.211	3838
802.353	3865
802.496	3842
802.638	3865
802.78	3873
802.923	3896
803.065	3880
803.208	3842
803.35	3884
803.492	3888
803.635	3896
803.777	3781
803.919	3876
804.061	4105
804.204	3941
804.346	3926
804.488	3907
804.63	4029
804.773	3968
804.915	3991
805.057	4105
805.199	4010
805.341	4063
805.483	4120
805.626	4112
805.768	4124
805.91	4158
806.052	4219
806.194	4185
806.336	4344
806.478	4249
806.62	4169
806.762	4177
806.904	4227
807.046	4329
807.188	4185
807.33	4177
807.472	4242
807.614	4173
807.756	4276
807.898	4185
808.04	4227
808.182	4272
808.324	4356
808.465	4398
808.607	4413
808.749	4455
808.891	4462
809.033	4485
809.174	4371
809.316	4207
809.458	4242
809.6	4154
809.741	4109
809.883	4082
810.025	4169
810.166	4207
810.308	4196
810.45	4234
810.591	4196
810.733	4280
810.875	4519
811.016	4862
811.158	5098
811.299	5318
811.441	5284
811.582	5098
811.724	4691
811.865	4455
812.007	4436
812.148	4386
812.29	4413
812.431	4413
812.573	4443
812.714	4375
812.855	4390
812.997	4409
813.138	4447
813.279	4390
813.421	4379
813.562	4329
813.703	4348
813.845	4284
813.986	4272
814.127	4192
814.268	4265
814.41	4272
814.551	4238
814.692	4295
814.833	4238
814.974	4234
815.115	4318
815.256	4234
815.397	4211
815.539	4246
815.68	4185
815.821	4196
815.962	4318
816.103	4291
816.244	4230
816.385	4177
816.526	4291
816.666	4215
816.807	4086
816.948	4150
817.089	4158
817.23	4074
817.371	4059
817.512	4048
817.653	4025
817.793	4055
817.934	4036
818.075	4090
818.216	4124
818.356	4078
818.497	4002
818.638	3892
818.778	3896
818.919	3861
819.06	3827
819.2	3911
819.341	3865
819.481	3831
819.622	3865
819.762	3994
819.903	3907
820.043	3842
820.184	3831
820.324	3850
820.465	3888
820.605	3869
820.746	3884
820.886	3797
821.026	3941
821.167	3899
821.307	3983
821.447	3941
821.588	3972
821.728	3991
821.868	3926
822.008	3850
822.149	3941
822.289	3915
822.429	3762
822.569	3720
822.709	3804
822.849	3671
822.99	3698
823.13	3740
823.27	3797
823.41	3686
823.55	3732
823.69	3713
823.83	3755
823.97	3671
824.11	3584
824.25	3584
824.389	3610
824.529	3656
824.669	3614
824.809	3724
824.949	3713
825.089	3709
825.228	3682
825.368	3580
825.508	3576
825.648	3572
825.787	3610
825.927	3637
826.067	3637
826.206	3675
826.346	3766
826.485	3789
826.625	3816
826.765	3922
826.904	3835
827.044	3610
827.183	3538
827.323	3412
827.462	3485
827.601	3435
827.741	3397
827.88	3405
828.02	3332
828.159	3424
828.298	3481
828.437	3511
828.577	3454
828.716	3572
828.855	3492
828.994	3370
829.134	3401
829.273	3359
829.412	3313
829.551	3310
829.69	3359
829.829	3447
829.968	3553
830.107	3454
830.246	3454
830.385	3389
830.524	3344
830.663	3264
830.802	3256
830.941	3207
831.08	3237
831.219	3283
831.357	3268
831.496	3405
831.635	3226
831.774	3157
831.913	3192
832.051	3142
832.19	3108
832.329	3195
832.467	3100
832.606	3127
832.744	3157
832.883	3150
833.022	3184
833.16	3241
833.299	3317
833.437	3317
833.576	3355
833.714	3374
833.852	3412
833.991	3412
834.129	3481
834.267	3447
834.406	3397
834.544	3412
834.682	3393
834.821	3340
834.959	3538
835.097	3370
835.235	3538
835.373	3477
835.511	3488
835.65	3447
835.788	3477
835.926	3386
836.064	3378
836.202	3370
836.34	3568
836.478	3614
836.615	3504
836.753	3549
836.891	3652
837.029	3572
837.167	3564
837.305	3549
837.443	3515
837.58	3507
837.718	3618
837.856	3553
837.993	3523
838.131	3580
838.269	3564
838.406	3591
838.544	3564
838.681	3435
838.819	3431
838.956	3351
839.094	3359
839.231	3420
839.369	3511
839.506	3720
839.643	3637
839.781	3485
839.918	3477
840.055	3507
840.193	3492
840.33	3485
840.467	3557
840.604	3564
840.742	3740
840.879	3561
841.016	3542
841.153	3584
841.29	3747
841.427	3717
841.564	3717
841.701	3755
841.838	3690
841.975	3698
842.112	3713
842.249	3648
842.385	3622
842.522	3835
842.659	3682
842.796	3686
842.933	3652
843.069	3713
843.206	3690
843.343	3823
843.479	3793
843.616	3812
843.752	3641
843.889	3675
844.025	3835
844.162	3675
844.298	3857
844.435	3797
844.571	3800
844.708	3899
844.844	3979
844.98	3991
845.117	3987
845.253	3926
845.389	3876
845.525	3983
845.661	3956
845.798	3903
845.934	3975
846.07	3934
846.206	4029
846.342	4128
846.478	4029
846.614	3972
846.75	3937
846.886	3922
847.022	4029
847.158	3915
847.294	3968
847.429	3994
847.565	4010
847.701	4227
847.837	3873
847.972	3876
848.108	3991
848.244	3972
848.379	3816
848.515	3793
848.65	3808
848.786	3816
848.921	3857
849.057	3918
849.192	3949
849.328	3907
849.463	3903
849.598	3892
849.734	3861
849.869	3819
850.004	3804
850.14	3762
850.275	3755
850.41	3720
850.545	3728
850.68	3781
850.815	3785
850.95	3774
851.085	3941
851.22	3873
851.355	3808
851.49	3781
851.625	3827
851.76	3759
851.895	3732
852.03	3740
852.165	3808
852.299	3838
852.434	3880
852.569	3831
852.703	3869
852.838	3930
852.973	3968
853.107	3987
853.242	3831
853.376	3854
853.511	3819
853.645	3827
853.78	3964
853.914	3857
854.048	3846
854.183	3884
854.317	3915
854.451	4074
854.585	3953
854.72	3937
854.854	4036
854.988	3911
855.122	3979
855.256	3903
855.39	4040
855.524	4105
855.658	4051
855.792	4101
855.926	4196
856.06	4166
856.194	4215
856.327	4124
856.461	4139
856.595	4116
856.729	4147
856.862	4280
856.996	4242
857.13	4310
857.263	4303
857.397	4325
857.53	4265
857.664	4333
857.797	4348
857.931	4424
858.064	4383
858.197	4443
858.331	4405
858.464	4306
858.597	4344
858.731	4417
858.864	4451
858.997	4447
859.13	4508
859.263	4569
859.396	4538
859.529	4489
859.662	4538
859.795	4508
859.928	4573
860.061	4698
860.194	4691
860.327	4672
860.46	4618
860.592	4679
860.725	4752
860.858	4786
860.99	4710
861.123	4706
861.256	4710
861.388	4767
861.521	5493
861.653	4702
861.786	4664
861.918	4714
862.05	4755
862.183	4801
862.315	4850
862.447	4911
862.58	4831
862.712	4797
862.844	4763
862.976	4850
863.108	4847
863.24	5147
863.372	4778
863.504	4892
863.636	4889
863.768	4961
863.9	4946
864.032	4942
864.164	4942
864.296	5010
864.428	5029
864.559	5098
864.691	5117
864.823	5102
864.954	5155
865.086	5136
865.217	5102
865.349	5121
865.48	5155
865.612	5140
865.743	5311
865.875	5185
866.006	5181
866.137	5265
866.269	5231
866.4	5197
866.531	5227
866.662	5204
866.793	5231
866.924	5189
867.055	5368
867.186	5334
867.317	5318
867.448	5311
867.579	5337
867.71	5414
867.841	5334
867.972	5414
868.103	5398
868.233	5471
868.364	5414
868.495	5573
868.625	5737
868.756	5748
868.886	5695
869.017	5646
869.147	5859
869.278	5893
869.408	5824
869.539	5908
869.669	5863
869.799	5912
869.929	5961
870.06	5980
870.19	6224
870.32	6155
870.45	6224
870.58	6338
870.71	6426
870.84	6372
870.97	6407
871.1	6467
871.23	6578
871.36	6669
871.489	6635
871.619	6734
871.749	6753
871.879	6859
872.008	6939
872.138	6970
872.267	6966
872.397	7019
872.526	7027
872.656	7072
872.785	7095
872.915	7396
873.044	7487
873.173	7514
873.303	7704
873.432	7700
873.561	7898
873.69	7883
873.819	8008
873.948	8092
874.077	8240
874.206	8393
874.335	8476
874.464	8617
874.593	8800
874.722	8864
874.851	9154
874.979	9207
875.108	9313
875.237	9439
875.365	9526
875.494	9648
875.623	9774
875.751	9835
875.88	10029
876.008	10143
876.136	10246
876.265	10558
876.393	10656
876.521	10687
876.65	10694
876.778	10774
876.906	10911
877.034	10904
877.162	11045
877.29	11113
877.418	11269
877.546	11387
877.674	11322
877.802	11509
877.93	11516
878.058	11638
878.185	11562
878.313	11676
878.441	11668
878.568	11619
878.696	11843
878.824	11836
878.951	11912
879.079	12026
879.206	12148
879.333	12045
879.461	11965
879.588	12045
879.715	12041
879.842	12167
879.97	12045
880.097	11836
880.224	11866
880.351	11916
880.478	11866
880.605	11889
880.732	11874
880.859	11946
880.986	11920
881.112	11889
881.239	11699
881.366	11722
881.493	11589
881.619	11539
881.746	11512
881.872	11535
881.999	11505
882.125	11509
882.252	11505
882.378	11395
882.505	11566
882.631	11395
882.757	11277
882.883	11337
883.01	11201
883.136	11189
883.262	11181
883.388	11029
883.514	11193
883.64	11121
883.766	11151
883.892	11018
884.018	10965
884.143	10980
884.269	11132
884.395	10809
884.52	10736
884.646	10835
884.772	10744
884.897	10645
885.023	10771
885.148	10679
885.274	10782
885.399	10626
885.524	10615
885.65	10497
885.775	10584
885.9	10584
886.025	10512
886.15	10497
886.275	10405
886.4	10424
886.525	10478
886.65	10363
886.775	10314
886.9	10497
887.025	10497
887.149	10356
887.274	10287
887.399	10082
887.523	10196
887.648	10116
887.773	10131
887.897	10185
888.021	10166
888.146	10162
888.27	10147
888.395	10135
888.519	10204
888.643	10143
888.767	10139
888.891	10002
889.015	10013
889.139	10059
889.263	9922
889.387	10051
889.511	10074
889.635	9994
889.759	9930
889.883	10010
890.006	10040
890.13	10097
890.254	9987
890.377	9930
890.501	9800
890.624	9842
890.748	9941
890.871	9778
890.995	9804
891.118	9679
891.241	9751
891.364	9705
891.488	9854
891.611	9751
891.734	9743
891.857	9736
891.98	9686
892.103	9747
892.226	9747
892.349	9663
892.471	9481
892.594	9622
892.717	9652
892.839	9587
892.962	9591
893.085	9595
893.207	9488
893.33	9519
893.452	9492
893.575	9549
893.697	9500
893.819	9614
893.941	9625
894.064	9637
894.186	9351
894.308	9428
894.43	9473
894.552	9561
894.674	9507
894.796	9405
894.918	9420
895.04	9283
895.161	9363
895.283	9310
895.405	9161
895.526	9241
895.648	9211
895.769	9214
895.891	9253
896.012	9253
896.134	9256
896.255	9150
896.376	9157
896.498	9123
896.619	9112
896.74	9089
896.861	9036
896.982	9253
897.103	9176
897.224	9195
897.345	9085
897.466	9020
897.587	8994
897.708	9093
897.828	8982
897.949	8937
898.07	8853
898.19	8853
898.311	9062
898.431	8975
898.552	8868
898.672	9032
898.792	8967
898.913	8887
899.033	8746
899.153	8727
899.273	8644
899.393	8651
899.513	8743
899.633	8708
899.753	8735
899.873	8689
899.993	8750
900.113	8705
900.232	8689
900.352	8632
900.472	8663
900.591	8533
900.711	8564
900.83	8583
900.95	8678
901.069	8678
901.189	8541
901.308	8419
901.427	8320
901.546	8469
901.665	8488
901.784	8450
901.904	8381
902.023	8294
902.141	8225
902.26	8206
902.379	8240
902.498	8206
902.617	8199
902.735	8271
902.854	8233
902.973	8298
903.091	8062
903.21	8123
903.328	8153
903.446	8092
903.565	8027
903.683	8130
903.801	7955
903.919	8149
904.038	8138
904.156	7997
904.274	8123
904.392	8016
904.51	8031
904.627	8046
904.745	8043
904.863	8107
904.981	7951
905.098	7940
905.216	7906
905.334	7936
905.451	7807
905.569	7875
905.686	7913
905.803	7894
905.921	7780
906.038	7856
906.155	7772
906.272	7750
906.389	7727
906.506	7647
906.623	7609
906.74	7540
906.857	7540
906.974	7514
907.091	7651
907.208	7719
907.324	7590
907.441	7575
907.557	7525
907.674	7403
907.79	7400
907.907	7377
908.023	7434
908.139	7400
908.256	7365
908.372	7343
908.488	7285
908.604	7282
908.72	7156
908.836	7308
908.952	7225
909.068	7270
909.184	7331
909.3	7247
909.415	7221
909.531	7308
909.647	7133
909.762	7129
909.878	7129
909.993	7126
910.108	7053
910.224	7042
910.339	7057
910.454	7061
910.57	7034
910.685	6962
910.8	7160
910.915	7110
911.03	7042
911.145	6871
911.259	6913
911.374	6920
911.489	6837
911.604	6798
911.718	6730
911.833	6719
911.947	6612
912.062	6639
912.176	6734
912.291	6658
912.405	6635
912.519	6798
912.633	6833
912.748	6730
912.862	6726
912.976	6585
913.09	6502
913.204	6517
913.318	6608
913.431	6650
913.545	6681
913.659	6703
913.772	6604
913.886	6555
914	6532
914.113	6627
914.226	6722
914.34	6574
914.453	6452
914.566	6582
914.68	6456
914.793	6570
914.906	6429
915.019	6429
915.132	6350
915.245	6426
915.358	6410
915.47	6460
915.583	6445
915.696	6433
915.809	6528
915.921	6464
916.034	6410
916.146	6395
916.259	6361
916.371	6452
916.483	6410
916.595	6365
916.708	6437
916.82	6346
916.932	6289
917.044	6369
917.156	6311
917.268	6323
917.38	6353
917.491	6270
917.603	6331
917.715	6376
917.826	6441
917.938	6273
918.049	6266
918.161	6315
918.272	6410
918.384	6452
918.495	6338
918.606	6235
918.717	6175
918.828	6243
918.939	6247
919.05	6182
919.161	6243
919.272	6079
919.383	6152
919.494	6254
919.604	6437
919.715	6239
919.826	6197
919.936	6289
920.047	6350
920.157	6311
920.267	6418
920.378	6300
920.488	6251
920.598	6471
920.708	6513
920.818	6433
920.928	6475
921.038	6544
921.148	6578
921.258	6376
921.368	6292
921.477	6216
921.587	6129
921.697	6079
921.806	6133
921.916	6098
922.025	5939
922.134	5939
922.244	5870
922.353	5939
922.462	5813
922.571	5775
922.68	5760
922.789	5699
922.898	5649
923.007	5642
923.116	5695
923.224	5627
923.333	5619
923.442	5581
923.55	5551
923.659	5611
923.767	5653
923.876	5516
923.984	5581
924.092	5497
924.201	5558
924.309	5532
924.417	5516
924.525	5528
924.633	5528
924.741	6296
924.849	5387
924.956	5478
925.064	5368
925.172	5288
925.279	5280
925.387	5360
925.494	5326
925.602	5452
925.709	5353
925.816	5326
925.924	5315
926.031	5311
926.138	5269
926.245	5357
926.352	5220
926.459	5296
926.566	5311
926.673	5227
926.779	5117
926.886	5090
926.993	5003
927.099	4980
927.206	4946
927.312	4995
927.419	4968
927.525	4961
927.631	4961
927.737	4904
927.843	4824
927.95	4782
928.056	4854
928.162	4858
928.267	4820
928.373	5349
928.479	4858
928.585	4664
928.69	4759
928.796	4786
928.901	4702
929.007	4588
929.112	4675
929.218	4641
929.323	4584
929.428	4565
929.533	4653
929.638	4519
929.743	4546
929.848	4577
929.953	4512
930.058	4443
930.163	4333
930.267	4337
930.372	4451
930.477	4303
930.581	4466
930.685	4356
930.79	4200
930.894	4303
930.998	4249
931.103	4390
931.207	4109
931.311	4055
931.415	3991
931.519	3972
931.623	3922
