Data from glass_V78500241_924.txt Node
Date: Wed Sep 01 19:20:54 CST 2021
User: usil
Spectrometer: V785-0024
Trigger mode: 0
Integration Time (sec): 4.000000E-1
Scans to average: 1
Nonlinearity correction enabled: false
Boxcar width: 0
Storing dark spectrum: false
XAxis mode: Wavelengths
Number of Pixels in Spectrum: 1024
>>>>>Begin Spectral Data<<<<<
801.071	3774
801.214	3732
801.356	3736
801.499	3781
801.641	3816
801.783	3808
801.926	3884
802.068	3838
802.211	3869
802.353	3922
802.496	3865
802.638	3888
802.78	3865
802.923	3945
803.065	3869
803.208	3846
803.35	3911
803.492	3915
803.635	3899
803.777	3804
803.919	3903
804.061	4173
804.204	3987
804.346	3972
804.488	3922
804.63	4090
804.773	3998
804.915	4029
805.057	4166
805.199	4055
805.341	4078
805.483	4169
805.626	4185
805.768	4120
805.91	4246
806.052	4276
806.194	4238
806.336	4383
806.478	4287
806.62	4196
806.762	4192
806.904	4268
807.046	4306
807.188	4246
807.33	4166
807.472	4295
807.614	4185
807.756	4261
807.898	4185
808.04	4242
808.182	4284
808.324	4352
808.465	4413
808.607	4455
808.749	4440
808.891	4523
809.033	4550
809.174	4394
809.316	4276
809.458	4272
809.6	4154
809.741	4158
809.883	4181
810.025	4242
810.166	4211
810.308	4238
810.45	4253
810.591	4246
810.733	4318
810.875	4535
811.016	4816
811.158	5166
811.299	5273
811.441	5269
811.582	5067
811.724	4687
811.865	4462
812.007	4481
812.148	4478
812.29	4451
812.431	4436
812.573	4409
812.714	4398
812.855	4394
812.997	4462
813.138	4508
813.279	4424
813.421	4383
813.562	4447
813.703	4371
813.845	4360
813.986	4253
814.127	4238
814.268	4246
814.41	4291
814.551	4238
814.692	4352
814.833	4280
814.974	4295
815.115	4383
815.256	4230
815.397	4227
815.539	4276
815.68	4204
815.821	4200
815.962	4299
816.103	4318
816.244	4249
816.385	4181
816.526	4265
816.666	4204
816.807	4090
816.948	4204
817.089	4192
817.23	4150
817.371	4128
817.512	4051
817.653	4086
817.793	4029
817.934	4029
818.075	4116
818.216	4120
818.356	4067
818.497	4002
818.638	3918
818.778	3918
818.919	3888
819.06	3880
819.2	3949
819.341	3884
819.481	3838
819.622	3888
819.762	4048
819.903	3937
820.043	3884
820.184	3812
820.324	3838
820.465	3838
820.605	3884
820.746	3884
820.886	3850
821.026	3926
821.167	3937
821.307	3998
821.447	4010
821.588	4029
821.728	3945
821.868	3945
822.008	3896
822.149	3937
822.289	3949
822.429	3835
822.569	3759
822.709	3781
822.849	3724
822.99	3766
823.13	3800
823.27	3831
823.41	3732
823.55	3751
823.69	3717
823.83	3759
823.97	3682
824.11	3618
824.25	3587
824.389	3656
824.529	3701
824.669	3663
824.809	3720
824.949	3778
825.089	3774
825.228	3705
825.368	3542
825.508	3553
825.648	3591
825.787	3629
825.927	3652
826.067	3675
826.206	3663
826.346	3770
826.485	3861
826.625	3930
826.765	3926
826.904	3865
827.044	3633
827.183	3553
827.323	3454
827.462	3526
827.601	3435
827.741	3462
827.88	3492
828.02	3405
828.159	3458
828.298	3439
828.437	3553
828.577	3485
828.716	3625
828.855	3507
828.994	3393
829.134	3359
829.273	3401
829.412	3367
829.551	3363
829.69	3378
829.829	3416
829.968	3504
830.107	3469
830.246	3469
830.385	3386
830.524	3393
830.663	3313
830.802	3279
830.941	3214
831.08	3188
831.219	3283
831.357	3294
831.496	3409
831.635	3233
831.774	3230
831.913	3230
832.051	3127
832.19	3165
832.329	3207
832.467	3119
832.606	3138
832.744	3146
832.883	3218
833.022	3207
833.16	3241
833.299	3332
833.437	3321
833.576	3374
833.714	3382
833.852	3428
833.991	3409
834.129	3496
834.267	3447
834.406	3405
834.544	3401
834.682	3492
834.821	3416
834.959	3599
835.097	3378
835.235	3534
835.373	3492
835.511	3462
835.65	3485
835.788	3526
835.926	3450
836.064	3393
836.202	3488
836.34	3557
836.478	3625
836.615	3580
836.753	3637
836.891	3622
837.029	3637
837.167	3595
837.305	3584
837.443	3618
837.58	3466
837.718	3622
837.856	3572
837.993	3542
838.131	3603
838.269	3637
838.406	3625
838.544	3587
838.681	3469
838.819	3447
838.956	3382
839.094	3405
839.231	3458
839.369	3507
839.506	3781
839.643	3622
839.781	3458
839.918	3523
840.055	3534
840.193	3564
840.33	3519
840.467	3561
840.604	3591
840.742	3819
840.879	3614
841.016	3561
841.153	3625
841.29	3759
841.427	3713
841.564	3717
841.701	3732
841.838	3698
841.975	3690
842.112	3709
842.249	3644
842.385	3641
842.522	3808
842.659	3709
842.796	3671
842.933	3755
843.069	3724
843.206	3720
843.343	3827
843.479	3831
843.616	3789
843.752	3690
843.889	3701
844.025	3884
844.162	3713
844.298	3842
844.435	3781
844.571	3785
844.708	3926
844.844	3968
844.98	4017
845.117	4040
845.253	3953
845.389	3907
845.525	3949
845.661	3991
845.798	3975
845.934	3979
846.07	3956
846.206	4059
846.342	4112
846.478	4067
846.614	3975
846.75	3915
846.886	3896
847.022	4063
847.158	3979
847.294	4002
847.429	4006
847.565	3979
847.701	4242
847.837	3930
847.972	3861
848.108	4006
848.244	4017
848.379	3896
848.515	3861
848.65	3812
848.786	3808
848.921	3896
849.057	3960
849.192	3972
849.328	3915
849.463	3892
849.598	3876
849.734	3915
849.869	3823
850.004	3831
850.14	3827
850.275	3812
850.41	3740
850.545	3759
850.68	3789
850.815	3831
850.95	3785
851.085	3907
851.22	3873
851.355	3831
851.49	3812
851.625	3770
851.76	3759
851.895	3762
852.03	3736
852.165	3797
852.299	3884
852.434	3869
852.569	3854
852.703	3884
852.838	3930
852.973	4044
853.107	3998
853.242	3918
853.376	3873
853.511	3736
853.645	3827
853.78	3983
853.914	3884
854.048	3915
854.183	3934
854.317	3972
854.451	4120
854.585	3994
854.72	4002
854.854	4063
854.988	3934
855.122	4017
855.256	3968
855.39	3972
855.524	4135
855.658	4109
855.792	4128
855.926	4147
856.06	4196
856.194	4166
856.327	4135
856.461	4128
856.595	4185
856.729	4166
856.862	4287
856.996	4242
857.13	4333
857.263	4363
857.397	4383
857.53	4265
857.664	4367
857.797	4383
857.931	4440
858.064	4402
858.197	4436
858.331	4398
858.464	4383
858.597	4363
858.731	4440
858.864	4478
858.997	4478
859.13	4504
859.263	4531
859.396	4618
859.529	4554
859.662	4558
859.795	4527
859.928	4630
860.061	4675
860.194	4771
860.327	4634
860.46	4634
860.592	4759
860.725	4763
860.858	4774
860.99	4584
861.123	4736
861.256	4736
861.388	4717
861.521	5512
861.653	4733
861.786	4786
861.918	4755
862.05	4828
862.183	4877
862.315	4930
862.447	4934
862.58	4942
862.712	4854
862.844	4782
862.976	4919
863.108	4923
863.24	5204
863.372	4862
863.504	4862
863.636	4904
863.768	5010
863.9	4991
864.032	4900
864.164	4968
864.296	5064
864.428	5128
864.559	5090
864.691	5128
864.823	5162
864.954	5162
865.086	5151
865.217	5117
865.349	5109
865.48	5143
865.612	5220
865.743	5265
865.875	5242
866.006	5204
866.137	5284
866.269	5235
866.4	5261
866.531	5250
866.662	5254
866.793	5288
866.924	5315
867.055	5337
867.186	5391
867.317	5334
867.448	5311
867.579	5402
867.71	5395
867.841	5429
867.972	5459
868.103	5482
868.233	5471
868.364	5532
868.495	5611
868.625	5676
868.756	5813
868.886	5672
869.017	5752
869.147	5897
869.278	5866
869.408	5821
869.539	5874
869.669	5920
869.799	5996
869.929	6026
870.06	5999
870.19	6228
870.32	6197
870.45	6285
870.58	6357
870.71	6388
870.84	6490
870.97	6395
871.1	6475
871.23	6658
871.36	6673
871.489	6719
871.619	6745
871.749	6852
871.879	6825
872.008	7000
872.138	7023
872.267	7023
872.397	6996
872.526	6985
872.656	7198
872.785	7160
872.915	7392
873.044	7533
873.173	7571
873.303	7727
873.432	7704
873.561	7875
873.69	7913
873.819	7959
873.948	8248
874.077	8282
874.206	8275
874.335	8503
874.464	8651
874.593	8857
874.722	8960
874.851	9112
874.979	9294
875.108	9386
875.237	9466
875.365	9439
875.494	9618
875.623	9827
875.751	9850
875.88	10017
876.008	10112
876.136	10314
876.265	10466
876.393	10698
876.521	10740
876.65	10873
876.778	10896
876.906	10923
877.034	10991
877.162	11090
877.29	11166
877.418	11395
877.546	11345
877.674	11368
877.802	11459
877.93	11657
878.058	11501
878.185	11570
878.313	11657
878.441	11805
878.568	11661
878.696	11741
878.824	11958
878.951	12015
879.079	12019
879.206	12125
879.333	12049
879.461	11958
879.588	12049
879.715	12060
879.842	12205
879.97	12117
880.097	11904
880.224	11916
880.351	11912
880.478	11920
880.605	11824
880.732	11798
880.859	12049
880.986	11752
881.112	11783
881.239	11737
881.366	11676
881.493	11634
881.619	11577
881.746	11562
881.872	11528
881.999	11581
882.125	11474
882.252	11615
882.378	11573
882.505	11516
882.631	11334
882.757	11246
882.883	11330
883.01	11330
883.136	11212
883.262	11006
883.388	11048
883.514	11288
883.64	11178
883.766	11128
883.892	10999
884.018	10919
884.143	11079
884.269	11140
884.395	10850
884.52	10744
884.646	10714
884.772	10702
884.897	10637
885.023	10759
885.148	10748
885.274	10820
885.399	10733
885.524	10649
885.65	10596
885.775	10599
885.9	10550
886.025	10622
886.15	10546
886.275	10508
886.4	10337
886.525	10413
886.65	10413
886.775	10299
886.9	10550
887.025	10527
887.149	10398
887.274	10287
887.399	10169
887.523	10219
887.648	10177
887.773	10131
887.897	10215
888.021	10230
888.146	10204
888.27	10143
888.395	10219
888.519	10131
888.643	10204
888.767	10169
888.891	10040
889.015	9987
889.139	10025
889.263	10048
889.387	10021
889.511	10131
889.635	10112
889.759	10040
889.883	10017
890.006	9968
890.13	10150
890.254	9907
890.377	9987
890.501	9842
890.624	9876
890.748	9869
890.871	9778
890.995	9800
891.118	9679
891.241	9766
891.364	9812
891.488	9835
891.611	9747
891.734	9778
891.857	9766
891.98	9732
892.103	9804
892.226	9770
892.349	9717
892.471	9549
892.594	9633
892.717	9603
892.839	9519
892.962	9629
893.085	9641
893.207	9542
893.33	9454
893.452	9576
893.575	9576
893.697	9515
893.819	9603
893.941	9663
894.064	9603
894.186	9500
894.308	9488
894.43	9564
894.552	9606
894.674	9481
894.796	9370
894.918	9332
895.04	9336
895.161	9466
895.283	9428
895.405	9249
895.526	9310
895.648	9260
895.769	9279
895.891	9272
896.012	9321
896.134	9230
896.255	9161
896.376	9146
896.498	9180
896.619	9169
896.74	9058
896.861	9157
896.982	9207
897.103	9340
897.224	9146
897.345	9093
897.466	9058
897.587	8986
897.708	9112
897.828	9058
897.949	8975
898.07	8880
898.19	8899
898.311	8998
898.431	8880
898.552	8956
898.672	8948
898.792	8944
898.913	8921
899.033	8834
899.153	8724
899.273	8617
899.393	8708
899.513	8781
899.633	8724
899.753	8727
899.873	8697
899.993	8750
900.113	8701
900.232	8712
900.352	8648
900.472	8590
900.591	8602
900.711	8625
900.83	8568
900.95	8651
901.069	8659
901.189	8617
901.308	8362
901.427	8400
901.546	8461
901.665	8514
901.784	8480
901.904	8473
902.023	8343
902.141	8237
902.26	8191
902.379	8317
902.498	8244
902.617	8142
902.735	8374
902.854	8317
902.973	8336
903.091	8092
903.21	8103
903.328	8202
903.446	8176
903.565	8103
903.683	8149
903.801	8031
903.919	8145
904.038	8119
904.156	8005
904.274	8088
904.392	8065
904.51	8035
904.627	8081
904.745	8069
904.863	8069
904.981	8012
905.098	7879
905.216	7879
905.334	7902
905.451	7898
905.569	7887
905.686	7978
905.803	7940
905.921	7830
906.038	7856
906.155	7818
906.272	7772
906.389	7731
906.506	7689
906.623	7597
906.74	7559
906.857	7529
906.974	7597
907.091	7632
907.208	7784
907.324	7616
907.441	7540
907.557	7502
907.674	7499
907.79	7343
907.907	7449
908.023	7441
908.139	7491
908.256	7441
908.372	7381
908.488	7365
908.604	7285
908.72	7274
908.836	7225
908.952	7232
909.068	7259
909.184	7362
909.3	7266
909.415	7335
909.531	7308
909.647	7103
909.762	7088
909.878	7110
909.993	7133
910.108	7149
910.224	7141
910.339	7145
910.454	7088
910.57	7038
910.685	6935
910.8	7171
910.915	7213
911.03	7008
911.145	6901
911.259	6916
911.374	6901
911.489	6871
911.604	6856
911.718	6760
911.833	6768
911.947	6692
912.062	6642
912.176	6715
912.291	6692
912.405	6734
912.519	6814
912.633	6867
912.748	6707
912.862	6749
912.976	6601
913.09	6528
913.204	6608
913.318	6646
913.431	6696
913.545	6734
913.659	6730
913.772	6639
913.886	6589
914	6582
914.113	6654
914.226	6654
914.34	6593
914.453	6456
914.566	6604
914.68	6574
914.793	6574
914.906	6410
915.019	6414
915.132	6429
915.245	6483
915.358	6437
915.47	6433
915.583	6513
915.696	6486
915.809	6582
915.921	6464
916.034	6426
916.146	6460
916.259	6376
916.371	6532
916.483	6445
916.595	6338
916.708	6437
916.82	6426
916.932	6418
917.044	6410
917.156	6418
917.268	6350
917.38	6327
917.491	6346
917.603	6410
917.715	6407
917.826	6460
917.938	6346
918.049	6247
918.161	6429
918.272	6422
918.384	6441
918.495	6304
918.606	6243
918.717	6232
918.828	6334
918.939	6315
919.05	6220
919.161	6251
919.272	6148
919.383	6159
919.494	6311
919.604	6433
919.715	6289
919.826	6216
919.936	6296
920.047	6365
920.157	6251
920.267	6490
920.378	6395
920.488	6266
920.598	6486
920.708	6536
920.818	6464
920.928	6467
921.038	6620
921.148	6570
921.258	6319
921.368	6266
921.477	6197
921.587	6190
921.697	6053
921.806	6186
921.916	6053
922.025	5999
922.134	5855
922.244	5920
922.353	6053
922.462	5863
922.571	5786
922.68	5729
922.789	5733
922.898	5676
923.007	5630
923.116	5722
923.224	5691
923.333	5672
923.442	5596
923.55	5566
923.659	5642
923.767	5638
923.876	5535
923.984	5634
924.092	5493
924.201	5573
924.309	5585
924.417	5592
924.525	5509
924.633	5474
924.741	6121
924.849	5364
924.956	5448
925.064	5349
925.172	5318
925.279	5341
925.387	5372
925.494	5311
925.602	5414
925.709	5395
925.816	5254
925.924	5299
926.031	5337
926.138	5341
926.245	5315
926.352	5185
926.459	5334
926.566	5303
926.673	5246
926.779	5223
926.886	5086
926.993	5041
927.099	4980
927.206	5006
927.312	4961
927.419	5071
927.525	5090
927.631	4995
927.737	4908
927.843	4866
927.95	4774
928.056	4847
928.162	4843
928.267	4919
928.373	5337
928.479	4889
928.585	4668
928.69	4755
928.796	4820
928.901	4706
929.007	4637
929.112	4702
929.218	4641
929.323	4645
929.428	4592
929.533	4683
929.638	4500
929.743	4538
929.848	4485
929.953	4527
930.058	4432
930.163	4386
930.267	4383
930.372	4428
930.477	4325
930.581	4523
930.685	4390
930.79	4284
930.894	4322
930.998	4257
931.103	4386
931.207	4109
931.311	4093
931.415	4105
931.519	3915
931.623	3922
