Data from glass_V78500241_2467.txt Node
Date: Wed Sep 01 19:31:36 CST 2021
User: usil
Spectrometer: V785-0024
Trigger mode: 0
Integration Time (sec): 4.000000E-1
Scans to average: 1
Nonlinearity correction enabled: false
Boxcar width: 0
Storing dark spectrum: false
XAxis mode: Wavelengths
Number of Pixels in Spectrum: 1024
>>>>>Begin Spectral Data<<<<<
801.071	3701
801.214	3728
801.356	3694
801.499	3720
801.641	3717
801.783	3778
801.926	3838
802.068	3816
802.211	3854
802.353	3842
802.496	3842
802.638	3922
802.78	3880
802.923	3926
803.065	3964
803.208	3827
803.35	3842
803.492	3941
803.635	3911
803.777	3816
803.919	3850
804.061	4139
804.204	3979
804.346	3918
804.488	3876
804.63	4017
804.773	3998
804.915	3983
805.057	4131
805.199	4067
805.341	4036
805.483	4109
805.626	4101
805.768	4082
805.91	4173
806.052	4147
806.194	4204
806.336	4322
806.478	4253
806.62	4211
806.762	4185
806.904	4246
807.046	4261
807.188	4276
807.33	4196
807.472	4249
807.614	4162
807.756	4261
807.898	4177
808.04	4253
808.182	4261
808.324	4310
808.465	4375
808.607	4466
808.749	4436
808.891	4443
809.033	4478
809.174	4379
809.316	4257
809.458	4196
809.6	4192
809.741	4112
809.883	4109
810.025	4177
810.166	4215
810.308	4234
810.45	4272
810.591	4253
810.733	4265
810.875	4584
811.016	4831
811.158	5201
811.299	5242
811.441	5242
811.582	5083
811.724	4664
811.865	4500
812.007	4489
812.148	4390
812.29	4409
812.431	4383
812.573	4379
812.714	4325
812.855	4417
812.997	4428
813.138	4478
813.279	4390
813.421	4363
813.562	4375
813.703	4333
813.845	4325
813.986	4276
814.127	4135
814.268	4249
814.41	4306
814.551	4234
814.692	4314
814.833	4276
814.974	4268
815.115	4306
815.256	4272
815.397	4207
815.539	4284
815.68	4177
815.821	4219
815.962	4356
816.103	4261
816.244	4257
816.385	4249
816.526	4257
816.666	4204
816.807	4082
816.948	4173
817.089	4185
817.23	4101
817.371	4078
817.512	4063
817.653	4101
817.793	4010
817.934	4040
818.075	4067
818.216	4090
818.356	4086
818.497	4013
818.638	3922
818.778	3945
818.919	3873
819.06	3812
819.2	3922
819.341	3865
819.481	3873
819.622	3915
819.762	4025
819.903	3956
820.043	3831
820.184	3797
820.324	3861
820.465	3899
820.605	3884
820.746	3880
820.886	3793
821.026	3888
821.167	3865
821.307	3964
821.447	3968
821.588	3888
821.728	3979
821.868	3926
822.008	3854
822.149	3903
822.289	3869
822.429	3770
822.569	3766
822.709	3800
822.849	3686
822.99	3705
823.13	3774
823.27	3720
823.41	3724
823.55	3705
823.69	3671
823.83	3713
823.97	3656
824.11	3610
824.25	3564
824.389	3614
824.529	3622
824.669	3614
824.809	3698
824.949	3747
825.089	3682
825.228	3694
825.368	3572
825.508	3542
825.648	3538
825.787	3595
825.927	3618
826.067	3603
826.206	3679
826.346	3762
826.485	3797
826.625	3854
826.765	3884
826.904	3785
827.044	3606
827.183	3500
827.323	3443
827.462	3473
827.601	3469
827.741	3405
827.88	3439
828.02	3367
828.159	3466
828.298	3466
828.437	3500
828.577	3477
828.716	3580
828.855	3469
828.994	3363
829.134	3382
829.273	3359
829.412	3363
829.551	3306
829.69	3336
829.829	3428
829.968	3511
830.107	3405
830.246	3420
830.385	3374
830.524	3359
830.663	3291
830.802	3237
830.941	3222
831.08	3176
831.219	3230
831.357	3241
831.496	3374
831.635	3230
831.774	3188
831.913	3173
832.051	3116
832.19	3161
832.329	3203
832.467	3142
832.606	3081
832.744	3116
832.883	3188
833.022	3195
833.16	3264
833.299	3264
833.437	3329
833.576	3386
833.714	3382
833.852	3405
833.991	3477
834.129	3454
834.267	3447
834.406	3382
834.544	3450
834.682	3405
834.821	3409
834.959	3553
835.097	3409
835.235	3538
835.373	3473
835.511	3485
835.65	3424
835.788	3450
835.926	3340
836.064	3317
836.202	3386
836.34	3568
836.478	3663
836.615	3549
836.753	3580
836.891	3648
837.029	3595
837.167	3572
837.305	3549
837.443	3500
837.58	3564
837.718	3591
837.856	3572
837.993	3534
838.131	3584
838.269	3564
838.406	3561
838.544	3538
838.681	3428
838.819	3454
838.956	3363
839.094	3370
839.231	3447
839.369	3523
839.506	3732
839.643	3633
839.781	3538
839.918	3431
840.055	3496
840.193	3549
840.33	3530
840.467	3576
840.604	3633
840.742	3789
840.879	3538
841.016	3542
841.153	3625
841.29	3770
841.427	3709
841.564	3713
841.701	3762
841.838	3686
841.975	3675
842.112	3694
842.249	3637
842.385	3606
842.522	3804
842.659	3644
842.796	3633
842.933	3740
843.069	3743
843.206	3705
843.343	3762
843.479	3770
843.616	3778
843.752	3671
843.889	3667
844.025	3861
844.162	3732
844.298	3838
844.435	3793
844.571	3800
844.708	3884
844.844	3994
844.98	4017
845.117	3991
845.253	3934
845.389	3896
845.525	3964
845.661	3922
845.798	3888
845.934	3972
846.07	3945
846.206	4036
846.342	4074
846.478	4097
846.614	3922
846.75	3934
846.886	3964
847.022	4006
847.158	3937
847.294	3991
847.429	3968
847.565	3968
847.701	4227
847.837	3880
847.972	3880
848.108	3964
848.244	3968
848.379	3808
848.515	3808
848.65	3808
848.786	3831
848.921	3854
849.057	3930
849.192	3937
849.328	3865
849.463	3899
849.598	3869
849.734	3869
849.869	3831
850.004	3770
850.14	3823
850.275	3751
850.41	3785
850.545	3717
850.68	3751
850.815	3804
850.95	3762
851.085	3960
851.22	3823
851.355	3812
851.49	3762
851.625	3785
851.76	3781
851.895	3713
852.03	3679
852.165	3736
852.299	3819
852.434	3907
852.569	3827
852.703	3884
852.838	3937
852.973	3956
853.107	4010
853.242	3884
853.376	3800
853.511	3743
853.645	3884
853.78	3956
853.914	3915
854.048	3880
854.183	3831
854.317	3945
854.451	4059
854.585	3930
854.72	3934
854.854	4002
854.988	3896
855.122	3975
855.256	3884
855.39	4002
855.524	4112
855.658	4082
855.792	4105
855.926	4124
856.06	4143
856.194	4196
856.327	4135
856.461	4166
856.595	4143
856.729	4116
856.862	4253
856.996	4249
857.13	4287
857.263	4291
857.397	4386
857.53	4299
857.664	4303
857.797	4398
857.931	4405
858.064	4379
858.197	4417
858.331	4329
858.464	4386
858.597	4348
858.731	4413
858.864	4440
858.997	4428
859.13	4516
859.263	4565
859.396	4554
859.529	4508
859.662	4485
859.795	4546
859.928	4637
860.061	4733
860.194	4706
860.327	4630
860.46	4611
860.592	4736
860.725	4748
860.858	4736
860.99	4691
861.123	4672
861.256	4714
861.388	4767
861.521	5505
861.653	4725
861.786	4672
861.918	4744
862.05	4797
862.183	4839
862.315	4805
862.447	4987
862.58	4904
862.712	4771
862.844	4767
862.976	4870
863.108	4820
863.24	5261
863.372	4870
863.504	4854
863.636	4900
863.768	4968
863.9	4889
864.032	4927
864.164	4984
864.296	5033
864.428	5022
864.559	5098
864.691	5117
864.823	5094
864.954	5155
865.086	5105
865.217	5090
865.349	5113
865.48	5128
865.612	5185
865.743	5296
865.875	5235
866.006	5220
866.137	5223
866.269	5185
866.4	5250
866.531	5220
866.662	5235
866.793	5303
866.924	5269
867.055	5337
867.186	5360
867.317	5303
867.448	5353
867.579	5337
867.71	5349
867.841	5376
867.972	5395
868.103	5436
868.233	5448
868.364	5455
868.495	5543
868.625	5695
868.756	5798
868.886	5657
869.017	5710
869.147	5863
869.278	5828
869.408	5859
869.539	5794
869.669	5893
869.799	5935
869.929	5969
870.06	5988
870.19	6178
870.32	6194
870.45	6270
870.58	6270
870.71	6372
870.84	6494
870.97	6391
871.1	6437
871.23	6578
871.36	6673
871.489	6673
871.619	6696
871.749	6768
871.879	6882
872.008	6928
872.138	6916
872.267	7027
872.397	6973
872.526	7050
872.656	7137
872.785	7213
872.915	7445
873.044	7434
873.173	7590
873.303	7647
873.432	7700
873.561	7833
873.69	7841
873.819	8027
873.948	8130
874.077	8210
874.206	8282
874.335	8446
874.464	8682
874.593	8895
874.722	8948
874.851	9070
874.979	9264
875.108	9382
875.237	9443
875.365	9462
875.494	9660
875.623	9804
875.751	9819
875.88	10029
876.008	10162
876.136	10344
876.265	10485
876.393	10645
876.521	10721
876.65	10919
876.778	10896
876.906	10892
877.034	11003
877.162	11132
877.29	11098
877.418	11288
877.546	11265
877.674	11455
877.802	11471
877.93	11524
878.058	11558
878.185	11501
878.313	11634
878.441	11741
878.568	11634
878.696	11798
878.824	11843
878.951	11950
879.079	11984
879.206	12022
879.333	12003
879.461	11984
879.588	12102
879.715	12060
879.842	12213
879.97	11992
880.097	11878
880.224	11889
880.351	11878
880.478	11901
880.605	11855
880.732	11813
880.859	11992
880.986	11798
881.112	11859
881.239	11691
881.366	11714
881.493	11653
881.619	11452
881.746	11524
881.872	11516
881.999	11490
882.125	11414
882.252	11524
882.378	11520
882.505	11512
882.631	11337
882.757	11341
882.883	11292
883.01	11178
883.136	11162
883.262	11083
883.388	11071
883.514	11124
883.64	11159
883.766	11155
883.892	10919
884.018	11018
884.143	11075
884.269	11121
884.395	10862
884.52	10736
884.646	10767
884.772	10668
884.897	10611
885.023	10691
885.148	10744
885.274	10839
885.399	10721
885.524	10698
885.65	10580
885.775	10630
885.9	10603
886.025	10500
886.15	10519
886.275	10413
886.4	10409
886.525	10390
886.65	10379
886.775	10375
886.9	10531
887.025	10558
887.149	10356
887.274	10223
887.399	10154
887.523	10166
887.648	10135
887.773	10055
887.897	10158
888.021	10196
888.146	10090
888.27	10253
888.395	10207
888.519	10181
888.643	10181
888.767	10147
888.891	10071
889.015	10010
889.139	9949
889.263	9960
889.387	10090
889.511	10116
889.635	10063
889.759	10025
889.883	9994
890.006	10025
890.13	10139
890.254	9960
890.377	9911
890.501	9785
890.624	9854
890.748	9899
890.871	9842
890.995	9736
891.118	9701
891.241	9766
891.364	9740
891.488	9838
891.611	9701
891.734	9720
891.857	9827
891.98	9679
892.103	9774
892.226	9717
892.349	9709
892.471	9511
892.594	9488
892.717	9511
892.839	9587
892.962	9641
893.085	9656
893.207	9549
893.33	9450
893.452	9424
893.575	9488
893.697	9458
893.819	9568
893.941	9644
894.064	9542
894.186	9420
894.308	9405
894.43	9530
894.552	9538
894.674	9439
894.796	9435
894.918	9340
895.04	9313
895.161	9382
895.283	9336
895.405	9146
895.526	9268
895.648	9195
895.769	9268
895.891	9218
896.012	9287
896.134	9180
896.255	9203
896.376	9127
896.498	9112
896.619	9112
896.74	9017
896.861	9100
896.982	9226
897.103	9237
897.224	9173
897.345	9036
897.466	8982
897.587	9005
897.708	9070
897.828	9085
897.949	8929
898.07	8849
898.19	8952
898.311	8963
898.431	8891
898.552	8899
898.672	8986
898.792	8960
898.913	8883
899.033	8891
899.153	8716
899.273	8613
899.393	8678
899.513	8708
899.633	8720
899.753	8686
899.873	8651
899.993	8693
900.113	8705
900.232	8663
900.352	8663
900.472	8678
900.591	8583
900.711	8594
900.83	8549
900.95	8655
901.069	8674
901.189	8522
901.308	8404
901.427	8476
901.546	8434
901.665	8492
901.784	8480
901.904	8309
902.023	8259
902.141	8202
902.26	8168
902.379	8195
902.498	8168
902.617	8244
902.735	8324
902.854	8259
902.973	8172
903.091	8138
903.21	8103
903.328	8210
903.446	8062
903.565	8046
903.683	8073
903.801	8046
903.919	8084
904.038	8107
904.156	8043
904.274	8092
904.392	8020
904.51	8016
904.627	8027
904.745	8046
904.863	8123
904.981	7978
905.098	7837
905.216	7849
905.334	7909
905.451	7890
905.569	7928
905.686	7898
905.803	7883
905.921	7780
906.038	7814
906.155	7715
906.272	7620
906.389	7712
906.506	7670
906.623	7601
906.74	7601
906.857	7502
906.974	7537
907.091	7616
907.208	7681
907.324	7639
907.441	7567
907.557	7453
907.674	7476
907.79	7377
907.907	7373
908.023	7506
908.139	7411
908.256	7384
908.372	7331
908.488	7305
908.604	7255
908.72	7198
908.836	7255
908.952	7198
909.068	7247
909.184	7263
909.3	7255
909.415	7251
909.531	7206
909.647	7091
909.762	7061
909.878	7050
909.993	7095
910.108	7034
910.224	7050
910.339	7110
910.454	7019
910.57	7019
910.685	6954
910.8	7103
910.915	7042
911.03	7072
911.145	6886
911.259	6856
911.374	6901
911.489	6791
911.604	6760
911.718	6734
911.833	6722
911.947	6658
912.062	6528
912.176	6688
912.291	6662
912.405	6665
912.519	6745
912.633	6814
912.748	6654
912.862	6642
912.976	6578
913.09	6525
913.204	6612
913.318	6536
913.431	6662
913.545	6673
913.659	6654
913.772	6582
913.886	6597
914	6544
914.113	6627
914.226	6681
914.34	6601
914.453	6422
914.566	6574
914.68	6544
914.793	6506
914.906	6403
915.019	6407
915.132	6369
915.245	6399
915.358	6407
915.47	6448
915.583	6426
915.696	6471
915.809	6517
915.921	6563
916.034	6410
916.146	6410
916.259	6334
916.371	6464
916.483	6418
916.595	6426
916.708	6426
916.82	6350
916.932	6353
917.044	6407
917.156	6391
917.268	6270
917.38	6365
917.491	6285
917.603	6334
917.715	6403
917.826	6361
917.938	6289
918.049	6262
918.161	6353
918.272	6361
918.384	6452
918.495	6327
918.606	6235
918.717	6273
918.828	6216
918.939	6247
919.05	6194
919.161	6220
919.272	6087
919.383	6098
919.494	6266
919.604	6490
919.715	6251
919.826	6247
919.936	6277
920.047	6292
920.157	6213
920.267	6433
920.378	6323
920.488	6346
920.598	6460
920.708	6486
920.818	6448
920.928	6486
921.038	6635
921.148	6532
921.258	6331
921.368	6304
921.477	6178
921.587	6190
921.697	6079
921.806	6140
921.916	6098
922.025	5961
922.134	5874
922.244	5828
922.353	5939
922.462	5832
922.571	5748
922.68	5703
922.789	5672
922.898	5714
923.007	5642
923.116	5737
923.224	5699
923.333	5657
923.442	5577
923.55	5543
923.659	5600
923.767	5558
923.876	5570
923.984	5600
924.092	5478
924.201	5547
924.309	5573
924.417	5558
924.525	5478
924.633	5505
924.741	6133
924.849	5341
924.956	5471
925.064	5337
925.172	5292
925.279	5246
925.387	5307
925.494	5273
925.602	5372
925.709	5368
925.816	5280
925.924	5345
926.031	5318
926.138	5284
926.245	5307
926.352	5220
926.459	5349
926.566	5284
926.673	5231
926.779	5147
926.886	5143
926.993	4991
927.099	5025
927.206	5010
927.312	4987
927.419	4999
927.525	4938
927.631	4957
927.737	4927
927.843	4873
927.95	4790
928.056	4793
928.162	4797
928.267	4870
928.373	5254
928.479	4877
928.585	4698
928.69	4809
928.796	4778
928.901	4675
929.007	4588
929.112	4691
929.218	4622
929.323	4577
929.428	4573
929.533	4656
929.638	4558
929.743	4550
929.848	4561
929.953	4485
930.058	4447
930.163	4329
930.267	4367
930.372	4417
930.477	4253
930.581	4447
930.685	4375
930.79	4242
930.894	4284
930.998	4211
931.103	4360
931.207	4131
931.311	4040
931.415	4013
931.519	3915
931.623	3911
