Data from glass_V78500241_1626.txt Node
Date: Wed Sep 01 19:25:46 CST 2021
User: usil
Spectrometer: V785-0024
Trigger mode: 0
Integration Time (sec): 4.000000E-1
Scans to average: 1
Nonlinearity correction enabled: false
Boxcar width: 0
Storing dark spectrum: false
XAxis mode: Wavelengths
Number of Pixels in Spectrum: 1024
>>>>>Begin Spectral Data<<<<<
801.071	3755
801.214	3705
801.356	3743
801.499	3800
801.641	3698
801.783	3762
801.926	3865
802.068	3831
802.211	3846
802.353	3896
802.496	3793
802.638	3850
802.78	3896
802.923	3937
803.065	3888
803.208	3857
803.35	3880
803.492	3888
803.635	3941
803.777	3842
803.919	3842
804.061	4173
804.204	3926
804.346	3945
804.488	3922
804.63	3994
804.773	3960
804.915	4044
805.057	4116
805.199	4032
805.341	4101
805.483	4112
805.626	4139
805.768	4074
805.91	4192
806.052	4242
806.194	4211
806.336	4394
806.478	4219
806.62	4154
806.762	4257
806.904	4185
807.046	4314
807.188	4192
807.33	4143
807.472	4227
807.614	4181
807.756	4284
807.898	4177
808.04	4265
808.182	4276
808.324	4344
808.465	4352
808.607	4432
808.749	4462
808.891	4500
809.033	4489
809.174	4386
809.316	4249
809.458	4249
809.6	4181
809.741	4135
809.883	4124
810.025	4192
810.166	4196
810.308	4234
810.45	4280
810.591	4249
810.733	4238
810.875	4497
811.016	4850
811.158	5143
811.299	5292
811.441	5284
811.582	5060
811.724	4744
811.865	4466
812.007	4466
812.148	4455
812.29	4436
812.431	4409
812.573	4402
812.714	4337
812.855	4390
812.997	4436
813.138	4512
813.279	4436
813.421	4341
813.562	4329
813.703	4360
813.845	4360
813.986	4249
814.127	4265
814.268	4253
814.41	4272
814.551	4272
814.692	4352
814.833	4284
814.974	4303
815.115	4360
815.256	4242
815.397	4272
815.539	4246
815.68	4227
815.821	4192
815.962	4325
816.103	4314
816.244	4204
816.385	4234
816.526	4234
816.666	4204
816.807	4124
816.948	4200
817.089	4162
817.23	4128
817.371	4025
817.512	4051
817.653	4109
817.793	4105
817.934	4013
818.075	4055
818.216	4082
818.356	4074
818.497	3998
818.638	3926
818.778	3915
818.919	3903
819.06	3899
819.2	3926
819.341	3857
819.481	3838
819.622	3941
819.762	3994
819.903	3953
820.043	3884
820.184	3842
820.324	3831
820.465	3831
820.605	3850
820.746	3819
820.886	3789
821.026	3884
821.167	3896
821.307	3987
821.447	3964
821.588	3937
821.728	3953
821.868	3926
822.008	3857
822.149	3926
822.289	3903
822.429	3770
822.569	3743
822.709	3816
822.849	3667
822.99	3694
823.13	3701
823.27	3804
823.41	3732
823.55	3736
823.69	3694
823.83	3781
823.97	3724
824.11	3652
824.25	3614
824.389	3622
824.529	3618
824.669	3663
824.809	3701
824.949	3778
825.089	3785
825.228	3736
825.368	3614
825.508	3564
825.648	3580
825.787	3599
825.927	3675
826.067	3648
826.206	3644
826.346	3781
826.485	3835
826.625	3873
826.765	3903
826.904	3835
827.044	3584
827.183	3568
827.323	3447
827.462	3507
827.601	3458
827.741	3428
827.88	3458
828.02	3351
828.159	3416
828.298	3454
828.437	3534
828.577	3454
828.716	3576
828.855	3443
828.994	3397
829.134	3401
829.273	3355
829.412	3340
829.551	3340
829.69	3363
829.829	3405
829.968	3523
830.107	3431
830.246	3397
830.385	3363
830.524	3336
830.663	3313
830.802	3245
830.941	3203
831.08	3184
831.219	3268
831.357	3268
831.496	3389
831.635	3207
831.774	3211
831.913	3176
832.051	3135
832.19	3123
832.329	3233
832.467	3157
832.606	3097
832.744	3165
832.883	3207
833.022	3214
833.16	3245
833.299	3302
833.437	3336
833.576	3378
833.714	3409
833.852	3431
833.991	3473
834.129	3473
834.267	3450
834.406	3412
834.544	3431
834.682	3409
834.821	3401
834.959	3580
835.097	3428
835.235	3515
835.373	3485
835.511	3526
835.65	3477
835.788	3462
835.926	3367
836.064	3382
836.202	3405
836.34	3564
836.478	3595
836.615	3549
836.753	3576
836.891	3656
837.029	3618
837.167	3545
837.305	3584
837.443	3549
837.58	3492
837.718	3610
837.856	3534
837.993	3481
838.131	3580
838.269	3629
838.406	3633
838.544	3576
838.681	3428
838.819	3397
838.956	3374
839.094	3420
839.231	3466
839.369	3511
839.506	3747
839.643	3637
839.781	3443
839.918	3424
840.055	3523
840.193	3561
840.33	3553
840.467	3561
840.604	3591
840.742	3800
840.879	3519
841.016	3580
841.153	3595
841.29	3732
841.427	3682
841.564	3690
841.701	3755
841.838	3648
841.975	3637
842.112	3717
842.249	3648
842.385	3625
842.522	3785
842.659	3682
842.796	3675
842.933	3717
843.069	3690
843.206	3660
843.343	3819
843.479	3785
843.616	3835
843.752	3709
843.889	3663
844.025	3850
844.162	3720
844.298	3838
844.435	3751
844.571	3736
844.708	3964
844.844	3956
844.98	4040
845.117	4044
845.253	3922
845.389	3888
845.525	3972
845.661	3979
845.798	3899
845.934	3987
846.07	3941
846.206	4059
846.342	4093
846.478	4048
846.614	3991
846.75	3949
846.886	3869
847.022	4063
847.158	4055
847.294	4010
847.429	4051
847.565	3994
847.701	4238
847.837	3869
847.972	3880
848.108	3945
848.244	3987
848.379	3934
848.515	3812
848.65	3842
848.786	3827
848.921	3869
849.057	3956
849.192	3956
849.328	3899
849.463	3926
849.598	3846
849.734	3865
849.869	3808
850.004	3781
850.14	3835
850.275	3800
850.41	3724
850.545	3724
850.68	3762
850.815	3846
850.95	3816
851.085	3911
851.22	3865
851.355	3800
851.49	3816
851.625	3781
851.76	3808
851.895	3781
852.03	3690
852.165	3835
852.299	3861
852.434	3899
852.569	3873
852.703	3850
852.838	3892
852.973	4006
853.107	3991
853.242	3876
853.376	3880
853.511	3774
853.645	3842
853.78	3956
853.914	3888
854.048	3896
854.183	3896
854.317	3975
854.451	4036
854.585	3968
854.72	3987
854.854	4048
854.988	3934
855.122	4002
855.256	3907
855.39	4017
855.524	4120
855.658	4071
855.792	4101
855.926	4169
856.06	4173
856.194	4261
856.327	4109
856.461	4120
856.595	4181
856.729	4188
856.862	4257
856.996	4268
857.13	4272
857.263	4314
857.397	4344
857.53	4333
857.664	4306
857.797	4383
857.931	4455
858.064	4417
858.197	4432
858.331	4348
858.464	4375
858.597	4310
858.731	4466
858.864	4481
858.997	4478
859.13	4462
859.263	4512
859.396	4611
859.529	4500
859.662	4588
859.795	4508
859.928	4542
860.061	4660
860.194	4706
860.327	4683
860.46	4622
860.592	4721
860.725	4752
860.858	4774
860.99	4702
861.123	4672
861.256	4672
861.388	4752
861.521	5528
861.653	4710
861.786	4706
861.918	4729
862.05	4797
862.183	4850
862.315	4911
862.447	4934
862.58	4919
862.712	4835
862.844	4793
862.976	4938
863.108	4847
863.24	5231
863.372	4866
863.504	4938
863.636	4896
863.768	4961
863.9	4995
864.032	4919
864.164	4927
864.296	5022
864.428	5071
864.559	5094
864.691	5147
864.823	5124
864.954	5086
865.086	5117
865.217	5151
865.349	5094
865.48	5151
865.612	5178
865.743	5288
865.875	5143
866.006	5174
866.137	5235
866.269	5246
866.4	5178
866.531	5277
866.662	5269
866.793	5280
866.924	5303
867.055	5315
867.186	5318
867.317	5376
867.448	5284
867.579	5364
867.71	5337
867.841	5402
867.972	5509
868.103	5505
868.233	5425
868.364	5512
868.495	5509
868.625	5600
868.756	5802
868.886	5657
869.017	5767
869.147	5847
869.278	5844
869.408	5832
869.539	5828
869.669	5920
869.799	5908
869.929	6049
870.06	6083
870.19	6167
870.32	6167
870.45	6334
870.58	6365
870.71	6422
870.84	6441
870.97	6384
871.1	6429
871.23	6623
871.36	6715
871.489	6669
871.619	6745
871.749	6730
871.879	6802
872.008	7000
872.138	6951
872.267	6958
872.397	6954
872.526	7012
872.656	7103
872.785	7194
872.915	7362
873.044	7529
873.173	7563
873.303	7677
873.432	7731
873.561	7822
873.69	7890
873.819	8020
873.948	8145
874.077	8187
874.206	8320
874.335	8545
874.464	8659
874.593	8880
874.722	9005
874.851	9100
874.979	9211
875.108	9439
875.237	9412
875.365	9443
875.494	9705
875.623	9861
875.751	9816
875.88	10036
876.008	10124
876.136	10325
876.265	10447
876.393	10774
876.521	10683
876.65	10805
876.778	10839
876.906	10889
877.034	10961
877.162	11048
877.29	11124
877.418	11231
877.546	11322
877.674	11414
877.802	11516
877.93	11493
878.058	11551
878.185	11516
878.313	11684
878.441	11661
878.568	11756
878.696	11786
878.824	11851
878.951	11996
879.079	11977
879.206	12205
879.333	12060
879.461	12007
879.588	12019
879.715	12068
879.842	12167
879.97	12041
880.097	11817
880.224	11889
880.351	11969
880.478	11893
880.605	11832
880.732	11847
880.859	12049
880.986	11836
881.112	11745
881.239	11741
881.366	11718
881.493	11680
881.619	11490
881.746	11573
881.872	11577
881.999	11459
882.125	11516
882.252	11543
882.378	11478
882.505	11585
882.631	11284
882.757	11345
882.883	11261
883.01	11292
883.136	11216
883.262	11109
883.388	11037
883.514	11220
883.64	11075
883.766	11018
883.892	11003
884.018	10957
884.143	11010
884.269	11083
884.395	10850
884.52	10752
884.646	10801
884.772	10649
884.897	10645
885.023	10630
885.148	10778
885.274	10824
885.399	10710
885.524	10569
885.65	10626
885.775	10592
885.9	10519
886.025	10618
886.15	10512
886.275	10481
886.4	10379
886.525	10394
886.65	10432
886.775	10363
886.9	10535
887.025	10516
887.149	10443
887.274	10223
887.399	10219
887.523	10162
887.648	10055
887.773	10166
887.897	10223
888.021	10177
888.146	10150
888.27	10207
888.395	10192
888.519	10215
888.643	10147
888.767	10154
888.891	10093
889.015	9994
889.139	10063
889.263	10036
889.387	10032
889.511	10150
889.635	10128
889.759	9918
889.883	9991
890.006	10025
890.13	10082
890.254	9915
890.377	10010
890.501	9861
890.624	9892
890.748	9930
890.871	9823
890.995	9728
891.118	9713
891.241	9781
891.364	9770
891.488	9865
891.611	9682
891.734	9770
891.857	9740
891.98	9793
892.103	9705
892.226	9660
892.349	9656
892.471	9530
892.594	9622
892.717	9568
892.839	9606
892.962	9606
893.085	9614
893.207	9526
893.33	9504
893.452	9488
893.575	9610
893.697	9534
893.819	9492
893.941	9603
894.064	9557
894.186	9412
894.308	9382
894.43	9511
894.552	9545
894.674	9542
894.796	9416
894.918	9405
895.04	9272
895.161	9382
895.283	9313
895.405	9218
895.526	9283
895.648	9241
895.769	9264
895.891	9302
896.012	9256
896.134	9207
896.255	9142
896.376	9081
896.498	9097
896.619	9070
896.74	9058
896.861	9123
896.982	9230
897.103	9291
897.224	9199
897.345	9119
897.466	9024
897.587	8994
897.708	9104
897.828	9017
897.949	8963
898.07	8914
898.19	8887
898.311	8994
898.431	8891
898.552	8986
898.672	8944
898.792	8937
898.913	8952
899.033	8769
899.153	8678
899.273	8632
899.393	8716
899.513	8769
899.633	8804
899.753	8693
899.873	8712
899.993	8731
900.113	8720
900.232	8720
900.352	8708
900.472	8590
900.591	8602
900.711	8583
900.83	8560
900.95	8651
901.069	8678
901.189	8617
901.308	8499
901.427	8423
901.546	8412
901.665	8552
901.784	8465
901.904	8370
902.023	8370
902.141	8259
902.26	8218
902.379	8294
902.498	8157
902.617	8248
902.735	8176
902.854	8279
902.973	8282
903.091	8115
903.21	8115
903.328	8084
903.446	8100
903.565	8027
903.683	8126
903.801	8005
903.919	8149
904.038	8100
904.156	8111
904.274	8081
904.392	7955
904.51	8016
904.627	8065
904.745	8062
904.863	8096
904.981	7894
905.098	7925
905.216	7868
905.334	7902
905.451	7909
905.569	7864
905.686	7925
905.803	7967
905.921	7776
906.038	7871
906.155	7792
906.272	7727
906.389	7765
906.506	7605
906.623	7613
906.74	7601
906.857	7563
906.974	7544
907.091	7677
907.208	7712
907.324	7670
907.441	7594
907.557	7460
907.674	7392
907.79	7426
907.907	7480
908.023	7445
908.139	7441
908.256	7422
908.372	7400
908.488	7381
908.604	7316
908.72	7228
908.836	7244
908.952	7247
909.068	7251
909.184	7358
909.3	7259
909.415	7278
909.531	7346
909.647	7057
909.762	7168
909.878	7095
909.993	7122
910.108	7129
910.224	7091
910.339	7107
910.454	7084
910.57	7042
910.685	6951
910.8	7126
910.915	7088
911.03	7038
911.145	6852
911.259	6913
911.374	6958
911.489	6840
911.604	6844
911.718	6696
911.833	6711
911.947	6665
912.062	6597
912.176	6669
912.291	6734
912.405	6650
912.519	6814
912.633	6867
912.748	6760
912.862	6639
912.976	6578
913.09	6494
913.204	6669
913.318	6563
913.431	6635
913.545	6673
913.659	6673
913.772	6654
913.886	6563
914	6582
914.113	6585
914.226	6627
914.34	6612
914.453	6513
914.566	6639
914.68	6536
914.793	6502
914.906	6422
915.019	6388
915.132	6418
915.245	6448
915.358	6445
915.47	6486
915.583	6532
915.696	6471
915.809	6582
915.921	6555
916.034	6410
916.146	6422
916.259	6353
916.371	6498
916.483	6467
916.595	6467
916.708	6407
916.82	6391
916.932	6353
917.044	6391
917.156	6395
917.268	6311
917.38	6353
917.491	6315
917.603	6327
917.715	6380
917.826	6300
917.938	6327
918.049	6247
918.161	6327
918.272	6388
918.384	6452
918.495	6338
918.606	6285
918.717	6213
918.828	6258
918.939	6254
919.05	6178
919.161	6243
919.272	6083
919.383	6190
919.494	6300
919.604	6388
919.715	6338
919.826	6243
919.936	6194
920.047	6357
920.157	6273
920.267	6452
920.378	6311
920.488	6308
920.598	6479
920.708	6532
920.818	6467
920.928	6479
921.038	6604
921.148	6490
921.258	6327
921.368	6300
921.477	6254
921.587	6163
921.697	6121
921.806	6095
921.916	6049
922.025	5942
922.134	5931
922.244	5908
922.353	5950
922.462	5863
922.571	5790
922.68	5726
922.789	5707
922.898	5699
923.007	5653
923.116	5695
923.224	5661
923.333	5646
923.442	5634
923.55	5596
923.659	5585
923.767	5646
923.876	5543
923.984	5535
924.092	5516
924.201	5577
924.309	5520
924.417	5524
924.525	5410
924.633	5467
924.741	6220
924.849	5376
924.956	5433
925.064	5322
925.172	5273
925.279	5311
925.387	5360
925.494	5379
925.602	5440
925.709	5345
925.816	5277
925.924	5330
926.031	5349
926.138	5292
926.245	5341
926.352	5223
926.459	5315
926.566	5307
926.673	5231
926.779	5113
926.886	5098
926.993	5037
927.099	4965
927.206	4949
927.312	4987
927.419	5003
927.525	4961
927.631	5056
927.737	4862
927.843	4923
927.95	4793
928.056	4812
928.162	4820
928.267	4858
928.373	5341
928.479	4839
928.585	4691
928.69	4752
928.796	4752
928.901	4649
929.007	4599
929.112	4660
929.218	4637
929.323	4588
929.428	4538
929.533	4698
929.638	4493
929.743	4519
929.848	4508
929.953	4538
930.058	4390
930.163	4344
930.267	4375
930.372	4424
930.477	4318
930.581	4474
930.685	4394
930.79	4249
930.894	4310
930.998	4242
931.103	4379
931.207	4131
931.311	4086
931.415	4097
931.519	3926
931.623	3907
