Data from glass_V78500241_1524.txt Node
Date: Wed Sep 01 19:25:03 CST 2021
User: usil
Spectrometer: V785-0024
Trigger mode: 0
Integration Time (sec): 4.000000E-1
Scans to average: 1
Nonlinearity correction enabled: false
Boxcar width: 0
Storing dark spectrum: false
XAxis mode: Wavelengths
Number of Pixels in Spectrum: 1024
>>>>>Begin Spectral Data<<<<<
801.071	3732
801.214	3728
801.356	3732
801.499	3755
801.641	3694
801.783	3755
801.926	3846
802.068	3873
802.211	3842
802.353	3892
802.496	3850
802.638	3918
802.78	3880
802.923	3907
803.065	3896
803.208	3865
803.35	3861
803.492	3907
803.635	3861
803.777	3812
803.919	3918
804.061	4154
804.204	3953
804.346	3972
804.488	3949
804.63	4032
804.773	3968
804.915	4063
805.057	4181
805.199	4063
805.341	4093
805.483	4120
805.626	4158
805.768	4112
805.91	4242
806.052	4246
806.194	4169
806.336	4360
806.478	4219
806.62	4177
806.762	4211
806.904	4249
807.046	4344
807.188	4215
807.33	4211
807.472	4242
807.614	4181
807.756	4268
807.898	4219
808.04	4211
808.182	4314
808.324	4348
808.465	4363
808.607	4489
808.749	4459
808.891	4508
809.033	4523
809.174	4413
809.316	4257
809.458	4230
809.6	4116
809.741	4093
809.883	4143
810.025	4249
810.166	4215
810.308	4196
810.45	4242
810.591	4238
810.733	4276
810.875	4497
811.016	4835
811.158	5162
811.299	5265
811.441	5326
811.582	5060
811.724	4691
811.865	4474
812.007	4478
812.148	4474
812.29	4405
812.431	4421
812.573	4436
812.714	4356
812.855	4379
812.997	4398
813.138	4455
813.279	4413
813.421	4394
813.562	4455
813.703	4287
813.845	4356
813.986	4265
814.127	4257
814.268	4268
814.41	4295
814.551	4299
814.692	4306
814.833	4299
814.974	4265
815.115	4344
815.256	4310
815.397	4238
815.539	4238
815.68	4188
815.821	4173
815.962	4272
816.103	4257
816.244	4227
816.385	4211
816.526	4314
816.666	4219
816.807	4082
816.948	4147
817.089	4169
817.23	4116
817.371	4055
817.512	4063
817.653	4063
817.793	4040
817.934	4112
818.075	4162
818.216	4082
818.356	4067
818.497	3975
818.638	3930
818.778	3956
818.919	3884
819.06	3827
819.2	3899
819.341	3857
819.481	3850
819.622	3896
819.762	4032
819.903	3945
820.043	3873
820.184	3835
820.324	3812
820.465	3854
820.605	3842
820.746	3831
820.886	3835
821.026	3945
821.167	3884
821.307	3945
821.447	3960
821.588	3934
821.728	3949
821.868	3930
822.008	3880
822.149	3918
822.289	3934
822.429	3831
822.569	3766
822.709	3766
822.849	3656
822.99	3728
823.13	3740
823.27	3740
823.41	3701
823.55	3724
823.69	3717
823.83	3713
823.97	3698
824.11	3595
824.25	3622
824.389	3656
824.529	3656
824.669	3610
824.809	3747
824.949	3766
825.089	3705
825.228	3705
825.368	3584
825.508	3568
825.648	3549
825.787	3629
825.927	3648
826.067	3580
826.206	3679
826.346	3835
826.485	3819
826.625	3846
826.765	3941
826.904	3808
827.044	3603
827.183	3507
827.323	3454
827.462	3473
827.601	3443
827.741	3424
827.88	3424
828.02	3359
828.159	3450
828.298	3443
828.437	3534
828.577	3462
828.716	3606
828.855	3534
828.994	3386
829.134	3374
829.273	3382
829.412	3367
829.551	3298
829.69	3435
829.829	3454
829.968	3485
830.107	3447
830.246	3462
830.385	3378
830.524	3386
830.663	3298
830.802	3302
830.941	3207
831.08	3218
831.219	3249
831.357	3272
831.496	3397
831.635	3260
831.774	3226
831.913	3180
832.051	3135
832.19	3112
832.329	3203
832.467	3142
832.606	3154
832.744	3154
832.883	3173
833.022	3203
833.16	3260
833.299	3317
833.437	3359
833.576	3344
833.714	3378
833.852	3386
833.991	3439
834.129	3462
834.267	3424
834.406	3435
834.544	3416
834.682	3393
834.821	3401
834.959	3564
835.097	3431
835.235	3515
835.373	3469
835.511	3530
835.65	3447
835.788	3500
835.926	3405
836.064	3378
836.202	3424
836.34	3599
836.478	3614
836.615	3538
836.753	3599
836.891	3622
837.029	3698
837.167	3595
837.305	3530
837.443	3553
837.58	3469
837.718	3587
837.856	3557
837.993	3557
838.131	3610
838.269	3561
838.406	3542
838.544	3580
838.681	3500
838.819	3481
838.956	3313
839.094	3412
839.231	3469
839.369	3561
839.506	3713
839.643	3667
839.781	3496
839.918	3488
840.055	3557
840.193	3515
840.33	3572
840.467	3587
840.604	3610
840.742	3804
840.879	3538
841.016	3568
841.153	3614
841.29	3743
841.427	3717
841.564	3701
841.701	3751
841.838	3709
841.975	3751
842.112	3766
842.249	3618
842.385	3622
842.522	3823
842.659	3686
842.796	3679
842.933	3679
843.069	3705
843.206	3709
843.343	3797
843.479	3762
843.616	3804
843.752	3644
843.889	3728
844.025	3907
844.162	3743
844.298	3854
844.435	3842
844.571	3797
844.708	3896
844.844	4006
844.98	4032
845.117	4044
845.253	3960
845.389	3876
845.525	4002
845.661	3949
845.798	3896
845.934	3987
846.07	3956
846.206	4025
846.342	4124
846.478	4051
846.614	4013
846.75	3911
846.886	3934
847.022	4040
847.158	3949
847.294	3991
847.429	4017
847.565	3968
847.701	4207
847.837	3892
847.972	3903
848.108	3964
848.244	3953
848.379	3865
848.515	3819
848.65	3804
848.786	3835
848.921	3884
849.057	3949
849.192	3918
849.328	3918
849.463	3934
849.598	3892
849.734	3892
849.869	3854
850.004	3804
850.14	3857
850.275	3823
850.41	3751
850.545	3762
850.68	3781
850.815	3793
850.95	3819
851.085	3926
851.22	3892
851.355	3854
851.49	3800
851.625	3789
851.76	3823
851.895	3743
852.03	3732
852.165	3755
852.299	3823
852.434	3888
852.569	3846
852.703	3888
852.838	3922
852.973	4029
853.107	4051
853.242	3888
853.376	3838
853.511	3755
853.645	3846
853.78	3953
853.914	3861
854.048	3884
854.183	3907
854.317	3964
854.451	4036
854.585	3922
854.72	3953
854.854	4078
854.988	3945
855.122	4013
855.256	3968
855.39	4013
855.524	4158
855.658	4086
855.792	4086
855.926	4128
856.06	4177
856.194	4238
856.327	4128
856.461	4143
856.595	4120
856.729	4166
856.862	4249
856.996	4207
857.13	4295
857.263	4303
857.397	4367
857.53	4329
857.664	4306
857.797	4390
857.931	4394
858.064	4386
858.197	4432
858.331	4424
858.464	4398
858.597	4348
858.731	4443
858.864	4481
858.997	4466
859.13	4508
859.263	4580
859.396	4592
859.529	4493
859.662	4523
859.795	4474
859.928	4558
860.061	4698
860.194	4717
860.327	4698
860.46	4611
860.592	4729
860.725	4717
860.858	4748
860.99	4664
861.123	4710
861.256	4698
861.388	4759
861.521	5562
861.653	4740
861.786	4717
861.918	4729
862.05	4797
862.183	4831
862.315	4862
862.447	4854
862.58	4877
862.712	4782
862.844	4793
862.976	4862
863.108	4820
863.24	5254
863.372	4809
863.504	4980
863.636	4930
863.768	5029
863.9	4934
864.032	4847
864.164	4984
864.296	4999
864.428	5064
864.559	5117
864.691	5045
864.823	5124
864.954	5102
865.086	5178
865.217	5079
865.349	5079
865.48	5174
865.612	5212
865.743	5334
865.875	5231
866.006	5204
866.137	5292
866.269	5254
866.4	5254
866.531	5220
866.662	5261
866.793	5277
866.924	5280
867.055	5311
867.186	5360
867.317	5341
867.448	5341
867.579	5379
867.71	5410
867.841	5368
867.972	5421
868.103	5493
868.233	5459
868.364	5433
868.495	5554
868.625	5688
868.756	5771
868.886	5676
869.017	5718
869.147	5901
869.278	5798
869.408	5794
869.539	5840
869.669	5954
869.799	5897
869.929	6007
870.06	5973
870.19	6220
870.32	6186
870.45	6235
870.58	6399
870.71	6414
870.84	6467
870.97	6441
871.1	6441
871.23	6585
871.36	6726
871.489	6669
871.619	6738
871.749	6798
871.879	6916
872.008	7019
872.138	6977
872.267	6977
872.397	6951
872.526	6939
872.656	7129
872.785	7187
872.915	7350
873.044	7552
873.173	7586
873.303	7696
873.432	7811
873.561	7868
873.69	7917
873.819	8043
873.948	8187
874.077	8275
874.206	8362
874.335	8419
874.464	8686
874.593	8868
874.722	8990
874.851	9146
874.979	9245
875.108	9393
875.237	9481
875.365	9420
875.494	9629
875.623	9831
875.751	9819
875.88	10017
876.008	10162
876.136	10348
876.265	10554
876.393	10637
876.521	10759
876.65	10801
876.778	10866
876.906	10942
877.034	10999
877.162	11086
877.29	11242
877.418	11303
877.546	11284
877.674	11436
877.802	11455
877.93	11566
878.058	11539
878.185	11524
878.313	11596
878.441	11745
878.568	11668
878.696	11786
878.824	11817
878.951	12007
879.079	12068
879.206	12110
879.333	12019
879.461	11973
879.588	12030
879.715	12114
879.842	12235
879.97	12102
880.097	11882
880.224	11813
880.351	11931
880.478	11908
880.605	11840
880.732	11767
880.859	12022
880.986	11828
881.112	11916
881.239	11745
881.366	11703
881.493	11707
881.619	11573
881.746	11592
881.872	11611
881.999	11509
882.125	11516
882.252	11497
882.378	11528
882.505	11516
882.631	11478
882.757	11337
882.883	11337
883.01	11242
883.136	11117
883.262	11143
883.388	11010
883.514	11212
883.64	11155
883.766	11166
883.892	11018
884.018	10953
884.143	11060
884.269	11048
884.395	10774
884.52	10786
884.646	10831
884.772	10668
884.897	10755
885.023	10615
885.148	10755
885.274	10706
885.399	10694
885.524	10637
885.65	10588
885.775	10558
885.9	10554
886.025	10687
886.15	10611
886.275	10485
886.4	10394
886.525	10386
886.65	10375
886.775	10344
886.9	10462
887.025	10550
887.149	10371
887.274	10238
887.399	10238
887.523	10147
887.648	10219
887.773	10093
887.897	10169
888.021	10158
888.146	10162
888.27	10238
888.395	10158
888.519	10154
888.643	10101
888.767	10276
888.891	10002
889.015	10032
889.139	10120
889.263	10017
889.387	10071
889.511	10067
889.635	10101
889.759	10010
889.883	9979
890.006	10051
890.13	10097
890.254	9994
890.377	9964
890.501	9812
890.624	9850
890.748	9861
890.871	9842
890.995	9781
891.118	9720
891.241	9762
891.364	9686
891.488	9888
891.611	9743
891.734	9766
891.857	9740
891.98	9713
892.103	9861
892.226	9633
892.349	9667
892.471	9511
892.594	9648
892.717	9549
892.839	9625
892.962	9587
893.085	9652
893.207	9595
893.33	9504
893.452	9515
893.575	9568
893.697	9504
893.819	9663
893.941	9587
894.064	9564
894.186	9431
894.308	9416
894.43	9545
894.552	9564
894.674	9523
894.796	9355
894.918	9382
895.04	9287
895.161	9348
895.283	9351
895.405	9233
895.526	9317
895.648	9222
895.769	9306
895.891	9218
896.012	9279
896.134	9188
896.255	9222
896.376	9127
896.498	9100
896.619	9142
896.74	9017
896.861	9089
896.982	9253
897.103	9275
897.224	9123
897.345	9051
897.466	8979
897.587	8960
897.708	9062
897.828	9058
897.949	9017
898.07	8891
898.19	8941
898.311	8960
898.431	8918
898.552	8971
898.672	8963
898.792	8933
898.913	8883
899.033	8842
899.153	8762
899.273	8670
899.393	8712
899.513	8800
899.633	8720
899.753	8746
899.873	8670
899.993	8785
900.113	8648
900.232	8800
900.352	8663
900.472	8625
900.591	8587
900.711	8556
900.83	8556
900.95	8663
901.069	8689
901.189	8571
901.308	8415
901.427	8366
901.546	8347
901.665	8480
901.784	8507
901.904	8385
902.023	8313
902.141	8267
902.26	8252
902.379	8271
902.498	8313
902.617	8164
902.735	8355
902.854	8294
902.973	8279
903.091	8134
903.21	8180
903.328	8199
903.446	8069
903.565	8092
903.683	8073
903.801	8065
903.919	8168
904.038	8092
904.156	7997
904.274	8058
904.392	8001
904.51	7993
904.627	8073
904.745	8069
904.863	8107
904.981	7894
905.098	7898
905.216	7868
905.334	7917
905.451	7936
905.569	7841
905.686	7909
905.803	7894
905.921	7799
906.038	7871
906.155	7814
906.272	7727
906.389	7677
906.506	7658
906.623	7647
906.74	7662
906.857	7620
906.974	7525
907.091	7658
907.208	7772
907.324	7670
907.441	7533
907.557	7491
907.674	7407
907.79	7350
907.907	7441
908.023	7472
908.139	7480
908.256	7373
908.372	7278
908.488	7331
908.604	7232
908.72	7263
908.836	7255
908.952	7225
909.068	7228
909.184	7301
909.3	7285
909.415	7247
909.531	7289
909.647	7114
909.762	7099
909.878	7141
909.993	7168
910.108	7069
910.224	7057
910.339	7122
910.454	7069
910.57	7008
910.685	6966
910.8	7152
910.915	7084
911.03	6981
911.145	6924
911.259	6859
911.374	6856
911.489	6791
911.604	6833
911.718	6772
911.833	6749
911.947	6646
912.062	6608
912.176	6707
912.291	6684
912.405	6688
912.519	6753
912.633	6821
912.748	6749
912.862	6749
912.976	6593
913.09	6506
913.204	6620
913.318	6662
913.431	6677
913.545	6646
913.659	6696
913.772	6623
913.886	6547
914	6528
914.113	6570
914.226	6646
914.34	6593
914.453	6483
914.566	6616
914.68	6483
914.793	6441
914.906	6426
915.019	6395
915.132	6391
915.245	6448
915.358	6433
915.47	6418
915.583	6445
915.696	6483
915.809	6517
915.921	6517
916.034	6475
916.146	6403
916.259	6350
916.371	6467
916.483	6498
916.595	6391
916.708	6388
916.82	6407
916.932	6350
917.044	6433
917.156	6418
917.268	6342
917.38	6372
917.491	6308
917.603	6380
917.715	6433
917.826	6429
917.938	6357
918.049	6239
918.161	6319
918.272	6445
918.384	6460
918.495	6342
918.606	6273
918.717	6213
918.828	6270
918.939	6216
919.05	6171
919.161	6270
919.272	6064
919.383	6136
919.494	6281
919.604	6388
919.715	6350
919.826	6216
919.936	6243
920.047	6281
920.157	6213
920.267	6441
920.378	6361
920.488	6254
920.598	6399
920.708	6559
920.818	6452
920.928	6525
921.038	6608
921.148	6528
921.258	6319
921.368	6296
921.477	6247
921.587	6220
921.697	6076
921.806	6117
921.916	6125
922.025	5977
922.134	5920
922.244	5897
922.353	5961
922.462	5794
922.571	5805
922.68	5722
922.789	5703
922.898	5714
923.007	5638
923.116	5718
923.224	5722
923.333	5729
923.442	5543
923.55	5604
923.659	5611
923.767	5592
923.876	5532
923.984	5623
924.092	5436
924.201	5627
924.309	5528
924.417	5562
924.525	5505
924.633	5459
924.741	6144
924.849	5429
924.956	5493
925.064	5391
925.172	5322
925.279	5318
925.387	5364
925.494	5284
925.602	5440
925.709	5402
925.816	5235
925.924	5303
926.031	5376
926.138	5280
926.245	5318
926.352	5189
926.459	5364
926.566	5353
926.673	5212
926.779	5109
926.886	5166
926.993	5025
927.099	5018
927.206	4980
927.312	4949
927.419	5025
927.525	4995
927.631	4972
927.737	4904
927.843	4858
927.95	4755
928.056	4892
928.162	4809
928.267	4858
928.373	5254
928.479	4885
928.585	4721
928.69	4820
928.796	4755
928.901	4694
929.007	4561
929.112	4668
929.218	4618
929.323	4573
929.428	4573
929.533	4664
929.638	4504
929.743	4554
929.848	4531
929.953	4493
930.058	4394
930.163	4363
930.267	4344
930.372	4417
930.477	4268
930.581	4489
930.685	4356
930.79	4230
930.894	4272
930.998	4268
931.103	4348
931.207	4093
931.311	4071
931.415	4040
931.519	3896
931.623	3945
