Data from glass_V78500241_1963.txt Node
Date: Wed Sep 01 19:28:06 CST 2021
User: usil
Spectrometer: V785-0024
Trigger mode: 0
Integration Time (sec): 4.000000E-1
Scans to average: 1
Nonlinearity correction enabled: false
Boxcar width: 0
Storing dark spectrum: false
XAxis mode: Wavelengths
Number of Pixels in Spectrum: 1024
>>>>>Begin Spectral Data<<<<<
801.071	3755
801.214	3740
801.356	3705
801.499	3766
801.641	3686
801.783	3762
801.926	3861
802.068	3861
802.211	3823
802.353	3880
802.496	3873
802.638	3907
802.78	3907
802.923	3896
803.065	3922
803.208	3835
803.35	3865
803.492	3888
803.635	3876
803.777	3816
803.919	3896
804.061	4131
804.204	3911
804.346	3915
804.488	3934
804.63	4029
804.773	3975
804.915	4021
805.057	4116
805.199	4036
805.341	4090
805.483	4109
805.626	4112
805.768	4131
805.91	4147
806.052	4185
806.194	4177
806.336	4325
806.478	4204
806.62	4200
806.762	4169
806.904	4253
807.046	4363
807.188	4223
807.33	4211
807.472	4166
807.614	4185
807.756	4280
807.898	4166
808.04	4204
808.182	4291
808.324	4371
808.465	4329
808.607	4500
808.749	4462
808.891	4474
809.033	4504
809.174	4390
809.316	4287
809.458	4219
809.6	4150
809.741	4162
809.883	4109
810.025	4246
810.166	4139
810.308	4204
810.45	4257
810.591	4185
810.733	4310
810.875	4466
811.016	4850
811.158	5162
811.299	5280
811.441	5311
811.582	5064
811.724	4694
811.865	4451
812.007	4413
812.148	4428
812.29	4459
812.431	4360
812.573	4432
812.714	4344
812.855	4348
812.997	4394
813.138	4424
813.279	4417
813.421	4371
813.562	4394
813.703	4341
813.845	4333
813.986	4291
814.127	4204
814.268	4253
814.41	4314
814.551	4257
814.692	4306
814.833	4287
814.974	4284
815.115	4348
815.256	4265
815.397	4257
815.539	4238
815.68	4192
815.821	4207
815.962	4337
816.103	4272
816.244	4238
816.385	4215
816.526	4196
816.666	4188
816.807	4093
816.948	4166
817.089	4135
817.23	4090
817.371	4051
817.512	4048
817.653	4059
817.793	4074
817.934	4074
818.075	4154
818.216	4109
818.356	4040
818.497	3975
818.638	3918
818.778	3903
818.919	3865
819.06	3861
819.2	3896
819.341	3865
819.481	3835
819.622	3949
819.762	4021
819.903	3964
820.043	3842
820.184	3808
820.324	3869
820.465	3873
820.605	3865
820.746	3876
820.886	3800
821.026	3907
821.167	3934
821.307	3987
821.447	3972
821.588	3960
821.728	3956
821.868	3960
822.008	3869
822.149	3941
822.289	3922
822.429	3736
822.569	3713
822.709	3770
822.849	3724
822.99	3709
823.13	3732
823.27	3766
823.41	3732
823.55	3724
823.69	3709
823.83	3766
823.97	3660
824.11	3587
824.25	3564
824.389	3595
824.529	3629
824.669	3606
824.809	3717
824.949	3747
825.089	3705
825.228	3679
825.368	3629
825.508	3530
825.648	3595
825.787	3564
825.927	3648
826.067	3599
826.206	3671
826.346	3774
826.485	3850
826.625	3869
826.765	3873
826.904	3816
827.044	3599
827.183	3534
827.323	3424
827.462	3488
827.601	3405
827.741	3450
827.88	3447
828.02	3355
828.159	3412
828.298	3504
828.437	3545
828.577	3477
828.716	3568
828.855	3504
828.994	3367
829.134	3348
829.273	3424
829.412	3340
829.551	3306
829.69	3393
829.829	3405
829.968	3515
830.107	3447
830.246	3412
830.385	3340
830.524	3325
830.663	3294
830.802	3237
830.941	3199
831.08	3180
831.219	3268
831.357	3283
831.496	3435
831.635	3207
831.774	3199
831.913	3207
832.051	3142
832.19	3157
832.329	3218
832.467	3138
832.606	3119
832.744	3154
832.883	3169
833.022	3207
833.16	3214
833.299	3310
833.437	3325
833.576	3401
833.714	3393
833.852	3469
833.991	3420
834.129	3515
834.267	3450
834.406	3359
834.544	3428
834.682	3428
834.821	3389
834.959	3576
835.097	3393
835.235	3500
835.373	3469
835.511	3488
835.65	3439
835.788	3542
835.926	3405
836.064	3374
836.202	3389
836.34	3561
836.478	3580
836.615	3568
836.753	3610
836.891	3644
837.029	3629
837.167	3610
837.305	3572
837.443	3515
837.58	3462
837.718	3580
837.856	3507
837.993	3549
838.131	3606
838.269	3587
838.406	3610
838.544	3572
838.681	3412
838.819	3473
838.956	3397
839.094	3393
839.231	3447
839.369	3496
839.506	3762
839.643	3644
839.781	3458
839.918	3492
840.055	3500
840.193	3545
840.33	3549
840.467	3561
840.604	3629
840.742	3774
840.879	3530
841.016	3572
841.153	3599
841.29	3728
841.427	3701
841.564	3720
841.701	3770
841.838	3690
841.975	3717
842.112	3724
842.249	3610
842.385	3675
842.522	3819
842.659	3644
842.796	3652
842.933	3675
843.069	3690
843.206	3694
843.343	3800
843.479	3747
843.616	3781
843.752	3682
843.889	3686
844.025	3835
844.162	3709
844.298	3835
844.435	3755
844.571	3762
844.708	3915
844.844	3991
844.98	4002
845.117	3983
845.253	3880
845.389	3892
845.525	3979
845.661	3987
845.798	3926
845.934	3998
846.07	3960
846.206	4082
846.342	4112
846.478	4006
846.614	3983
846.75	3960
846.886	3911
847.022	4021
847.158	3964
847.294	3964
847.429	4059
847.565	4025
847.701	4280
847.837	3922
847.972	3873
848.108	3972
848.244	3915
848.379	3857
848.515	3808
848.65	3812
848.786	3793
848.921	3892
849.057	3930
849.192	3937
849.328	3892
849.463	3934
849.598	3911
849.734	3857
849.869	3812
850.004	3762
850.14	3808
850.275	3793
850.41	3732
850.545	3751
850.68	3736
850.815	3842
850.95	3838
851.085	3953
851.22	3854
851.355	3869
851.49	3785
851.625	3770
851.76	3789
851.895	3740
852.03	3717
852.165	3778
852.299	3865
852.434	3888
852.569	3869
852.703	3915
852.838	3930
852.973	3949
853.107	3968
853.242	3907
853.376	3880
853.511	3800
853.645	3808
853.78	3949
853.914	3896
854.048	3903
854.183	3899
854.317	3945
854.451	4059
854.585	3960
854.72	3941
854.854	4067
854.988	3926
855.122	3979
855.256	3960
855.39	4010
855.524	4120
855.658	4105
855.792	4105
855.926	4147
856.06	4135
856.194	4181
856.327	4086
856.461	4116
856.595	4200
856.729	4162
856.862	4234
856.996	4207
857.13	4303
857.263	4360
857.397	4383
857.53	4287
857.664	4295
857.797	4386
857.931	4451
858.064	4409
858.197	4451
858.331	4383
858.464	4402
858.597	4325
858.731	4440
858.864	4462
858.997	4432
859.13	4531
859.263	4519
859.396	4569
859.529	4516
859.662	4489
859.795	4497
859.928	4584
860.061	4679
860.194	4733
860.327	4672
860.46	4649
860.592	4721
860.725	4767
860.858	4774
860.99	4702
861.123	4679
861.256	4660
861.388	4752
861.521	5330
861.653	4683
861.786	4717
861.918	4759
862.05	4725
862.183	4820
862.315	4889
862.447	4934
862.58	4870
862.712	4824
862.844	4748
862.976	4850
863.108	4858
863.24	5227
863.372	4793
863.504	4881
863.636	4896
863.768	5025
863.9	4957
864.032	4984
864.164	4927
864.296	5090
864.428	5083
864.559	5094
864.691	5124
864.823	5094
864.954	5094
865.086	5090
865.217	5083
865.349	5128
865.48	5113
865.612	5147
865.743	5261
865.875	5147
866.006	5155
866.137	5261
866.269	5261
866.4	5265
866.531	5239
866.662	5235
866.793	5265
866.924	5277
867.055	5318
867.186	5311
867.317	5341
867.448	5330
867.579	5337
867.71	5357
867.841	5368
867.972	5429
868.103	5471
868.233	5509
868.364	5467
868.495	5558
868.625	5691
868.756	5779
868.886	5611
869.017	5729
869.147	5882
869.278	5870
869.408	5828
869.539	5844
869.669	5965
869.799	5942
869.929	5977
870.06	5980
870.19	6201
870.32	6155
870.45	6213
870.58	6292
870.71	6445
870.84	6456
870.97	6391
871.1	6445
871.23	6631
871.36	6681
871.489	6696
871.619	6707
871.749	6764
871.879	6829
872.008	6993
872.138	6916
872.267	7019
872.397	6993
872.526	7046
872.656	7050
872.785	7145
872.915	7392
873.044	7544
873.173	7529
873.303	7651
873.432	7719
873.561	7845
873.69	7860
873.819	7993
873.948	8206
874.077	8259
874.206	8313
874.335	8419
874.464	8617
874.593	8819
874.722	8906
874.851	9146
874.979	9260
875.108	9332
875.237	9401
875.365	9488
875.494	9633
875.623	9899
875.751	9759
875.88	10051
876.008	10188
876.136	10192
876.265	10523
876.393	10683
876.521	10710
876.65	10778
876.778	10866
876.906	10972
877.034	10942
877.162	11056
877.29	11132
877.418	11223
877.546	11337
877.674	11398
877.802	11467
877.93	11482
878.058	11478
878.185	11520
878.313	11619
878.441	11790
878.568	11680
878.696	11866
878.824	11866
878.951	11965
879.079	11920
879.206	12152
879.333	12087
879.461	11946
879.588	11969
879.715	12057
879.842	12175
879.97	12091
880.097	11904
880.224	11828
880.351	11897
880.478	11847
880.605	11847
880.732	11836
880.859	11931
880.986	11767
881.112	11885
881.239	11676
881.366	11596
881.493	11661
881.619	11547
881.746	11604
881.872	11627
881.999	11505
882.125	11433
882.252	11562
882.378	11474
882.505	11577
882.631	11368
882.757	11288
882.883	11277
883.01	11273
883.136	11189
883.262	11037
883.388	11067
883.514	11162
883.64	11121
883.766	11147
883.892	11041
884.018	10999
884.143	11117
884.269	11037
884.395	10877
884.52	10702
884.646	10774
884.772	10748
884.897	10565
885.023	10691
885.148	10744
885.274	10744
885.399	10740
885.524	10569
885.65	10622
885.775	10577
885.9	10603
886.025	10481
886.15	10481
886.275	10421
886.4	10325
886.525	10443
886.65	10322
886.775	10386
886.9	10386
887.025	10489
887.149	10402
887.274	10173
887.399	10215
887.523	10147
887.648	10177
887.773	10029
887.897	10169
888.021	10310
888.146	10086
888.27	10147
888.395	10299
888.519	10185
888.643	10177
888.767	10150
888.891	10021
889.015	9972
889.139	10071
889.263	9960
889.387	10032
889.511	10074
889.635	10048
889.759	9907
889.883	9960
890.006	10040
890.13	10192
890.254	9907
890.377	9979
890.501	9823
890.624	9812
890.748	9861
890.871	9857
890.995	9732
891.118	9682
891.241	9732
891.364	9751
891.488	9857
891.611	9759
891.734	9740
891.857	9717
891.98	9660
892.103	9797
892.226	9724
892.349	9652
892.471	9625
892.594	9606
892.717	9591
892.839	9584
892.962	9591
893.085	9606
893.207	9538
893.33	9523
893.452	9511
893.575	9633
893.697	9443
893.819	9652
893.941	9644
894.064	9561
894.186	9458
894.308	9393
894.43	9450
894.552	9561
894.674	9393
894.796	9386
894.918	9389
895.04	9298
895.161	9367
895.283	9340
895.405	9279
895.526	9199
895.648	9245
895.769	9241
895.891	9245
896.012	9294
896.134	9173
896.255	9226
896.376	9039
896.498	9131
896.619	9138
896.74	9017
896.861	9116
896.982	9294
897.103	9279
897.224	9131
897.345	9024
897.466	8990
897.587	9017
897.708	9028
897.828	8990
897.949	8937
898.07	8899
898.19	8929
898.311	9066
898.431	8887
898.552	8899
898.672	8963
898.792	8925
898.913	8834
899.033	8872
899.153	8746
899.273	8659
899.393	8655
899.513	8800
899.633	8815
899.753	8769
899.873	8636
899.993	8727
900.113	8686
900.232	8689
900.352	8636
900.472	8598
900.591	8587
900.711	8602
900.83	8621
900.95	8644
901.069	8697
901.189	8537
901.308	8412
901.427	8370
901.546	8412
901.665	8381
901.784	8457
901.904	8324
902.023	8286
902.141	8271
902.26	8183
902.379	8279
902.498	8183
902.617	8206
902.735	8336
902.854	8286
902.973	8191
903.091	8115
903.21	8130
903.328	8225
903.446	8130
903.565	8092
903.683	8107
903.801	8050
903.919	8149
904.038	8024
904.156	8035
904.274	7993
904.392	7982
904.51	8073
904.627	8081
904.745	8050
904.863	8069
904.981	7963
905.098	7845
905.216	7833
905.334	7913
905.451	7871
905.569	7890
905.686	7936
905.803	7837
905.921	7746
906.038	7906
906.155	7761
906.272	7712
906.389	7727
906.506	7662
906.623	7677
906.74	7552
906.857	7491
906.974	7582
907.091	7670
907.208	7746
907.324	7620
907.441	7651
907.557	7510
907.674	7464
907.79	7346
907.907	7419
908.023	7339
908.139	7396
908.256	7369
908.372	7301
908.488	7362
908.604	7266
908.72	7289
908.836	7240
908.952	7213
909.068	7209
909.184	7354
909.3	7232
909.415	7308
909.531	7301
909.647	7114
909.762	7057
909.878	7080
909.993	7107
910.108	7171
910.224	7042
910.339	7107
910.454	7107
910.57	7065
910.685	6973
910.8	7118
910.915	7179
911.03	6970
911.145	6894
911.259	6863
911.374	6924
911.489	6821
911.604	6749
911.718	6753
911.833	6760
911.947	6620
912.062	6608
912.176	6692
912.291	6696
912.405	6669
912.519	6852
912.633	6840
912.748	6738
912.862	6635
912.976	6616
913.09	6540
913.204	6616
913.318	6669
913.431	6631
913.545	6665
913.659	6787
913.772	6623
913.886	6555
914	6532
914.113	6585
914.226	6635
914.34	6650
914.453	6513
914.566	6631
914.68	6506
914.793	6528
914.906	6414
915.019	6437
915.132	6342
915.245	6384
915.358	6448
915.47	6410
915.583	6441
915.696	6391
915.809	6494
915.921	6540
916.034	6414
916.146	6418
916.259	6357
916.371	6532
916.483	6452
916.595	6380
916.708	6452
916.82	6460
916.932	6395
917.044	6403
917.156	6403
917.268	6311
917.38	6365
917.491	6285
917.603	6308
917.715	6395
917.826	6342
917.938	6300
918.049	6239
918.161	6327
918.272	6448
918.384	6410
918.495	6353
918.606	6232
918.717	6159
918.828	6228
918.939	6331
919.05	6186
919.161	6209
919.272	6129
919.383	6163
919.494	6258
919.604	6395
919.715	6369
919.826	6216
919.936	6323
920.047	6361
920.157	6270
920.267	6433
920.378	6308
920.488	6224
920.598	6426
920.708	6593
920.818	6429
920.928	6433
921.038	6570
921.148	6570
921.258	6319
921.368	6289
921.477	6213
921.587	6155
921.697	6133
921.806	6117
921.916	6041
922.025	5897
922.134	5916
922.244	5889
922.353	5935
922.462	5844
922.571	5786
922.68	5745
922.789	5642
922.898	5752
923.007	5630
923.116	5684
923.224	5611
923.333	5672
923.442	5570
923.55	5554
923.659	5596
923.767	5623
923.876	5509
923.984	5558
924.092	5486
924.201	5581
924.309	5551
924.417	5554
924.525	5535
924.633	5444
924.741	6232
924.849	5395
924.956	5406
925.064	5337
925.172	5299
925.279	5326
925.387	5372
925.494	5364
925.602	5376
925.709	5395
925.816	5318
925.924	5277
926.031	5357
926.138	5311
926.245	5353
926.352	5204
926.459	5288
926.566	5288
926.673	5227
926.779	5136
926.886	5067
926.993	5018
927.099	4984
927.206	4949
927.312	4923
927.419	5022
927.525	4995
927.631	5014
927.737	4915
927.843	4839
927.95	4778
928.056	4740
928.162	4835
928.267	4854
928.373	5318
928.479	4843
928.585	4641
928.69	4755
928.796	4755
928.901	4698
929.007	4584
929.112	4698
929.218	4611
929.323	4577
929.428	4561
929.533	4714
929.638	4470
929.743	4459
929.848	4500
929.953	4497
930.058	4443
930.163	4322
930.267	4299
930.372	4424
930.477	4284
930.581	4440
930.685	4280
930.79	4284
930.894	4276
930.998	4253
931.103	4390
931.207	4090
931.311	4078
931.415	4055
931.519	3934
931.623	3972
