Data from glass_V78500241_2489.txt Node
Date: Wed Sep 01 19:31:45 CST 2021
User: usil
Spectrometer: V785-0024
Trigger mode: 0
Integration Time (sec): 4.000000E-1
Scans to average: 1
Nonlinearity correction enabled: false
Boxcar width: 0
Storing dark spectrum: false
XAxis mode: Wavelengths
Number of Pixels in Spectrum: 1024
>>>>>Begin Spectral Data<<<<<
801.071	3778
801.214	3705
801.356	3732
801.499	3709
801.641	3717
801.783	3804
801.926	3838
802.068	3793
802.211	3876
802.353	3846
802.496	3835
802.638	3842
802.78	3899
802.923	3911
803.065	3896
803.208	3846
803.35	3865
803.492	3915
803.635	3892
803.777	3766
803.919	3892
804.061	4139
804.204	3964
804.346	3968
804.488	3956
804.63	3994
804.773	3937
804.915	4013
805.057	4139
805.199	4067
805.341	4044
805.483	4135
805.626	4120
805.768	4192
805.91	4181
806.052	4219
806.194	4207
806.336	4322
806.478	4207
806.62	4162
806.762	4158
806.904	4238
807.046	4310
807.188	4204
807.33	4139
807.472	4249
807.614	4188
807.756	4280
807.898	4200
808.04	4196
808.182	4272
808.324	4333
808.465	4386
808.607	4478
808.749	4421
808.891	4436
809.033	4504
809.174	4390
809.316	4238
809.458	4196
809.6	4162
809.741	4147
809.883	4109
810.025	4150
810.166	4185
810.308	4185
810.45	4230
810.591	4268
810.733	4295
810.875	4504
811.016	4801
811.158	5121
811.299	5261
811.441	5280
811.582	5098
811.724	4733
811.865	4455
812.007	4489
812.148	4413
812.29	4398
812.431	4375
812.573	4417
812.714	4360
812.855	4402
812.997	4417
813.138	4440
813.279	4371
813.421	4386
813.562	4356
813.703	4329
813.845	4341
813.986	4230
814.127	4162
814.268	4177
814.41	4341
814.551	4303
814.692	4314
814.833	4223
814.974	4295
815.115	4367
815.256	4246
815.397	4211
815.539	4234
815.68	4223
815.821	4234
815.962	4230
816.103	4272
816.244	4188
816.385	4181
816.526	4287
816.666	4200
816.807	4090
816.948	4147
817.089	4162
817.23	4116
817.371	4063
817.512	4029
817.653	4090
817.793	4013
817.934	4055
818.075	4105
818.216	4055
818.356	3991
818.497	4002
818.638	3915
818.778	3949
818.919	3861
819.06	3838
819.2	3892
819.341	3865
819.481	3800
819.622	3907
819.762	3949
819.903	3960
820.043	3854
820.184	3850
820.324	3793
820.465	3918
820.605	3869
820.746	3892
820.886	3781
821.026	3884
821.167	3915
821.307	3915
821.447	3968
821.588	3922
821.728	3949
821.868	3907
822.008	3789
822.149	3918
822.289	3899
822.429	3736
822.569	3713
822.709	3789
822.849	3724
822.99	3728
823.13	3743
823.27	3774
823.41	3709
823.55	3724
823.69	3736
823.83	3732
823.97	3671
824.11	3584
824.25	3538
824.389	3633
824.529	3648
824.669	3595
824.809	3732
824.949	3709
825.089	3701
825.228	3675
825.368	3576
825.508	3572
825.648	3557
825.787	3614
825.927	3610
826.067	3622
826.206	3644
826.346	3747
826.485	3873
826.625	3903
826.765	3915
826.904	3804
827.044	3587
827.183	3488
827.323	3481
827.462	3492
827.601	3412
827.741	3374
827.88	3458
828.02	3348
828.159	3424
828.298	3477
828.437	3515
828.577	3447
828.716	3584
828.855	3500
828.994	3359
829.134	3374
829.273	3374
829.412	3374
829.551	3344
829.69	3367
829.829	3420
829.968	3458
830.107	3435
830.246	3428
830.385	3393
830.524	3306
830.663	3294
830.802	3245
830.941	3192
831.08	3199
831.219	3256
831.357	3256
831.496	3401
831.635	3237
831.774	3192
831.913	3207
832.051	3127
832.19	3169
832.329	3233
832.467	3142
832.606	3070
832.744	3169
832.883	3192
833.022	3207
833.16	3268
833.299	3332
833.437	3351
833.576	3344
833.714	3367
833.852	3412
833.991	3401
834.129	3481
834.267	3409
834.406	3401
834.544	3412
834.682	3435
834.821	3348
834.959	3580
835.097	3431
835.235	3534
835.373	3447
835.511	3488
835.65	3454
835.788	3519
835.926	3382
836.064	3340
836.202	3393
836.34	3542
836.478	3591
836.615	3523
836.753	3595
836.891	3644
837.029	3580
837.167	3580
837.305	3507
837.443	3542
837.58	3519
837.718	3603
837.856	3477
837.993	3549
838.131	3599
838.269	3572
838.406	3595
838.544	3549
838.681	3481
838.819	3466
838.956	3382
839.094	3370
839.231	3405
839.369	3492
839.506	3747
839.643	3641
839.781	3488
839.918	3424
840.055	3526
840.193	3519
840.33	3534
840.467	3564
840.604	3584
840.742	3774
840.879	3534
841.016	3553
841.153	3595
841.29	3732
841.427	3667
841.564	3713
841.701	3698
841.838	3652
841.975	3641
842.112	3743
842.249	3625
842.385	3603
842.522	3850
842.659	3701
842.796	3686
842.933	3701
843.069	3675
843.206	3728
843.343	3785
843.479	3781
843.616	3808
843.752	3679
843.889	3690
844.025	3846
844.162	3728
844.298	3861
844.435	3778
844.571	3819
844.708	3884
844.844	3964
844.98	3968
845.117	4006
845.253	3907
845.389	3907
845.525	3972
845.661	3956
845.798	3926
845.934	3953
846.07	3922
846.206	4044
846.342	4112
846.478	4097
846.614	3991
846.75	3918
846.886	3926
847.022	4063
847.158	3953
847.294	4006
847.429	4010
847.565	3968
847.701	4238
847.837	3918
847.972	3804
848.108	3979
848.244	4002
848.379	3876
848.515	3789
848.65	3838
848.786	3831
848.921	3869
849.057	3896
849.192	3960
849.328	3873
849.463	3930
849.598	3842
849.734	3876
849.869	3781
850.004	3808
850.14	3831
850.275	3762
850.41	3747
850.545	3728
850.68	3812
850.815	3774
850.95	3797
851.085	3937
851.22	3857
851.355	3816
851.49	3800
851.625	3793
851.76	3759
851.895	3720
852.03	3705
852.165	3778
852.299	3838
852.434	3903
852.569	3888
852.703	3880
852.838	3903
852.973	3972
853.107	4044
853.242	3884
853.376	3812
853.511	3766
853.645	3819
853.78	3975
853.914	3873
854.048	3926
854.183	3854
854.317	3918
854.451	4059
854.585	3922
854.72	3975
854.854	4048
854.988	3926
855.122	4017
855.256	3918
855.39	4017
855.524	4090
855.658	4051
855.792	4082
855.926	4109
856.06	4166
856.194	4158
856.327	4154
856.461	4067
856.595	4173
856.729	4120
856.862	4276
856.996	4242
857.13	4287
857.263	4337
857.397	4333
857.53	4268
857.664	4325
857.797	4421
857.931	4409
858.064	4325
858.197	4405
858.331	4413
858.464	4379
858.597	4390
858.731	4459
858.864	4409
858.997	4447
859.13	4504
859.263	4493
859.396	4558
859.529	4462
859.662	4546
859.795	4489
859.928	4618
860.061	4706
860.194	4748
860.327	4645
860.46	4694
860.592	4729
860.725	4786
860.858	4744
860.99	4675
861.123	4679
861.256	4653
861.388	4774
861.521	5497
861.653	4717
861.786	4740
861.918	4755
862.05	4778
862.183	4835
862.315	4839
862.447	4908
862.58	4866
862.712	4801
862.844	4733
862.976	4820
863.108	4881
863.24	5223
863.372	4828
863.504	4850
863.636	4889
863.768	4953
863.9	4957
864.032	4934
864.164	4908
864.296	5010
864.428	5064
864.559	5136
864.691	5121
864.823	5086
864.954	5075
865.086	5090
865.217	5132
865.349	5052
865.48	5105
865.612	5185
865.743	5265
865.875	5124
866.006	5155
866.137	5227
866.269	5242
866.4	5231
866.531	5235
866.662	5212
866.793	5239
866.924	5265
867.055	5345
867.186	5326
867.317	5318
867.448	5334
867.579	5292
867.71	5402
867.841	5383
867.972	5436
868.103	5474
868.233	5459
868.364	5520
868.495	5554
868.625	5653
868.756	5760
868.886	5657
869.017	5661
869.147	5859
869.278	5855
869.408	5794
869.539	5790
869.669	5931
869.799	5889
869.929	5946
870.06	5977
870.19	6095
870.32	6175
870.45	6220
870.58	6292
870.71	6422
870.84	6494
870.97	6414
871.1	6479
871.23	6642
871.36	6646
871.489	6654
871.619	6776
871.749	6837
871.879	6867
872.008	6916
872.138	7015
872.267	6928
872.397	6962
872.526	7065
872.656	7095
872.785	7175
872.915	7354
873.044	7514
873.173	7529
873.303	7594
873.432	7723
873.561	7826
873.69	7814
873.819	8039
873.948	8134
874.077	8279
874.206	8305
874.335	8461
874.464	8727
874.593	8895
874.722	8933
874.851	9093
874.979	9272
875.108	9332
875.237	9439
875.365	9462
875.494	9652
875.623	9819
875.751	9869
875.88	9964
876.008	10086
876.136	10223
876.265	10497
876.393	10683
876.521	10656
876.65	10790
876.778	10828
876.906	10835
877.034	10949
877.162	11090
877.29	11181
877.418	11330
877.546	11376
877.674	11414
877.802	11467
877.93	11486
878.058	11623
878.185	11532
878.313	11668
878.441	11771
878.568	11589
878.696	11775
878.824	11882
878.951	11870
879.079	12034
879.206	12155
879.333	12095
879.461	12007
879.588	12098
879.715	12133
879.842	12136
879.97	12026
880.097	11836
880.224	11813
880.351	11843
880.478	11908
880.605	11942
880.732	11843
880.859	12015
880.986	11863
881.112	11817
881.239	11745
881.366	11710
881.493	11520
881.619	11532
881.746	11604
881.872	11547
881.999	11509
882.125	11398
882.252	11581
882.378	11535
882.505	11619
882.631	11368
882.757	11368
882.883	11326
883.01	11284
883.136	11178
883.262	11025
883.388	11052
883.514	11140
883.64	11132
883.766	11003
883.892	10927
884.018	10930
884.143	11064
884.269	11140
884.395	10801
884.52	10721
884.646	10698
884.772	10702
884.897	10630
885.023	10634
885.148	10694
885.274	10763
885.399	10668
885.524	10615
885.65	10516
885.775	10561
885.9	10569
886.025	10584
886.15	10535
886.275	10375
886.4	10360
886.525	10352
886.65	10268
886.775	10390
886.9	10417
887.025	10500
887.149	10394
887.274	10268
887.399	10166
887.523	10112
887.648	10131
887.773	10120
887.897	10200
888.021	10150
888.146	10051
888.27	10196
888.395	10143
888.519	10196
888.643	10211
888.767	10276
888.891	10090
889.015	10002
889.139	10059
889.263	10067
889.387	10036
889.511	10055
889.635	10044
889.759	9930
889.883	10025
890.006	9899
890.13	10086
890.254	9983
890.377	9854
890.501	9770
890.624	9915
890.748	9918
890.871	9778
890.995	9774
891.118	9717
891.241	9686
891.364	9766
891.488	9778
891.611	9701
891.734	9690
891.857	9785
891.98	9728
892.103	9656
892.226	9819
892.349	9648
892.471	9439
892.594	9561
892.717	9553
892.839	9614
892.962	9511
893.085	9667
893.207	9614
893.33	9500
893.452	9477
893.575	9553
893.697	9488
893.819	9572
893.941	9568
894.064	9584
894.186	9412
894.308	9405
894.43	9557
894.552	9557
894.674	9515
894.796	9378
894.918	9462
895.04	9355
895.161	9378
895.283	9306
895.405	9203
895.526	9241
895.648	9249
895.769	9211
895.891	9279
896.012	9321
896.134	9226
896.255	9184
896.376	9112
896.498	9180
896.619	9123
896.74	9055
896.861	9077
896.982	9233
897.103	9268
897.224	9097
897.345	9032
897.466	8998
897.587	8979
897.708	9097
897.828	9024
897.949	8910
898.07	8857
898.19	8819
898.311	9032
898.431	8929
898.552	8880
898.672	8948
898.792	8937
898.913	8891
899.033	8762
899.153	8758
899.273	8682
899.393	8659
899.513	8697
899.633	8773
899.753	8762
899.873	8716
899.993	8689
900.113	8708
900.232	8667
900.352	8613
900.472	8663
900.591	8537
900.711	8587
900.83	8469
900.95	8632
901.069	8689
901.189	8552
901.308	8446
901.427	8427
901.546	8431
901.665	8450
901.784	8511
901.904	8385
902.023	8343
902.141	8195
902.26	8282
902.379	8259
902.498	8233
902.617	8183
902.735	8256
902.854	8271
902.973	8225
903.091	8187
903.21	8092
903.328	8043
903.446	8092
903.565	8027
903.683	8115
903.801	7997
903.919	8111
904.038	8138
904.156	8031
904.274	8065
904.392	7970
904.51	8016
904.627	8027
904.745	8050
904.863	8119
904.981	7951
905.098	7818
905.216	7852
905.334	7849
905.451	7879
905.569	7890
905.686	7868
905.803	7894
905.921	7753
906.038	7795
906.155	7784
906.272	7750
906.389	7693
906.506	7613
906.623	7582
906.74	7655
906.857	7533
906.974	7571
907.091	7616
907.208	7689
907.324	7616
907.441	7506
907.557	7464
907.674	7449
907.79	7415
907.907	7388
908.023	7464
908.139	7491
908.256	7384
908.372	7339
908.488	7384
908.604	7263
908.72	7263
908.836	7278
908.952	7209
909.068	7202
909.184	7320
909.3	7228
909.415	7285
909.531	7312
909.647	7080
909.762	7038
909.878	7046
909.993	7046
910.108	7042
910.224	7057
910.339	7126
910.454	7027
910.57	7019
910.685	6901
910.8	7114
910.915	7160
911.03	7004
911.145	6935
911.259	6859
911.374	6844
911.489	6757
911.604	6814
911.718	6703
911.833	6715
911.947	6627
912.062	6627
912.176	6719
912.291	6745
912.405	6627
912.519	6764
912.633	6783
912.748	6692
912.862	6722
912.976	6635
913.09	6452
913.204	6604
913.318	6608
913.431	6650
913.545	6692
913.659	6722
913.772	6627
913.886	6582
914	6559
914.113	6593
914.226	6635
914.34	6604
914.453	6509
914.566	6593
914.68	6467
914.793	6486
914.906	6410
915.019	6350
915.132	6342
915.245	6445
915.358	6418
915.47	6448
915.583	6429
915.696	6426
915.809	6506
915.921	6559
916.034	6452
916.146	6414
916.259	6384
916.371	6483
916.483	6456
916.595	6350
916.708	6399
916.82	6391
916.932	6334
917.044	6391
917.156	6334
917.268	6254
917.38	6342
917.491	6300
917.603	6300
917.715	6376
917.826	6399
917.938	6372
918.049	6308
918.161	6285
918.272	6395
918.384	6437
918.495	6361
918.606	6281
918.717	6167
918.828	6209
918.939	6247
919.05	6178
919.161	6285
919.272	6110
919.383	6144
919.494	6311
919.604	6403
919.715	6270
919.826	6235
919.936	6228
920.047	6342
920.157	6266
920.267	6452
920.378	6262
920.488	6292
920.598	6475
920.708	6517
920.818	6448
920.928	6437
921.038	6620
921.148	6551
921.258	6331
921.368	6331
921.477	6228
921.587	6171
921.697	6034
921.806	6190
921.916	6083
922.025	5996
922.134	5923
922.244	5885
922.353	5939
922.462	5840
922.571	5821
922.68	5714
922.789	5668
922.898	5653
923.007	5638
923.116	5737
923.224	5657
923.333	5668
923.442	5570
923.55	5532
923.659	5558
923.767	5596
923.876	5566
923.984	5570
924.092	5520
924.201	5592
924.309	5562
924.417	5528
924.525	5558
924.633	5505
924.741	6270
924.849	5326
924.956	5486
925.064	5372
925.172	5303
925.279	5318
925.387	5337
925.494	5273
925.602	5414
925.709	5360
925.816	5307
925.924	5246
926.031	5345
926.138	5303
926.245	5337
926.352	5265
926.459	5261
926.566	5322
926.673	5193
926.779	5113
926.886	5079
926.993	5075
927.099	4976
927.206	4984
927.312	4999
927.419	5018
927.525	4980
927.631	4953
927.737	4919
927.843	4896
927.95	4767
928.056	4782
928.162	4786
928.267	4873
928.373	5223
928.479	4835
928.585	4645
928.69	4748
928.796	4740
928.901	4694
929.007	4599
929.112	4611
929.218	4599
929.323	4611
929.428	4626
929.533	4660
929.638	4554
929.743	4523
929.848	4531
929.953	4527
930.058	4394
930.163	4325
930.267	4363
930.372	4405
930.477	4295
930.581	4443
930.685	4322
930.79	4227
930.894	4291
930.998	4238
931.103	4367
931.207	4063
931.311	4032
931.415	4032
931.519	3922
931.623	3922
