Data from glass_V78500241_983.txt Node
Date: Wed Sep 01 19:21:18 CST 2021
User: usil
Spectrometer: V785-0024
Trigger mode: 0
Integration Time (sec): 4.000000E-1
Scans to average: 1
Nonlinearity correction enabled: false
Boxcar width: 0
Storing dark spectrum: false
XAxis mode: Wavelengths
Number of Pixels in Spectrum: 1024
>>>>>Begin Spectral Data<<<<<
801.071	3789
801.214	3755
801.356	3717
801.499	3762
801.641	3770
801.783	3804
801.926	3869
802.068	3850
802.211	3846
802.353	3899
802.496	3850
802.638	3915
802.78	3911
802.923	3926
803.065	3899
803.208	3861
803.35	3888
803.492	3964
803.635	3945
803.777	3816
803.919	3922
804.061	4158
804.204	3972
804.346	3918
804.488	3960
804.63	4059
804.773	3994
804.915	4036
805.057	4124
805.199	4025
805.341	4139
805.483	4112
805.626	4147
805.768	4139
805.91	4181
806.052	4219
806.194	4219
806.336	4348
806.478	4219
806.62	4135
806.762	4215
806.904	4223
807.046	4356
807.188	4318
807.33	4166
807.472	4287
807.614	4223
807.756	4234
807.898	4200
808.04	4249
808.182	4303
808.324	4306
808.465	4344
808.607	4443
808.749	4497
808.891	4451
809.033	4489
809.174	4394
809.316	4306
809.458	4265
809.6	4185
809.741	4143
809.883	4169
810.025	4204
810.166	4253
810.308	4204
810.45	4219
810.591	4299
810.733	4306
810.875	4519
811.016	4839
811.158	5132
811.299	5223
811.441	5303
811.582	5060
811.724	4675
811.865	4424
812.007	4527
812.148	4421
812.29	4375
812.431	4386
812.573	4394
812.714	4398
812.855	4421
812.997	4409
813.138	4459
813.279	4428
813.421	4390
813.562	4398
813.703	4318
813.845	4348
813.986	4261
814.127	4207
814.268	4280
814.41	4318
814.551	4265
814.692	4333
814.833	4303
814.974	4280
815.115	4371
815.256	4249
815.397	4295
815.539	4276
815.68	4215
815.821	4215
815.962	4337
816.103	4265
816.244	4284
816.385	4211
816.526	4367
816.666	4215
816.807	4097
816.948	4150
817.089	4185
817.23	4147
817.371	4040
817.512	4032
817.653	4090
817.793	4044
817.934	4063
818.075	4093
818.216	4055
818.356	4071
818.497	3979
818.638	3945
818.778	3941
818.919	3915
819.06	3911
819.2	3896
819.341	3911
819.481	3842
819.622	3854
819.762	4040
819.903	3945
820.043	3884
820.184	3835
820.324	3831
820.465	3915
820.605	3831
820.746	3861
820.886	3819
821.026	3903
821.167	3926
821.307	4002
821.447	4013
821.588	3987
821.728	3941
821.868	3975
822.008	3884
822.149	3899
822.289	3922
822.429	3785
822.569	3827
822.709	3819
822.849	3679
822.99	3743
823.13	3743
823.27	3781
823.41	3743
823.55	3766
823.69	3713
823.83	3709
823.97	3641
824.11	3614
824.25	3587
824.389	3603
824.529	3705
824.669	3641
824.809	3732
824.949	3778
825.089	3724
825.228	3713
825.368	3606
825.508	3553
825.648	3576
825.787	3603
825.927	3633
826.067	3648
826.206	3644
826.346	3800
826.485	3835
826.625	3907
826.765	3922
826.904	3816
827.044	3641
827.183	3568
827.323	3435
827.462	3473
827.601	3462
827.741	3462
827.88	3500
828.02	3378
828.159	3454
828.298	3488
828.437	3530
828.577	3454
828.716	3618
828.855	3530
828.994	3382
829.134	3389
829.273	3443
829.412	3359
829.551	3348
829.69	3355
829.829	3447
829.968	3553
830.107	3466
830.246	3416
830.385	3420
830.524	3348
830.663	3329
830.802	3287
830.941	3207
831.08	3237
831.219	3287
831.357	3241
831.496	3439
831.635	3222
831.774	3203
831.913	3218
832.051	3157
832.19	3142
832.329	3203
832.467	3123
832.606	3108
832.744	3211
832.883	3199
833.022	3207
833.16	3260
833.299	3313
833.437	3340
833.576	3416
833.714	3397
833.852	3469
833.991	3466
834.129	3447
834.267	3462
834.406	3409
834.544	3405
834.682	3458
834.821	3416
834.959	3557
835.097	3439
835.235	3553
835.373	3523
835.511	3504
835.65	3481
835.788	3496
835.926	3409
836.064	3386
836.202	3447
836.34	3564
836.478	3622
836.615	3549
836.753	3568
836.891	3622
837.029	3591
837.167	3633
837.305	3568
837.443	3587
837.58	3519
837.718	3614
837.856	3542
837.993	3530
838.131	3591
838.269	3595
838.406	3576
838.544	3599
838.681	3481
838.819	3481
838.956	3416
839.094	3389
839.231	3450
839.369	3515
839.506	3709
839.643	3610
839.781	3492
839.918	3488
840.055	3504
840.193	3561
840.33	3538
840.467	3549
840.604	3599
840.742	3774
840.879	3576
841.016	3587
841.153	3614
841.29	3804
841.427	3717
841.564	3732
841.701	3728
841.838	3671
841.975	3686
842.112	3709
842.249	3644
842.385	3618
842.522	3854
842.659	3736
842.796	3648
842.933	3740
843.069	3701
843.206	3713
843.343	3827
843.479	3804
843.616	3846
843.752	3724
843.889	3705
844.025	3865
844.162	3762
844.298	3804
844.435	3793
844.571	3770
844.708	3899
844.844	3979
844.98	4017
845.117	4055
845.253	3964
845.389	3873
845.525	3998
845.661	3964
845.798	3949
845.934	3983
846.07	3934
846.206	4101
846.342	4093
846.478	4128
846.614	3972
846.75	3945
846.886	3911
847.022	4032
847.158	4017
847.294	4036
847.429	4032
847.565	4002
847.701	4246
847.837	3896
847.972	3888
848.108	4013
848.244	4017
848.379	3819
848.515	3819
848.65	3797
848.786	3831
848.921	3869
849.057	3945
849.192	3956
849.328	3907
849.463	3960
849.598	3911
849.734	3896
849.869	3831
850.004	3797
850.14	3854
850.275	3808
850.41	3751
850.545	3759
850.68	3774
850.815	3812
850.95	3819
851.085	3968
851.22	3884
851.355	3850
851.49	3751
851.625	3827
851.76	3770
851.895	3743
852.03	3751
852.165	3797
852.299	3842
852.434	3892
852.569	3896
852.703	3911
852.838	3964
852.973	4025
853.107	4036
853.242	3876
853.376	3816
853.511	3831
853.645	3854
853.78	4010
853.914	3945
854.048	3918
854.183	3884
854.317	3949
854.451	4074
854.585	3975
854.72	3960
854.854	4086
854.988	3937
855.122	4071
855.256	3949
855.39	4059
855.524	4128
855.658	4074
855.792	4116
855.926	4135
856.06	4154
856.194	4192
856.327	4192
856.461	4143
856.595	4166
856.729	4154
856.862	4318
856.996	4257
857.13	4272
857.263	4291
857.397	4394
857.53	4310
857.664	4348
857.797	4379
857.931	4443
858.064	4432
858.197	4443
858.331	4428
858.464	4405
858.597	4360
858.731	4424
858.864	4413
858.997	4470
859.13	4546
859.263	4588
859.396	4527
859.529	4519
859.662	4512
859.795	4542
859.928	4584
860.061	4691
860.194	4786
860.327	4649
860.46	4649
860.592	4752
860.725	4790
860.858	4740
860.99	4710
861.123	4710
861.256	4702
861.388	4809
861.521	5478
861.653	4717
861.786	4721
861.918	4733
862.05	4843
862.183	4889
862.315	4915
862.447	4889
862.58	4911
862.712	4839
862.844	4752
862.976	4923
863.108	4908
863.24	5254
863.372	4835
863.504	4896
863.636	4904
863.768	4965
863.9	4976
864.032	4946
864.164	4987
864.296	5014
864.428	5064
864.559	5174
864.691	5151
864.823	5136
864.954	5109
865.086	5105
865.217	5113
865.349	5113
865.48	5159
865.612	5181
865.743	5337
865.875	5204
866.006	5212
866.137	5201
866.269	5292
866.4	5223
866.531	5231
866.662	5204
866.793	5296
866.924	5277
867.055	5353
867.186	5341
867.317	5330
867.448	5368
867.579	5417
867.71	5379
867.841	5425
867.972	5459
868.103	5497
868.233	5512
868.364	5524
868.495	5562
868.625	5722
868.756	5790
868.886	5642
869.017	5722
869.147	5832
869.278	5878
869.408	5821
869.539	5794
869.669	5912
869.799	5901
869.929	5965
870.06	6026
870.19	6205
870.32	6152
870.45	6254
870.58	6365
870.71	6498
870.84	6460
870.97	6422
871.1	6433
871.23	6669
871.36	6696
871.489	6681
871.619	6821
871.749	6768
871.879	6924
872.008	7008
872.138	6943
872.267	7065
872.397	7012
872.526	7015
872.656	7053
872.785	7251
872.915	7426
873.044	7483
873.173	7548
873.303	7609
873.432	7803
873.561	7906
873.69	7833
873.819	7997
873.948	8183
874.077	8263
874.206	8347
874.335	8427
874.464	8697
874.593	8933
874.722	8975
874.851	9135
874.979	9287
875.108	9397
875.237	9408
875.365	9519
875.494	9644
875.623	9880
875.751	9854
875.88	10021
876.008	10158
876.136	10333
876.265	10603
876.393	10725
876.521	10687
876.65	10881
876.778	10850
876.906	10953
877.034	10999
877.162	11159
877.29	11162
877.418	11345
877.546	11318
877.674	11429
877.802	11467
877.93	11570
878.058	11493
878.185	11554
878.313	11680
878.441	11680
878.568	11577
878.696	11813
878.824	11878
878.951	11984
879.079	12011
879.206	12243
879.333	12045
879.461	12053
879.588	11980
879.715	12091
879.842	12262
879.97	12110
880.097	11885
880.224	11897
880.351	11870
880.478	11946
880.605	11923
880.732	11863
880.859	12015
880.986	11821
881.112	11882
881.239	11714
881.366	11680
881.493	11665
881.619	11581
881.746	11535
881.872	11547
881.999	11532
882.125	11516
882.252	11562
882.378	11535
882.505	11551
882.631	11429
882.757	11273
882.883	11402
883.01	11174
883.136	11216
883.262	11128
883.388	11124
883.514	11185
883.64	11201
883.766	11083
883.892	11056
884.018	11018
884.143	11086
884.269	11109
884.395	10839
884.52	10824
884.646	10782
884.772	10672
884.897	10736
885.023	10649
885.148	10748
885.274	10797
885.399	10679
885.524	10649
885.65	10577
885.775	10535
885.9	10565
886.025	10637
886.15	10584
886.275	10478
886.4	10440
886.525	10375
886.65	10405
886.775	10314
886.9	10558
887.025	10611
887.149	10379
887.274	10223
887.399	10192
887.523	10181
887.648	10173
887.773	10097
887.897	10287
888.021	10295
888.146	10188
888.27	10272
888.395	10196
888.519	10177
888.643	10185
888.767	10181
888.891	10112
889.015	10074
889.139	10116
889.263	10048
889.387	10059
889.511	10074
889.635	10131
889.759	9884
889.883	10055
890.006	10067
890.13	10090
890.254	9994
890.377	9918
890.501	9800
890.624	9895
890.748	9892
890.871	9766
890.995	9755
891.118	9732
891.241	9762
891.364	9800
891.488	9899
891.611	9698
891.734	9728
891.857	9755
891.98	9736
892.103	9728
892.226	9701
892.349	9633
892.471	9500
892.594	9542
892.717	9637
892.839	9584
892.962	9675
893.085	9648
893.207	9637
893.33	9568
893.452	9564
893.575	9625
893.697	9511
893.819	9633
893.941	9717
894.064	9690
894.186	9466
894.308	9454
894.43	9572
894.552	9580
894.674	9534
894.796	9393
894.918	9389
895.04	9344
895.161	9401
895.283	9245
895.405	9291
895.526	9302
895.648	9180
895.769	9294
895.891	9275
896.012	9313
896.134	9203
896.255	9146
896.376	9154
896.498	9157
896.619	9154
896.74	9074
896.861	9127
896.982	9321
897.103	9268
897.224	9169
897.345	9119
897.466	8990
897.587	9005
897.708	9051
897.828	8986
897.949	8998
898.07	8914
898.19	8872
898.311	9032
898.431	8895
898.552	8918
898.672	8971
898.792	8933
898.913	8899
899.033	8788
899.153	8823
899.273	8644
899.393	8701
899.513	8693
899.633	8758
899.753	8731
899.873	8708
899.993	8773
900.113	8712
900.232	8705
900.352	8655
900.472	8606
900.591	8545
900.711	8648
900.83	8522
900.95	8667
901.069	8636
901.189	8606
901.308	8454
901.427	8434
901.546	8431
901.665	8454
901.784	8484
901.904	8381
902.023	8374
902.141	8195
902.26	8282
902.379	8343
902.498	8172
902.617	8221
902.735	8374
902.854	8275
902.973	8240
903.091	8161
903.21	8130
903.328	8199
903.446	8153
903.565	8096
903.683	8123
903.801	8016
903.919	8161
904.038	8195
904.156	8054
904.274	8107
904.392	7993
904.51	8008
904.627	8024
904.745	8145
904.863	8161
904.981	7947
905.098	7871
905.216	7906
905.334	7955
905.451	7898
905.569	7879
905.686	8054
905.803	7871
905.921	7784
906.038	7845
906.155	7750
906.272	7750
906.389	7700
906.506	7727
906.623	7651
906.74	7674
906.857	7582
906.974	7597
907.091	7696
907.208	7742
907.324	7712
907.441	7548
907.557	7419
907.674	7468
907.79	7415
907.907	7426
908.023	7483
908.139	7445
908.256	7392
908.372	7403
908.488	7381
908.604	7221
908.72	7305
908.836	7285
908.952	7285
909.068	7217
909.184	7316
909.3	7270
909.415	7308
909.531	7278
909.647	7126
909.762	7152
909.878	7168
909.993	7171
910.108	7114
910.224	7057
910.339	7072
910.454	7050
910.57	6993
910.685	6913
910.8	7107
910.915	7160
911.03	7008
911.145	6943
911.259	6928
911.374	6928
911.489	6867
911.604	6772
911.718	6738
911.833	6700
911.947	6684
912.062	6597
912.176	6734
912.291	6700
912.405	6696
912.519	6840
912.633	6833
912.748	6749
912.862	6749
912.976	6608
913.09	6521
913.204	6612
913.318	6620
913.431	6707
913.545	6665
913.659	6719
913.772	6658
913.886	6563
914	6601
914.113	6616
914.226	6627
914.34	6673
914.453	6437
914.566	6627
914.68	6467
914.793	6532
914.906	6426
915.019	6407
915.132	6353
915.245	6460
915.358	6445
915.47	6464
915.583	6486
915.696	6517
915.809	6570
915.921	6604
916.034	6448
916.146	6414
916.259	6388
916.371	6506
916.483	6410
916.595	6422
916.708	6445
916.82	6384
916.932	6441
917.044	6407
917.156	6391
917.268	6361
917.38	6342
917.491	6384
917.603	6395
917.715	6429
917.826	6452
917.938	6334
918.049	6300
918.161	6376
918.272	6376
918.384	6441
918.495	6369
918.606	6235
918.717	6251
918.828	6300
918.939	6273
919.05	6178
919.161	6270
919.272	6152
919.383	6171
919.494	6289
919.604	6464
919.715	6331
919.826	6235
919.936	6262
920.047	6331
920.157	6315
920.267	6467
920.378	6308
920.488	6289
920.598	6445
920.708	6483
920.818	6513
920.928	6502
921.038	6578
921.148	6578
921.258	6380
921.368	6323
921.477	6228
921.587	6213
921.697	6076
921.806	6197
921.916	6129
922.025	6022
922.134	5870
922.244	5878
922.353	5958
922.462	5855
922.571	5798
922.68	5714
922.789	5684
922.898	5718
923.007	5653
923.116	5741
923.224	5653
923.333	5657
923.442	5585
923.55	5627
923.659	5627
923.767	5699
923.876	5573
923.984	5608
924.092	5448
924.201	5532
924.309	5573
924.417	5512
924.525	5505
924.633	5535
924.741	6155
924.849	5372
924.956	5455
925.064	5360
925.172	5318
925.279	5334
925.387	5372
925.494	5337
925.602	5406
925.709	5334
925.816	5318
925.924	5265
926.031	5383
926.138	5357
926.245	5322
926.352	5288
926.459	5315
926.566	5299
926.673	5254
926.779	5189
926.886	5128
926.993	5086
927.099	4980
927.206	4980
927.312	4946
927.419	5045
927.525	4987
927.631	4984
927.737	4923
927.843	4881
927.95	4771
928.056	4866
928.162	4839
928.267	4835
928.373	5337
928.479	4870
928.585	4687
928.69	4896
928.796	4790
928.901	4702
929.007	4622
929.112	4691
929.218	4622
929.323	4641
929.428	4550
929.533	4729
929.638	4481
929.743	4561
929.848	4531
929.953	4546
930.058	4474
930.163	4348
930.267	4352
930.372	4451
930.477	4325
930.581	4489
930.685	4421
930.79	4230
930.894	4310
930.998	4268
931.103	4447
931.207	4112
931.311	4086
931.415	4051
931.519	3945
931.623	3956
