Data from glass_V78500241_2364.txt Node
Date: Wed Sep 01 19:30:53 CST 2021
User: usil
Spectrometer: V785-0024
Trigger mode: 0
Integration Time (sec): 4.000000E-1
Scans to average: 1
Nonlinearity correction enabled: false
Boxcar width: 0
Storing dark spectrum: false
XAxis mode: Wavelengths
Number of Pixels in Spectrum: 1024
>>>>>Begin Spectral Data<<<<<
801.071	3751
801.214	3789
801.356	3732
801.499	3736
801.641	3698
801.783	3759
801.926	3846
802.068	3785
802.211	3838
802.353	3892
802.496	3827
802.638	3899
802.78	3873
802.923	3945
803.065	3896
803.208	3873
803.35	3816
803.492	3911
803.635	3930
803.777	3793
803.919	3926
804.061	4143
804.204	3941
804.346	3953
804.488	3915
804.63	4071
804.773	3975
804.915	4013
805.057	4135
805.199	4055
805.341	4093
805.483	4128
805.626	4093
805.768	4124
805.91	4188
806.052	4215
806.194	4173
806.336	4341
806.478	4215
806.62	4139
806.762	4147
806.904	4238
807.046	4322
807.188	4223
807.33	4150
807.472	4211
807.614	4173
807.756	4249
807.898	4204
808.04	4234
808.182	4268
808.324	4303
808.465	4322
808.607	4390
808.749	4466
808.891	4497
809.033	4478
809.174	4394
809.316	4230
809.458	4238
809.6	4124
809.741	4101
809.883	4158
810.025	4219
810.166	4188
810.308	4207
810.45	4223
810.591	4227
810.733	4284
810.875	4512
811.016	4786
811.158	5090
811.299	5250
811.441	5288
811.582	5060
811.724	4710
811.865	4466
812.007	4470
812.148	4409
812.29	4363
812.431	4375
812.573	4337
812.714	4348
812.855	4375
812.997	4405
813.138	4485
813.279	4394
813.421	4348
813.562	4402
813.703	4333
813.845	4329
813.986	4265
814.127	4196
814.268	4192
814.41	4280
814.551	4234
814.692	4386
814.833	4230
814.974	4272
815.115	4352
815.256	4291
815.397	4261
815.539	4253
815.68	4185
815.821	4177
815.962	4322
816.103	4261
816.244	4192
816.385	4280
816.526	4268
816.666	4227
816.807	4059
816.948	4200
817.089	4147
817.23	4112
817.371	4040
817.512	4017
817.653	4063
817.793	3979
817.934	4032
818.075	4101
818.216	4082
818.356	4067
818.497	3994
818.638	3972
818.778	3873
818.919	3865
819.06	3842
819.2	3873
819.341	3823
819.481	3808
819.622	3873
819.762	3983
819.903	3896
820.043	3884
820.184	3823
820.324	3800
820.465	3861
820.605	3819
820.746	3876
820.886	3808
821.026	3922
821.167	3896
821.307	3994
821.447	3998
821.588	3949
821.728	3945
821.868	3922
822.008	3846
822.149	3915
822.289	3876
822.429	3755
822.569	3740
822.709	3789
822.849	3701
822.99	3732
823.13	3713
823.27	3800
823.41	3667
823.55	3705
823.69	3705
823.83	3717
823.97	3641
824.11	3610
824.25	3576
824.389	3648
824.529	3694
824.669	3622
824.809	3728
824.949	3766
825.089	3747
825.228	3701
825.368	3572
825.508	3511
825.648	3557
825.787	3591
825.927	3614
826.067	3580
826.206	3667
826.346	3785
826.485	3823
826.625	3800
826.765	3926
826.904	3823
827.044	3580
827.183	3492
827.323	3420
827.462	3466
827.601	3447
827.741	3466
827.88	3466
828.02	3367
828.159	3428
828.298	3435
828.437	3488
828.577	3462
828.716	3595
828.855	3485
828.994	3420
829.134	3344
829.273	3363
829.412	3340
829.551	3336
829.69	3332
829.829	3416
829.968	3519
830.107	3447
830.246	3439
830.385	3389
830.524	3336
830.663	3325
830.802	3245
830.941	3192
831.08	3192
831.219	3287
831.357	3268
831.496	3359
831.635	3203
831.774	3192
831.913	3226
832.051	3119
832.19	3138
832.329	3195
832.467	3131
832.606	3097
832.744	3135
832.883	3173
833.022	3230
833.16	3230
833.299	3298
833.437	3306
833.576	3401
833.714	3431
833.852	3416
833.991	3409
834.129	3462
834.267	3439
834.406	3397
834.544	3443
834.682	3409
834.821	3416
834.959	3599
835.097	3378
835.235	3511
835.373	3473
835.511	3496
835.65	3439
835.788	3469
835.926	3374
836.064	3355
836.202	3416
836.34	3549
836.478	3603
836.615	3523
836.753	3564
836.891	3660
837.029	3629
837.167	3511
837.305	3538
837.443	3557
837.58	3473
837.718	3618
837.856	3568
837.993	3561
838.131	3637
838.269	3576
838.406	3572
838.544	3534
838.681	3485
838.819	3428
838.956	3367
839.094	3351
839.231	3447
839.369	3454
839.506	3698
839.643	3614
839.781	3481
839.918	3500
840.055	3515
840.193	3511
840.33	3538
840.467	3526
840.604	3584
840.742	3789
840.879	3568
841.016	3557
841.153	3564
841.29	3755
841.427	3713
841.564	3736
841.701	3740
841.838	3682
841.975	3675
842.112	3732
842.249	3637
842.385	3610
842.522	3793
842.659	3679
842.796	3694
842.933	3705
843.069	3682
843.206	3694
843.343	3808
843.479	3823
843.616	3804
843.752	3625
843.889	3671
844.025	3842
844.162	3713
844.298	3888
844.435	3793
844.571	3747
844.708	3907
844.844	4029
844.98	3998
845.117	3972
845.253	3865
845.389	3880
845.525	3975
845.661	3960
845.798	3922
845.934	4029
846.07	3949
846.206	4078
846.342	4120
846.478	4036
846.614	3983
846.75	3975
846.886	3888
847.022	4021
847.158	3964
847.294	3964
847.429	3998
847.565	3968
847.701	4242
847.837	3884
847.972	3827
848.108	3987
848.244	3968
848.379	3835
848.515	3804
848.65	3835
848.786	3842
848.921	3918
849.057	3918
849.192	3941
849.328	3903
849.463	3911
849.598	3888
849.734	3838
849.869	3793
850.004	3797
850.14	3842
850.275	3819
850.41	3762
850.545	3755
850.68	3808
850.815	3770
850.95	3751
851.085	3911
851.22	3892
851.355	3785
851.49	3804
851.625	3800
851.76	3766
851.895	3740
852.03	3724
852.165	3781
852.299	3816
852.434	3903
852.569	3827
852.703	3876
852.838	3918
852.973	3998
853.107	3964
853.242	3880
853.376	3838
853.511	3743
853.645	3804
853.78	3960
853.914	3911
854.048	3918
854.183	3873
854.317	3899
854.451	4071
854.585	3922
854.72	3941
854.854	4029
854.988	3934
855.122	4025
855.256	3918
855.39	4032
855.524	4097
855.658	4086
855.792	4109
855.926	4116
856.06	4112
856.194	4185
856.327	4169
856.461	4093
856.595	4135
856.729	4124
856.862	4219
856.996	4253
857.13	4299
857.263	4348
857.397	4356
857.53	4284
857.664	4360
857.797	4352
857.931	4421
858.064	4352
858.197	4405
858.331	4383
858.464	4375
858.597	4363
858.731	4432
858.864	4432
858.997	4451
859.13	4516
859.263	4512
859.396	4603
859.529	4481
859.662	4538
859.795	4485
859.928	4558
860.061	4714
860.194	4710
860.327	4698
860.46	4611
860.592	4733
860.725	4740
860.858	4721
860.99	4672
861.123	4653
861.256	4725
861.388	4759
861.521	5501
861.653	4710
861.786	4687
861.918	4717
862.05	4816
862.183	4835
862.315	4873
862.447	4854
862.58	4889
862.712	4729
862.844	4774
862.976	4862
863.108	4812
863.24	5201
863.372	4862
863.504	4892
863.636	4908
863.768	4934
863.9	4957
864.032	4938
864.164	4911
864.296	5029
864.428	5071
864.559	5060
864.691	5132
864.823	5201
864.954	5090
865.086	5056
865.217	5143
865.349	5117
865.48	5143
865.612	5193
865.743	5311
865.875	5197
866.006	5181
866.137	5185
866.269	5223
866.4	5231
866.531	5273
866.662	5193
866.793	5242
866.924	5307
867.055	5330
867.186	5311
867.317	5307
867.448	5307
867.579	5334
867.71	5402
867.841	5353
867.972	5414
868.103	5452
868.233	5501
868.364	5505
868.495	5520
868.625	5695
868.756	5764
868.886	5634
869.017	5699
869.147	5836
869.278	5840
869.408	5832
869.539	5794
869.669	5908
869.799	5908
869.929	5980
870.06	6007
870.19	6167
870.32	6224
870.45	6311
870.58	6304
870.71	6376
870.84	6460
870.97	6418
871.1	6429
871.23	6604
871.36	6711
871.489	6646
871.619	6669
871.749	6791
871.879	6825
872.008	6970
872.138	6958
872.267	6970
872.397	6916
872.526	7015
872.656	7156
872.785	7198
872.915	7358
873.044	7495
873.173	7529
873.303	7639
873.432	7704
873.561	7814
873.69	7925
873.819	8054
873.948	8164
874.077	8252
874.206	8343
874.335	8480
874.464	8689
874.593	8781
874.722	8933
874.851	9146
874.979	9237
875.108	9412
875.237	9458
875.365	9519
875.494	9675
875.623	9812
875.751	9808
875.88	10010
876.008	10135
876.136	10265
876.265	10485
876.393	10717
876.521	10714
876.65	10793
876.778	10862
876.906	10923
877.034	11006
877.162	11102
877.29	11121
877.418	11376
877.546	11261
877.674	11429
877.802	11417
877.93	11474
878.058	11554
878.185	11505
878.313	11691
878.441	11805
878.568	11714
878.696	11840
878.824	11885
878.951	11973
879.079	11973
879.206	12076
879.333	12072
879.461	12106
879.588	12117
879.715	12038
879.842	12277
879.97	12098
880.097	11824
880.224	11920
880.351	11813
880.478	11897
880.605	11824
880.732	11760
880.859	11988
880.986	11802
881.112	11783
881.239	11764
881.366	11634
881.493	11638
881.619	11577
881.746	11592
881.872	11570
881.999	11493
882.125	11486
882.252	11509
882.378	11482
882.505	11608
882.631	11395
882.757	11261
882.883	11372
883.01	11307
883.136	11220
883.262	11166
883.388	11006
883.514	11204
883.64	11071
883.766	11064
883.892	10968
884.018	11025
884.143	11033
884.269	11094
884.395	10809
884.52	10729
884.646	10702
884.772	10767
884.897	10687
885.023	10641
885.148	10752
885.274	10748
885.399	10717
885.524	10626
885.65	10656
885.775	10622
885.9	10561
886.025	10592
886.15	10542
886.275	10428
886.4	10371
886.525	10394
886.65	10329
886.775	10253
886.9	10546
887.025	10554
887.149	10390
887.274	10249
887.399	10181
887.523	10112
887.648	10196
887.773	10154
887.897	10291
888.021	10223
888.146	10188
888.27	10177
888.395	10215
888.519	10150
888.643	10227
888.767	10242
888.891	10055
889.015	10051
889.139	9987
889.263	9972
889.387	10097
889.511	10063
889.635	10017
889.759	10002
889.883	9991
890.006	10017
890.13	10158
890.254	10017
890.377	9991
890.501	9892
890.624	9800
890.748	9903
890.871	9808
890.995	9667
891.118	9736
891.241	9728
891.364	9740
891.488	9789
891.611	9679
891.734	9720
891.857	9816
891.98	9766
892.103	9819
892.226	9774
892.349	9644
892.471	9492
892.594	9572
892.717	9682
892.839	9538
892.962	9610
893.085	9656
893.207	9530
893.33	9488
893.452	9473
893.575	9561
893.697	9492
893.819	9671
893.941	9599
894.064	9595
894.186	9374
894.308	9424
894.43	9492
894.552	9561
894.674	9488
894.796	9340
894.918	9389
895.04	9317
895.161	9370
895.283	9382
895.405	9256
895.526	9237
895.648	9256
895.769	9253
895.891	9207
896.012	9222
896.134	9253
896.255	9157
896.376	9142
896.498	9123
896.619	9131
896.74	9036
896.861	9058
896.982	9275
897.103	9359
897.224	9112
897.345	8994
897.466	9070
897.587	9005
897.708	9104
897.828	9017
897.949	9028
898.07	8929
898.19	8906
898.311	9055
898.431	8921
898.552	8956
898.672	8937
898.792	8914
898.913	8857
899.033	8807
899.153	8712
899.273	8655
899.393	8701
899.513	8746
899.633	8705
899.753	8689
899.873	8739
899.993	8686
900.113	8663
900.232	8689
900.352	8659
900.472	8602
900.591	8533
900.711	8636
900.83	8568
900.95	8648
901.069	8667
901.189	8549
901.308	8396
901.427	8465
901.546	8431
901.665	8473
901.784	8503
901.904	8400
902.023	8294
902.141	8157
902.26	8256
902.379	8301
902.498	8183
902.617	8286
902.735	8305
902.854	8267
902.973	8282
903.091	8142
903.21	8073
903.328	8202
903.446	8126
903.565	8046
903.683	8092
903.801	8126
903.919	8092
904.038	8149
904.156	8031
904.274	8103
904.392	7978
904.51	8035
904.627	8027
904.745	8084
904.863	8065
904.981	7928
905.098	7849
905.216	7860
905.334	7868
905.451	7875
905.569	7822
905.686	7951
905.803	7940
905.921	7788
906.038	7849
906.155	7818
906.272	7708
906.389	7803
906.506	7616
906.623	7674
906.74	7597
906.857	7578
906.974	7620
907.091	7632
907.208	7708
907.324	7609
907.441	7559
907.557	7483
907.674	7434
907.79	7430
907.907	7403
908.023	7480
908.139	7419
908.256	7320
908.372	7381
908.488	7285
908.604	7266
908.72	7289
908.836	7244
908.952	7209
909.068	7194
909.184	7350
909.3	7259
909.415	7263
909.531	7324
909.647	7133
909.762	7099
909.878	7065
909.993	7152
910.108	7118
910.224	7012
910.339	7164
910.454	7084
910.57	6993
910.685	6973
910.8	7118
910.915	7149
911.03	7034
911.145	6939
911.259	6859
911.374	6848
911.489	6814
911.604	6825
911.718	6707
911.833	6768
911.947	6639
912.062	6639
912.176	6719
912.291	6741
912.405	6715
912.519	6825
912.633	6818
912.748	6703
912.862	6734
912.976	6601
913.09	6547
913.204	6585
913.318	6620
913.431	6688
913.545	6608
913.659	6650
913.772	6658
913.886	6574
914	6509
914.113	6631
914.226	6578
914.34	6536
914.453	6494
914.566	6582
914.68	6494
914.793	6475
914.906	6437
915.019	6384
915.132	6334
915.245	6414
915.358	6460
915.47	6437
915.583	6490
915.696	6498
915.809	6521
915.921	6528
916.034	6391
916.146	6372
916.259	6407
916.371	6452
916.483	6448
916.595	6365
916.708	6361
916.82	6391
916.932	6365
917.044	6395
917.156	6395
917.268	6334
917.38	6357
917.491	6300
917.603	6281
917.715	6414
917.826	6388
917.938	6300
918.049	6239
918.161	6338
918.272	6380
918.384	6357
918.495	6292
918.606	6228
918.717	6178
918.828	6254
918.939	6235
919.05	6216
919.161	6285
919.272	6072
919.383	6148
919.494	6285
919.604	6357
919.715	6273
919.826	6182
919.936	6216
920.047	6308
920.157	6273
920.267	6475
920.378	6270
920.488	6289
920.598	6471
920.708	6528
920.818	6460
920.928	6467
921.038	6566
921.148	6559
921.258	6277
921.368	6361
921.477	6152
921.587	6106
921.697	6102
921.806	6098
921.916	6072
922.025	5954
922.134	5893
922.244	5908
922.353	5946
922.462	5840
922.571	5786
922.68	5684
922.789	5665
922.898	5699
923.007	5615
923.116	5710
923.224	5661
923.333	5688
923.442	5619
923.55	5562
923.659	5573
923.767	5630
923.876	5600
923.984	5577
924.092	5497
924.201	5509
924.309	5532
924.417	5486
924.525	5478
924.633	5497
924.741	6311
924.849	5425
924.956	5543
925.064	5402
925.172	5322
925.279	5277
925.387	5353
925.494	5311
925.602	5410
925.709	5330
925.816	5246
925.924	5299
926.031	5387
926.138	5269
926.245	5334
926.352	5242
926.459	5322
926.566	5364
926.673	5242
926.779	5102
926.886	5124
926.993	5041
927.099	5018
927.206	4946
927.312	4995
927.419	5067
927.525	4999
927.631	4968
927.737	4896
927.843	4843
927.95	4782
928.056	4835
928.162	4809
928.267	4820
928.373	5360
928.479	4892
928.585	4634
928.69	4733
928.796	4790
928.901	4683
929.007	4603
929.112	4645
929.218	4649
929.323	4592
929.428	4565
929.533	4664
929.638	4497
929.743	4565
929.848	4546
929.953	4466
930.058	4398
930.163	4375
930.267	4341
930.372	4413
930.477	4257
930.581	4451
930.685	4356
930.79	4246
930.894	4272
930.998	4234
931.103	4383
931.207	4112
931.311	4044
931.415	4013
931.519	3873
931.623	3930
