Data from glass_V78500241_351.txt Node
Date: Wed Sep 01 19:16:55 CST 2021
User: usil
Spectrometer: V785-0024
Trigger mode: 0
Integration Time (sec): 4.000000E-1
Scans to average: 1
Nonlinearity correction enabled: false
Boxcar width: 0
Storing dark spectrum: false
XAxis mode: Wavelengths
Number of Pixels in Spectrum: 1024
>>>>>Begin Spectral Data<<<<<
801.071	3740
801.214	3797
801.356	3732
801.499	3793
801.641	3770
801.783	3823
801.926	3865
802.068	3827
802.211	3869
802.353	3903
802.496	3842
802.638	3907
802.78	3960
802.923	3888
803.065	3896
803.208	3865
803.35	3922
803.492	3922
803.635	3892
803.777	3816
803.919	3934
804.061	4200
804.204	3994
804.346	3941
804.488	3926
804.63	3994
804.773	4006
804.915	4071
805.057	4158
805.199	4048
805.341	4124
805.483	4150
805.626	4112
805.768	4158
805.91	4196
806.052	4242
806.194	4207
806.336	4405
806.478	4173
806.62	4227
806.762	4207
806.904	4291
807.046	4386
807.188	4211
807.33	4223
807.472	4207
807.614	4223
807.756	4272
807.898	4207
808.04	4238
808.182	4291
808.324	4306
808.465	4386
808.607	4489
808.749	4436
808.891	4478
809.033	4485
809.174	4379
809.316	4306
809.458	4261
809.6	4158
809.741	4181
809.883	4101
810.025	4219
810.166	4192
810.308	4234
810.45	4238
810.591	4272
810.733	4303
810.875	4542
811.016	4782
811.158	5162
811.299	5273
811.441	5322
811.582	5071
811.724	4691
811.865	4497
812.007	4466
812.148	4478
812.29	4402
812.431	4421
812.573	4398
812.714	4413
812.855	4413
812.997	4432
813.138	4466
813.279	4383
813.421	4409
813.562	4390
813.703	4344
813.845	4322
813.986	4272
814.127	4234
814.268	4310
814.41	4272
814.551	4284
814.692	4375
814.833	4291
814.974	4363
815.115	4367
815.256	4265
815.397	4227
815.539	4268
815.68	4177
815.821	4265
815.962	4329
816.103	4284
816.244	4249
816.385	4246
816.526	4287
816.666	4242
816.807	4105
816.948	4246
817.089	4154
817.23	4097
817.371	4040
817.512	4116
817.653	4059
817.793	4048
817.934	4036
818.075	4105
818.216	4109
818.356	4097
818.497	4013
818.638	3930
818.778	3930
818.919	3888
819.06	3835
819.2	3907
819.341	3854
819.481	3876
819.622	3899
819.762	4029
819.903	3972
820.043	3835
820.184	3854
820.324	3793
820.465	3857
820.605	3880
820.746	3869
820.886	3781
821.026	3930
821.167	3911
821.307	4029
821.447	4048
821.588	3983
821.728	3983
821.868	3975
822.008	3842
822.149	3956
822.289	3922
822.429	3759
822.569	3759
822.709	3808
822.849	3740
822.99	3740
823.13	3774
823.27	3778
823.41	3740
823.55	3759
823.69	3732
823.83	3713
823.97	3663
824.11	3576
824.25	3580
824.389	3637
824.529	3671
824.669	3656
824.809	3720
824.949	3793
825.089	3736
825.228	3713
825.368	3591
825.508	3564
825.648	3572
825.787	3606
825.927	3622
826.067	3622
826.206	3720
826.346	3846
826.485	3842
826.625	3922
826.765	3960
826.904	3884
827.044	3652
827.183	3523
827.323	3454
827.462	3523
827.601	3450
827.741	3443
827.88	3431
828.02	3374
828.159	3454
828.298	3507
828.437	3519
828.577	3454
828.716	3580
828.855	3538
828.994	3420
829.134	3386
829.273	3409
829.412	3374
829.551	3321
829.69	3355
829.829	3412
829.968	3500
830.107	3458
830.246	3477
830.385	3397
830.524	3348
830.663	3313
830.802	3272
830.941	3211
831.08	3199
831.219	3268
831.357	3264
831.496	3393
831.635	3256
831.774	3176
831.913	3192
832.051	3161
832.19	3150
832.329	3249
832.467	3154
832.606	3154
832.744	3203
832.883	3176
833.022	3176
833.16	3256
833.299	3317
833.437	3351
833.576	3401
833.714	3443
833.852	3458
833.991	3443
834.129	3504
834.267	3454
834.406	3428
834.544	3416
834.682	3447
834.821	3439
834.959	3606
835.097	3428
835.235	3584
835.373	3523
835.511	3515
835.65	3466
835.788	3492
835.926	3412
836.064	3424
836.202	3435
836.34	3606
836.478	3656
836.615	3557
836.753	3637
836.891	3610
837.029	3641
837.167	3599
837.305	3576
837.443	3549
837.58	3519
837.718	3595
837.856	3549
837.993	3553
838.131	3610
838.269	3629
838.406	3587
838.544	3591
838.681	3504
838.819	3473
838.956	3431
839.094	3389
839.231	3454
839.369	3511
839.506	3743
839.643	3633
839.781	3466
839.918	3504
840.055	3545
840.193	3542
840.33	3549
840.467	3580
840.604	3603
840.742	3857
840.879	3580
841.016	3584
841.153	3637
841.29	3793
841.427	3728
841.564	3751
841.701	3755
841.838	3717
841.975	3675
842.112	3720
842.249	3660
842.385	3652
842.522	3873
842.659	3705
842.796	3637
842.933	3736
843.069	3713
843.206	3701
843.343	3827
843.479	3785
843.616	3819
843.752	3679
843.889	3720
844.025	3838
844.162	3675
844.298	3869
844.435	3831
844.571	3793
844.708	3926
844.844	3991
844.98	4044
845.117	4021
845.253	3956
845.389	3899
845.525	3956
845.661	3979
845.798	3945
845.934	3998
846.07	3972
846.206	4029
846.342	4116
846.478	4040
846.614	3930
846.75	3968
846.886	3865
847.022	4074
847.158	3994
847.294	4013
847.429	4036
847.565	4006
847.701	4284
847.837	3880
847.972	3903
848.108	3987
848.244	3953
848.379	3880
848.515	3812
848.65	3819
848.786	3869
848.921	3922
849.057	3918
849.192	3956
849.328	3930
849.463	3945
849.598	3873
849.734	3876
849.869	3876
850.004	3789
850.14	3865
850.275	3785
850.41	3728
850.545	3793
850.68	3797
850.815	3778
850.95	3816
851.085	3903
851.22	3934
851.355	3842
851.49	3838
851.625	3819
851.76	3812
851.895	3755
852.03	3743
852.165	3808
852.299	3857
852.434	3964
852.569	3854
852.703	3915
852.838	3945
852.973	4032
853.107	4040
853.242	3930
853.376	3861
853.511	3774
853.645	3873
853.78	4010
853.914	3911
854.048	3911
854.183	3899
854.317	3964
854.451	4074
854.585	4002
854.72	3945
854.854	4101
854.988	3918
855.122	4036
855.256	3968
855.39	4078
855.524	4086
855.658	4143
855.792	4101
855.926	4139
856.06	4162
856.194	4223
856.327	4139
856.461	4158
856.595	4112
856.729	4200
856.862	4291
856.996	4215
857.13	4272
857.263	4352
857.397	4375
857.53	4322
857.664	4325
857.797	4417
857.931	4402
858.064	4398
858.197	4413
858.331	4390
858.464	4390
858.597	4367
858.731	4447
858.864	4466
858.997	4466
859.13	4565
859.263	4542
859.396	4584
859.529	4512
859.662	4577
859.795	4550
859.928	4607
860.061	4767
860.194	4790
860.327	4649
860.46	4679
860.592	4778
860.725	4763
860.858	4816
860.99	4717
861.123	4736
861.256	4721
861.388	4782
861.521	5421
861.653	4740
861.786	4710
861.918	4714
862.05	4801
862.183	4835
862.315	4908
862.447	4980
862.58	4946
862.712	4824
862.844	4839
862.976	4927
863.108	4961
863.24	5273
863.372	4816
863.504	4915
863.636	4892
863.768	4987
863.9	4942
864.032	4934
864.164	4949
864.296	5029
864.428	5083
864.559	5121
864.691	5124
864.823	5143
864.954	5140
865.086	5185
865.217	5128
865.349	5147
865.48	5151
865.612	5181
865.743	5307
865.875	5235
866.006	5189
866.137	5250
866.269	5315
866.4	5318
866.531	5265
866.662	5193
866.793	5273
866.924	5296
867.055	5288
867.186	5368
867.317	5303
867.448	5341
867.579	5410
867.71	5414
867.841	5410
867.972	5459
868.103	5474
868.233	5551
868.364	5509
868.495	5535
868.625	5680
868.756	5798
868.886	5695
869.017	5733
869.147	5859
869.278	5882
869.408	5790
869.539	5844
869.669	5908
869.799	5912
869.929	5969
870.06	5988
870.19	6175
870.32	6216
870.45	6213
870.58	6331
870.71	6479
870.84	6483
870.97	6441
871.1	6437
871.23	6623
871.36	6719
871.489	6658
871.619	6757
871.749	6829
871.879	6833
872.008	6951
872.138	6947
872.267	7015
872.397	6985
872.526	7042
872.656	7095
872.785	7141
872.915	7369
873.044	7521
873.173	7590
873.303	7704
873.432	7738
873.561	7864
873.69	7951
873.819	7989
873.948	8149
874.077	8286
874.206	8313
874.335	8442
874.464	8689
874.593	8868
874.722	8975
874.851	9123
874.979	9222
875.108	9291
875.237	9481
875.365	9523
875.494	9637
875.623	9869
875.751	9831
875.88	9979
876.008	10154
876.136	10363
876.265	10569
876.393	10725
876.521	10782
876.65	10820
876.778	10881
876.906	10889
877.034	11056
877.162	11140
877.29	11193
877.418	11280
877.546	11334
877.674	11482
877.802	11478
877.93	11535
878.058	11547
878.185	11653
878.313	11718
878.441	11752
878.568	11642
878.696	11752
878.824	11821
878.951	11912
879.079	12019
879.206	12079
879.333	12140
879.461	12011
879.588	12003
879.715	12072
879.842	12224
879.97	12117
880.097	11912
880.224	11939
880.351	11847
880.478	11893
880.605	11805
880.732	11870
880.859	11996
880.986	11779
881.112	11893
881.239	11756
881.366	11672
881.493	11638
881.619	11551
881.746	11585
881.872	11505
881.999	11493
882.125	11459
882.252	11490
882.378	11505
882.505	11478
882.631	11455
882.757	11246
882.883	11315
883.01	11246
883.136	11124
883.262	11128
883.388	11083
883.514	11235
883.64	11162
883.766	11132
883.892	10980
884.018	11033
884.143	11048
884.269	11166
884.395	10858
884.52	10782
884.646	10740
884.772	10729
884.897	10645
885.023	10740
885.148	10698
885.274	10736
885.399	10637
885.524	10630
885.65	10588
885.775	10577
885.9	10577
886.025	10622
886.15	10527
886.275	10402
886.4	10455
886.525	10405
886.65	10417
886.775	10440
886.9	10497
887.025	10588
887.149	10360
887.274	10303
887.399	10192
887.523	10227
887.648	10177
887.773	10139
887.897	10253
888.021	10265
888.146	10162
888.27	10230
888.395	10192
888.519	10135
888.643	10234
888.767	10200
888.891	10048
889.015	10021
889.139	10059
889.263	10051
889.387	10078
889.511	10048
889.635	10067
889.759	9934
889.883	9994
890.006	10032
890.13	10158
890.254	10021
890.377	9991
890.501	9918
890.624	9895
890.748	9857
890.871	9778
890.995	9793
891.118	9717
891.241	9842
891.364	9770
891.488	9854
891.611	9819
891.734	9770
891.857	9838
891.98	9766
892.103	9778
892.226	9679
892.349	9599
892.471	9584
892.594	9572
892.717	9675
892.839	9637
892.962	9686
893.085	9667
893.207	9576
893.33	9500
893.452	9481
893.575	9660
893.697	9526
893.819	9713
893.941	9644
894.064	9629
894.186	9397
894.308	9469
894.43	9496
894.552	9545
894.674	9576
894.796	9466
894.918	9439
895.04	9340
895.161	9370
895.283	9329
895.405	9268
895.526	9272
895.648	9195
895.769	9180
895.891	9272
896.012	9291
896.134	9260
896.255	9184
896.376	9127
896.498	9233
896.619	9066
896.74	9169
896.861	9123
896.982	9268
897.103	9340
897.224	9176
897.345	9123
897.466	9043
897.587	9032
897.708	9131
897.828	9058
897.949	9009
898.07	8902
898.19	8937
898.311	9017
898.431	8914
898.552	8921
898.672	9009
898.792	8944
898.913	8914
899.033	8811
899.153	8781
899.273	8716
899.393	8788
899.513	8766
899.633	8743
899.753	8758
899.873	8720
899.993	8758
900.113	8651
900.232	8743
900.352	8640
900.472	8617
900.591	8560
900.711	8682
900.83	8533
900.95	8655
901.069	8720
901.189	8560
901.308	8465
901.427	8385
901.546	8442
901.665	8434
901.784	8545
901.904	8351
902.023	8343
902.141	8324
902.26	8271
902.379	8271
902.498	8206
902.617	8259
902.735	8358
902.854	8275
902.973	8244
903.091	8126
903.21	8176
903.328	8164
903.446	8050
903.565	8111
903.683	8084
903.801	8054
903.919	8183
904.038	8123
904.156	8046
904.274	8005
904.392	7989
904.51	8001
904.627	8035
904.745	8058
904.863	8119
904.981	7902
905.098	7871
905.216	7925
905.334	7871
905.451	7883
905.569	7932
905.686	7936
905.803	7955
905.921	7780
906.038	7845
906.155	7723
906.272	7757
906.389	7712
906.506	7613
906.623	7628
906.74	7666
906.857	7506
906.974	7575
907.091	7704
907.208	7704
907.324	7689
907.441	7590
907.557	7453
907.674	7449
907.79	7464
907.907	7407
908.023	7384
908.139	7445
908.256	7407
908.372	7377
908.488	7365
908.604	7293
908.72	7263
908.836	7213
908.952	7244
909.068	7289
909.184	7346
909.3	7274
909.415	7274
909.531	7297
909.647	7126
909.762	7171
909.878	7046
909.993	7137
910.108	7171
910.224	7069
910.339	7107
910.454	7080
910.57	6977
910.685	6973
910.8	7194
910.915	7126
911.03	7004
911.145	6867
911.259	6935
911.374	6848
911.489	6875
911.604	6863
911.718	6726
911.833	6700
911.947	6669
912.062	6627
912.176	6779
912.291	6734
912.405	6642
912.519	6779
912.633	6787
912.748	6760
912.862	6741
912.976	6662
913.09	6551
913.204	6559
913.318	6684
913.431	6681
913.545	6711
913.659	6703
913.772	6642
913.886	6627
914	6555
914.113	6631
914.226	6650
914.34	6642
914.453	6517
914.566	6623
914.68	6517
914.793	6521
914.906	6391
915.019	6376
915.132	6388
915.245	6414
915.358	6456
915.47	6437
915.583	6486
915.696	6437
915.809	6574
915.921	6585
916.034	6475
916.146	6494
916.259	6384
916.371	6498
916.483	6460
916.595	6433
916.708	6456
916.82	6475
916.932	6388
917.044	6452
917.156	6407
917.268	6338
917.38	6391
917.491	6323
917.603	6361
917.715	6376
917.826	6433
917.938	6327
918.049	6190
918.161	6304
918.272	6418
918.384	6426
918.495	6376
918.606	6277
918.717	6178
918.828	6277
918.939	6262
919.05	6171
919.161	6285
919.272	6144
919.383	6152
919.494	6300
919.604	6517
919.715	6357
919.826	6232
919.936	6232
920.047	6353
920.157	6300
920.267	6517
920.378	6334
920.488	6327
920.598	6448
920.708	6540
920.818	6475
920.928	6464
921.038	6635
921.148	6570
921.258	6323
921.368	6311
921.477	6197
921.587	6220
921.697	6064
921.806	6232
921.916	6076
922.025	5984
922.134	5893
922.244	5885
922.353	5984
922.462	5863
922.571	5794
922.68	5672
922.789	5699
922.898	5733
923.007	5589
923.116	5748
923.224	5668
923.333	5691
923.442	5623
923.55	5596
923.659	5589
923.767	5661
923.876	5585
923.984	5589
924.092	5570
924.201	5596
924.309	5524
924.417	5615
924.525	5535
924.633	5551
924.741	6292
924.849	5376
924.956	5528
925.064	5368
925.172	5315
925.279	5261
925.387	5395
925.494	5273
925.602	5467
925.709	5414
925.816	5277
925.924	5360
926.031	5364
926.138	5318
926.245	5334
926.352	5258
926.459	5296
926.566	5288
926.673	5220
926.779	5159
926.886	5159
926.993	5086
927.099	5014
927.206	4984
927.312	4953
927.419	5052
927.525	5006
927.631	4980
927.737	4908
927.843	4850
927.95	4778
928.056	4847
928.162	4824
928.267	4839
928.373	5235
928.479	4835
928.585	4679
928.69	4797
928.796	4759
928.901	4721
929.007	4637
929.112	4645
929.218	4679
929.323	4634
929.428	4615
929.533	4668
929.638	4481
929.743	4516
929.848	4603
929.953	4546
930.058	4421
930.163	4325
930.267	4341
930.372	4436
930.477	4325
930.581	4497
930.685	4318
930.79	4261
930.894	4253
930.998	4246
931.103	4413
931.207	4128
931.311	4112
931.415	4036
931.519	3972
931.623	3975
