Data from glass_V78500241_837.txt Node
Date: Wed Sep 01 19:20:18 CST 2021
User: usil
Spectrometer: V785-0024
Trigger mode: 0
Integration Time (sec): 4.000000E-1
Scans to average: 1
Nonlinearity correction enabled: false
Boxcar width: 0
Storing dark spectrum: false
XAxis mode: Wavelengths
Number of Pixels in Spectrum: 1024
>>>>>Begin Spectral Data<<<<<
801.071	3705
801.214	3740
801.356	3728
801.499	3747
801.641	3709
801.783	3793
801.926	3861
802.068	3831
802.211	3838
802.353	3915
802.496	3804
802.638	3865
802.78	3896
802.923	3922
803.065	3880
803.208	3857
803.35	3899
803.492	3896
803.635	3953
803.777	3819
803.919	3953
804.061	4200
804.204	4040
804.346	3953
804.488	3937
804.63	4055
804.773	4029
804.915	4036
805.057	4162
805.199	4021
805.341	4139
805.483	4147
805.626	4143
805.768	4044
805.91	4223
806.052	4280
806.194	4227
806.336	4360
806.478	4249
806.62	4188
806.762	4192
806.904	4287
807.046	4337
807.188	4230
807.33	4227
807.472	4272
807.614	4196
807.756	4272
807.898	4207
808.04	4207
808.182	4242
808.324	4356
808.465	4455
808.607	4504
808.749	4474
808.891	4504
809.033	4508
809.174	4367
809.316	4284
809.458	4249
809.6	4173
809.741	4150
809.883	4135
810.025	4246
810.166	4246
810.308	4257
810.45	4253
810.591	4291
810.733	4306
810.875	4481
811.016	4847
811.158	5162
811.299	5315
811.441	5315
811.582	5117
811.724	4679
811.865	4478
812.007	4508
812.148	4424
812.29	4459
812.431	4383
812.573	4428
812.714	4398
812.855	4424
812.997	4424
813.138	4527
813.279	4409
813.421	4421
813.562	4360
813.703	4314
813.845	4367
813.986	4276
814.127	4238
814.268	4314
814.41	4287
814.551	4287
814.692	4341
814.833	4272
814.974	4265
815.115	4352
815.256	4276
815.397	4287
815.539	4287
815.68	4196
815.821	4227
815.962	4287
816.103	4268
816.244	4246
816.385	4253
816.526	4253
816.666	4261
816.807	4124
816.948	4173
817.089	4181
817.23	4124
817.371	4074
817.512	4067
817.653	4071
817.793	4032
817.934	4055
818.075	4112
818.216	4044
818.356	4101
818.497	3994
818.638	3934
818.778	3918
818.919	3926
819.06	3888
819.2	3907
819.341	3842
819.481	3846
819.622	3884
819.762	4036
819.903	3922
820.043	3861
820.184	3865
820.324	3819
820.465	3876
820.605	3835
820.746	3880
820.886	3823
821.026	3934
821.167	3922
821.307	3998
821.447	3964
821.588	3998
821.728	3941
821.868	3949
822.008	3922
822.149	3918
822.289	3896
822.429	3804
822.569	3797
822.709	3838
822.849	3682
822.99	3698
823.13	3747
823.27	3793
823.41	3698
823.55	3732
823.69	3774
823.83	3755
823.97	3682
824.11	3595
824.25	3599
824.389	3663
824.529	3629
824.669	3633
824.809	3705
824.949	3713
825.089	3751
825.228	3701
825.368	3576
825.508	3557
825.648	3572
825.787	3644
825.927	3667
826.067	3633
826.206	3679
826.346	3808
826.485	3819
826.625	3884
826.765	3945
826.904	3831
827.044	3622
827.183	3576
827.323	3420
827.462	3485
827.601	3458
827.741	3450
827.88	3447
828.02	3420
828.159	3420
828.298	3519
828.437	3507
828.577	3515
828.716	3652
828.855	3542
828.994	3424
829.134	3393
829.273	3389
829.412	3401
829.551	3386
829.69	3401
829.829	3454
829.968	3507
830.107	3500
830.246	3458
830.385	3389
830.524	3370
830.663	3325
830.802	3253
830.941	3214
831.08	3207
831.219	3264
831.357	3279
831.496	3431
831.635	3264
831.774	3199
831.913	3192
832.051	3142
832.19	3116
832.329	3222
832.467	3157
832.606	3100
832.744	3180
832.883	3218
833.022	3214
833.16	3256
833.299	3275
833.437	3355
833.576	3378
833.714	3401
833.852	3431
833.991	3458
834.129	3515
834.267	3443
834.406	3409
834.544	3466
834.682	3492
834.821	3393
834.959	3591
835.097	3447
835.235	3576
835.373	3469
835.511	3507
835.65	3458
835.788	3450
835.926	3367
836.064	3416
836.202	3374
836.34	3564
836.478	3629
836.615	3523
836.753	3584
836.891	3637
837.029	3622
837.167	3580
837.305	3545
837.443	3549
837.58	3481
837.718	3614
837.856	3625
837.993	3572
838.131	3641
838.269	3606
838.406	3580
838.544	3591
838.681	3469
838.819	3454
838.956	3393
839.094	3416
839.231	3462
839.369	3538
839.506	3747
839.643	3603
839.781	3500
839.918	3466
840.055	3526
840.193	3523
840.33	3542
840.467	3549
840.604	3587
840.742	3797
840.879	3507
841.016	3564
841.153	3606
841.29	3762
841.427	3724
841.564	3728
841.701	3724
841.838	3732
841.975	3740
842.112	3698
842.249	3618
842.385	3675
842.522	3808
842.659	3732
842.796	3667
842.933	3717
843.069	3759
843.206	3720
843.343	3823
843.479	3789
843.616	3838
843.752	3694
843.889	3709
844.025	3903
844.162	3701
844.298	3911
844.435	3800
844.571	3778
844.708	3915
844.844	3979
844.98	4025
845.117	4010
845.253	3987
845.389	3907
845.525	3907
845.661	3975
845.798	3937
845.934	4006
846.07	3968
846.206	4097
846.342	4147
846.478	4116
846.614	3949
846.75	3941
846.886	3892
847.022	4063
847.158	3991
847.294	3991
847.429	4002
847.565	3998
847.701	4295
847.837	3968
847.972	3861
848.108	3987
848.244	3949
848.379	3884
848.515	3789
848.65	3846
848.786	3869
848.921	3892
849.057	3899
849.192	3945
849.328	3937
849.463	3911
849.598	3876
849.734	3892
849.869	3842
850.004	3808
850.14	3842
850.275	3812
850.41	3770
850.545	3770
850.68	3808
850.815	3797
850.95	3770
851.085	3956
851.22	3873
851.355	3835
851.49	3819
851.625	3781
851.76	3823
851.895	3755
852.03	3694
852.165	3785
852.299	3819
852.434	3922
852.569	3838
852.703	3918
852.838	3949
852.973	4010
853.107	3987
853.242	3888
853.376	3876
853.511	3759
853.645	3846
853.78	4010
853.914	3918
854.048	3915
854.183	3869
854.317	3987
854.451	4044
854.585	3964
854.72	3945
854.854	4055
854.988	3934
855.122	4055
855.256	3918
855.39	4040
855.524	4120
855.658	4051
855.792	4105
855.926	4143
856.06	4173
856.194	4227
856.327	4131
856.461	4131
856.595	4185
856.729	4211
856.862	4280
856.996	4299
857.13	4383
857.263	4379
857.397	4375
857.53	4303
857.664	4352
857.797	4436
857.931	4440
858.064	4421
858.197	4512
858.331	4386
858.464	4413
858.597	4363
858.731	4470
858.864	4405
858.997	4455
859.13	4535
859.263	4462
859.396	4565
859.529	4546
859.662	4531
859.795	4542
859.928	4618
860.061	4691
860.194	4717
860.327	4656
860.46	4611
860.592	4767
860.725	4793
860.858	4736
860.99	4679
861.123	4759
861.256	4702
861.388	4771
861.521	5410
861.653	4679
861.786	4710
861.918	4744
862.05	4881
862.183	4889
862.315	4900
862.447	4938
862.58	4870
862.712	4831
862.844	4748
862.976	4835
863.108	4873
863.24	5223
863.372	4816
863.504	4923
863.636	4923
863.768	5033
863.9	4984
864.032	4965
864.164	4942
864.296	4961
864.428	5075
864.559	5113
864.691	5121
864.823	5185
864.954	5143
865.086	5079
865.217	5155
865.349	5128
865.48	5193
865.612	5166
865.743	5292
865.875	5189
866.006	5231
866.137	5242
866.269	5201
866.4	5265
866.531	5288
866.662	5280
866.793	5227
866.924	5326
867.055	5360
867.186	5337
867.317	5349
867.448	5318
867.579	5398
867.71	5372
867.841	5406
867.972	5436
868.103	5444
868.233	5478
868.364	5512
868.495	5554
868.625	5695
868.756	5779
868.886	5707
869.017	5688
869.147	5851
869.278	5897
869.408	5840
869.539	5824
869.669	5942
869.799	5920
869.929	5973
870.06	5988
870.19	6152
870.32	6178
870.45	6243
870.58	6380
870.71	6467
870.84	6448
870.97	6483
871.1	6498
871.23	6650
871.36	6734
871.489	6642
871.619	6734
871.749	6783
871.879	6882
872.008	7027
872.138	6958
872.267	7019
872.397	7012
872.526	7027
872.656	7091
872.785	7198
872.915	7415
873.044	7567
873.173	7578
873.303	7643
873.432	7693
873.561	7795
873.69	7864
873.819	7955
873.948	8164
874.077	8233
874.206	8328
874.335	8526
874.464	8663
874.593	8895
874.722	8876
874.851	9127
874.979	9199
875.108	9382
875.237	9424
875.365	9538
875.494	9713
875.623	9842
875.751	9793
875.88	10067
876.008	10192
876.136	10314
876.265	10546
876.393	10687
876.521	10687
876.65	10862
876.778	10869
876.906	10835
877.034	11067
877.162	11052
877.29	11223
877.418	11265
877.546	11402
877.674	11452
877.802	11471
877.93	11433
878.058	11497
878.185	11570
878.313	11623
878.441	11790
878.568	11748
878.696	11722
878.824	11927
878.951	11950
879.079	12030
879.206	12186
879.333	12076
879.461	11988
879.588	12038
879.715	12064
879.842	12163
879.97	12079
880.097	11912
880.224	11912
880.351	11828
880.478	11923
880.605	11836
880.732	11866
880.859	11961
880.986	11893
881.112	11786
881.239	11771
881.366	11760
881.493	11592
881.619	11551
881.746	11570
881.872	11528
881.999	11566
882.125	11482
882.252	11615
882.378	11478
882.505	11512
882.631	11402
882.757	11227
882.883	11334
883.01	11330
883.136	11258
883.262	11098
883.388	11022
883.514	11208
883.64	11204
883.766	11052
883.892	11014
884.018	11037
884.143	11090
884.269	11159
884.395	10824
884.52	10809
884.646	10774
884.772	10736
884.897	10641
885.023	10698
885.148	10767
885.274	10736
885.399	10721
885.524	10573
885.65	10573
885.775	10588
885.9	10440
886.025	10645
886.15	10588
886.275	10375
886.4	10390
886.525	10462
886.65	10394
886.775	10432
886.9	10436
887.025	10580
887.149	10348
887.274	10204
887.399	10268
887.523	10143
887.648	10128
887.773	10135
887.897	10272
888.021	10177
888.146	10128
888.27	10291
888.395	10135
888.519	10211
888.643	10219
888.767	10173
888.891	10051
889.015	10013
889.139	10025
889.263	9937
889.387	10067
889.511	10135
889.635	10101
889.759	9926
889.883	9922
890.006	9972
890.13	10059
890.254	10013
890.377	9907
890.501	9926
890.624	9850
890.748	9934
890.871	9835
890.995	9762
891.118	9751
891.241	9766
891.364	9705
891.488	9778
891.611	9682
891.734	9679
891.857	9835
891.98	9637
892.103	9831
892.226	9755
892.349	9667
892.471	9530
892.594	9625
892.717	9622
892.839	9633
892.962	9644
893.085	9595
893.207	9603
893.33	9538
893.452	9507
893.575	9625
893.697	9587
893.819	9622
893.941	9599
894.064	9633
894.186	9458
894.308	9401
894.43	9511
894.552	9641
894.674	9637
894.796	9393
894.918	9424
895.04	9298
895.161	9408
895.283	9294
895.405	9249
895.526	9268
895.648	9222
895.769	9279
895.891	9313
896.012	9260
896.134	9237
896.255	9199
896.376	9165
896.498	9184
896.619	9142
896.74	9116
896.861	9127
896.982	9233
897.103	9298
897.224	9135
897.345	9100
897.466	9024
897.587	8986
897.708	9123
897.828	9055
897.949	8944
898.07	8883
898.19	8880
898.311	9085
898.431	8967
898.552	8967
898.672	8979
898.792	8921
898.913	8910
899.033	8815
899.153	8739
899.273	8655
899.393	8735
899.513	8746
899.633	8670
899.753	8712
899.873	8686
899.993	8750
900.113	8708
900.232	8727
900.352	8716
900.472	8571
900.591	8552
900.711	8636
900.83	8537
900.95	8686
901.069	8720
901.189	8495
901.308	8385
901.427	8381
901.546	8358
901.665	8438
901.784	8499
901.904	8412
902.023	8393
902.141	8225
902.26	8309
902.379	8317
902.498	8267
902.617	8256
902.735	8332
902.854	8267
902.973	8301
903.091	8145
903.21	8123
903.328	8195
903.446	8100
903.565	8119
903.683	8062
903.801	8050
903.919	8107
904.038	8096
904.156	8054
904.274	8069
904.392	8050
904.51	8088
904.627	8046
904.745	8092
904.863	8054
904.981	7913
905.098	7887
905.216	7913
905.334	7940
905.451	7909
905.569	7928
905.686	7967
905.803	7947
905.921	7746
906.038	7894
906.155	7811
906.272	7696
906.389	7738
906.506	7639
906.623	7624
906.74	7647
906.857	7529
906.974	7605
907.091	7639
907.208	7696
907.324	7636
907.441	7590
907.557	7457
907.674	7480
907.79	7354
907.907	7426
908.023	7430
908.139	7441
908.256	7419
908.372	7384
908.488	7312
908.604	7274
908.72	7251
908.836	7305
908.952	7232
909.068	7282
909.184	7396
909.3	7255
909.415	7293
909.531	7297
909.647	7103
909.762	7065
909.878	7095
909.993	7160
910.108	7065
910.224	7046
910.339	7084
910.454	7050
910.57	7004
910.685	6932
910.8	7145
910.915	7107
911.03	6966
911.145	6909
911.259	6897
911.374	6966
911.489	6810
911.604	6886
911.718	6700
911.833	6764
911.947	6627
912.062	6639
912.176	6741
912.291	6696
912.405	6684
912.519	6840
912.633	6856
912.748	6783
912.862	6741
912.976	6650
913.09	6540
913.204	6639
913.318	6627
913.431	6726
913.545	6658
913.659	6681
913.772	6650
913.886	6578
914	6589
914.113	6585
914.226	6688
914.34	6642
914.453	6448
914.566	6589
914.68	6570
914.793	6521
914.906	6460
915.019	6410
915.132	6376
915.245	6384
915.358	6433
915.47	6433
915.583	6441
915.696	6513
915.809	6525
915.921	6559
916.034	6445
916.146	6388
916.259	6429
916.371	6464
916.483	6464
916.595	6388
916.708	6448
916.82	6399
916.932	6426
917.044	6426
917.156	6410
917.268	6323
917.38	6357
917.491	6346
917.603	6414
917.715	6395
917.826	6433
917.938	6327
918.049	6243
918.161	6369
918.272	6418
918.384	6479
918.495	6395
918.606	6308
918.717	6190
918.828	6331
918.939	6319
919.05	6178
919.161	6224
919.272	6129
919.383	6190
919.494	6338
919.604	6388
919.715	6281
919.826	6258
919.936	6296
920.047	6323
920.157	6258
920.267	6460
920.378	6315
920.488	6315
920.598	6456
920.708	6597
920.818	6464
920.928	6410
921.038	6620
921.148	6623
921.258	6361
921.368	6334
921.477	6205
921.587	6209
921.697	6125
921.806	6247
921.916	6030
922.025	5901
922.134	5958
922.244	5908
922.353	5916
922.462	5882
922.571	5817
922.68	5726
922.789	5710
922.898	5722
923.007	5623
923.116	5726
923.224	5668
923.333	5680
923.442	5596
923.55	5630
923.659	5600
923.767	5634
923.876	5581
923.984	5592
924.092	5532
924.201	5558
924.309	5558
924.417	5570
924.525	5482
924.633	5520
924.741	6159
924.849	5383
924.956	5482
925.064	5330
925.172	5284
925.279	5280
925.387	5402
925.494	5349
925.602	5463
925.709	5417
925.816	5250
925.924	5330
926.031	5368
926.138	5318
926.245	5292
926.352	5284
926.459	5311
926.566	5345
926.673	5216
926.779	5197
926.886	5105
926.993	5094
927.099	5064
927.206	4991
927.312	4930
927.419	5010
927.525	4968
927.631	4976
927.737	4930
927.843	4847
927.95	4733
928.056	4828
928.162	4843
928.267	4809
928.373	5402
928.479	4881
928.585	4691
928.69	4801
928.796	4748
928.901	4683
929.007	4592
929.112	4687
929.218	4637
929.323	4592
929.428	4588
929.533	4672
929.638	4527
929.743	4550
929.848	4611
929.953	4523
930.058	4462
930.163	4341
930.267	4386
930.372	4447
930.477	4314
930.581	4516
930.685	4402
930.79	4257
930.894	4329
930.998	4249
931.103	4386
931.207	4158
931.311	4097
931.415	4044
931.519	3953
931.623	3949
