Data from glass_V78500241_2639.txt Node
Date: Wed Sep 01 19:32:47 CST 2021
User: usil
Spectrometer: V785-0024
Trigger mode: 0
Integration Time (sec): 4.000000E-1
Scans to average: 1
Nonlinearity correction enabled: false
Boxcar width: 0
Storing dark spectrum: false
XAxis mode: Wavelengths
Number of Pixels in Spectrum: 1024
>>>>>Begin Spectral Data<<<<<
801.071	3717
801.214	3732
801.356	3690
801.499	3709
801.641	3682
801.783	3747
801.926	3880
802.068	3812
802.211	3846
802.353	3880
802.496	3846
802.638	3857
802.78	3888
802.923	3899
803.065	3888
803.208	3835
803.35	3873
803.492	3953
803.635	3930
803.777	3778
803.919	3911
804.061	4147
804.204	3949
804.346	3949
804.488	3899
804.63	4017
804.773	3956
804.915	4048
805.057	4158
805.199	4025
805.341	4093
805.483	4162
805.626	4124
805.768	4097
805.91	4211
806.052	4204
806.194	4150
806.336	4360
806.478	4207
806.62	4188
806.762	4185
806.904	4234
807.046	4329
807.188	4192
807.33	4150
807.472	4207
807.614	4185
807.756	4207
807.898	4253
808.04	4150
808.182	4253
808.324	4306
808.465	4337
808.607	4455
808.749	4462
808.891	4409
809.033	4462
809.174	4402
809.316	4276
809.458	4246
809.6	4116
809.741	4158
809.883	4128
810.025	4211
810.166	4154
810.308	4242
810.45	4223
810.591	4242
810.733	4257
810.875	4493
811.016	4809
811.158	5094
811.299	5288
811.441	5284
811.582	5037
811.724	4660
811.865	4485
812.007	4413
812.148	4421
812.29	4455
812.431	4417
812.573	4371
812.714	4409
812.855	4436
812.997	4398
813.138	4493
813.279	4421
813.421	4352
813.562	4428
813.703	4299
813.845	4348
813.986	4227
814.127	4242
814.268	4185
814.41	4272
814.551	4295
814.692	4284
814.833	4268
814.974	4291
815.115	4295
815.256	4246
815.397	4223
815.539	4246
815.68	4204
815.821	4188
815.962	4295
816.103	4242
816.244	4230
816.385	4261
816.526	4257
816.666	4211
816.807	4090
816.948	4154
817.089	4192
817.23	4071
817.371	4025
817.512	4055
817.653	4025
817.793	4029
817.934	4055
818.075	4116
818.216	4105
818.356	4063
818.497	3983
818.638	3873
818.778	3888
818.919	3899
819.06	3854
819.2	3911
819.341	3873
819.481	3846
819.622	3918
819.762	4013
819.903	3964
820.043	3854
820.184	3812
820.324	3816
820.465	3865
820.605	3861
820.746	3857
820.886	3747
821.026	3934
821.167	3949
821.307	3907
821.447	3972
821.588	3930
821.728	3949
821.868	3926
822.008	3857
822.149	3873
822.289	3922
822.429	3800
822.569	3812
822.709	3781
822.849	3663
822.99	3705
823.13	3728
823.27	3781
823.41	3686
823.55	3713
823.69	3698
823.83	3728
823.97	3682
824.11	3587
824.25	3595
824.389	3610
824.529	3644
824.669	3606
824.809	3667
824.949	3740
825.089	3671
825.228	3701
825.368	3606
825.508	3542
825.648	3545
825.787	3637
825.927	3648
826.067	3618
826.206	3713
826.346	3755
826.485	3827
826.625	3850
826.765	3892
826.904	3816
827.044	3629
827.183	3504
827.323	3409
827.462	3523
827.601	3412
827.741	3409
827.88	3496
828.02	3367
828.159	3447
828.298	3435
828.437	3488
828.577	3462
828.716	3572
828.855	3488
828.994	3367
829.134	3374
829.273	3359
829.412	3344
829.551	3348
829.69	3355
829.829	3409
829.968	3485
830.107	3393
830.246	3454
830.385	3382
830.524	3336
830.663	3268
830.802	3253
830.941	3188
831.08	3165
831.219	3241
831.357	3294
831.496	3386
831.635	3222
831.774	3237
831.913	3176
832.051	3142
832.19	3123
832.329	3207
832.467	3123
832.606	3119
832.744	3195
832.883	3211
833.022	3169
833.16	3279
833.299	3302
833.437	3302
833.576	3393
833.714	3420
833.852	3412
833.991	3409
834.129	3462
834.267	3431
834.406	3393
834.544	3412
834.682	3409
834.821	3355
834.959	3553
835.097	3412
835.235	3496
835.373	3462
835.511	3488
835.65	3428
835.788	3462
835.926	3351
836.064	3370
836.202	3363
836.34	3542
836.478	3595
836.615	3545
836.753	3614
836.891	3603
837.029	3614
837.167	3587
837.305	3538
837.443	3523
837.58	3477
837.718	3576
837.856	3568
837.993	3542
838.131	3591
838.269	3545
838.406	3599
838.544	3534
838.681	3481
838.819	3447
838.956	3374
839.094	3401
839.231	3431
839.369	3526
839.506	3690
839.643	3618
839.781	3515
839.918	3462
840.055	3469
840.193	3549
840.33	3496
840.467	3500
840.604	3587
840.742	3774
840.879	3519
841.016	3599
841.153	3553
841.29	3717
841.427	3698
841.564	3679
841.701	3713
841.838	3679
841.975	3663
842.112	3686
842.249	3660
842.385	3637
842.522	3759
842.659	3686
842.796	3660
842.933	3717
843.069	3675
843.206	3686
843.343	3781
843.479	3751
843.616	3827
843.752	3671
843.889	3667
844.025	3857
844.162	3667
844.298	3835
844.435	3800
844.571	3762
844.708	3865
844.844	3972
844.98	3972
845.117	3991
845.253	3922
845.389	3937
845.525	3964
845.661	3945
845.798	3861
845.934	3987
846.07	3911
846.206	4071
846.342	4150
846.478	4006
846.614	3918
846.75	3918
846.886	3907
847.022	4067
847.158	3953
847.294	3953
847.429	4006
847.565	3956
847.701	4192
847.837	3876
847.972	3846
848.108	3956
848.244	3979
848.379	3804
848.515	3778
848.65	3812
848.786	3816
848.921	3846
849.057	3949
849.192	3884
849.328	3892
849.463	3934
849.598	3854
849.734	3831
849.869	3819
850.004	3778
850.14	3800
850.275	3751
850.41	3701
850.545	3679
850.68	3778
850.815	3789
850.95	3785
851.085	3899
851.22	3884
851.355	3797
851.49	3785
851.625	3816
851.76	3755
851.895	3774
852.03	3724
852.165	3774
852.299	3831
852.434	3850
852.569	3827
852.703	3854
852.838	3926
852.973	3956
853.107	3968
853.242	3899
853.376	3846
853.511	3766
853.645	3816
853.78	3945
853.914	3857
854.048	3869
854.183	3888
854.317	3960
854.451	4059
854.585	3956
854.72	3926
854.854	4010
854.988	3922
855.122	3964
855.256	3899
855.39	4040
855.524	4071
855.658	4078
855.792	4116
855.926	4112
856.06	4192
856.194	4211
856.327	4185
856.461	4139
856.595	4078
856.729	4120
856.862	4211
856.996	4192
857.13	4284
857.263	4299
857.397	4344
857.53	4268
857.664	4325
857.797	4344
857.931	4386
858.064	4390
858.197	4432
858.331	4383
858.464	4344
858.597	4363
858.731	4436
858.864	4390
858.997	4405
859.13	4489
859.263	4466
859.396	4603
859.529	4527
859.662	4485
859.795	4527
859.928	4584
860.061	4649
860.194	4694
860.327	4641
860.46	4653
860.592	4691
860.725	4755
860.858	4771
860.99	4706
861.123	4653
861.256	4710
861.388	4771
861.521	5288
861.653	4714
861.786	4634
861.918	4733
862.05	4805
862.183	4881
862.315	4858
862.447	4873
862.58	4870
862.712	4759
862.844	4744
862.976	4877
863.108	4862
863.24	5235
863.372	4820
863.504	4896
863.636	4900
863.768	4972
863.9	4980
864.032	4938
864.164	4892
864.296	5014
864.428	5064
864.559	5056
864.691	5117
864.823	5109
864.954	5090
865.086	5117
865.217	5094
865.349	5071
865.48	5109
865.612	5159
865.743	5265
865.875	5178
866.006	5155
866.137	5204
866.269	5201
866.4	5254
866.531	5254
866.662	5208
866.793	5254
866.924	5269
867.055	5345
867.186	5292
867.317	5349
867.448	5315
867.579	5398
867.71	5402
867.841	5368
867.972	5440
868.103	5455
868.233	5505
868.364	5486
868.495	5562
868.625	5653
868.756	5779
868.886	5634
869.017	5695
869.147	5771
869.278	5855
869.408	5767
869.539	5821
869.669	5931
869.799	5832
869.929	5984
870.06	5946
870.19	6167
870.32	6167
870.45	6266
870.58	6376
870.71	6467
870.84	6445
870.97	6426
871.1	6467
871.23	6616
871.36	6639
871.489	6646
871.619	6734
871.749	6897
871.879	6856
872.008	6932
872.138	6970
872.267	6996
872.397	6989
872.526	7023
872.656	7076
872.785	7179
872.915	7358
873.044	7476
873.173	7571
873.303	7643
873.432	7723
873.561	7841
873.69	7917
873.819	7997
873.948	8161
874.077	8225
874.206	8351
874.335	8431
874.464	8629
874.593	8910
874.722	8853
874.851	9047
874.979	9157
875.108	9374
875.237	9393
875.365	9504
875.494	9648
875.623	9789
875.751	9846
875.88	9975
876.008	10131
876.136	10284
876.265	10550
876.393	10683
876.521	10755
876.65	10805
876.778	10877
876.906	10805
877.034	10999
877.162	11128
877.29	11159
877.418	11299
877.546	11337
877.674	11334
877.802	11463
877.93	11562
878.058	11501
878.185	11592
878.313	11665
878.441	11764
878.568	11627
878.696	11786
878.824	11836
878.951	11954
879.079	12034
879.206	12053
879.333	12068
879.461	11965
879.588	12091
879.715	12068
879.842	12182
879.97	12064
880.097	11855
880.224	11870
880.351	11897
880.478	11855
880.605	11798
880.732	11752
880.859	11935
880.986	11798
881.112	11813
881.239	11748
881.366	11653
881.493	11676
881.619	11558
881.746	11577
881.872	11474
881.999	11570
882.125	11459
882.252	11516
882.378	11592
882.505	11547
882.631	11395
882.757	11299
882.883	11315
883.01	11318
883.136	11159
883.262	11124
883.388	11090
883.514	11147
883.64	11178
883.766	11147
883.892	10972
884.018	10976
884.143	11109
884.269	11079
884.395	10816
884.52	10786
884.646	10805
884.772	10786
884.897	10641
885.023	10672
885.148	10675
885.274	10774
885.399	10649
885.524	10580
885.65	10546
885.775	10519
885.9	10584
886.025	10607
886.15	10523
886.275	10481
886.4	10413
886.525	10322
886.65	10474
886.775	10337
886.9	10462
887.025	10481
887.149	10322
887.274	10333
887.399	10211
887.523	10169
887.648	10078
887.773	10090
887.897	10177
888.021	10204
888.146	10101
888.27	10299
888.395	10192
888.519	10219
888.643	10192
888.767	10150
888.891	10013
889.015	10044
889.139	10013
889.263	10051
889.387	10048
889.511	10093
889.635	10013
889.759	9941
889.883	9960
890.006	9964
890.13	10116
890.254	9964
890.377	9972
890.501	9857
890.624	9915
890.748	9838
890.871	9812
890.995	9701
891.118	9713
891.241	9720
891.364	9720
891.488	9762
891.611	9762
891.734	9724
891.857	9759
891.98	9800
892.103	9751
892.226	9743
892.349	9614
892.471	9580
892.594	9587
892.717	9580
892.839	9599
892.962	9564
893.085	9720
893.207	9568
893.33	9496
893.452	9526
893.575	9587
893.697	9500
893.819	9591
893.941	9572
894.064	9587
894.186	9389
894.308	9378
894.43	9515
894.552	9549
894.674	9519
894.796	9405
894.918	9393
895.04	9329
895.161	9386
895.283	9367
895.405	9359
895.526	9207
895.648	9268
895.769	9230
895.891	9199
896.012	9325
896.134	9169
896.255	9097
896.376	9188
896.498	9074
896.619	9169
896.74	9039
896.861	9062
896.982	9199
897.103	9279
897.224	9093
897.345	9020
897.466	8982
897.587	9036
897.708	9074
897.828	9055
897.949	8864
898.07	8834
898.19	8857
898.311	9085
898.431	8902
898.552	8914
898.672	9055
898.792	8986
898.913	8902
899.033	8777
899.153	8724
899.273	8678
899.393	8766
899.513	8689
899.633	8708
899.753	8731
899.873	8716
899.993	8674
900.113	8720
900.232	8773
900.352	8629
900.472	8598
900.591	8648
900.711	8579
900.83	8507
900.95	8655
901.069	8735
901.189	8560
901.308	8476
901.427	8404
901.546	8469
901.665	8438
901.784	8457
901.904	8309
902.023	8366
902.141	8210
902.26	8256
902.379	8298
902.498	8221
902.617	8214
902.735	8263
902.854	8256
902.973	8149
903.091	8126
903.21	8221
903.328	8164
903.446	8103
903.565	8058
903.683	8119
903.801	8012
903.919	8157
904.038	8100
904.156	8012
904.274	8153
904.392	8027
904.51	7997
904.627	8016
904.745	8077
904.863	8088
904.981	7868
905.098	7898
905.216	7715
905.334	7921
905.451	7928
905.569	7833
905.686	7917
905.803	7940
905.921	7799
906.038	7845
906.155	7818
906.272	7792
906.389	7727
906.506	7636
906.623	7613
906.74	7578
906.857	7540
906.974	7597
907.091	7715
907.208	7681
907.324	7624
907.441	7616
907.557	7415
907.674	7400
907.79	7403
907.907	7403
908.023	7396
908.139	7495
908.256	7396
908.372	7297
908.488	7308
908.604	7331
908.72	7289
908.836	7331
908.952	7270
909.068	7217
909.184	7320
909.3	7244
909.415	7331
909.531	7240
909.647	7072
909.762	7057
909.878	7072
909.993	7179
910.108	7065
910.224	7110
910.339	7099
910.454	6970
910.57	6993
910.685	6951
910.8	7141
910.915	7141
911.03	6977
911.145	6840
911.259	6890
911.374	6890
911.489	6810
911.604	6738
911.718	6753
911.833	6768
911.947	6646
912.062	6597
912.176	6673
912.291	6749
912.405	6650
912.519	6795
912.633	6818
912.748	6703
912.862	6726
912.976	6608
913.09	6525
913.204	6642
913.318	6563
913.431	6662
913.545	6650
913.659	6726
913.772	6673
913.886	6517
914	6540
914.113	6608
914.226	6597
914.34	6582
914.453	6460
914.566	6612
914.68	6517
914.793	6475
914.906	6445
915.019	6384
915.132	6319
915.245	6418
915.358	6395
915.47	6429
915.583	6456
915.696	6426
915.809	6525
915.921	6563
916.034	6418
916.146	6334
916.259	6388
916.371	6502
916.483	6471
916.595	6380
916.708	6403
916.82	6441
916.932	6361
917.044	6357
917.156	6384
917.268	6346
917.38	6350
917.491	6334
917.603	6338
917.715	6391
917.826	6391
917.938	6304
918.049	6205
918.161	6334
918.272	6395
918.384	6388
918.495	6342
918.606	6251
918.717	6213
918.828	6216
918.939	6277
919.05	6220
919.161	6220
919.272	6163
919.383	6133
919.494	6292
919.604	6391
919.715	6285
919.826	6175
919.936	6304
920.047	6361
920.157	6254
920.267	6479
920.378	6308
920.488	6273
920.598	6433
920.708	6464
920.818	6395
920.928	6410
921.038	6612
921.148	6513
921.258	6331
921.368	6296
921.477	6125
921.587	6186
921.697	6068
921.806	6144
921.916	6053
922.025	6022
922.134	5904
922.244	5878
922.353	5912
922.462	5844
922.571	5828
922.68	5714
922.789	5684
922.898	5657
923.007	5600
923.116	5703
923.224	5623
923.333	5638
923.442	5619
923.55	5592
923.659	5524
923.767	5688
923.876	5543
923.984	5608
924.092	5524
924.201	5528
924.309	5532
924.417	5558
924.525	5444
924.633	5558
924.741	6232
924.849	5376
924.956	5455
925.064	5322
925.172	5303
925.279	5292
925.387	5337
925.494	5318
925.602	5452
925.709	5421
925.816	5296
925.924	5269
926.031	5322
926.138	5326
926.245	5353
926.352	5174
926.459	5299
926.566	5288
926.673	5212
926.779	5162
926.886	5064
926.993	5029
927.099	5010
927.206	4961
927.312	4976
927.419	4957
927.525	4984
927.631	4976
927.737	4828
927.843	4908
927.95	4729
928.056	4782
928.162	4839
928.267	4854
928.373	5299
928.479	4858
928.585	4664
928.69	4812
928.796	4774
928.901	4702
929.007	4561
929.112	4694
929.218	4615
929.323	4580
929.428	4523
929.533	4660
929.638	4512
929.743	4542
929.848	4550
929.953	4489
930.058	4405
930.163	4299
930.267	4333
930.372	4440
930.477	4306
930.581	4485
930.685	4337
930.79	4249
930.894	4303
930.998	4246
931.103	4356
931.207	4120
931.311	4086
931.415	4032
931.519	3876
931.623	3956
