Data from glass_V78500241_2046.txt Node
Date: Wed Sep 01 19:28:41 CST 2021
User: usil
Spectrometer: V785-0024
Trigger mode: 0
Integration Time (sec): 4.000000E-1
Scans to average: 1
Nonlinearity correction enabled: false
Boxcar width: 0
Storing dark spectrum: false
XAxis mode: Wavelengths
Number of Pixels in Spectrum: 1024
>>>>>Begin Spectral Data<<<<<
801.071	3728
801.214	3770
801.356	3671
801.499	3717
801.641	3762
801.783	3740
801.926	3888
802.068	3800
802.211	3850
802.353	3907
802.496	3823
802.638	3884
802.78	3888
802.923	3953
803.065	3903
803.208	3884
803.35	3915
803.492	3880
803.635	3911
803.777	3816
803.919	3888
804.061	4150
804.204	3968
804.346	3979
804.488	3888
804.63	4051
804.773	3956
804.915	4025
805.057	4124
805.199	4010
805.341	4074
805.483	4120
805.626	4131
805.768	4124
805.91	4207
806.052	4211
806.194	4154
806.336	4322
806.478	4196
806.62	4128
806.762	4158
806.904	4230
807.046	4348
807.188	4257
807.33	4158
807.472	4238
807.614	4196
807.756	4284
807.898	4207
808.04	4238
808.182	4291
808.324	4314
808.465	4371
808.607	4451
808.749	4489
808.891	4504
809.033	4508
809.174	4428
809.316	4223
809.458	4257
809.6	4158
809.741	4162
809.883	4135
810.025	4223
810.166	4196
810.308	4246
810.45	4219
810.591	4242
810.733	4265
810.875	4478
811.016	4786
811.158	5124
811.299	5273
811.441	5269
811.582	5071
811.724	4698
811.865	4428
812.007	4485
812.148	4436
812.29	4443
812.431	4398
812.573	4424
812.714	4333
812.855	4394
812.997	4405
813.138	4466
813.279	4417
813.421	4409
813.562	4405
813.703	4299
813.845	4295
813.986	4253
814.127	4238
814.268	4284
814.41	4249
814.551	4265
814.692	4325
814.833	4276
814.974	4303
815.115	4348
815.256	4223
815.397	4249
815.539	4242
815.68	4166
815.821	4211
815.962	4310
816.103	4242
816.244	4272
816.385	4249
816.526	4276
816.666	4204
816.807	4093
816.948	4162
817.089	4173
817.23	4147
817.371	4029
817.512	4101
817.653	4074
817.793	4025
817.934	4032
818.075	4090
818.216	4059
818.356	4059
818.497	3987
818.638	3926
818.778	3880
818.919	3876
819.06	3892
819.2	3876
819.341	3876
819.481	3850
819.622	3911
819.762	4021
819.903	3930
820.043	3804
820.184	3873
820.324	3819
820.465	3854
820.605	3892
820.746	3846
820.886	3816
821.026	3926
821.167	3907
821.307	3953
821.447	3994
821.588	3960
821.728	3945
821.868	3896
822.008	3873
822.149	3888
822.289	3896
822.429	3778
822.569	3793
822.709	3789
822.849	3709
822.99	3709
823.13	3728
823.27	3747
823.41	3717
823.55	3705
823.69	3732
823.83	3709
823.97	3663
824.11	3610
824.25	3595
824.389	3637
824.529	3667
824.669	3622
824.809	3717
824.949	3740
825.089	3759
825.228	3671
825.368	3587
825.508	3542
825.648	3599
825.787	3584
825.927	3625
826.067	3599
826.206	3629
826.346	3823
826.485	3816
826.625	3873
826.765	3915
826.904	3819
827.044	3587
827.183	3488
827.323	3431
827.462	3469
827.601	3412
827.741	3435
827.88	3435
828.02	3363
828.159	3450
828.298	3473
828.437	3530
828.577	3496
828.716	3637
828.855	3485
828.994	3370
829.134	3332
829.273	3374
829.412	3325
829.551	3359
829.69	3317
829.829	3412
829.968	3492
830.107	3416
830.246	3447
830.385	3389
830.524	3351
830.663	3298
830.802	3211
830.941	3169
831.08	3180
831.219	3233
831.357	3272
831.496	3412
831.635	3253
831.774	3188
831.913	3211
832.051	3157
832.19	3138
832.329	3157
832.467	3161
832.606	3119
832.744	3161
832.883	3207
833.022	3203
833.16	3253
833.299	3291
833.437	3359
833.576	3367
833.714	3412
833.852	3435
833.991	3412
834.129	3504
834.267	3393
834.406	3382
834.544	3428
834.682	3416
834.821	3378
834.959	3553
835.097	3424
835.235	3523
835.373	3526
835.511	3500
835.65	3447
835.788	3450
835.926	3382
836.064	3363
836.202	3409
836.34	3549
836.478	3610
836.615	3530
836.753	3576
836.891	3641
837.029	3618
837.167	3549
837.305	3542
837.443	3557
837.58	3492
837.718	3622
837.856	3519
837.993	3530
838.131	3595
838.269	3572
838.406	3591
838.544	3549
838.681	3428
838.819	3462
838.956	3401
839.094	3409
839.231	3439
839.369	3504
839.506	3778
839.643	3622
839.781	3450
839.918	3424
840.055	3504
840.193	3526
840.33	3507
840.467	3557
840.604	3595
840.742	3762
840.879	3511
841.016	3591
841.153	3576
841.29	3728
841.427	3701
841.564	3732
841.701	3770
841.838	3690
841.975	3690
842.112	3690
842.249	3629
842.385	3595
842.522	3819
842.659	3690
842.796	3682
842.933	3682
843.069	3701
843.206	3694
843.343	3781
843.479	3766
843.616	3808
843.752	3675
843.889	3648
844.025	3854
844.162	3728
844.298	3842
844.435	3797
844.571	3789
844.708	3888
844.844	3983
844.98	3994
845.117	4029
845.253	3903
845.389	3884
845.525	3983
845.661	3953
845.798	3918
845.934	4017
846.07	3960
846.206	4036
846.342	4044
846.478	4029
846.614	3956
846.75	3899
846.886	3907
847.022	4055
847.158	3987
847.294	3983
847.429	4036
847.565	4017
847.701	4188
847.837	3861
847.972	3857
848.108	3994
848.244	3953
848.379	3816
848.515	3766
848.65	3835
848.786	3831
848.921	3831
849.057	3941
849.192	3922
849.328	3896
849.463	3884
849.598	3876
849.734	3884
849.869	3835
850.004	3774
850.14	3827
850.275	3819
850.41	3720
850.545	3797
850.68	3770
850.815	3850
850.95	3778
851.085	3915
851.22	3861
851.355	3804
851.49	3785
851.625	3800
851.76	3778
851.895	3736
852.03	3766
852.165	3755
852.299	3835
852.434	3888
852.569	3846
852.703	3888
852.838	3915
852.973	3968
853.107	3987
853.242	3873
853.376	3865
853.511	3759
853.645	3842
853.78	3991
853.914	3899
854.048	3880
854.183	3880
854.317	3953
854.451	4093
854.585	3975
854.72	3934
854.854	4040
854.988	3934
855.122	4002
855.256	3918
855.39	3979
855.524	4120
855.658	4105
855.792	4101
855.926	4124
856.06	4185
856.194	4192
856.327	4124
856.461	4116
856.595	4158
856.729	4188
856.862	4276
856.996	4265
857.13	4284
857.263	4394
857.397	4386
857.53	4287
857.664	4356
857.797	4432
857.931	4417
858.064	4398
858.197	4428
858.331	4386
858.464	4375
858.597	4325
858.731	4405
858.864	4481
858.997	4485
859.13	4550
859.263	4523
859.396	4569
859.529	4478
859.662	4516
859.795	4508
859.928	4641
860.061	4691
860.194	4744
860.327	4645
860.46	4649
860.592	4755
860.725	4759
860.858	4771
860.99	4717
861.123	4725
861.256	4706
861.388	4744
861.521	5368
861.653	4759
861.786	4702
861.918	4755
862.05	4820
862.183	4809
862.315	4831
862.447	4927
862.58	4885
862.712	4774
862.844	4763
862.976	4919
863.108	4839
863.24	5231
863.372	4847
863.504	4930
863.636	4927
863.768	4987
863.9	4949
864.032	4972
864.164	4930
864.296	5022
864.428	5037
864.559	5105
864.691	5105
864.823	5132
864.954	5075
865.086	5079
865.217	5132
865.349	5052
865.48	5151
865.612	5231
865.743	5269
865.875	5197
866.006	5136
866.137	5231
866.269	5239
866.4	5246
866.531	5220
866.662	5227
866.793	5246
866.924	5273
867.055	5334
867.186	5334
867.317	5349
867.448	5318
867.579	5368
867.71	5383
867.841	5360
867.972	5429
868.103	5482
868.233	5478
868.364	5455
868.495	5562
868.625	5684
868.756	5783
868.886	5661
869.017	5718
869.147	5767
869.278	5847
869.408	5798
869.539	5794
869.669	5882
869.799	5912
869.929	5977
870.06	6064
870.19	6144
870.32	6190
870.45	6186
870.58	6346
870.71	6429
870.84	6418
870.97	6410
871.1	6418
871.23	6662
871.36	6715
871.489	6673
871.619	6757
871.749	6776
871.879	6867
872.008	7023
872.138	6996
872.267	7027
872.397	7027
872.526	7080
872.656	7133
872.785	7198
872.915	7396
873.044	7521
873.173	7552
873.303	7700
873.432	7807
873.561	7871
873.69	7925
873.819	7921
873.948	8180
874.077	8252
874.206	8317
874.335	8469
874.464	8617
874.593	8849
874.722	8933
874.851	9116
874.979	9268
875.108	9378
875.237	9466
875.365	9401
875.494	9641
875.623	9850
875.751	9838
875.88	9968
876.008	10135
876.136	10215
876.265	10561
876.393	10733
876.521	10679
876.65	10812
876.778	10881
876.906	10831
877.034	11037
877.162	11094
877.29	11208
877.418	11231
877.546	11410
877.674	11425
877.802	11520
877.93	11535
878.058	11528
878.185	11497
878.313	11688
878.441	11745
878.568	11611
878.696	11817
878.824	11916
878.951	11912
879.079	12026
879.206	12125
879.333	12019
879.461	12003
879.588	11996
879.715	12015
879.842	12251
879.97	12053
880.097	11916
880.224	11901
880.351	11885
880.478	11870
880.605	11805
880.732	11722
880.859	12038
880.986	11828
881.112	11859
881.239	11638
881.366	11672
881.493	11562
881.619	11535
881.746	11581
881.872	11566
881.999	11532
882.125	11429
882.252	11539
882.378	11444
882.505	11551
882.631	11341
882.757	11265
882.883	11376
883.01	11284
883.136	11121
883.262	11014
883.388	11102
883.514	11178
883.64	11208
883.766	11045
883.892	10987
884.018	11006
884.143	11060
884.269	11102
884.395	10847
884.52	10752
884.646	10763
884.772	10649
884.897	10637
885.023	10706
885.148	10721
885.274	10835
885.399	10740
885.524	10538
885.65	10664
885.775	10565
885.9	10535
886.025	10611
886.15	10527
886.275	10447
886.4	10318
886.525	10421
886.65	10360
886.775	10371
886.9	10516
887.025	10561
887.149	10375
887.274	10124
887.399	10185
887.523	10093
887.648	10188
887.773	10128
887.897	10207
888.021	10234
888.146	10124
888.27	10272
888.395	10249
888.519	10169
888.643	10204
888.767	10207
888.891	10093
889.015	9998
889.139	10067
889.263	9994
889.387	10078
889.511	10139
889.635	10006
889.759	9941
889.883	10097
890.006	10021
890.13	10097
890.254	9953
890.377	10010
890.501	9808
890.624	9838
890.748	9880
890.871	9713
890.995	9705
891.118	9610
891.241	9781
891.364	9759
891.488	9915
891.611	9728
891.734	9701
891.857	9793
891.98	9736
892.103	9770
892.226	9800
892.349	9682
892.471	9553
892.594	9553
892.717	9641
892.839	9637
892.962	9595
893.085	9622
893.207	9595
893.33	9405
893.452	9488
893.575	9603
893.697	9435
893.819	9584
893.941	9576
894.064	9507
894.186	9420
894.308	9367
894.43	9545
894.552	9572
894.674	9561
894.796	9428
894.918	9378
895.04	9321
895.161	9355
895.283	9378
895.405	9222
895.526	9291
895.648	9245
895.769	9253
895.891	9211
896.012	9287
896.134	9233
896.255	9135
896.376	9161
896.498	9176
896.619	9157
896.74	9020
896.861	9085
896.982	9260
897.103	9287
897.224	9176
897.345	9028
897.466	8998
897.587	8994
897.708	9100
897.828	9013
897.949	8861
898.07	8906
898.19	8895
898.311	9028
898.431	8880
898.552	8910
898.672	9013
898.792	8925
898.913	8963
899.033	8861
899.153	8739
899.273	8667
899.393	8689
899.513	8792
899.633	8716
899.753	8743
899.873	8670
899.993	8720
900.113	8746
900.232	8731
900.352	8636
900.472	8621
900.591	8602
900.711	8571
900.83	8556
900.95	8648
901.069	8670
901.189	8579
901.308	8454
901.427	8370
901.546	8415
901.665	8450
901.784	8484
901.904	8396
902.023	8317
902.141	8210
902.26	8176
902.379	8199
902.498	8183
902.617	8202
902.735	8240
902.854	8271
902.973	8275
903.091	8092
903.21	8065
903.328	8153
903.446	8081
903.565	8111
903.683	8092
903.801	8073
903.919	8107
904.038	8103
904.156	7997
904.274	8142
904.392	7967
904.51	7967
904.627	8062
904.745	8100
904.863	8077
904.981	7879
905.098	7894
905.216	7818
905.334	7932
905.451	7860
905.569	7818
905.686	7879
905.803	7887
905.921	7727
906.038	7811
906.155	7833
906.272	7704
906.389	7685
906.506	7662
906.623	7651
906.74	7605
906.857	7495
906.974	7571
907.091	7636
907.208	7658
907.324	7636
907.441	7540
907.557	7377
907.674	7381
907.79	7320
907.907	7407
908.023	7453
908.139	7464
908.256	7403
908.372	7354
908.488	7331
908.604	7278
908.72	7206
908.836	7194
908.952	7308
909.068	7221
909.184	7308
909.3	7190
909.415	7293
909.531	7274
909.647	7107
909.762	7129
909.878	7118
909.993	7107
910.108	7091
910.224	7050
910.339	7088
910.454	7004
910.57	7038
910.685	6916
910.8	7095
910.915	7118
911.03	7053
911.145	6901
911.259	6890
911.374	6897
911.489	6875
911.604	6791
911.718	6707
911.833	6741
911.947	6684
912.062	6612
912.176	6700
912.291	6650
912.405	6749
912.519	6825
912.633	6791
912.748	6681
912.862	6692
912.976	6658
913.09	6475
913.204	6570
913.318	6620
913.431	6662
913.545	6635
913.659	6745
913.772	6631
913.886	6555
914	6555
914.113	6589
914.226	6650
914.34	6620
914.453	6525
914.566	6517
914.68	6509
914.793	6445
914.906	6433
915.019	6388
915.132	6365
915.245	6391
915.358	6429
915.47	6391
915.583	6471
915.696	6475
915.809	6532
915.921	6578
916.034	6437
916.146	6407
916.259	6433
916.371	6464
916.483	6456
916.595	6334
916.708	6384
916.82	6331
916.932	6346
917.044	6361
917.156	6384
917.268	6308
917.38	6289
917.491	6308
917.603	6365
917.715	6391
917.826	6407
917.938	6292
918.049	6258
918.161	6292
918.272	6365
918.384	6418
918.495	6277
918.606	6220
918.717	6205
918.828	6289
918.939	6323
919.05	6266
919.161	6308
919.272	6167
919.383	6133
919.494	6289
919.604	6452
919.715	6323
919.826	6235
919.936	6251
920.047	6304
920.157	6327
920.267	6467
920.378	6266
920.488	6270
920.598	6475
920.708	6570
920.818	6426
920.928	6445
921.038	6616
921.148	6582
921.258	6365
921.368	6262
921.477	6251
921.587	6197
921.697	6114
921.806	6148
921.916	6083
922.025	5973
922.134	5916
922.244	5935
922.353	5927
922.462	5805
922.571	5828
922.68	5710
922.789	5657
922.898	5710
923.007	5623
923.116	5703
923.224	5676
923.333	5684
923.442	5615
923.55	5554
923.659	5543
923.767	5589
923.876	5474
923.984	5562
924.092	5482
924.201	5512
924.309	5524
924.417	5585
924.525	5440
924.633	5455
924.741	6251
924.849	5349
924.956	5444
925.064	5315
925.172	5307
925.279	5318
925.387	5341
925.494	5334
925.602	5417
925.709	5368
925.816	5277
925.924	5337
926.031	5326
926.138	5284
926.245	5345
926.352	5235
926.459	5318
926.566	5360
926.673	5181
926.779	5060
926.886	5132
926.993	5041
927.099	5003
927.206	4942
927.312	4919
927.419	5048
927.525	4911
927.631	4984
927.737	4858
927.843	4858
927.95	4793
928.056	4839
928.162	4805
928.267	4854
928.373	5261
928.479	4850
928.585	4706
928.69	4763
928.796	4850
928.901	4683
929.007	4569
929.112	4683
929.218	4607
929.323	4569
929.428	4558
929.533	4687
929.638	4459
929.743	4535
929.848	4550
929.953	4512
930.058	4413
930.163	4329
930.267	4367
930.372	4417
930.477	4291
930.581	4443
930.685	4352
930.79	4272
930.894	4253
930.998	4253
931.103	4363
931.207	4135
931.311	4051
931.415	4067
931.519	3937
931.623	3926
