Data from glass_V78500241_742.txt Node
Date: Wed Sep 01 19:19:38 CST 2021
User: usil
Spectrometer: V785-0024
Trigger mode: 0
Integration Time (sec): 4.000000E-1
Scans to average: 1
Nonlinearity correction enabled: false
Boxcar width: 0
Storing dark spectrum: false
XAxis mode: Wavelengths
Number of Pixels in Spectrum: 1024
>>>>>Begin Spectral Data<<<<<
801.071	3755
801.214	3774
801.356	3743
801.499	3759
801.641	3751
801.783	3766
801.926	3865
802.068	3861
802.211	3865
802.353	3888
802.496	3827
802.638	3941
802.78	3956
802.923	3960
803.065	3949
803.208	3857
803.35	3911
803.492	3915
803.635	3949
803.777	3800
803.919	3857
804.061	4215
804.204	3930
804.346	3956
804.488	3922
804.63	4021
804.773	3987
804.915	4036
805.057	4162
805.199	4036
805.341	4124
805.483	4116
805.626	4139
805.768	4154
805.91	4211
806.052	4265
806.194	4265
806.336	4322
806.478	4166
806.62	4215
806.762	4204
806.904	4253
807.046	4341
807.188	4204
807.33	4166
807.472	4249
807.614	4185
807.756	4306
807.898	4219
808.04	4207
808.182	4291
808.324	4318
808.465	4386
808.607	4436
808.749	4443
808.891	4481
809.033	4504
809.174	4413
809.316	4280
809.458	4246
809.6	4227
809.741	4147
809.883	4169
810.025	4223
810.166	4188
810.308	4249
810.45	4253
810.591	4192
810.733	4291
810.875	4508
811.016	4843
811.158	5140
811.299	5322
811.441	5284
811.582	5083
811.724	4725
811.865	4500
812.007	4493
812.148	4451
812.29	4417
812.431	4451
812.573	4447
812.714	4421
812.855	4402
812.997	4383
813.138	4485
813.279	4481
813.421	4394
813.562	4402
813.703	4310
813.845	4325
813.986	4261
814.127	4181
814.268	4314
814.41	4272
814.551	4318
814.692	4295
814.833	4287
814.974	4310
815.115	4371
815.256	4276
815.397	4204
815.539	4257
815.68	4204
815.821	4227
815.962	4344
816.103	4265
816.244	4272
816.385	4261
816.526	4268
816.666	4265
816.807	4120
816.948	4211
817.089	4185
817.23	4120
817.371	4059
817.512	4105
817.653	4078
817.793	4067
817.934	4048
818.075	4139
818.216	4086
818.356	4093
818.497	3991
818.638	3915
818.778	3918
818.919	3937
819.06	3911
819.2	3915
819.341	3861
819.481	3888
819.622	3941
819.762	4002
819.903	3983
820.043	3888
820.184	3857
820.324	3827
820.465	3876
820.605	3873
820.746	3869
820.886	3747
821.026	3934
821.167	3903
821.307	3994
821.447	3991
821.588	3960
821.728	3953
821.868	3968
822.008	3880
822.149	3926
822.289	3915
822.429	3804
822.569	3743
822.709	3797
822.849	3713
822.99	3774
823.13	3789
823.27	3781
823.41	3762
823.55	3766
823.69	3740
823.83	3751
823.97	3671
824.11	3637
824.25	3622
824.389	3675
824.529	3663
824.669	3614
824.809	3694
824.949	3759
825.089	3759
825.228	3701
825.368	3637
825.508	3568
825.648	3564
825.787	3618
825.927	3675
826.067	3625
826.206	3660
826.346	3804
826.485	3835
826.625	3903
826.765	3972
826.904	3838
827.044	3610
827.183	3526
827.323	3481
827.462	3523
827.601	3443
827.741	3435
827.88	3477
828.02	3363
828.159	3454
828.298	3473
828.437	3485
828.577	3504
828.716	3614
828.855	3496
828.994	3420
829.134	3397
829.273	3386
829.412	3382
829.551	3367
829.69	3389
829.829	3397
829.968	3549
830.107	3462
830.246	3466
830.385	3405
830.524	3355
830.663	3329
830.802	3260
830.941	3184
831.08	3211
831.219	3245
831.357	3253
831.496	3397
831.635	3264
831.774	3176
831.913	3218
832.051	3123
832.19	3169
832.329	3222
832.467	3173
832.606	3123
832.744	3173
832.883	3203
833.022	3188
833.16	3253
833.299	3306
833.437	3340
833.576	3355
833.714	3439
833.852	3428
833.991	3397
834.129	3492
834.267	3477
834.406	3412
834.544	3477
834.682	3416
834.821	3439
834.959	3549
835.097	3416
835.235	3538
835.373	3504
835.511	3519
835.65	3458
835.788	3488
835.926	3386
836.064	3378
836.202	3393
836.34	3580
836.478	3580
836.615	3561
836.753	3572
836.891	3675
837.029	3599
837.167	3599
837.305	3595
837.443	3587
837.58	3496
837.718	3587
837.856	3534
837.993	3553
838.131	3622
838.269	3618
838.406	3584
838.544	3568
838.681	3504
838.819	3466
838.956	3416
839.094	3393
839.231	3481
839.369	3507
839.506	3717
839.643	3667
839.781	3564
839.918	3443
840.055	3538
840.193	3530
840.33	3500
840.467	3576
840.604	3622
840.742	3831
840.879	3553
841.016	3542
841.153	3610
841.29	3789
841.427	3770
841.564	3720
841.701	3778
841.838	3717
841.975	3717
842.112	3728
842.249	3637
842.385	3622
842.522	3888
842.659	3660
842.796	3705
842.933	3736
843.069	3667
843.206	3755
843.343	3816
843.479	3751
843.616	3861
843.752	3717
843.889	3701
844.025	3857
844.162	3751
844.298	3865
844.435	3823
844.571	3781
844.708	3945
844.844	3964
844.98	4040
845.117	4010
845.253	3915
845.389	3975
845.525	3915
845.661	3987
845.798	3926
845.934	4017
846.07	3960
846.206	4093
846.342	4131
846.478	4090
846.614	3979
846.75	3953
846.886	3892
847.022	4036
847.158	4021
847.294	3979
847.429	4025
847.565	4006
847.701	4272
847.837	3903
847.972	3835
848.108	3991
848.244	4017
848.379	3861
848.515	3819
848.65	3842
848.786	3888
848.921	3861
849.057	3934
849.192	3945
849.328	3915
849.463	3930
849.598	3888
849.734	3896
849.869	3888
850.004	3785
850.14	3835
850.275	3808
850.41	3743
850.545	3797
850.68	3785
850.815	3778
850.95	3831
851.085	3945
851.22	3884
851.355	3842
851.49	3823
851.625	3759
851.76	3812
851.895	3766
852.03	3740
852.165	3781
852.299	3823
852.434	3926
852.569	3880
852.703	3876
852.838	3953
852.973	3991
853.107	4044
853.242	3903
853.376	3854
853.511	3778
853.645	3831
853.78	3953
853.914	3850
854.048	3896
854.183	3968
854.317	4021
854.451	4048
854.585	4006
854.72	3979
854.854	4063
854.988	3956
855.122	4029
855.256	3941
855.39	3994
855.524	4109
855.658	4124
855.792	4147
855.926	4162
856.06	4173
856.194	4261
856.327	4177
856.461	4143
856.595	4177
856.729	4166
856.862	4299
856.996	4223
857.13	4280
857.263	4341
857.397	4383
857.53	4337
857.664	4333
857.797	4417
857.931	4402
858.064	4394
858.197	4451
858.331	4424
858.464	4394
858.597	4341
858.731	4466
858.864	4417
858.997	4474
859.13	4516
859.263	4558
859.396	4550
859.529	4561
859.662	4531
859.795	4512
859.928	4588
860.061	4717
860.194	4740
860.327	4653
860.46	4660
860.592	4801
860.725	4752
860.858	4782
860.99	4717
861.123	4729
861.256	4694
861.388	4774
861.521	5395
861.653	4755
861.786	4702
861.918	4744
862.05	4820
862.183	4816
862.315	4953
862.447	4968
862.58	4885
862.712	4862
862.844	4740
862.976	4831
863.108	4889
863.24	5261
863.372	4847
863.504	4919
863.636	4881
863.768	4972
863.9	4976
864.032	4987
864.164	4946
864.296	5003
864.428	5048
864.559	5166
864.691	5128
864.823	5124
864.954	5083
865.086	5220
865.217	5105
865.349	5140
865.48	5136
865.612	5227
865.743	5315
865.875	5197
866.006	5178
866.137	5246
866.269	5242
866.4	5273
866.531	5254
866.662	5254
866.793	5246
866.924	5322
867.055	5383
867.186	5353
867.317	5353
867.448	5292
867.579	5376
867.71	5376
867.841	5410
867.972	5429
868.103	5501
868.233	5497
868.364	5509
868.495	5535
868.625	5707
868.756	5794
868.886	5710
869.017	5764
869.147	5847
869.278	5908
869.408	5817
869.539	5786
869.669	5961
869.799	5920
869.929	6030
870.06	6087
870.19	6216
870.32	6194
870.45	6270
870.58	6308
870.71	6422
870.84	6486
870.97	6441
871.1	6498
871.23	6662
871.36	6734
871.489	6635
871.619	6776
871.749	6848
871.879	6844
872.008	6981
872.138	7008
872.267	7019
872.397	6993
872.526	7019
872.656	7095
872.785	7206
872.915	7434
873.044	7567
873.173	7533
873.303	7674
873.432	7753
873.561	7845
873.69	7932
873.819	8024
873.948	8279
874.077	8233
874.206	8366
874.335	8465
874.464	8663
874.593	8864
874.722	8975
874.851	9131
874.979	9226
875.108	9329
875.237	9454
875.365	9405
875.494	9660
875.623	9831
875.751	9774
875.88	9972
876.008	10185
876.136	10287
876.265	10497
876.393	10714
876.521	10679
876.65	10919
876.778	10858
876.906	10923
877.034	10961
877.162	11124
877.29	11193
877.418	11269
877.546	11383
877.674	11452
877.802	11532
877.93	11528
878.058	11554
878.185	11547
878.313	11710
878.441	11832
878.568	11623
878.696	11821
878.824	11882
878.951	11961
879.079	12007
879.206	12182
879.333	12106
879.461	11992
879.588	12148
879.715	12068
879.842	12273
879.97	12136
880.097	11939
880.224	11855
880.351	11866
880.478	11866
880.605	11866
880.732	11870
880.859	12022
880.986	11798
881.112	11931
881.239	11760
881.366	11646
881.493	11665
881.619	11589
881.746	11512
881.872	11611
881.999	11455
882.125	11478
882.252	11528
882.378	11547
882.505	11486
882.631	11406
882.757	11269
882.883	11356
883.01	11334
883.136	11280
883.262	11121
883.388	11151
883.514	11193
883.64	11197
883.766	11029
883.892	11102
884.018	11006
884.143	11060
884.269	11143
884.395	10866
884.52	10729
884.646	10790
884.772	10763
884.897	10694
885.023	10698
885.148	10668
885.274	10793
885.399	10729
885.524	10694
885.65	10717
885.775	10596
885.9	10542
886.025	10588
886.15	10577
886.275	10466
886.4	10466
886.525	10447
886.65	10386
886.775	10333
886.9	10485
887.025	10516
887.149	10333
887.274	10238
887.399	10234
887.523	10150
887.648	10143
887.773	10097
887.897	10246
888.021	10154
888.146	10192
888.27	10242
888.395	10261
888.519	10147
888.643	10223
888.767	10177
888.891	10116
889.015	10044
889.139	10040
889.263	9915
889.387	10078
889.511	10082
889.635	10013
889.759	9991
889.883	10025
890.006	10093
890.13	10044
890.254	9895
890.377	9964
890.501	9915
890.624	9918
890.748	9972
890.871	9846
890.995	9778
891.118	9751
891.241	9743
891.364	9747
891.488	9831
891.611	9793
891.734	9774
891.857	9804
891.98	9667
892.103	9755
892.226	9724
892.349	9762
892.471	9542
892.594	9599
892.717	9656
892.839	9564
892.962	9580
893.085	9698
893.207	9507
893.33	9538
893.452	9507
893.575	9641
893.697	9553
893.819	9648
893.941	9682
894.064	9572
894.186	9496
894.308	9431
894.43	9584
894.552	9610
894.674	9519
894.796	9336
894.918	9370
895.04	9355
895.161	9378
895.283	9424
895.405	9226
895.526	9241
895.648	9291
895.769	9226
895.891	9363
896.012	9321
896.134	9245
896.255	9188
896.376	9173
896.498	9123
896.619	9169
896.74	9116
896.861	9135
896.982	9184
897.103	9340
897.224	9188
897.345	9055
897.466	9009
897.587	8971
897.708	9112
897.828	9051
897.949	9009
898.07	8876
898.19	8933
898.311	9020
898.431	8910
898.552	8937
898.672	9009
898.792	8960
898.913	8895
899.033	8781
899.153	8731
899.273	8701
899.393	8720
899.513	8758
899.633	8697
899.753	8731
899.873	8720
899.993	8781
900.113	8754
900.232	8724
900.352	8610
900.472	8613
900.591	8579
900.711	8655
900.83	8556
900.95	8670
901.069	8663
901.189	8545
901.308	8415
901.427	8366
901.546	8438
901.665	8473
901.784	8450
901.904	8412
902.023	8347
902.141	8328
902.26	8183
902.379	8305
902.498	8199
902.617	8271
902.735	8294
902.854	8328
902.973	8294
903.091	8081
903.21	8161
903.328	8240
903.446	8134
903.565	8134
903.683	8058
903.801	8077
903.919	8103
904.038	8149
904.156	8039
904.274	8183
904.392	8050
904.51	8031
904.627	8020
904.745	8111
904.863	8103
904.981	7959
905.098	7875
905.216	7921
905.334	7906
905.451	7959
905.569	7921
905.686	8027
905.803	7894
905.921	7731
906.038	7879
906.155	7795
906.272	7750
906.389	7666
906.506	7597
906.623	7632
906.74	7616
906.857	7548
906.974	7575
907.091	7662
907.208	7780
907.324	7548
907.441	7552
907.557	7449
907.674	7426
907.79	7369
907.907	7506
908.023	7403
908.139	7445
908.256	7381
908.372	7339
908.488	7365
908.604	7369
908.72	7183
908.836	7327
908.952	7232
909.068	7244
909.184	7312
909.3	7221
909.415	7320
909.531	7331
909.647	7065
909.762	7133
909.878	7107
909.993	7171
910.108	7164
910.224	7152
910.339	7149
910.454	7080
910.57	7008
910.685	7012
910.8	7160
910.915	7126
911.03	7038
911.145	6932
911.259	6886
911.374	6932
911.489	6913
911.604	6875
911.718	6730
911.833	6734
911.947	6639
912.062	6578
912.176	6719
912.291	6757
912.405	6722
912.519	6837
912.633	6859
912.748	6738
912.862	6696
912.976	6692
913.09	6559
913.204	6544
913.318	6662
913.431	6669
913.545	6681
913.659	6703
913.772	6681
913.886	6601
914	6574
914.113	6604
914.226	6627
914.34	6654
914.453	6494
914.566	6597
914.68	6563
914.793	6498
914.906	6407
915.019	6441
915.132	6414
915.245	6445
915.358	6403
915.47	6426
915.583	6429
915.696	6547
915.809	6513
915.921	6566
916.034	6407
916.146	6384
916.259	6342
916.371	6471
916.483	6410
916.595	6395
916.708	6464
916.82	6429
916.932	6410
917.044	6448
917.156	6448
917.268	6338
917.38	6334
917.491	6323
917.603	6380
917.715	6365
917.826	6384
917.938	6384
918.049	6277
918.161	6380
918.272	6456
918.384	6414
918.495	6365
918.606	6285
918.717	6270
918.828	6292
918.939	6311
919.05	6254
919.161	6258
919.272	6117
919.383	6148
919.494	6273
919.604	6422
919.715	6319
919.826	6232
919.936	6216
920.047	6353
920.157	6228
920.267	6483
920.378	6331
920.488	6319
920.598	6441
920.708	6612
920.818	6475
920.928	6498
921.038	6612
921.148	6585
921.258	6338
921.368	6308
921.477	6239
921.587	6190
921.697	6098
921.806	6152
921.916	6087
922.025	5961
922.134	5927
922.244	5885
922.353	5958
922.462	5874
922.571	5882
922.68	5684
922.789	5661
922.898	5748
923.007	5615
923.116	5714
923.224	5718
923.333	5688
923.442	5581
923.55	5585
923.659	5551
923.767	5642
923.876	5551
923.984	5573
924.092	5509
924.201	5577
924.309	5581
924.417	5528
924.525	5505
924.633	5573
924.741	6163
924.849	5391
924.956	5497
925.064	5436
925.172	5368
925.279	5345
925.387	5391
925.494	5357
925.602	5402
925.709	5341
925.816	5254
925.924	5280
926.031	5337
926.138	5318
926.245	5364
926.352	5193
926.459	5284
926.566	5322
926.673	5212
926.779	5124
926.886	5155
926.993	5018
927.099	5018
927.206	4965
927.312	4934
927.419	4980
927.525	4946
927.631	4984
927.737	4938
927.843	4873
927.95	4790
928.056	4854
928.162	4820
928.267	4870
928.373	5436
928.479	4835
928.585	4721
928.69	4748
928.796	4763
928.901	4714
929.007	4637
929.112	4653
929.218	4618
929.323	4637
929.428	4546
929.533	4634
929.638	4558
929.743	4542
929.848	4596
929.953	4481
930.058	4466
930.163	4356
930.267	4325
930.372	4451
930.477	4268
930.581	4478
930.685	4421
930.79	4230
930.894	4287
930.998	4257
931.103	4352
931.207	4109
931.311	4090
931.415	4059
931.519	3930
931.623	3979
