Data from glass_V78500241_462.txt Node
Date: Wed Sep 01 19:17:42 CST 2021
User: usil
Spectrometer: V785-0024
Trigger mode: 0
Integration Time (sec): 4.000000E-1
Scans to average: 1
Nonlinearity correction enabled: false
Boxcar width: 0
Storing dark spectrum: false
XAxis mode: Wavelengths
Number of Pixels in Spectrum: 1024
>>>>>Begin Spectral Data<<<<<
801.071	3728
801.214	3778
801.356	3759
801.499	3766
801.641	3740
801.783	3804
801.926	3842
802.068	3865
802.211	3876
802.353	3892
802.496	3816
802.638	3903
802.78	3876
802.923	3915
803.065	3918
803.208	3819
803.35	3865
803.492	3907
803.635	3945
803.777	3819
803.919	3869
804.061	4204
804.204	3937
804.346	3964
804.488	3972
804.63	3994
804.773	3945
804.915	4078
805.057	4173
805.199	4048
805.341	4074
805.483	4181
805.626	4177
805.768	4131
805.91	4204
806.052	4230
806.194	4204
806.336	4360
806.478	4192
806.62	4150
806.762	4135
806.904	4306
807.046	4356
807.188	4242
807.33	4188
807.472	4215
807.614	4238
807.756	4242
807.898	4204
808.04	4246
808.182	4291
808.324	4329
808.465	4398
808.607	4489
808.749	4432
808.891	4440
809.033	4500
809.174	4402
809.316	4253
809.458	4219
809.6	4188
809.741	4166
809.883	4158
810.025	4230
810.166	4223
810.308	4230
810.45	4230
810.591	4280
810.733	4337
810.875	4523
811.016	4809
811.158	5117
811.299	5254
811.441	5326
811.582	5113
811.724	4698
811.865	4538
812.007	4481
812.148	4447
812.29	4432
812.431	4409
812.573	4413
812.714	4417
812.855	4424
812.997	4402
813.138	4451
813.279	4485
813.421	4394
813.562	4440
813.703	4344
813.845	4337
813.986	4295
814.127	4246
814.268	4287
814.41	4287
814.551	4242
814.692	4314
814.833	4276
814.974	4337
815.115	4333
815.256	4272
815.397	4242
815.539	4291
815.68	4166
815.821	4200
815.962	4348
816.103	4303
816.244	4280
816.385	4272
816.526	4291
816.666	4177
816.807	4154
816.948	4204
817.089	4234
817.23	4139
817.371	4051
817.512	4071
817.653	4124
817.793	4086
817.934	4055
818.075	4131
818.216	4116
818.356	4093
818.497	3964
818.638	3934
818.778	3934
818.919	3880
819.06	3873
819.2	3945
819.341	3861
819.481	3831
819.622	3922
819.762	4040
819.903	3964
820.043	3884
820.184	3873
820.324	3861
820.465	3876
820.605	3884
820.746	3876
820.886	3797
821.026	3998
821.167	3960
821.307	4002
821.447	3979
821.588	3991
821.728	3922
821.868	3926
822.008	3899
822.149	3930
822.289	3915
822.429	3819
822.569	3819
822.709	3835
822.849	3701
822.99	3713
823.13	3762
823.27	3770
823.41	3728
823.55	3762
823.69	3701
823.83	3694
823.97	3694
824.11	3660
824.25	3648
824.389	3618
824.529	3690
824.669	3629
824.809	3713
824.949	3747
825.089	3736
825.228	3747
825.368	3603
825.508	3553
825.648	3584
825.787	3625
825.927	3686
826.067	3614
826.206	3675
826.346	3804
826.485	3819
826.625	3880
826.765	3949
826.904	3827
827.044	3614
827.183	3568
827.323	3435
827.462	3515
827.601	3462
827.741	3450
827.88	3454
828.02	3409
828.159	3447
828.298	3469
828.437	3519
828.577	3473
828.716	3622
828.855	3549
828.994	3367
829.134	3401
829.273	3405
829.412	3359
829.551	3321
829.69	3355
829.829	3374
829.968	3496
830.107	3443
830.246	3443
830.385	3382
830.524	3393
830.663	3283
830.802	3260
830.941	3199
831.08	3203
831.219	3294
831.357	3279
831.496	3363
831.635	3222
831.774	3203
831.913	3188
832.051	3138
832.19	3154
832.329	3272
832.467	3135
832.606	3089
832.744	3203
832.883	3218
833.022	3245
833.16	3241
833.299	3329
833.437	3340
833.576	3329
833.714	3439
833.852	3454
833.991	3409
834.129	3458
834.267	3507
834.406	3424
834.544	3431
834.682	3439
834.821	3454
834.959	3603
835.097	3447
835.235	3515
835.373	3500
835.511	3507
835.65	3466
835.788	3473
835.926	3386
836.064	3409
836.202	3424
836.34	3610
836.478	3591
836.615	3545
836.753	3633
836.891	3675
837.029	3629
837.167	3580
837.305	3561
837.443	3580
837.58	3515
837.718	3599
837.856	3584
837.993	3545
838.131	3606
838.269	3599
838.406	3595
838.544	3603
838.681	3469
838.819	3466
838.956	3412
839.094	3412
839.231	3488
839.369	3549
839.506	3717
839.643	3625
839.781	3492
839.918	3496
840.055	3572
840.193	3553
840.33	3534
840.467	3584
840.604	3660
840.742	3808
840.879	3561
841.016	3557
841.153	3606
841.29	3759
841.427	3701
841.564	3747
841.701	3781
841.838	3709
841.975	3720
842.112	3682
842.249	3652
842.385	3618
842.522	3842
842.659	3743
842.796	3637
842.933	3698
843.069	3736
843.206	3686
843.343	3835
843.479	3759
843.616	3831
843.752	3698
843.889	3713
844.025	3842
844.162	3694
844.298	3857
844.435	3747
844.571	3850
844.708	3930
844.844	3953
844.98	4036
845.117	4010
845.253	3945
845.389	3907
845.525	3975
845.661	4002
845.798	3945
845.934	4002
846.07	3968
846.206	4109
846.342	4139
846.478	4086
846.614	4029
846.75	3964
846.886	3918
847.022	4051
847.158	4006
847.294	4002
847.429	4029
847.565	3979
847.701	4284
847.837	3892
847.972	3861
848.108	3998
848.244	4025
848.379	3903
848.515	3823
848.65	3865
848.786	3842
848.921	3888
849.057	3968
849.192	3979
849.328	3888
849.463	3937
849.598	3888
849.734	3876
849.869	3861
850.004	3838
850.14	3819
850.275	3766
850.41	3717
850.545	3736
850.68	3789
850.815	3759
850.95	3831
851.085	3979
851.22	3937
851.355	3831
851.49	3785
851.625	3827
851.76	3797
851.895	3732
852.03	3743
852.165	3873
852.299	3857
852.434	3960
852.569	3934
852.703	3861
852.838	3922
852.973	4010
853.107	4021
853.242	3869
853.376	3892
853.511	3838
853.645	3876
853.78	3991
853.914	3884
854.048	3911
854.183	3873
854.317	3949
854.451	4059
854.585	3937
854.72	3956
854.854	4097
854.988	3979
855.122	4051
855.256	3934
855.39	4063
855.524	4128
855.658	4135
855.792	4116
855.926	4143
856.06	4166
856.194	4223
856.327	4166
856.461	4154
856.595	4150
856.729	4162
856.862	4318
856.996	4306
857.13	4299
857.263	4356
857.397	4375
857.53	4295
857.664	4318
857.797	4398
857.931	4421
858.064	4405
858.197	4478
858.331	4421
858.464	4417
858.597	4344
858.731	4478
858.864	4478
858.997	4451
859.13	4489
859.263	4580
859.396	4634
859.529	4470
859.662	4523
859.795	4523
859.928	4588
860.061	4668
860.194	4725
860.327	4706
860.46	4664
860.592	4771
860.725	4801
860.858	4824
860.99	4679
861.123	4672
861.256	4714
861.388	4763
861.521	5357
861.653	4691
861.786	4736
861.918	4778
862.05	4812
862.183	4847
862.315	4881
862.447	4957
862.58	4892
862.712	4847
862.844	4793
862.976	4904
863.108	4892
863.24	5140
863.372	4801
863.504	4889
863.636	4862
863.768	4999
863.9	4984
864.032	4953
864.164	4942
864.296	5003
864.428	5079
864.559	5113
864.691	5094
864.823	5136
864.954	5140
865.086	5140
865.217	5102
865.349	5151
865.48	5174
865.612	5208
865.743	5292
865.875	5197
866.006	5261
866.137	5254
866.269	5284
866.4	5288
866.531	5239
866.662	5288
866.793	5273
866.924	5299
867.055	5353
867.186	5330
867.317	5364
867.448	5280
867.579	5368
867.71	5395
867.841	5398
867.972	5455
868.103	5509
868.233	5448
868.364	5543
868.495	5516
868.625	5699
868.756	5805
868.886	5661
869.017	5767
869.147	5855
869.278	5851
869.408	5840
869.539	5870
869.669	5904
869.799	5893
869.929	6003
870.06	6049
870.19	6194
870.32	6159
870.45	6281
870.58	6311
870.71	6445
870.84	6498
870.97	6448
871.1	6441
871.23	6669
871.36	6673
871.489	6707
871.619	6722
871.749	6798
871.879	6897
872.008	6958
872.138	6932
872.267	7012
872.397	7034
872.526	7076
872.656	7126
872.785	7244
872.915	7430
873.044	7495
873.173	7601
873.303	7647
873.432	7803
873.561	7849
873.69	7967
873.819	8046
873.948	8229
874.077	8210
874.206	8305
874.335	8423
874.464	8651
874.593	8883
874.722	8998
874.851	9108
874.979	9226
875.108	9378
875.237	9439
875.365	9443
875.494	9675
875.623	9778
875.751	9827
875.88	9968
876.008	10128
876.136	10230
876.265	10523
876.393	10725
876.521	10698
876.65	10885
876.778	10862
876.906	10927
877.034	11022
877.162	11117
877.29	11193
877.418	11307
877.546	11318
877.674	11520
877.802	11452
877.93	11524
878.058	11535
878.185	11532
878.313	11680
878.441	11764
878.568	11726
878.696	11748
878.824	11836
878.951	11942
879.079	12019
879.206	12155
879.333	12038
879.461	11954
879.588	12136
879.715	12060
879.842	12186
879.97	12106
880.097	11931
880.224	11882
880.351	11950
880.478	11908
880.605	11942
880.732	11786
880.859	12072
880.986	11741
881.112	11817
881.239	11707
881.366	11718
881.493	11684
881.619	11528
881.746	11467
881.872	11600
881.999	11558
882.125	11448
882.252	11551
882.378	11524
882.505	11604
882.631	11410
882.757	11318
882.883	11334
883.01	11307
883.136	11239
883.262	11174
883.388	11105
883.514	11208
883.64	11136
883.766	11155
883.892	11094
884.018	11041
884.143	11022
884.269	11075
884.395	10797
884.52	10820
884.646	10752
884.772	10736
884.897	10634
885.023	10664
885.148	10744
885.274	10729
885.399	10774
885.524	10577
885.65	10569
885.775	10618
885.9	10622
886.025	10580
886.15	10569
886.275	10485
886.4	10455
886.525	10363
886.65	10390
886.775	10314
886.9	10569
887.025	10512
887.149	10360
887.274	10188
887.399	10188
887.523	10154
887.648	10139
887.773	10185
887.897	10249
888.021	10230
888.146	10143
888.27	10166
888.395	10215
888.519	10181
888.643	10230
888.767	10230
888.891	10143
889.015	10059
889.139	9945
889.263	10044
889.387	10055
889.511	10196
889.635	10093
889.759	9994
889.883	9968
890.006	10032
890.13	10112
890.254	9953
890.377	9979
890.501	9816
890.624	9876
890.748	9812
890.871	9808
890.995	9838
891.118	9736
891.241	9785
891.364	9838
891.488	9770
891.611	9762
891.734	9682
891.857	9728
891.98	9660
892.103	9728
892.226	9759
892.349	9614
892.471	9454
892.594	9622
892.717	9644
892.839	9610
892.962	9572
893.085	9660
893.207	9568
893.33	9481
893.452	9572
893.575	9648
893.697	9477
893.819	9656
893.941	9599
894.064	9637
894.186	9507
894.308	9405
894.43	9496
894.552	9648
894.674	9511
894.796	9370
894.918	9408
895.04	9382
895.161	9359
895.283	9367
895.405	9279
895.526	9313
895.648	9241
895.769	9199
895.891	9302
896.012	9211
896.134	9275
896.255	9161
896.376	9112
896.498	9123
896.619	9089
896.74	9100
896.861	9051
896.982	9260
897.103	9291
897.224	9237
897.345	9108
897.466	9020
897.587	8990
897.708	9161
897.828	8971
897.949	8990
898.07	8887
898.19	8910
898.311	9100
898.431	8910
898.552	8933
898.672	9024
898.792	9024
898.913	8902
899.033	8781
899.153	8762
899.273	8716
899.393	8731
899.513	8800
899.633	8720
899.753	8781
899.873	8697
899.993	8697
900.113	8720
900.232	8762
900.352	8758
900.472	8640
900.591	8587
900.711	8602
900.83	8629
900.95	8682
901.069	8712
901.189	8613
901.308	8408
901.427	8431
901.546	8442
901.665	8507
901.784	8446
901.904	8415
902.023	8290
902.141	8271
902.26	8206
902.379	8267
902.498	8275
902.617	8248
902.735	8267
902.854	8256
902.973	8263
903.091	8164
903.21	8077
903.328	8180
903.446	8149
903.565	8103
903.683	8050
903.801	8065
903.919	8168
904.038	8123
904.156	8065
904.274	8084
904.392	8016
904.51	8050
904.627	8050
904.745	8103
904.863	8138
904.981	7947
905.098	7776
905.216	7913
905.334	7890
905.451	7917
905.569	7887
905.686	8001
905.803	7898
905.921	7765
906.038	7921
906.155	7772
906.272	7784
906.389	7731
906.506	7700
906.623	7655
906.74	7670
906.857	7510
906.974	7609
907.091	7734
907.208	7769
907.324	7670
907.441	7597
907.557	7483
907.674	7460
907.79	7392
907.907	7460
908.023	7487
908.139	7422
908.256	7419
908.372	7373
908.488	7335
908.604	7282
908.72	7206
908.836	7228
908.952	7270
909.068	7232
909.184	7324
909.3	7228
909.415	7308
909.531	7335
909.647	7107
909.762	7126
909.878	7084
909.993	7095
910.108	7133
910.224	7065
910.339	7103
910.454	7050
910.57	7038
910.685	6981
910.8	7183
910.915	7114
911.03	7027
911.145	6985
911.259	6901
911.374	6932
911.489	6806
911.604	6840
911.718	6798
911.833	6783
911.947	6673
912.062	6658
912.176	6673
912.291	6692
912.405	6677
912.519	6882
912.633	6798
912.748	6791
912.862	6719
912.976	6684
913.09	6528
913.204	6604
913.318	6540
913.431	6658
913.545	6688
913.659	6681
913.772	6688
913.886	6604
914	6517
914.113	6642
914.226	6654
914.34	6639
914.453	6551
914.566	6669
914.68	6559
914.793	6544
914.906	6426
915.019	6467
915.132	6399
915.245	6426
915.358	6486
915.47	6448
915.583	6445
915.696	6464
915.809	6582
915.921	6578
916.034	6388
916.146	6460
916.259	6369
916.371	6448
916.483	6479
916.595	6441
916.708	6441
916.82	6448
916.932	6350
917.044	6414
917.156	6395
917.268	6319
917.38	6391
917.491	6388
917.603	6350
917.715	6422
917.826	6391
917.938	6369
918.049	6273
918.161	6296
918.272	6395
918.384	6403
918.495	6361
918.606	6239
918.717	6232
918.828	6262
918.939	6304
919.05	6232
919.161	6254
919.272	6110
919.383	6175
919.494	6338
919.604	6483
919.715	6319
919.826	6247
919.936	6254
920.047	6342
920.157	6304
920.267	6426
920.378	6315
920.488	6281
920.598	6441
920.708	6582
920.818	6467
920.928	6456
921.038	6608
921.148	6593
921.258	6357
921.368	6319
921.477	6194
921.587	6194
921.697	6076
921.806	6155
921.916	6102
922.025	5950
922.134	5984
922.244	5863
922.353	5935
922.462	5840
922.571	5798
922.68	5718
922.789	5688
922.898	5684
923.007	5585
923.116	5646
923.224	5726
923.333	5672
923.442	5611
923.55	5566
923.659	5539
923.767	5577
923.876	5570
923.984	5619
924.092	5535
924.201	5547
924.309	5592
924.417	5623
924.525	5535
924.633	5554
924.741	6239
924.849	5364
924.956	5505
925.064	5364
925.172	5269
925.279	5280
925.387	5345
925.494	5334
925.602	5433
925.709	5337
925.816	5296
925.924	5322
926.031	5402
926.138	5337
926.245	5299
926.352	5201
926.459	5372
926.566	5273
926.673	5227
926.779	5170
926.886	5174
926.993	5079
927.099	5045
927.206	4976
927.312	5025
927.419	5029
927.525	4968
927.631	5048
927.737	4862
927.843	4927
927.95	4774
928.056	4873
928.162	4831
928.267	4885
928.373	5277
928.479	4915
928.585	4675
928.69	4824
928.796	4755
928.901	4675
929.007	4588
929.112	4687
929.218	4596
929.323	4637
929.428	4535
929.533	4687
929.638	4489
929.743	4546
929.848	4573
929.953	4592
930.058	4466
930.163	4371
930.267	4375
930.372	4428
930.477	4337
930.581	4459
930.685	4424
930.79	4280
930.894	4318
930.998	4291
931.103	4447
931.207	4116
931.311	4074
931.415	4082
931.519	3934
931.623	3956
