Data from glass_V78500241_1610.txt Node
Date: Wed Sep 01 19:25:39 CST 2021
User: usil
Spectrometer: V785-0024
Trigger mode: 0
Integration Time (sec): 4.000000E-1
Scans to average: 1
Nonlinearity correction enabled: false
Boxcar width: 0
Storing dark spectrum: false
XAxis mode: Wavelengths
Number of Pixels in Spectrum: 1024
>>>>>Begin Spectral Data<<<<<
801.071	3740
801.214	3789
801.356	3701
801.499	3705
801.641	3724
801.783	3804
801.926	3827
802.068	3823
802.211	3873
802.353	3903
802.496	3816
802.638	3903
802.78	3918
802.923	3903
803.065	3892
803.208	3823
803.35	3896
803.492	3915
803.635	3899
803.777	3850
803.919	3903
804.061	4188
804.204	3987
804.346	3949
804.488	3934
804.63	4048
804.773	3991
804.915	4002
805.057	4112
805.199	4082
805.341	4059
805.483	4181
805.626	4131
805.768	4097
805.91	4177
806.052	4211
806.194	4253
806.336	4344
806.478	4227
806.62	4166
806.762	4219
806.904	4230
807.046	4344
807.188	4211
807.33	4200
807.472	4246
807.614	4177
807.756	4268
807.898	4219
808.04	4215
808.182	4344
808.324	4295
808.465	4383
808.607	4493
808.749	4424
808.891	4470
809.033	4493
809.174	4417
809.316	4284
809.458	4253
809.6	4169
809.741	4192
809.883	4128
810.025	4181
810.166	4196
810.308	4234
810.45	4238
810.591	4268
810.733	4284
810.875	4497
811.016	4854
811.158	5140
811.299	5299
811.441	5273
811.582	5045
811.724	4736
811.865	4470
812.007	4481
812.148	4417
812.29	4413
812.431	4428
812.573	4360
812.714	4379
812.855	4424
812.997	4440
813.138	4485
813.279	4386
813.421	4352
813.562	4360
813.703	4383
813.845	4291
813.986	4200
814.127	4207
814.268	4238
814.41	4306
814.551	4268
814.692	4367
814.833	4265
814.974	4306
815.115	4314
815.256	4280
815.397	4246
815.539	4246
815.68	4200
815.821	4238
815.962	4314
816.103	4257
816.244	4257
816.385	4215
816.526	4287
816.666	4238
816.807	4124
816.948	4207
817.089	4166
817.23	4166
817.371	4040
817.512	4063
817.653	4078
817.793	4025
817.934	4051
818.075	4063
818.216	4048
818.356	4105
818.497	3983
818.638	3941
818.778	3934
818.919	3934
819.06	3865
819.2	3945
819.341	3876
819.481	3842
819.622	3861
819.762	3998
819.903	3960
820.043	3861
820.184	3842
820.324	3816
820.465	3861
820.605	3865
820.746	3865
820.886	3854
821.026	3926
821.167	3907
821.307	3983
821.447	3987
821.588	3960
821.728	3899
821.868	3934
822.008	3865
822.149	3922
822.289	3911
822.429	3804
822.569	3724
822.709	3804
822.849	3698
822.99	3740
823.13	3766
823.27	3755
823.41	3682
823.55	3717
823.69	3713
823.83	3747
823.97	3667
824.11	3614
824.25	3557
824.389	3633
824.529	3648
824.669	3663
824.809	3732
824.949	3728
825.089	3724
825.228	3701
825.368	3576
825.508	3564
825.648	3545
825.787	3606
825.927	3610
826.067	3614
826.206	3667
826.346	3789
826.485	3827
826.625	3823
826.765	3945
826.904	3800
827.044	3618
827.183	3515
827.323	3469
827.462	3458
827.601	3420
827.741	3412
827.88	3454
828.02	3340
828.159	3488
828.298	3462
828.437	3526
828.577	3473
828.716	3599
828.855	3542
828.994	3409
829.134	3389
829.273	3424
829.412	3332
829.551	3321
829.69	3340
829.829	3439
829.968	3511
830.107	3447
830.246	3450
830.385	3397
830.524	3359
830.663	3275
830.802	3268
830.941	3207
831.08	3199
831.219	3268
831.357	3268
831.496	3420
831.635	3249
831.774	3165
831.913	3180
832.051	3100
832.19	3165
832.329	3230
832.467	3116
832.606	3089
832.744	3211
832.883	3203
833.022	3150
833.16	3253
833.299	3256
833.437	3355
833.576	3393
833.714	3370
833.852	3431
833.991	3500
834.129	3481
834.267	3443
834.406	3412
834.544	3389
834.682	3473
834.821	3412
834.959	3603
835.097	3389
835.235	3572
835.373	3530
835.511	3511
835.65	3454
835.788	3492
835.926	3382
836.064	3374
836.202	3454
836.34	3561
836.478	3587
836.615	3526
836.753	3561
836.891	3606
837.029	3622
837.167	3584
837.305	3564
837.443	3561
837.58	3485
837.718	3618
837.856	3549
837.993	3526
838.131	3603
838.269	3545
838.406	3618
838.544	3618
838.681	3466
838.819	3431
838.956	3367
839.094	3405
839.231	3435
839.369	3542
839.506	3759
839.643	3663
839.781	3519
839.918	3443
840.055	3500
840.193	3557
840.33	3507
840.467	3507
840.604	3584
840.742	3774
840.879	3534
841.016	3538
841.153	3542
841.29	3781
841.427	3709
841.564	3679
841.701	3713
841.838	3724
841.975	3682
842.112	3709
842.249	3637
842.385	3576
842.522	3800
842.659	3671
842.796	3682
842.933	3694
843.069	3713
843.206	3679
843.343	3797
843.479	3728
843.616	3808
843.752	3675
843.889	3671
844.025	3842
844.162	3717
844.298	3827
844.435	3789
844.571	3759
844.708	3884
844.844	3983
844.98	3983
845.117	3987
845.253	3899
845.389	3953
845.525	3972
845.661	3987
845.798	3918
845.934	4013
846.07	3934
846.206	4044
846.342	4101
846.478	4078
846.614	3949
846.75	3937
846.886	3930
847.022	4017
847.158	3915
847.294	4029
847.429	4002
847.565	4006
847.701	4223
847.837	3857
847.972	3861
848.108	3979
848.244	3979
848.379	3850
848.515	3823
848.65	3827
848.786	3880
848.921	3876
849.057	3937
849.192	3953
849.328	3930
849.463	3960
849.598	3861
849.734	3903
849.869	3827
850.004	3770
850.14	3854
850.275	3797
850.41	3732
850.545	3743
850.68	3778
850.815	3835
850.95	3823
851.085	3945
851.22	3850
851.355	3869
851.49	3751
851.625	3819
851.76	3759
851.895	3755
852.03	3679
852.165	3838
852.299	3804
852.434	3892
852.569	3884
852.703	3903
852.838	3941
852.973	4006
853.107	4010
853.242	3892
853.376	3854
853.511	3778
853.645	3835
853.78	3972
853.914	3937
854.048	3861
854.183	3873
854.317	3968
854.451	4059
854.585	3915
854.72	3934
854.854	4071
854.988	3934
855.122	3968
855.256	3956
855.39	4029
855.524	4120
855.658	4135
855.792	4112
855.926	4143
856.06	4158
856.194	4219
856.327	4200
856.461	4131
856.595	4166
856.729	4173
856.862	4276
856.996	4227
857.13	4287
857.263	4341
857.397	4352
857.53	4291
857.664	4325
857.797	4417
857.931	4455
858.064	4398
858.197	4481
858.331	4409
858.464	4379
858.597	4337
858.731	4402
858.864	4485
858.997	4455
859.13	4527
859.263	4527
859.396	4592
859.529	4481
859.662	4508
859.795	4535
859.928	4577
860.061	4687
860.194	4714
860.327	4714
860.46	4683
860.592	4714
860.725	4740
860.858	4801
860.99	4736
861.123	4725
861.256	4702
861.388	4752
861.521	5547
861.653	4778
861.786	4687
861.918	4771
862.05	4812
862.183	4839
862.315	4889
862.447	4915
862.58	4862
862.712	4790
862.844	4744
862.976	4877
863.108	4889
863.24	5250
863.372	4847
863.504	4877
863.636	4892
863.768	4984
863.9	4976
864.032	4961
864.164	4961
864.296	5018
864.428	5083
864.559	5083
864.691	5109
864.823	5117
864.954	5094
865.086	5151
865.217	5132
865.349	5109
865.48	5124
865.612	5193
865.743	5326
865.875	5185
866.006	5174
866.137	5246
866.269	5292
866.4	5280
866.531	5273
866.662	5201
866.793	5296
866.924	5284
867.055	5330
867.186	5334
867.317	5364
867.448	5258
867.579	5360
867.71	5398
867.841	5368
867.972	5452
868.103	5482
868.233	5429
868.364	5490
868.495	5539
868.625	5657
868.756	5794
868.886	5691
869.017	5760
869.147	5847
869.278	5904
869.408	5794
869.539	5798
869.669	5866
869.799	5931
869.929	6057
870.06	6038
870.19	6125
870.32	6220
870.45	6251
870.58	6327
870.71	6426
870.84	6460
870.97	6403
871.1	6445
871.23	6570
871.36	6719
871.489	6665
871.619	6779
871.749	6848
871.879	6840
872.008	6981
872.138	6924
872.267	6966
872.397	7000
872.526	7076
872.656	7099
872.785	7236
872.915	7426
873.044	7540
873.173	7563
873.303	7696
873.432	7742
873.561	7818
873.69	7883
873.819	7963
873.948	8187
874.077	8317
874.206	8336
874.335	8434
874.464	8648
874.593	8830
874.722	8941
874.851	9207
874.979	9211
875.108	9355
875.237	9507
875.365	9507
875.494	9679
875.623	9835
875.751	9854
875.88	10025
876.008	10112
876.136	10314
876.265	10485
876.393	10641
876.521	10668
876.65	10828
876.778	10862
876.906	10946
877.034	10965
877.162	11018
877.29	11170
877.418	11261
877.546	11337
877.674	11402
877.802	11486
877.93	11497
878.058	11551
878.185	11604
878.313	11661
878.441	11737
878.568	11665
878.696	11855
878.824	11878
878.951	11878
879.079	12057
879.206	12182
879.333	12114
879.461	11996
879.588	12098
879.715	12091
879.842	12224
879.97	12148
880.097	11904
880.224	11863
880.351	11889
880.478	11878
880.605	11889
880.732	11813
880.859	11973
880.986	11752
881.112	11843
881.239	11729
881.366	11585
881.493	11649
881.619	11524
881.746	11535
881.872	11524
881.999	11512
882.125	11509
882.252	11497
882.378	11505
882.505	11615
882.631	11421
882.757	11322
882.883	11250
883.01	11280
883.136	11212
883.262	11105
883.388	11090
883.514	11231
883.64	11170
883.766	11174
883.892	10991
884.018	11029
884.143	11090
884.269	11006
884.395	10771
884.52	10771
884.646	10774
884.772	10710
884.897	10649
885.023	10706
885.148	10782
885.274	10717
885.399	10725
885.524	10653
885.65	10573
885.775	10577
885.9	10622
886.025	10656
886.15	10561
886.275	10519
886.4	10333
886.525	10428
886.65	10398
886.775	10287
886.9	10451
887.025	10569
887.149	10360
887.274	10295
887.399	10150
887.523	10109
887.648	10086
887.773	10097
887.897	10223
888.021	10196
888.146	10124
888.27	10215
888.395	10200
888.519	10188
888.643	10150
888.767	10230
888.891	10082
889.015	9964
889.139	10006
889.263	10021
889.387	10059
889.511	10078
889.635	10071
889.759	9941
889.883	9994
890.006	9998
890.13	10196
890.254	9941
890.377	9953
890.501	9907
890.624	9884
890.748	9937
890.871	9892
890.995	9759
891.118	9698
891.241	9804
891.364	9778
891.488	9774
891.611	9751
891.734	9736
891.857	9743
891.98	9747
892.103	9838
892.226	9740
892.349	9675
892.471	9599
892.594	9603
892.717	9564
892.839	9644
892.962	9610
893.085	9595
893.207	9504
893.33	9553
893.452	9553
893.575	9591
893.697	9526
893.819	9660
893.941	9641
894.064	9644
894.186	9424
894.308	9488
894.43	9580
894.552	9572
894.674	9523
894.796	9382
894.918	9412
895.04	9332
895.161	9351
895.283	9317
895.405	9310
895.526	9340
895.648	9317
895.769	9245
895.891	9310
896.012	9287
896.134	9253
896.255	9108
896.376	9112
896.498	9135
896.619	9146
896.74	9058
896.861	9093
896.982	9230
897.103	9302
897.224	9195
897.345	9077
897.466	8956
897.587	9051
897.708	9089
897.828	9032
897.949	8902
898.07	8834
898.19	8857
898.311	8963
898.431	8986
898.552	8895
898.672	8944
898.792	9032
898.913	8906
899.033	8826
899.153	8724
899.273	8716
899.393	8697
899.513	8716
899.633	8701
899.753	8758
899.873	8689
899.993	8682
900.113	8705
900.232	8648
900.352	8651
900.472	8579
900.591	8511
900.711	8503
900.83	8613
900.95	8663
901.069	8743
901.189	8514
901.308	8423
901.427	8332
901.546	8358
901.665	8503
901.784	8404
901.904	8461
902.023	8343
902.141	8305
902.26	8301
902.379	8305
902.498	8164
902.617	8267
902.735	8313
902.854	8336
902.973	8279
903.091	8168
903.21	8172
903.328	8142
903.446	8123
903.565	8069
903.683	8096
903.801	8092
903.919	8073
904.038	8130
904.156	8008
904.274	8088
904.392	8027
904.51	8016
904.627	8096
904.745	8069
904.863	8100
904.981	7951
905.098	7841
905.216	7833
905.334	7902
905.451	7902
905.569	7799
905.686	7944
905.803	7887
905.921	7807
906.038	7883
906.155	7780
906.272	7700
906.389	7765
906.506	7651
906.623	7578
906.74	7700
906.857	7559
906.974	7582
907.091	7609
907.208	7742
907.324	7677
907.441	7571
907.557	7464
907.674	7499
907.79	7415
907.907	7392
908.023	7487
908.139	7441
908.256	7377
908.372	7343
908.488	7388
908.604	7266
908.72	7240
908.836	7274
908.952	7232
909.068	7225
909.184	7289
909.3	7244
909.415	7266
909.531	7221
909.647	7122
909.762	7137
909.878	7076
909.993	7175
910.108	7046
910.224	7076
910.339	7088
910.454	7065
910.57	7034
910.685	6958
910.8	7118
910.915	7069
911.03	6958
911.145	6894
911.259	6886
911.374	6894
911.489	6825
911.604	6840
911.718	6669
911.833	6738
911.947	6662
912.062	6574
912.176	6665
912.291	6658
912.405	6745
912.519	6760
912.633	6825
912.748	6741
912.862	6722
912.976	6612
913.09	6582
913.204	6639
913.318	6589
913.431	6669
913.545	6650
913.659	6730
913.772	6684
913.886	6578
914	6551
914.113	6623
914.226	6635
914.34	6654
914.453	6418
914.566	6639
914.68	6517
914.793	6521
914.906	6441
915.019	6361
915.132	6350
915.245	6414
915.358	6475
915.47	6418
915.583	6471
915.696	6437
915.809	6574
915.921	6551
916.034	6410
916.146	6414
916.259	6361
916.371	6536
916.483	6475
916.595	6384
916.708	6391
916.82	6422
916.932	6361
917.044	6426
917.156	6407
917.268	6338
917.38	6372
917.491	6304
917.603	6361
917.715	6422
917.826	6418
917.938	6323
918.049	6251
918.161	6372
918.272	6426
918.384	6471
918.495	6258
918.606	6277
918.717	6209
918.828	6300
918.939	6258
919.05	6220
919.161	6220
919.272	6125
919.383	6102
919.494	6296
919.604	6395
919.715	6304
919.826	6209
919.936	6262
920.047	6327
920.157	6300
920.267	6464
920.378	6304
920.488	6235
920.598	6486
920.708	6574
920.818	6456
920.928	6441
921.038	6597
921.148	6528
921.258	6323
921.368	6273
921.477	6239
921.587	6213
921.697	6041
921.806	6171
921.916	6083
922.025	5935
922.134	5939
922.244	5950
922.353	5977
922.462	5851
922.571	5771
922.68	5729
922.789	5680
922.898	5764
923.007	5611
923.116	5707
923.224	5695
923.333	5646
923.442	5611
923.55	5585
923.659	5589
923.767	5642
923.876	5512
923.984	5581
924.092	5532
924.201	5577
924.309	5562
924.417	5547
924.525	5547
924.633	5512
924.741	6262
924.849	5360
924.956	5535
925.064	5334
925.172	5311
925.279	5322
925.387	5372
925.494	5372
925.602	5421
925.709	5391
925.816	5280
925.924	5284
926.031	5357
926.138	5337
926.245	5360
926.352	5246
926.459	5261
926.566	5368
926.673	5277
926.779	5159
926.886	5159
926.993	5033
927.099	4965
927.206	4991
927.312	4980
927.419	5056
927.525	4984
927.631	4957
927.737	4904
927.843	4866
927.95	4763
928.056	4847
928.162	4824
928.267	4873
928.373	5383
928.479	4824
928.585	4706
928.69	4763
928.796	4790
928.901	4717
929.007	4618
929.112	4672
929.218	4637
929.323	4615
929.428	4535
929.533	4679
929.638	4497
929.743	4554
929.848	4542
929.953	4531
930.058	4432
930.163	4356
930.267	4363
930.372	4417
930.477	4295
930.581	4455
930.685	4363
930.79	4261
930.894	4280
930.998	4230
931.103	4352
931.207	4131
931.311	4067
931.415	4036
931.519	3930
931.623	3964
