Data from glass_V78500241_593.txt Node
Date: Wed Sep 01 19:18:36 CST 2021
User: usil
Spectrometer: V785-0024
Trigger mode: 0
Integration Time (sec): 4.000000E-1
Scans to average: 1
Nonlinearity correction enabled: false
Boxcar width: 0
Storing dark spectrum: false
XAxis mode: Wavelengths
Number of Pixels in Spectrum: 1024
>>>>>Begin Spectral Data<<<<<
801.071	3804
801.214	3781
801.356	3717
801.499	3736
801.641	3743
801.783	3789
801.926	3876
802.068	3880
802.211	3861
802.353	3918
802.496	3857
802.638	3896
802.78	3911
802.923	3941
803.065	3884
803.208	3838
803.35	3838
803.492	3915
803.635	3941
803.777	3800
803.919	3903
804.061	4173
804.204	3949
804.346	3975
804.488	3979
804.63	4044
804.773	3968
804.915	4059
805.057	4150
805.199	4101
805.341	4105
805.483	4177
805.626	4185
805.768	4169
805.91	4219
806.052	4227
806.194	4227
806.336	4367
806.478	4249
806.62	4158
806.762	4177
806.904	4265
807.046	4325
807.188	4230
807.33	4185
807.472	4238
807.614	4204
807.756	4246
807.898	4227
808.04	4242
808.182	4287
808.324	4367
808.465	4356
808.607	4481
808.749	4478
808.891	4474
809.033	4523
809.174	4440
809.316	4299
809.458	4257
809.6	4135
809.741	4169
809.883	4192
810.025	4246
810.166	4219
810.308	4295
810.45	4261
810.591	4234
810.733	4303
810.875	4554
811.016	4831
811.158	5193
811.299	5280
811.441	5318
811.582	5033
811.724	4752
811.865	4459
812.007	4519
812.148	4413
812.29	4440
812.431	4470
812.573	4432
812.714	4405
812.855	4447
812.997	4413
813.138	4493
813.279	4447
813.421	4379
813.562	4394
813.703	4371
813.845	4375
813.986	4272
814.127	4215
814.268	4280
814.41	4268
814.551	4284
814.692	4318
814.833	4325
814.974	4276
815.115	4348
815.256	4299
815.397	4246
815.539	4261
815.68	4219
815.821	4230
815.962	4295
816.103	4314
816.244	4238
816.385	4223
816.526	4318
816.666	4253
816.807	4101
816.948	4181
817.089	4173
817.23	4169
817.371	4059
817.512	4101
817.653	4067
817.793	4021
817.934	4017
818.075	4109
818.216	4082
818.356	4059
818.497	3979
818.638	3953
818.778	3949
818.919	3915
819.06	3876
819.2	3918
819.341	3915
819.481	3869
819.622	3930
819.762	4048
819.903	3968
820.043	3892
820.184	3838
820.324	3896
820.465	3869
820.605	3922
820.746	3865
820.886	3816
821.026	3884
821.167	3903
821.307	4010
821.447	4002
821.588	3964
821.728	4002
821.868	3972
822.008	3915
822.149	3956
822.289	3934
822.429	3808
822.569	3743
822.709	3804
822.849	3713
822.99	3736
823.13	3781
823.27	3842
823.41	3720
823.55	3736
823.69	3720
823.83	3736
823.97	3679
824.11	3614
824.25	3603
824.389	3656
824.529	3690
824.669	3629
824.809	3682
824.949	3747
825.089	3766
825.228	3701
825.368	3614
825.508	3576
825.648	3568
825.787	3614
825.927	3633
826.067	3652
826.206	3679
826.346	3812
826.485	3812
826.625	3865
826.765	3949
826.904	3838
827.044	3629
827.183	3542
827.323	3443
827.462	3526
827.601	3454
827.741	3458
827.88	3485
828.02	3428
828.159	3439
828.298	3477
828.437	3519
828.577	3500
828.716	3614
828.855	3481
828.994	3367
829.134	3363
829.273	3424
829.412	3382
829.551	3351
829.69	3420
829.829	3439
829.968	3534
830.107	3443
830.246	3450
830.385	3382
830.524	3389
830.663	3321
830.802	3260
830.941	3180
831.08	3260
831.219	3298
831.357	3264
831.496	3420
831.635	3241
831.774	3199
831.913	3195
832.051	3169
832.19	3188
832.329	3180
832.467	3138
832.606	3123
832.744	3176
832.883	3176
833.022	3207
833.16	3245
833.299	3306
833.437	3332
833.576	3382
833.714	3389
833.852	3428
833.991	3492
834.129	3462
834.267	3401
834.406	3428
834.544	3409
834.682	3424
834.821	3435
834.959	3606
835.097	3435
835.235	3492
835.373	3511
835.511	3492
835.65	3485
835.788	3519
835.926	3416
836.064	3416
836.202	3397
836.34	3595
836.478	3629
836.615	3557
836.753	3648
836.891	3625
837.029	3599
837.167	3580
837.305	3568
837.443	3538
837.58	3530
837.718	3576
837.856	3591
837.993	3545
838.131	3633
838.269	3595
838.406	3606
838.544	3564
838.681	3488
838.819	3473
838.956	3363
839.094	3439
839.231	3443
839.369	3542
839.506	3759
839.643	3675
839.781	3507
839.918	3515
840.055	3561
840.193	3545
840.33	3526
840.467	3538
840.604	3599
840.742	3804
840.879	3591
841.016	3603
841.153	3599
841.29	3766
841.427	3781
841.564	3709
841.701	3736
841.838	3698
841.975	3633
842.112	3705
842.249	3675
842.385	3682
842.522	3854
842.659	3694
842.796	3656
842.933	3736
843.069	3740
843.206	3728
843.343	3797
843.479	3766
843.616	3804
843.752	3682
843.889	3690
844.025	3861
844.162	3679
844.298	3854
844.435	3804
844.571	3797
844.708	3884
844.844	4006
844.98	4040
845.117	4013
845.253	3930
845.389	3911
845.525	3983
845.661	3987
845.798	3937
845.934	4013
846.07	3972
846.206	4059
846.342	4128
846.478	4067
846.614	3998
846.75	3975
846.886	3892
847.022	4055
847.158	3949
847.294	4021
847.429	4044
847.565	4055
847.701	4234
847.837	3937
847.972	3884
848.108	3975
848.244	3983
848.379	3842
848.515	3854
848.65	3812
848.786	3838
848.921	3869
849.057	3964
849.192	3911
849.328	3953
849.463	3937
849.598	3896
849.734	3873
849.869	3865
850.004	3873
850.14	3842
850.275	3778
850.41	3755
850.545	3800
850.68	3778
850.815	3812
850.95	3793
851.085	3930
851.22	3884
851.355	3838
851.49	3797
851.625	3808
851.76	3804
851.895	3740
852.03	3759
852.165	3785
852.299	3903
852.434	3880
852.569	3888
852.703	3846
852.838	3945
852.973	4032
853.107	4010
853.242	3884
853.376	3854
853.511	3762
853.645	3857
853.78	3987
853.914	3918
854.048	3922
854.183	3884
854.317	3987
854.451	4082
854.585	3960
854.72	3903
854.854	4013
854.988	3983
855.122	4051
855.256	3892
855.39	4017
855.524	4101
855.658	4135
855.792	4093
855.926	4120
856.06	4139
856.194	4261
856.327	4131
856.461	4162
856.595	4185
856.729	4131
856.862	4303
856.996	4280
857.13	4268
857.263	4390
857.397	4375
857.53	4322
857.664	4341
857.797	4413
857.931	4405
858.064	4394
858.197	4466
858.331	4417
858.464	4417
858.597	4371
858.731	4474
858.864	4504
858.997	4478
859.13	4569
859.263	4542
859.396	4611
859.529	4478
859.662	4580
859.795	4538
859.928	4599
860.061	4721
860.194	4740
860.327	4675
860.46	4649
860.592	4786
860.725	4786
860.858	4790
860.99	4694
861.123	4683
861.256	4744
861.388	4755
861.521	5372
861.653	4710
861.786	4710
861.918	4812
862.05	4805
862.183	4862
862.315	4839
862.447	4900
862.58	4908
862.712	4793
862.844	4782
862.976	4862
863.108	4915
863.24	5216
863.372	4801
863.504	4934
863.636	4927
863.768	4972
863.9	4946
864.032	4938
864.164	4942
864.296	5025
864.428	5109
864.559	5105
864.691	5166
864.823	5140
864.954	5140
865.086	5181
865.217	5162
865.349	5128
865.48	5162
865.612	5208
865.743	5269
865.875	5231
866.006	5208
866.137	5261
866.269	5246
866.4	5239
866.531	5246
866.662	5223
866.793	5303
866.924	5345
867.055	5353
867.186	5402
867.317	5360
867.448	5299
867.579	5360
867.71	5379
867.841	5379
867.972	5509
868.103	5433
868.233	5493
868.364	5547
868.495	5520
868.625	5680
868.756	5802
868.886	5707
869.017	5748
869.147	5855
869.278	5893
869.408	5809
869.539	5832
869.669	5923
869.799	5916
869.929	6045
870.06	6022
870.19	6220
870.32	6194
870.45	6270
870.58	6376
870.71	6441
870.84	6536
870.97	6426
871.1	6475
871.23	6616
871.36	6696
871.489	6741
871.619	6772
871.749	6825
871.879	6973
872.008	6958
872.138	7050
872.267	7080
872.397	6973
872.526	7088
872.656	7091
872.785	7221
872.915	7350
873.044	7525
873.173	7544
873.303	7681
873.432	7712
873.561	7830
873.69	7940
873.819	8001
873.948	8199
874.077	8202
874.206	8355
874.335	8454
874.464	8651
874.593	8899
874.722	8914
874.851	9116
874.979	9268
875.108	9370
875.237	9435
875.365	9515
875.494	9690
875.623	9915
875.751	9926
875.88	9994
876.008	10177
876.136	10261
876.265	10485
876.393	10702
876.521	10786
876.65	10877
876.778	10873
876.906	10957
877.034	10968
877.162	11121
877.29	11193
877.418	11273
877.546	11387
877.674	11493
877.802	11440
877.93	11512
878.058	11501
878.185	11600
878.313	11688
878.441	11745
878.568	11729
878.696	11863
878.824	11840
878.951	11927
879.079	12076
879.206	12117
879.333	11946
879.461	11904
879.588	12072
879.715	12003
879.842	12270
879.97	12053
880.097	11882
880.224	11863
880.351	11863
880.478	11920
880.605	11904
880.732	11836
880.859	12057
880.986	11893
881.112	11790
881.239	11752
881.366	11760
881.493	11661
881.619	11532
881.746	11581
881.872	11512
881.999	11554
882.125	11501
882.252	11547
882.378	11467
882.505	11581
882.631	11376
882.757	11315
882.883	11360
883.01	11204
883.136	11181
883.262	11121
883.388	11052
883.514	11193
883.64	11140
883.766	11079
883.892	11018
884.018	11037
884.143	11037
884.269	11113
884.395	10820
884.52	10809
884.646	10752
884.772	10752
884.897	10717
885.023	10744
885.148	10790
885.274	10767
885.399	10752
885.524	10645
885.65	10580
885.775	10577
885.9	10558
886.025	10592
886.15	10622
886.275	10447
886.4	10512
886.525	10436
886.65	10421
886.775	10299
886.9	10542
887.025	10527
887.149	10394
887.274	10181
887.399	10227
887.523	10211
887.648	10188
887.773	10048
887.897	10204
888.021	10242
888.146	10143
888.27	10284
888.395	10200
888.519	10227
888.643	10207
888.767	10227
888.891	10086
889.015	10044
889.139	10097
889.263	9930
889.387	10071
889.511	10192
889.635	10063
889.759	10025
889.883	9987
890.006	10010
890.13	10097
890.254	10063
890.377	9972
890.501	9850
890.624	9994
890.748	9945
890.871	9854
890.995	9759
891.118	9728
891.241	9808
891.364	9732
891.488	9850
891.611	9701
891.734	9770
891.857	9781
891.98	9694
892.103	9766
892.226	9728
892.349	9675
892.471	9481
892.594	9534
892.717	9587
892.839	9618
892.962	9584
893.085	9614
893.207	9576
893.33	9473
893.452	9469
893.575	9561
893.697	9530
893.819	9637
893.941	9629
894.064	9584
894.186	9462
894.308	9428
894.43	9561
894.552	9538
894.674	9553
894.796	9416
894.918	9431
895.04	9359
895.161	9405
895.283	9336
895.405	9260
895.526	9184
895.648	9264
895.769	9340
895.891	9268
896.012	9249
896.134	9230
896.255	9214
896.376	9123
896.498	9173
896.619	9161
896.74	9108
896.861	9077
896.982	9233
897.103	9260
897.224	9154
897.345	9077
897.466	9013
897.587	9013
897.708	9077
897.828	9116
897.949	8994
898.07	8910
898.19	8937
898.311	8998
898.431	9009
898.552	8899
898.672	8990
898.792	8929
898.913	8921
899.033	8918
899.153	8746
899.273	8693
899.393	8708
899.513	8781
899.633	8716
899.753	8708
899.873	8701
899.993	8724
900.113	8807
900.232	8686
900.352	8663
900.472	8663
900.591	8545
900.711	8617
900.83	8549
900.95	8644
901.069	8659
901.189	8564
901.308	8408
901.427	8408
901.546	8442
901.665	8396
901.784	8492
901.904	8389
902.023	8339
902.141	8187
902.26	8244
902.379	8343
902.498	8248
902.617	8168
902.735	8275
902.854	8320
902.973	8313
903.091	8153
903.21	8119
903.328	8164
903.446	8096
903.565	8069
903.683	8123
903.801	8035
903.919	8130
904.038	8077
904.156	8065
904.274	8107
904.392	8035
904.51	8103
904.627	8043
904.745	8073
904.863	8077
904.981	7921
905.098	7841
905.216	7883
905.334	7917
905.451	7864
905.569	7940
905.686	7959
905.803	7841
905.921	7750
906.038	7906
906.155	7799
906.272	7715
906.389	7738
906.506	7647
906.623	7670
906.74	7628
906.857	7533
906.974	7609
907.091	7712
907.208	7738
907.324	7647
907.441	7609
907.557	7445
907.674	7453
907.79	7407
907.907	7415
908.023	7441
908.139	7430
908.256	7460
908.372	7369
908.488	7350
908.604	7324
908.72	7236
908.836	7339
908.952	7236
909.068	7331
909.184	7289
909.3	7320
909.415	7320
909.531	7289
909.647	7232
909.762	7152
909.878	7065
909.993	7126
910.108	7141
910.224	7015
910.339	7110
910.454	7012
910.57	7099
910.685	6966
910.8	7187
910.915	7110
911.03	7050
911.145	6848
911.259	6878
911.374	6924
911.489	6852
911.604	6871
911.718	6772
911.833	6715
911.947	6642
912.062	6623
912.176	6738
912.291	6745
912.405	6711
912.519	6810
912.633	6768
912.748	6730
912.862	6734
912.976	6646
913.09	6555
913.204	6623
913.318	6646
913.431	6715
913.545	6726
913.659	6745
913.772	6669
913.886	6639
914	6563
914.113	6673
914.226	6673
914.34	6631
914.453	6441
914.566	6593
914.68	6513
914.793	6483
914.906	6410
915.019	6407
915.132	6384
915.245	6506
915.358	6513
915.47	6414
915.583	6452
915.696	6479
915.809	6574
915.921	6498
916.034	6456
916.146	6429
916.259	6441
916.371	6448
916.483	6490
916.595	6380
916.708	6410
916.82	6452
916.932	6342
917.044	6437
917.156	6471
917.268	6334
917.38	6311
917.491	6350
917.603	6395
917.715	6422
917.826	6479
917.938	6384
918.049	6277
918.161	6372
918.272	6452
918.384	6494
918.495	6361
918.606	6327
918.717	6262
918.828	6277
918.939	6308
919.05	6205
919.161	6296
919.272	6155
919.383	6163
919.494	6296
919.604	6494
919.715	6304
919.826	6224
919.936	6281
920.047	6395
920.157	6266
920.267	6490
920.378	6289
920.488	6308
920.598	6456
920.708	6623
920.818	6479
920.928	6532
921.038	6646
921.148	6612
921.258	6437
921.368	6296
921.477	6258
921.587	6209
921.697	6095
921.806	6194
921.916	6098
922.025	5992
922.134	5923
922.244	5870
922.353	5965
922.462	5840
922.571	5809
922.68	5729
922.789	5691
922.898	5714
923.007	5604
923.116	5737
923.224	5688
923.333	5714
923.442	5592
923.55	5600
923.659	5668
923.767	5592
923.876	5505
923.984	5611
924.092	5512
924.201	5619
924.309	5589
924.417	5611
924.525	5455
924.633	5528
924.741	6327
924.849	5387
924.956	5471
925.064	5379
925.172	5315
925.279	5345
925.387	5387
925.494	5330
925.602	5425
925.709	5436
925.816	5299
925.924	5299
926.031	5391
926.138	5311
926.245	5357
926.352	5223
926.459	5334
926.566	5303
926.673	5254
926.779	5181
926.886	5079
926.993	5037
927.099	5003
927.206	5006
927.312	4980
927.419	5010
927.525	4976
927.631	5041
927.737	4946
927.843	4900
927.95	4805
928.056	4805
928.162	4850
928.267	4854
928.373	5280
928.479	4885
928.585	4729
928.69	4725
928.796	4793
928.901	4668
929.007	4573
929.112	4694
929.218	4630
929.323	4565
929.428	4565
929.533	4691
929.638	4481
929.743	4516
929.848	4538
929.953	4508
930.058	4432
930.163	4352
930.267	4333
930.372	4493
930.477	4344
930.581	4478
930.685	4363
930.79	4287
930.894	4280
930.998	4325
931.103	4383
931.207	4162
931.311	4055
931.415	4029
931.519	3930
931.623	3941
