Data from glass_V78500241_615.txt Node
Date: Wed Sep 01 19:18:45 CST 2021
User: usil
Spectrometer: V785-0024
Trigger mode: 0
Integration Time (sec): 4.000000E-1
Scans to average: 1
Nonlinearity correction enabled: false
Boxcar width: 0
Storing dark spectrum: false
XAxis mode: Wavelengths
Number of Pixels in Spectrum: 1024
>>>>>Begin Spectral Data<<<<<
801.071	3743
801.214	3747
801.356	3686
801.499	3793
801.641	3766
801.783	3808
801.926	3892
802.068	3846
802.211	3915
802.353	3884
802.496	3846
802.638	3884
802.78	3953
802.923	3926
803.065	3899
803.208	3842
803.35	3873
803.492	3873
803.635	3953
803.777	3827
803.919	3876
804.061	4200
804.204	3975
804.346	3956
804.488	3918
804.63	4051
804.773	3964
804.915	4044
805.057	4139
805.199	4067
805.341	4097
805.483	4139
805.626	4147
805.768	4112
805.91	4207
806.052	4238
806.194	4242
806.336	4360
806.478	4265
806.62	4131
806.762	4215
806.904	4242
807.046	4329
807.188	4196
807.33	4166
807.472	4253
807.614	4196
807.756	4272
807.898	4246
808.04	4223
808.182	4295
808.324	4303
808.465	4379
808.607	4485
808.749	4424
808.891	4466
809.033	4542
809.174	4436
809.316	4284
809.458	4284
809.6	4173
809.741	4204
809.883	4150
810.025	4234
810.166	4246
810.308	4249
810.45	4219
810.591	4261
810.733	4268
810.875	4485
811.016	4774
811.158	5166
811.299	5322
811.441	5334
811.582	5094
811.724	4702
811.865	4470
812.007	4500
812.148	4455
812.29	4421
812.431	4421
812.573	4417
812.714	4367
812.855	4394
812.997	4379
813.138	4538
813.279	4451
813.421	4405
813.562	4428
813.703	4356
813.845	4329
813.986	4310
814.127	4272
814.268	4280
814.41	4310
814.551	4287
814.692	4337
814.833	4268
814.974	4333
815.115	4344
815.256	4246
815.397	4261
815.539	4242
815.68	4215
815.821	4211
815.962	4333
816.103	4280
816.244	4257
816.385	4253
816.526	4299
816.666	4192
816.807	4158
816.948	4169
817.089	4223
817.23	4143
817.371	4051
817.512	4044
817.653	4044
817.793	4086
817.934	4059
818.075	4112
818.216	4051
818.356	4128
818.497	3968
818.638	3941
818.778	3941
818.919	3926
819.06	3937
819.2	3968
819.341	3892
819.481	3861
819.622	3903
819.762	4025
819.903	3937
820.043	3854
820.184	3842
820.324	3831
820.465	3880
820.605	3873
820.746	3861
820.886	3827
821.026	3956
821.167	3922
821.307	3968
821.447	4006
821.588	3911
821.728	3968
821.868	3941
822.008	3880
822.149	3949
822.289	3937
822.429	3747
822.569	3770
822.709	3831
822.849	3732
822.99	3762
823.13	3732
823.27	3785
823.41	3751
823.55	3686
823.69	3724
823.83	3755
823.97	3728
824.11	3622
824.25	3610
824.389	3652
824.529	3660
824.669	3606
824.809	3694
824.949	3778
825.089	3732
825.228	3766
825.368	3606
825.508	3587
825.648	3606
825.787	3591
825.927	3682
826.067	3648
826.206	3671
826.346	3808
826.485	3831
826.625	3865
826.765	3949
826.904	3835
827.044	3644
827.183	3507
827.323	3458
827.462	3492
827.601	3466
827.741	3409
827.88	3447
828.02	3431
828.159	3458
828.298	3511
828.437	3526
828.577	3458
828.716	3610
828.855	3507
828.994	3363
829.134	3367
829.273	3405
829.412	3344
829.551	3340
829.69	3351
829.829	3431
829.968	3538
830.107	3424
830.246	3450
830.385	3409
830.524	3378
830.663	3321
830.802	3306
830.941	3222
831.08	3214
831.219	3275
831.357	3279
831.496	3443
831.635	3256
831.774	3188
831.913	3192
832.051	3108
832.19	3157
832.329	3256
832.467	3131
832.606	3142
832.744	3173
832.883	3199
833.022	3195
833.16	3306
833.299	3306
833.437	3370
833.576	3355
833.714	3454
833.852	3481
833.991	3469
834.129	3454
834.267	3458
834.406	3420
834.544	3439
834.682	3443
834.821	3393
834.959	3523
835.097	3466
835.235	3576
835.373	3492
835.511	3545
835.65	3500
835.788	3515
835.926	3336
836.064	3374
836.202	3416
836.34	3580
836.478	3648
836.615	3523
836.753	3595
836.891	3637
837.029	3667
837.167	3644
837.305	3542
837.443	3549
837.58	3511
837.718	3603
837.856	3568
837.993	3538
838.131	3618
838.269	3572
838.406	3618
838.544	3603
838.681	3481
838.819	3443
838.956	3401
839.094	3416
839.231	3462
839.369	3568
839.506	3736
839.643	3648
839.781	3500
839.918	3439
840.055	3534
840.193	3523
840.33	3504
840.467	3549
840.604	3641
840.742	3835
840.879	3572
841.016	3568
841.153	3648
841.29	3755
841.427	3690
841.564	3755
841.701	3740
841.838	3743
841.975	3720
842.112	3766
842.249	3660
842.385	3671
842.522	3835
842.659	3679
842.796	3682
842.933	3720
843.069	3720
843.206	3732
843.343	3804
843.479	3778
843.616	3797
843.752	3656
843.889	3709
844.025	3873
844.162	3766
844.298	3873
844.435	3774
844.571	3816
844.708	3907
844.844	4017
844.98	4036
845.117	4040
845.253	3964
845.389	3888
845.525	3972
845.661	4029
845.798	3930
845.934	4029
846.07	3953
846.206	4090
846.342	4124
846.478	4055
846.614	3998
846.75	3953
846.886	3930
847.022	4124
847.158	4002
847.294	3991
847.429	4010
847.565	4013
847.701	4265
847.837	3899
847.972	3869
848.108	4002
848.244	4013
848.379	3903
848.515	3823
848.65	3861
848.786	3865
848.921	3869
849.057	3892
849.192	3953
849.328	3884
849.463	3915
849.598	3907
849.734	3896
849.869	3880
850.004	3785
850.14	3869
850.275	3816
850.41	3793
850.545	3770
850.68	3755
850.815	3831
850.95	3823
851.085	3926
851.22	3926
851.355	3831
851.49	3793
851.625	3808
851.76	3774
851.895	3759
852.03	3736
852.165	3838
852.299	3850
852.434	3907
852.569	3846
852.703	3915
852.838	3968
852.973	3964
853.107	3983
853.242	3934
853.376	3842
853.511	3770
853.645	3857
853.78	4006
853.914	3896
854.048	3896
854.183	3930
854.317	3968
854.451	4101
854.585	3979
854.72	3941
854.854	4051
854.988	3953
855.122	4017
855.256	3972
855.39	4036
855.524	4116
855.658	4131
855.792	4150
855.926	4135
856.06	4173
856.194	4200
856.327	4173
856.461	4192
856.595	4169
856.729	4200
856.862	4306
856.996	4299
857.13	4284
857.263	4303
857.397	4398
857.53	4276
857.664	4390
857.797	4421
857.931	4424
858.064	4379
858.197	4474
858.331	4394
858.464	4405
858.597	4333
858.731	4413
858.864	4436
858.997	4531
859.13	4573
859.263	4542
859.396	4622
859.529	4535
859.662	4527
859.795	4516
859.928	4634
860.061	4710
860.194	4763
860.327	4656
860.46	4660
860.592	4694
860.725	4790
860.858	4759
860.99	4698
861.123	4668
861.256	4729
861.388	4740
861.521	5421
861.653	4733
861.786	4729
861.918	4740
862.05	4812
862.183	4812
862.315	4927
862.447	4949
862.58	4858
862.712	4839
862.844	4774
862.976	4866
863.108	4896
863.24	5170
863.372	4877
863.504	4873
863.636	4919
863.768	5029
863.9	5018
864.032	4919
864.164	4957
864.296	5033
864.428	5113
864.559	5090
864.691	5117
864.823	5090
864.954	5102
865.086	5189
865.217	5185
865.349	5098
865.48	5155
865.612	5193
865.743	5265
865.875	5208
866.006	5220
866.137	5292
866.269	5212
866.4	5261
866.531	5258
866.662	5204
866.793	5292
866.924	5299
867.055	5349
867.186	5345
867.317	5307
867.448	5318
867.579	5353
867.71	5433
867.841	5391
867.972	5505
868.103	5501
868.233	5505
868.364	5501
868.495	5512
868.625	5672
868.756	5824
868.886	5688
869.017	5764
869.147	5840
869.278	5844
869.408	5878
869.539	5836
869.669	5897
869.799	5946
869.929	6022
870.06	6019
870.19	6152
870.32	6209
870.45	6205
870.58	6365
870.71	6448
870.84	6483
870.97	6471
871.1	6452
871.23	6753
871.36	6684
871.489	6719
871.619	6730
871.749	6840
871.879	6890
872.008	7000
872.138	6935
872.267	7019
872.397	7034
872.526	7034
872.656	7149
872.785	7206
872.915	7415
873.044	7605
873.173	7590
873.303	7681
873.432	7772
873.561	7887
873.69	7970
873.819	7978
873.948	8187
874.077	8240
874.206	8252
874.335	8457
874.464	8689
874.593	8864
874.722	8853
874.851	9146
874.979	9272
875.108	9397
875.237	9386
875.365	9473
875.494	9671
875.623	9865
875.751	9831
875.88	10025
876.008	10055
876.136	10360
876.265	10554
876.393	10763
876.521	10729
876.65	10850
876.778	10900
876.906	10953
877.034	10999
877.162	11174
877.29	11109
877.418	11246
877.546	11398
877.674	11448
877.802	11486
877.93	11604
878.058	11512
878.185	11532
878.313	11676
878.441	11748
878.568	11684
878.696	11828
878.824	11870
878.951	11973
879.079	11935
879.206	12178
879.333	12060
879.461	11973
879.588	12117
879.715	12041
879.842	12194
879.97	12114
880.097	11851
880.224	11843
880.351	11821
880.478	11904
880.605	11874
880.732	11809
880.859	12019
880.986	11798
881.112	11935
881.239	11608
881.366	11649
881.493	11653
881.619	11532
881.746	11543
881.872	11566
881.999	11516
882.125	11562
882.252	11627
882.378	11505
882.505	11554
882.631	11425
882.757	11322
882.883	11303
883.01	11258
883.136	11231
883.262	11124
883.388	11025
883.514	11162
883.64	11113
883.766	11128
883.892	10949
884.018	10991
884.143	11075
884.269	11064
884.395	10767
884.52	10771
884.646	10847
884.772	10698
884.897	10626
885.023	10706
885.148	10698
885.274	10820
885.399	10691
885.524	10607
885.65	10588
885.775	10550
885.9	10577
886.025	10561
886.15	10535
886.275	10455
886.4	10344
886.525	10459
886.65	10337
886.775	10306
886.9	10531
887.025	10630
887.149	10333
887.274	10234
887.399	10147
887.523	10219
887.648	10147
887.773	10128
887.897	10280
888.021	10219
888.146	10086
888.27	10242
888.395	10249
888.519	10109
888.643	10139
888.767	10188
888.891	10109
889.015	9994
889.139	10036
889.263	10002
889.387	10074
889.511	10196
889.635	10101
889.759	10021
889.883	9972
890.006	10002
890.13	10090
890.254	9960
890.377	9991
890.501	9880
890.624	9804
890.748	9918
890.871	9808
890.995	9743
891.118	9713
891.241	9747
891.364	9781
891.488	9816
891.611	9751
891.734	9747
891.857	9850
891.98	9713
892.103	9797
892.226	9717
892.349	9667
892.471	9515
892.594	9603
892.717	9591
892.839	9603
892.962	9656
893.085	9698
893.207	9576
893.33	9561
893.452	9485
893.575	9610
893.697	9542
893.819	9641
893.941	9618
894.064	9610
894.186	9485
894.308	9458
894.43	9553
894.552	9610
894.674	9526
894.796	9416
894.918	9408
895.04	9351
895.161	9408
895.283	9351
895.405	9287
895.526	9298
895.648	9268
895.769	9237
895.891	9253
896.012	9291
896.134	9188
896.255	9226
896.376	9150
896.498	9142
896.619	9135
896.74	9116
896.861	9195
896.982	9348
897.103	9321
897.224	9256
897.345	9047
897.466	9036
897.587	9077
897.708	9070
897.828	8986
897.949	8918
898.07	8899
898.19	8963
898.311	9001
898.431	8929
898.552	8948
898.672	9005
898.792	9001
898.913	8986
899.033	8872
899.153	8750
899.273	8697
899.393	8724
899.513	8838
899.633	8754
899.753	8804
899.873	8739
899.993	8682
900.113	8686
900.232	8781
900.352	8655
900.472	8579
900.591	8617
900.711	8625
900.83	8579
900.95	8663
901.069	8735
901.189	8583
901.308	8446
901.427	8446
901.546	8473
901.665	8434
901.784	8457
901.904	8454
902.023	8366
902.141	8210
902.26	8218
902.379	8279
902.498	8267
902.617	8259
902.735	8267
902.854	8298
902.973	8214
903.091	8161
903.21	8115
903.328	8191
903.446	8172
903.565	8058
903.683	8153
903.801	8043
903.919	8172
904.038	8161
904.156	8073
904.274	8084
904.392	8092
904.51	8027
904.627	8043
904.745	8054
904.863	8069
904.981	7906
905.098	7902
905.216	7879
905.334	7921
905.451	7963
905.569	7902
905.686	7909
905.803	7959
905.921	7792
906.038	7871
906.155	7860
906.272	7742
906.389	7742
906.506	7715
906.623	7651
906.74	7636
906.857	7601
906.974	7537
907.091	7674
907.208	7746
907.324	7616
907.441	7559
907.557	7464
907.674	7510
907.79	7419
907.907	7377
908.023	7438
908.139	7441
908.256	7407
908.372	7346
908.488	7331
908.604	7270
908.72	7255
908.836	7285
908.952	7266
909.068	7236
909.184	7305
909.3	7282
909.415	7320
909.531	7407
909.647	7183
909.762	7145
909.878	7190
909.993	7129
910.108	7050
910.224	7053
910.339	7118
910.454	7065
910.57	6989
910.685	6981
910.8	7206
910.915	7103
911.03	7008
911.145	6962
911.259	6875
911.374	6954
911.489	6837
911.604	6795
911.718	6700
911.833	6760
911.947	6616
912.062	6665
912.176	6734
912.291	6707
912.405	6730
912.519	6833
912.633	6856
912.748	6753
912.862	6684
912.976	6601
913.09	6540
913.204	6582
913.318	6673
913.431	6669
913.545	6696
913.659	6753
913.772	6654
913.886	6589
914	6601
914.113	6654
914.226	6642
914.34	6665
914.453	6536
914.566	6639
914.68	6566
914.793	6559
914.906	6467
915.019	6422
915.132	6346
915.245	6433
915.358	6429
915.47	6452
915.583	6429
915.696	6464
915.809	6566
915.921	6578
916.034	6448
916.146	6483
916.259	6376
916.371	6517
916.483	6513
916.595	6391
916.708	6426
916.82	6422
916.932	6422
917.044	6403
917.156	6376
917.268	6289
917.38	6331
917.491	6331
917.603	6422
917.715	6369
917.826	6479
917.938	6346
918.049	6277
918.161	6331
918.272	6418
918.384	6445
918.495	6350
918.606	6331
918.717	6224
918.828	6258
918.939	6273
919.05	6216
919.161	6273
919.272	6197
919.383	6163
919.494	6350
919.604	6380
919.715	6315
919.826	6254
919.936	6251
920.047	6334
920.157	6308
920.267	6467
920.378	6346
920.488	6296
920.598	6452
920.708	6563
920.818	6517
920.928	6388
921.038	6612
921.148	6540
921.258	6361
921.368	6296
921.477	6216
921.587	6220
921.697	6140
921.806	6220
921.916	6049
922.025	5992
922.134	5961
922.244	5931
922.353	5935
922.462	5798
922.571	5802
922.68	5710
922.789	5714
922.898	5718
923.007	5649
923.116	5695
923.224	5722
923.333	5718
923.442	5653
923.55	5615
923.659	5627
923.767	5592
923.876	5554
923.984	5592
924.092	5539
924.201	5585
924.309	5535
924.417	5581
924.525	5497
924.633	5547
924.741	6277
924.849	5425
924.956	5452
925.064	5322
925.172	5299
925.279	5353
925.387	5376
925.494	5334
925.602	5398
925.709	5379
925.816	5288
925.924	5349
926.031	5341
926.138	5307
926.245	5330
926.352	5322
926.459	5337
926.566	5383
926.673	5208
926.779	5201
926.886	5181
926.993	5075
927.099	4984
927.206	4991
927.312	4938
927.419	5022
927.525	5010
927.631	4987
927.737	4938
927.843	4858
927.95	4824
928.056	4854
928.162	4828
928.267	4892
928.373	5235
928.479	4877
928.585	4694
928.69	4771
928.796	4778
928.901	4717
929.007	4615
929.112	4736
929.218	4630
929.323	4615
929.428	4573
929.533	4755
929.638	4531
929.743	4569
929.848	4565
929.953	4535
930.058	4451
930.163	4306
930.267	4299
930.372	4462
930.477	4333
930.581	4497
930.685	4303
930.79	4257
930.894	4310
930.998	4280
931.103	4375
931.207	4116
931.311	4131
931.415	4051
931.519	3956
931.623	3949
