Data from glass_V78500241_1805.txt Node
Date: Wed Sep 01 19:27:00 CST 2021
User: usil
Spectrometer: V785-0024
Trigger mode: 0
Integration Time (sec): 4.000000E-1
Scans to average: 1
Nonlinearity correction enabled: false
Boxcar width: 0
Storing dark spectrum: false
XAxis mode: Wavelengths
Number of Pixels in Spectrum: 1024
>>>>>Begin Spectral Data<<<<<
801.071	3736
801.214	3732
801.356	3679
801.499	3698
801.641	3698
801.783	3770
801.926	3857
802.068	3793
802.211	3804
802.353	3896
802.496	3823
802.638	3869
802.78	3918
802.923	3937
803.065	3876
803.208	3797
803.35	3850
803.492	3869
803.635	3876
803.777	3827
803.919	3918
804.061	4169
804.204	3934
804.346	3934
804.488	3926
804.63	4017
804.773	3975
804.915	3994
805.057	4162
805.199	4017
805.341	4116
805.483	4135
805.626	4097
805.768	4120
805.91	4253
806.052	4219
806.194	4177
806.336	4337
806.478	4230
806.62	4109
806.762	4185
806.904	4215
807.046	4352
807.188	4196
807.33	4139
807.472	4230
807.614	4166
807.756	4246
807.898	4200
808.04	4185
808.182	4295
808.324	4310
808.465	4367
808.607	4459
808.749	4436
808.891	4440
809.033	4455
809.174	4417
809.316	4246
809.458	4268
809.6	4166
809.741	4131
809.883	4116
810.025	4219
810.166	4188
810.308	4257
810.45	4234
810.591	4215
810.733	4261
810.875	4531
811.016	4801
811.158	5143
811.299	5307
811.441	5315
811.582	5128
811.724	4748
811.865	4500
812.007	4455
812.148	4413
812.29	4432
812.431	4394
812.573	4386
812.714	4390
812.855	4386
812.997	4409
813.138	4413
813.279	4447
813.421	4394
813.562	4402
813.703	4295
813.845	4367
813.986	4265
814.127	4230
814.268	4246
814.41	4272
814.551	4295
814.692	4344
814.833	4234
814.974	4314
815.115	4310
815.256	4234
815.397	4207
815.539	4272
815.68	4196
815.821	4154
815.962	4356
816.103	4238
816.244	4230
816.385	4246
816.526	4299
816.666	4188
816.807	4120
816.948	4173
817.089	4181
817.23	4139
817.371	4093
817.512	4048
817.653	4082
817.793	4010
817.934	4002
818.075	4082
818.216	4124
818.356	4078
818.497	4010
818.638	3911
818.778	3915
818.919	3869
819.06	3888
819.2	3907
819.341	3865
819.481	3842
819.622	3922
819.762	4025
819.903	3930
820.043	3857
820.184	3816
820.324	3800
820.465	3827
820.605	3888
820.746	3880
820.886	3793
821.026	3903
821.167	3926
821.307	3968
821.447	3964
821.588	3937
821.728	3960
821.868	3983
822.008	3842
822.149	3903
822.289	3937
822.429	3770
822.569	3793
822.709	3812
822.849	3713
822.99	3694
823.13	3732
823.27	3759
823.41	3740
823.55	3747
823.69	3720
823.83	3709
823.97	3717
824.11	3644
824.25	3614
824.389	3656
824.529	3648
824.669	3610
824.809	3675
824.949	3759
825.089	3713
825.228	3713
825.368	3595
825.508	3584
825.648	3591
825.787	3599
825.927	3622
826.067	3667
826.206	3663
826.346	3819
826.485	3812
826.625	3869
826.765	3930
826.904	3854
827.044	3599
827.183	3504
827.323	3469
827.462	3481
827.601	3466
827.741	3443
827.88	3435
828.02	3405
828.159	3435
828.298	3462
828.437	3526
828.577	3462
828.716	3542
828.855	3500
828.994	3389
829.134	3321
829.273	3439
829.412	3359
829.551	3370
829.69	3336
829.829	3477
829.968	3519
830.107	3424
830.246	3412
830.385	3424
830.524	3313
830.663	3317
830.802	3275
830.941	3195
831.08	3184
831.219	3253
831.357	3249
831.496	3401
831.635	3214
831.774	3188
831.913	3218
832.051	3116
832.19	3169
832.329	3184
832.467	3127
832.606	3116
832.744	3199
832.883	3169
833.022	3135
833.16	3291
833.299	3264
833.437	3325
833.576	3363
833.714	3355
833.852	3466
833.991	3466
834.129	3458
834.267	3458
834.406	3386
834.544	3458
834.682	3447
834.821	3378
834.959	3580
835.097	3389
835.235	3542
835.373	3431
835.511	3530
835.65	3488
835.788	3496
835.926	3359
836.064	3367
836.202	3420
836.34	3572
836.478	3622
836.615	3538
836.753	3549
836.891	3641
837.029	3576
837.167	3580
837.305	3534
837.443	3545
837.58	3492
837.718	3599
837.856	3549
837.993	3557
838.131	3564
838.269	3591
838.406	3595
838.544	3564
838.681	3431
838.819	3447
838.956	3393
839.094	3393
839.231	3462
839.369	3511
839.506	3713
839.643	3625
839.781	3515
839.918	3477
840.055	3496
840.193	3530
840.33	3492
840.467	3576
840.604	3580
840.742	3812
840.879	3557
841.016	3545
841.153	3576
841.29	3789
841.427	3709
841.564	3705
841.701	3732
841.838	3717
841.975	3686
842.112	3667
842.249	3637
842.385	3610
842.522	3781
842.659	3679
842.796	3641
842.933	3686
843.069	3644
843.206	3728
843.343	3774
843.479	3755
843.616	3816
843.752	3675
843.889	3698
844.025	3827
844.162	3728
844.298	3831
844.435	3770
844.571	3743
844.708	3896
844.844	3998
844.98	3991
845.117	3998
845.253	3911
845.389	3861
845.525	3987
845.661	3979
845.798	3915
845.934	4025
846.07	3972
846.206	4086
846.342	4071
846.478	4051
846.614	3964
846.75	3930
846.886	3937
847.022	4059
847.158	3991
847.294	3991
847.429	3994
847.565	4002
847.701	4227
847.837	3903
847.972	3892
848.108	3979
848.244	3987
848.379	3861
848.515	3785
848.65	3789
848.786	3857
848.921	3876
849.057	3934
849.192	3937
849.328	3945
849.463	3934
849.598	3911
849.734	3880
849.869	3846
850.004	3747
850.14	3835
850.275	3743
850.41	3736
850.545	3751
850.68	3804
850.815	3766
850.95	3800
851.085	3968
851.22	3846
851.355	3838
851.49	3789
851.625	3804
851.76	3789
851.895	3724
852.03	3713
852.165	3831
852.299	3838
852.434	3896
852.569	3857
852.703	3873
852.838	3922
852.973	3979
853.107	4055
853.242	3926
853.376	3888
853.511	3804
853.645	3823
853.78	3975
853.914	3918
854.048	3876
854.183	3934
854.317	3960
854.451	4036
854.585	3930
854.72	3930
854.854	4063
854.988	3922
855.122	4006
855.256	3907
855.39	3998
855.524	4105
855.658	4090
855.792	4128
855.926	4143
856.06	4169
856.194	4265
856.327	4120
856.461	4147
856.595	4120
856.729	4169
856.862	4268
856.996	4219
857.13	4299
857.263	4375
857.397	4367
857.53	4295
857.664	4360
857.797	4405
857.931	4424
858.064	4394
858.197	4462
858.331	4371
858.464	4394
858.597	4329
858.731	4424
858.864	4440
858.997	4428
859.13	4523
859.263	4569
859.396	4558
859.529	4546
859.662	4531
859.795	4519
859.928	4565
860.061	4729
860.194	4763
860.327	4668
860.46	4694
860.592	4660
860.725	4733
860.858	4740
860.99	4733
861.123	4698
861.256	4645
861.388	4763
861.521	5402
861.653	4694
861.786	4687
861.918	4763
862.05	4824
862.183	4816
862.315	4850
862.447	4908
862.58	4873
862.712	4816
862.844	4763
862.976	4904
863.108	4843
863.24	5250
863.372	4828
863.504	4908
863.636	4904
863.768	4919
863.9	4934
864.032	4904
864.164	4984
864.296	5018
864.428	5056
864.559	5079
864.691	5174
864.823	5083
864.954	5124
865.086	5159
865.217	5124
865.349	5048
865.48	5155
865.612	5174
865.743	5277
865.875	5201
866.006	5223
866.137	5250
866.269	5250
866.4	5216
866.531	5265
866.662	5277
866.793	5265
866.924	5303
867.055	5364
867.186	5337
867.317	5292
867.448	5288
867.579	5372
867.71	5425
867.841	5368
867.972	5444
868.103	5482
868.233	5474
868.364	5528
868.495	5490
868.625	5688
868.756	5794
868.886	5707
869.017	5707
869.147	5885
869.278	5882
869.408	5790
869.539	5836
869.669	5904
869.799	5954
869.929	5961
870.06	5999
870.19	6251
870.32	6190
870.45	6277
870.58	6315
870.71	6395
870.84	6437
870.97	6384
871.1	6388
871.23	6688
871.36	6673
871.489	6692
871.619	6768
871.749	6833
871.879	6894
872.008	6909
872.138	6928
872.267	6985
872.397	6989
872.526	7038
872.656	7072
872.785	7145
872.915	7438
873.044	7525
873.173	7575
873.303	7567
873.432	7708
873.561	7887
873.69	7978
873.819	8039
873.948	8130
874.077	8218
874.206	8320
874.335	8457
874.464	8629
874.593	8891
874.722	8921
874.851	9154
874.979	9226
875.108	9367
875.237	9454
875.365	9496
875.494	9637
875.623	9797
875.751	9797
875.88	9968
876.008	10162
876.136	10234
876.265	10550
876.393	10706
876.521	10687
876.65	10858
876.778	10843
876.906	10896
877.034	10957
877.162	11109
877.29	11170
877.418	11231
877.546	11318
877.674	11459
877.802	11452
877.93	11482
878.058	11634
878.185	11596
878.313	11707
878.441	11771
878.568	11630
878.696	11897
878.824	11832
878.951	11847
879.079	11969
879.206	12091
879.333	12072
879.461	12053
879.588	12057
879.715	11999
879.842	12308
879.97	12019
880.097	11961
880.224	11847
880.351	11893
880.478	11893
880.605	11794
880.732	11779
880.859	12049
880.986	11897
881.112	11843
881.239	11676
881.366	11672
881.493	11627
881.619	11524
881.746	11558
881.872	11512
881.999	11592
882.125	11543
882.252	11535
882.378	11558
882.505	11573
882.631	11368
882.757	11273
882.883	11239
883.01	11269
883.136	11208
883.262	11136
883.388	11147
883.514	11193
883.64	11102
883.766	11037
883.892	10976
884.018	11003
884.143	11079
884.269	11071
884.395	10847
884.52	10771
884.646	10790
884.772	10774
884.897	10672
885.023	10683
885.148	10679
885.274	10786
885.399	10736
885.524	10550
885.65	10618
885.775	10603
885.9	10637
886.025	10561
886.15	10584
886.275	10500
886.4	10379
886.525	10417
886.65	10371
886.775	10352
886.9	10466
887.025	10500
887.149	10337
887.274	10238
887.399	10173
887.523	10215
887.648	10112
887.773	10150
887.897	10223
888.021	10242
888.146	10101
888.27	10253
888.395	10207
888.519	10200
888.643	10154
888.767	10223
888.891	10051
889.015	10032
889.139	10150
889.263	9968
889.387	10071
889.511	10120
889.635	10120
889.759	10025
889.883	10010
890.006	10097
890.13	10097
890.254	9926
890.377	9926
890.501	9880
890.624	9895
890.748	9922
890.871	9838
890.995	9705
891.118	9709
891.241	9789
891.364	9770
891.488	9823
891.611	9759
891.734	9762
891.857	9728
891.98	9656
892.103	9793
892.226	9793
892.349	9629
892.471	9526
892.594	9564
892.717	9614
892.839	9587
892.962	9500
893.085	9629
893.207	9679
893.33	9542
893.452	9519
893.575	9553
893.697	9584
893.819	9660
893.941	9644
894.064	9526
894.186	9420
894.308	9359
894.43	9523
894.552	9587
894.674	9553
894.796	9370
894.918	9416
895.04	9275
895.161	9397
895.283	9405
895.405	9256
895.526	9207
895.648	9283
895.769	9245
895.891	9260
896.012	9329
896.134	9199
896.255	9192
896.376	9169
896.498	9123
896.619	9169
896.74	9085
896.861	9173
896.982	9283
897.103	9302
897.224	9214
897.345	9077
897.466	9051
897.587	9017
897.708	9097
897.828	9001
897.949	8975
898.07	8937
898.19	8861
898.311	8994
898.431	8948
898.552	8918
898.672	8914
898.792	8963
898.913	8842
899.033	8876
899.153	8667
899.273	8651
899.393	8712
899.513	8739
899.633	8758
899.753	8766
899.873	8689
899.993	8735
900.113	8663
900.232	8655
900.352	8610
900.472	8590
900.591	8533
900.711	8644
900.83	8556
900.95	8674
901.069	8701
901.189	8625
901.308	8419
901.427	8412
901.546	8434
901.665	8465
901.784	8526
901.904	8336
902.023	8339
902.141	8206
902.26	8221
902.379	8290
902.498	8183
902.617	8187
902.735	8305
902.854	8248
902.973	8271
903.091	8073
903.21	8138
903.328	8145
903.446	8157
903.565	8016
903.683	8107
903.801	8039
903.919	8103
904.038	8153
904.156	8050
904.274	8043
904.392	7989
904.51	8035
904.627	8035
904.745	8062
904.863	8119
904.981	7959
905.098	7830
905.216	7845
905.334	7936
905.451	7921
905.569	7890
905.686	7986
905.803	7883
905.921	7772
906.038	7890
906.155	7868
906.272	7689
906.389	7734
906.506	7636
906.623	7616
906.74	7647
906.857	7537
906.974	7639
907.091	7620
907.208	7708
907.324	7628
907.441	7567
907.557	7464
907.674	7422
907.79	7335
907.907	7468
908.023	7472
908.139	7457
908.256	7358
908.372	7369
908.488	7316
908.604	7225
908.72	7198
908.836	7270
908.952	7187
909.068	7285
909.184	7278
909.3	7236
909.415	7259
909.531	7251
909.647	7088
909.762	7126
909.878	7069
909.993	7187
910.108	7069
910.224	7057
910.339	7095
910.454	7084
910.57	7019
910.685	6954
910.8	7118
910.915	7065
911.03	7008
911.145	6901
911.259	6932
911.374	6905
911.489	6890
911.604	6840
911.718	6753
911.833	6730
911.947	6665
912.062	6616
912.176	6688
912.291	6715
912.405	6665
912.519	6791
912.633	6787
912.748	6726
912.862	6741
912.976	6639
913.09	6494
913.204	6589
913.318	6585
913.431	6578
913.545	6669
913.659	6779
913.772	6616
913.886	6540
914	6532
914.113	6631
914.226	6627
914.34	6646
914.453	6570
914.566	6578
914.68	6517
914.793	6521
914.906	6403
915.019	6407
915.132	6365
915.245	6395
915.358	6452
915.47	6391
915.583	6513
915.696	6445
915.809	6506
915.921	6544
916.034	6399
916.146	6361
916.259	6418
916.371	6464
916.483	6464
916.595	6399
916.708	6429
916.82	6384
916.932	6395
917.044	6372
917.156	6376
917.268	6372
917.38	6292
917.491	6311
917.603	6380
917.715	6391
917.826	6376
917.938	6300
918.049	6228
918.161	6315
918.272	6418
918.384	6422
918.495	6311
918.606	6277
918.717	6194
918.828	6285
918.939	6304
919.05	6163
919.161	6258
919.272	6136
919.383	6197
919.494	6311
919.604	6376
919.715	6243
919.826	6262
919.936	6182
920.047	6292
920.157	6258
920.267	6467
920.378	6327
920.488	6323
920.598	6452
920.708	6532
920.818	6486
920.928	6433
921.038	6563
921.148	6593
921.258	6331
921.368	6251
921.477	6224
921.587	6178
921.697	6038
921.806	6171
921.916	6114
922.025	5977
922.134	5904
922.244	5920
922.353	5958
922.462	5832
922.571	5771
922.68	5714
922.789	5634
922.898	5726
923.007	5649
923.116	5680
923.224	5714
923.333	5661
923.442	5566
923.55	5547
923.659	5581
923.767	5672
923.876	5512
923.984	5589
924.092	5512
924.201	5501
924.309	5562
924.417	5551
924.525	5509
924.633	5478
924.741	6304
924.849	5376
924.956	5501
925.064	5372
925.172	5277
925.279	5322
925.387	5368
925.494	5296
925.602	5414
925.709	5379
925.816	5315
925.924	5330
926.031	5334
926.138	5303
926.245	5337
926.352	5254
926.459	5246
926.566	5288
926.673	5159
926.779	5121
926.886	5124
926.993	5022
927.099	5018
927.206	4980
927.312	4919
927.419	4984
927.525	4965
927.631	4957
927.737	4892
927.843	4820
927.95	4771
928.056	4805
928.162	4793
928.267	4839
928.373	5307
928.479	4824
928.585	4687
928.69	4725
928.796	4797
928.901	4660
929.007	4607
929.112	4634
929.218	4634
929.323	4558
929.428	4550
929.533	4691
929.638	4508
929.743	4565
929.848	4550
929.953	4474
930.058	4424
930.163	4295
930.267	4344
930.372	4417
930.477	4341
930.581	4443
930.685	4371
930.79	4211
930.894	4276
930.998	4257
931.103	4337
931.207	4124
931.311	4063
931.415	4078
931.519	3945
931.623	3937
