Data from glass_V78500241_319.txt Node
Date: Wed Sep 01 19:16:42 CST 2021
User: usil
Spectrometer: V785-0024
Trigger mode: 0
Integration Time (sec): 4.000000E-1
Scans to average: 1
Nonlinearity correction enabled: false
Boxcar width: 0
Storing dark spectrum: false
XAxis mode: Wavelengths
Number of Pixels in Spectrum: 1024
>>>>>Begin Spectral Data<<<<<
801.071	3736
801.214	3755
801.356	3679
801.499	3751
801.641	3781
801.783	3797
801.926	3861
802.068	3831
802.211	3865
802.353	3918
802.496	3888
802.638	3892
802.78	3896
802.923	3972
803.065	3888
803.208	3899
803.35	3899
803.492	3899
803.635	3880
803.777	3793
803.919	3888
804.061	4139
804.204	4013
804.346	3979
804.488	3930
804.63	4048
804.773	3983
804.915	3979
805.057	4200
805.199	4086
805.341	4120
805.483	4128
805.626	4120
805.768	4131
805.91	4234
806.052	4238
806.194	4234
806.336	4383
806.478	4200
806.62	4166
806.762	4242
806.904	4287
807.046	4337
807.188	4223
807.33	4192
807.472	4253
807.614	4215
807.756	4295
807.898	4215
808.04	4249
808.182	4265
808.324	4333
808.465	4386
808.607	4428
808.749	4436
808.891	4440
809.033	4519
809.174	4455
809.316	4249
809.458	4314
809.6	4154
809.741	4158
809.883	4188
810.025	4230
810.166	4242
810.308	4219
810.45	4246
810.591	4249
810.733	4306
810.875	4519
811.016	4835
811.158	5140
811.299	5242
811.441	5284
811.582	5075
811.724	4653
811.865	4500
812.007	4474
812.148	4489
812.29	4436
812.431	4383
812.573	4413
812.714	4394
812.855	4440
812.997	4466
813.138	4459
813.279	4462
813.421	4402
813.562	4443
813.703	4363
813.845	4337
813.986	4306
814.127	4249
814.268	4310
814.41	4280
814.551	4257
814.692	4356
814.833	4227
814.974	4344
815.115	4383
815.256	4295
815.397	4268
815.539	4249
815.68	4234
815.821	4242
815.962	4291
816.103	4284
816.244	4238
816.385	4230
816.526	4276
816.666	4242
816.807	4143
816.948	4177
817.089	4177
817.23	4128
817.371	4078
817.512	4078
817.653	4051
817.793	4032
817.934	4029
818.075	4169
818.216	4093
818.356	4120
818.497	4006
818.638	3926
818.778	3930
818.919	3934
819.06	3911
819.2	3975
819.341	3880
819.481	3876
819.622	3972
819.762	4044
819.903	3960
820.043	3903
820.184	3861
820.324	3850
820.465	3922
820.605	3899
820.746	3945
820.886	3831
821.026	3945
821.167	3896
821.307	3979
821.447	3983
821.588	3983
821.728	3964
821.868	3968
822.008	3884
822.149	3956
822.289	3937
822.429	3770
822.569	3759
822.709	3816
822.849	3728
822.99	3717
823.13	3816
823.27	3808
823.41	3701
823.55	3724
823.69	3751
823.83	3759
823.97	3694
824.11	3644
824.25	3591
824.389	3648
824.529	3686
824.669	3644
824.809	3717
824.949	3759
825.089	3747
825.228	3736
825.368	3633
825.508	3614
825.648	3576
825.787	3644
825.927	3679
826.067	3656
826.206	3663
826.346	3778
826.485	3819
826.625	3888
826.765	3960
826.904	3869
827.044	3644
827.183	3523
827.323	3439
827.462	3473
827.601	3447
827.741	3439
827.88	3485
828.02	3420
828.159	3504
828.298	3481
828.437	3515
828.577	3485
828.716	3652
828.855	3496
828.994	3397
829.134	3401
829.273	3382
829.412	3378
829.551	3332
829.69	3401
829.829	3435
829.968	3504
830.107	3469
830.246	3450
830.385	3412
830.524	3370
830.663	3367
830.802	3283
830.941	3207
831.08	3203
831.219	3268
831.357	3294
831.496	3359
831.635	3283
831.774	3184
831.913	3218
832.051	3138
832.19	3176
832.329	3237
832.467	3150
832.606	3097
832.744	3180
832.883	3222
833.022	3222
833.16	3260
833.299	3313
833.437	3363
833.576	3397
833.714	3378
833.852	3458
833.991	3481
834.129	3462
834.267	3481
834.406	3397
834.544	3450
834.682	3420
834.821	3458
834.959	3580
835.097	3485
835.235	3523
835.373	3507
835.511	3485
835.65	3454
835.788	3523
835.926	3412
836.064	3397
836.202	3424
836.34	3606
836.478	3618
836.615	3553
836.753	3644
836.891	3663
837.029	3572
837.167	3584
837.305	3553
837.443	3519
837.58	3526
837.718	3580
837.856	3603
837.993	3564
838.131	3622
838.269	3580
838.406	3576
838.544	3580
838.681	3469
838.819	3454
838.956	3359
839.094	3389
839.231	3458
839.369	3504
839.506	3778
839.643	3648
839.781	3481
839.918	3511
840.055	3485
840.193	3599
840.33	3587
840.467	3564
840.604	3595
840.742	3804
840.879	3534
841.016	3606
841.153	3629
841.29	3774
841.427	3717
841.564	3736
841.701	3774
841.838	3762
841.975	3686
842.112	3701
842.249	3641
842.385	3618
842.522	3884
842.659	3705
842.796	3736
842.933	3698
843.069	3724
843.206	3743
843.343	3846
843.479	3755
843.616	3854
843.752	3671
843.889	3705
844.025	3857
844.162	3747
844.298	3846
844.435	3797
844.571	3762
844.708	3937
844.844	4013
844.98	4002
845.117	3998
845.253	3911
845.389	3911
845.525	3991
845.661	3975
845.798	3922
845.934	4025
846.07	3991
846.206	4051
846.342	4109
846.478	4090
846.614	3945
846.75	3987
846.886	3907
847.022	4051
847.158	4006
847.294	3983
847.429	4025
847.565	3979
847.701	4257
847.837	3876
847.972	3861
848.108	3987
848.244	3972
848.379	3838
848.515	3850
848.65	3835
848.786	3857
848.921	3903
849.057	3975
849.192	3937
849.328	3949
849.463	3968
849.598	3842
849.734	3873
849.869	3873
850.004	3762
850.14	3838
850.275	3785
850.41	3740
850.545	3766
850.68	3797
850.815	3823
850.95	3808
851.085	3922
851.22	3873
851.355	3808
851.49	3804
851.625	3823
851.76	3854
851.895	3770
852.03	3778
852.165	3823
852.299	3888
852.434	3896
852.569	3880
852.703	3888
852.838	3930
852.973	4029
853.107	3979
853.242	3892
853.376	3876
853.511	3819
853.645	3835
853.78	3987
853.914	3907
854.048	3918
854.183	3842
854.317	3945
854.451	4074
854.585	3968
854.72	3960
854.854	4044
854.988	3956
855.122	4021
855.256	3953
855.39	4067
855.524	4120
855.658	4124
855.792	4116
855.926	4188
856.06	4173
856.194	4230
856.327	4135
856.461	4074
856.595	4154
856.729	4177
856.862	4238
856.996	4265
857.13	4318
857.263	4348
857.397	4348
857.53	4287
857.664	4348
857.797	4466
857.931	4402
858.064	4386
858.197	4497
858.331	4409
858.464	4428
858.597	4390
858.731	4432
858.864	4474
858.997	4436
859.13	4580
859.263	4596
859.396	4584
859.529	4561
859.662	4508
859.795	4535
859.928	4622
860.061	4733
860.194	4744
860.327	4740
860.46	4672
860.592	4782
860.725	4744
860.858	4755
860.99	4740
861.123	4729
861.256	4694
861.388	4809
861.521	5265
861.653	4748
861.786	4706
861.918	4763
862.05	4820
862.183	4843
862.315	4938
862.447	4976
862.58	4850
862.712	4816
862.844	4771
862.976	4923
863.108	4896
863.24	5330
863.372	4877
863.504	4938
863.636	4908
863.768	4957
863.9	5018
864.032	4961
864.164	4968
864.296	5048
864.428	5151
864.559	5067
864.691	5064
864.823	5136
864.954	5098
865.086	5140
865.217	5105
865.349	5128
865.48	5162
865.612	5204
865.743	5284
865.875	5235
866.006	5208
866.137	5197
866.269	5284
866.4	5261
866.531	5239
866.662	5201
866.793	5280
866.924	5258
867.055	5402
867.186	5364
867.317	5368
867.448	5357
867.579	5376
867.71	5433
867.841	5368
867.972	5452
868.103	5486
868.233	5532
868.364	5482
868.495	5570
868.625	5642
868.756	5802
868.886	5634
869.017	5790
869.147	5893
869.278	5923
869.408	5866
869.539	5802
869.669	5908
869.799	5901
869.929	6041
870.06	5969
870.19	6300
870.32	6152
870.45	6273
870.58	6331
870.71	6422
870.84	6490
870.97	6376
871.1	6460
871.23	6589
871.36	6741
871.489	6623
871.619	6783
871.749	6837
871.879	6897
872.008	6958
872.138	6985
872.267	7004
872.397	7042
872.526	7038
872.656	7107
872.785	7187
872.915	7369
873.044	7578
873.173	7544
873.303	7712
873.432	7811
873.561	7913
873.69	7887
873.819	7989
873.948	8214
874.077	8271
874.206	8366
874.335	8476
874.464	8758
874.593	8845
874.722	8967
874.851	9150
874.979	9268
875.108	9344
875.237	9447
875.365	9511
875.494	9641
875.623	9842
875.751	9915
875.88	9956
876.008	10158
876.136	10299
876.265	10516
876.393	10675
876.521	10702
876.65	10843
876.778	10862
876.906	10904
877.034	10987
877.162	11140
877.29	11166
877.418	11269
877.546	11337
877.674	11406
877.802	11532
877.93	11516
878.058	11600
878.185	11554
878.313	11653
878.441	11630
878.568	11608
878.696	11798
878.824	11817
878.951	11882
879.079	12064
879.206	12175
879.333	12068
879.461	11984
879.588	12026
879.715	12057
879.842	12163
879.97	12091
880.097	11745
880.224	11821
880.351	11851
880.478	11916
880.605	11821
880.732	11866
880.859	12045
880.986	11802
881.112	11821
881.239	11775
881.366	11592
881.493	11615
881.619	11516
881.746	11638
881.872	11532
881.999	11452
882.125	11455
882.252	11566
882.378	11501
882.505	11501
882.631	11402
882.757	11318
882.883	11349
883.01	11250
883.136	11197
883.262	11109
883.388	11048
883.514	11162
883.64	11105
883.766	11189
883.892	11064
884.018	11003
884.143	11052
884.269	11147
884.395	10790
884.52	10748
884.646	10771
884.772	10675
884.897	10687
885.023	10630
885.148	10645
885.274	10782
885.399	10698
885.524	10626
885.65	10649
885.775	10626
885.9	10626
886.025	10668
886.15	10561
886.275	10504
886.4	10382
886.525	10459
886.65	10402
886.775	10348
886.9	10481
887.025	10527
887.149	10352
887.274	10246
887.399	10242
887.523	10105
887.648	10162
887.773	10074
887.897	10185
888.021	10192
888.146	10196
888.27	10284
888.395	10192
888.519	10261
888.643	10207
888.767	10147
888.891	9972
889.015	10048
889.139	10135
889.263	9937
889.387	10101
889.511	10112
889.635	10086
889.759	9991
889.883	9991
890.006	10044
890.13	10112
890.254	9915
890.377	9998
890.501	9873
890.624	9770
890.748	9907
890.871	9827
890.995	9770
891.118	9743
891.241	9743
891.364	9823
891.488	9884
891.611	9720
891.734	9755
891.857	9732
891.98	9717
892.103	9766
892.226	9690
892.349	9701
892.471	9625
892.594	9629
892.717	9580
892.839	9599
892.962	9599
893.085	9686
893.207	9629
893.33	9485
893.452	9526
893.575	9644
893.697	9549
893.819	9614
893.941	9568
894.064	9603
894.186	9447
894.308	9439
894.43	9534
894.552	9500
894.674	9599
894.796	9367
894.918	9435
895.04	9340
895.161	9336
895.283	9291
895.405	9253
895.526	9306
895.648	9264
895.769	9283
895.891	9245
896.012	9313
896.134	9203
896.255	9203
896.376	9180
896.498	9173
896.619	9169
896.74	9077
896.861	9104
896.982	9218
897.103	9268
897.224	9146
897.345	9108
897.466	9017
897.587	9032
897.708	9104
897.828	9005
897.949	9009
898.07	8925
898.19	8876
898.311	9058
898.431	8929
898.552	8902
898.672	9009
898.792	8902
898.913	8918
899.033	8800
899.153	8826
899.273	8663
899.393	8697
899.513	8746
899.633	8739
899.753	8777
899.873	8769
899.993	8739
900.113	8766
900.232	8686
900.352	8659
900.472	8625
900.591	8568
900.711	8598
900.83	8571
900.95	8640
901.069	8659
901.189	8522
901.308	8503
901.427	8374
901.546	8469
901.665	8511
901.784	8526
901.904	8396
902.023	8347
902.141	8282
902.26	8271
902.379	8286
902.498	8218
902.617	8290
902.735	8347
902.854	8309
902.973	8244
903.091	8183
903.21	8161
903.328	8142
903.446	8149
903.565	8043
903.683	8111
903.801	8077
903.919	8123
904.038	8111
904.156	8024
904.274	8119
904.392	8035
904.51	8069
904.627	8050
904.745	8145
904.863	8065
904.981	7928
905.098	7879
905.216	7871
905.334	7909
905.451	7879
905.569	7917
905.686	7890
905.803	7928
905.921	7761
906.038	7932
906.155	7803
906.272	7666
906.389	7776
906.506	7670
906.623	7662
906.74	7662
906.857	7567
906.974	7624
907.091	7677
907.208	7681
907.324	7651
907.441	7590
907.557	7457
907.674	7426
907.79	7415
907.907	7464
908.023	7476
908.139	7472
908.256	7422
908.372	7426
908.488	7373
908.604	7263
908.72	7213
908.836	7221
908.952	7183
909.068	7278
909.184	7358
909.3	7247
909.415	7327
909.531	7301
909.647	7084
909.762	7107
909.878	7099
909.993	7099
910.108	7122
910.224	7099
910.339	7057
910.454	6993
910.57	6985
910.685	6989
910.8	7133
910.915	7088
911.03	7031
911.145	6905
911.259	6890
911.374	6890
911.489	6821
911.604	6837
911.718	6719
911.833	6802
911.947	6681
912.062	6578
912.176	6677
912.291	6719
912.405	6711
912.519	6871
912.633	6840
912.748	6734
912.862	6719
912.976	6673
913.09	6525
913.204	6532
913.318	6559
913.431	6688
913.545	6719
913.659	6734
913.772	6662
913.886	6623
914	6582
914.113	6604
914.226	6635
914.34	6589
914.453	6486
914.566	6635
914.68	6555
914.793	6574
914.906	6418
915.019	6422
915.132	6338
915.245	6445
915.358	6426
915.47	6475
915.583	6502
915.696	6521
915.809	6517
915.921	6578
916.034	6441
916.146	6407
916.259	6414
916.371	6460
916.483	6494
916.595	6445
916.708	6399
916.82	6456
916.932	6456
917.044	6388
917.156	6433
917.268	6300
917.38	6365
917.491	6327
917.603	6346
917.715	6429
917.826	6403
917.938	6334
918.049	6285
918.161	6369
918.272	6410
918.384	6429
918.495	6346
918.606	6262
918.717	6235
918.828	6311
918.939	6251
919.05	6209
919.161	6224
919.272	6136
919.383	6182
919.494	6281
919.604	6376
919.715	6285
919.826	6220
919.936	6254
920.047	6399
920.157	6365
920.267	6509
920.378	6365
920.488	6338
920.598	6475
920.708	6536
920.818	6460
920.928	6467
921.038	6642
921.148	6551
921.258	6376
921.368	6304
921.477	6254
921.587	6224
921.697	6121
921.806	6152
921.916	6125
922.025	5969
922.134	5923
922.244	5923
922.353	5961
922.462	5855
922.571	5832
922.68	5760
922.789	5710
922.898	5722
923.007	5627
923.116	5722
923.224	5741
923.333	5653
923.442	5585
923.55	5589
923.659	5589
923.767	5649
923.876	5558
923.984	5573
924.092	5497
924.201	5539
924.309	5566
924.417	5573
924.525	5493
924.633	5516
924.741	6262
924.849	5387
924.956	5490
925.064	5349
925.172	5311
925.279	5307
925.387	5406
925.494	5334
925.602	5471
925.709	5402
925.816	5258
925.924	5318
926.031	5318
926.138	5273
926.245	5425
926.352	5242
926.459	5337
926.566	5341
926.673	5185
926.779	5128
926.886	5083
926.993	5083
927.099	5041
927.206	4976
927.312	4927
927.419	5022
927.525	4976
927.631	5006
927.737	4911
927.843	4889
927.95	4759
928.056	4889
928.162	4824
928.267	4847
928.373	5299
928.479	4866
928.585	4706
928.69	4744
928.796	4797
928.901	4675
929.007	4584
929.112	4653
929.218	4672
929.323	4634
929.428	4584
929.533	4675
929.638	4508
929.743	4546
929.848	4565
929.953	4542
930.058	4421
930.163	4344
930.267	4363
930.372	4459
930.477	4360
930.581	4462
930.685	4413
930.79	4268
930.894	4356
930.998	4280
931.103	4360
931.207	4131
931.311	4067
931.415	4021
931.519	3937
931.623	3960
