Data from glass_V78500241_2375.txt Node
Date: Wed Sep 01 19:30:57 CST 2021
User: usil
Spectrometer: V785-0024
Trigger mode: 0
Integration Time (sec): 4.000000E-1
Scans to average: 1
Nonlinearity correction enabled: false
Boxcar width: 0
Storing dark spectrum: false
XAxis mode: Wavelengths
Number of Pixels in Spectrum: 1024
>>>>>Begin Spectral Data<<<<<
801.071	3728
801.214	3781
801.356	3679
801.499	3694
801.641	3701
801.783	3804
801.926	3838
802.068	3827
802.211	3865
802.353	3903
802.496	3846
802.638	3896
802.78	3892
802.923	3926
803.065	3876
803.208	3842
803.35	3884
803.492	3892
803.635	3880
803.777	3812
803.919	3926
804.061	4135
804.204	3960
804.346	3941
804.488	3949
804.63	4040
804.773	3941
804.915	4063
805.057	4139
805.199	4044
805.341	4090
805.483	4135
805.626	4109
805.768	4147
805.91	4169
806.052	4219
806.194	4234
806.336	4367
806.478	4196
806.62	4200
806.762	4181
806.904	4227
807.046	4303
807.188	4215
807.33	4169
807.472	4249
807.614	4219
807.756	4246
807.898	4169
808.04	4211
808.182	4268
808.324	4227
808.465	4363
808.607	4516
808.749	4402
808.891	4455
809.033	4516
809.174	4447
809.316	4242
809.458	4204
809.6	4128
809.741	4124
809.883	4128
810.025	4253
810.166	4177
810.308	4215
810.45	4246
810.591	4234
810.733	4280
810.875	4558
811.016	4850
811.158	5079
811.299	5326
811.441	5284
811.582	5045
811.724	4672
811.865	4451
812.007	4462
812.148	4424
812.29	4402
812.431	4409
812.573	4417
812.714	4371
812.855	4398
812.997	4367
813.138	4516
813.279	4405
813.421	4379
813.562	4386
813.703	4306
813.845	4360
813.986	4261
814.127	4238
814.268	4287
814.41	4276
814.551	4276
814.692	4306
814.833	4234
814.974	4310
815.115	4318
815.256	4261
815.397	4246
815.539	4249
815.68	4181
815.821	4242
815.962	4325
816.103	4227
816.244	4230
816.385	4181
816.526	4249
816.666	4173
816.807	4055
816.948	4188
817.089	4139
817.23	4112
817.371	4059
817.512	4040
817.653	4078
817.793	4025
817.934	4032
818.075	4105
818.216	4055
818.356	4074
818.497	4021
818.638	3892
818.778	3907
818.919	3884
819.06	3842
819.2	3876
819.341	3861
819.481	3793
819.622	3949
819.762	4032
819.903	3949
820.043	3850
820.184	3812
820.324	3816
820.465	3827
820.605	3823
820.746	3835
820.886	3789
821.026	3956
821.167	3918
821.307	3998
821.447	3987
821.588	3994
821.728	3926
821.868	3941
822.008	3869
822.149	3907
822.289	3899
822.429	3770
822.569	3751
822.709	3797
822.849	3675
822.99	3751
823.13	3720
823.27	3770
823.41	3732
823.55	3740
823.69	3728
823.83	3698
823.97	3709
824.11	3614
824.25	3599
824.389	3618
824.529	3644
824.669	3618
824.809	3732
824.949	3701
825.089	3724
825.228	3709
825.368	3572
825.508	3523
825.648	3580
825.787	3595
825.927	3648
826.067	3580
826.206	3690
826.346	3759
826.485	3831
826.625	3850
826.765	3930
826.904	3785
827.044	3599
827.183	3534
827.323	3443
827.462	3488
827.601	3428
827.741	3397
827.88	3504
828.02	3355
828.159	3424
828.298	3435
828.437	3507
828.577	3435
828.716	3580
828.855	3507
828.994	3397
829.134	3405
829.273	3397
829.412	3363
829.551	3313
829.69	3340
829.829	3435
829.968	3500
830.107	3424
830.246	3443
830.385	3348
830.524	3325
830.663	3275
830.802	3241
830.941	3165
831.08	3222
831.219	3222
831.357	3260
831.496	3401
831.635	3253
831.774	3188
831.913	3214
832.051	3119
832.19	3150
832.329	3184
832.467	3119
832.606	3108
832.744	3184
832.883	3192
833.022	3176
833.16	3260
833.299	3279
833.437	3317
833.576	3329
833.714	3431
833.852	3409
833.991	3439
834.129	3435
834.267	3454
834.406	3393
834.544	3431
834.682	3386
834.821	3439
834.959	3542
835.097	3405
835.235	3515
835.373	3473
835.511	3477
835.65	3477
835.788	3462
835.926	3401
836.064	3378
836.202	3397
836.34	3561
836.478	3629
836.615	3523
836.753	3557
836.891	3633
837.029	3633
837.167	3618
837.305	3584
837.443	3519
837.58	3496
837.718	3595
837.856	3553
837.993	3523
838.131	3591
838.269	3561
838.406	3576
838.544	3561
838.681	3443
838.819	3462
838.956	3420
839.094	3405
839.231	3458
839.369	3507
839.506	3667
839.643	3618
839.781	3466
839.918	3481
840.055	3542
840.193	3473
840.33	3504
840.467	3507
840.604	3538
840.742	3778
840.879	3504
841.016	3511
841.153	3625
841.29	3751
841.427	3724
841.564	3667
841.701	3728
841.838	3694
841.975	3671
842.112	3682
842.249	3641
842.385	3614
842.522	3804
842.659	3652
842.796	3717
842.933	3717
843.069	3679
843.206	3720
843.343	3770
843.479	3785
843.616	3797
843.752	3614
843.889	3652
844.025	3846
844.162	3724
844.298	3816
844.435	3774
844.571	3785
844.708	3888
844.844	3953
844.98	3994
845.117	3998
845.253	3937
845.389	3918
845.525	3979
845.661	3953
845.798	3922
845.934	3964
846.07	3972
846.206	4051
846.342	4116
846.478	4036
846.614	3945
846.75	3926
846.886	3899
847.022	3998
847.158	3975
847.294	3975
847.429	3994
847.565	4006
847.701	4227
847.837	3865
847.972	3865
848.108	4002
848.244	3998
848.379	3838
848.515	3854
848.65	3804
848.786	3835
848.921	3865
849.057	3922
849.192	3930
849.328	3857
849.463	3911
849.598	3865
849.734	3831
849.869	3831
850.004	3781
850.14	3793
850.275	3770
850.41	3728
850.545	3759
850.68	3751
850.815	3762
850.95	3808
851.085	3941
851.22	3854
851.355	3831
851.49	3774
851.625	3778
851.76	3759
851.895	3709
852.03	3736
852.165	3766
852.299	3819
852.434	3896
852.569	3827
852.703	3892
852.838	3972
852.973	3972
853.107	3991
853.242	3922
853.376	3846
853.511	3747
853.645	3812
853.78	3949
853.914	3899
854.048	3865
854.183	3907
854.317	3937
854.451	4036
854.585	3960
854.72	3888
854.854	4029
854.988	3922
855.122	4040
855.256	3903
855.39	4029
855.524	4120
855.658	4090
855.792	4116
855.926	4128
856.06	4154
856.194	4253
856.327	4109
856.461	4135
856.595	4139
856.729	4139
856.862	4314
856.996	4181
857.13	4303
857.263	4306
857.397	4337
857.53	4291
857.664	4318
857.797	4386
857.931	4417
858.064	4405
858.197	4478
858.331	4440
858.464	4367
858.597	4352
858.731	4394
858.864	4451
858.997	4489
859.13	4512
859.263	4554
859.396	4561
859.529	4497
859.662	4481
859.795	4470
859.928	4603
860.061	4706
860.194	4698
860.327	4618
860.46	4580
860.592	4702
860.725	4725
860.858	4759
860.99	4694
861.123	4675
861.256	4660
861.388	4744
861.521	5467
861.653	4740
861.786	4733
861.918	4748
862.05	4797
862.183	4801
862.315	4877
862.447	4946
862.58	4881
862.712	4828
862.844	4801
862.976	4831
863.108	4839
863.24	5231
863.372	4812
863.504	4900
863.636	4915
863.768	4980
863.9	4965
864.032	4923
864.164	4923
864.296	5006
864.428	5060
864.559	5079
864.691	5143
864.823	5155
864.954	5067
865.086	5166
865.217	5128
865.349	5143
865.48	5132
865.612	5212
865.743	5307
865.875	5193
866.006	5151
866.137	5197
866.269	5250
866.4	5254
866.531	5258
866.662	5212
866.793	5296
866.924	5227
867.055	5330
867.186	5357
867.317	5311
867.448	5269
867.579	5376
867.71	5330
867.841	5387
867.972	5395
868.103	5433
868.233	5490
868.364	5482
868.495	5516
868.625	5623
868.756	5779
868.886	5627
869.017	5737
869.147	5897
869.278	5874
869.408	5809
869.539	5813
869.669	5889
869.799	5901
869.929	5999
870.06	6007
870.19	6167
870.32	6159
870.45	6277
870.58	6327
870.71	6460
870.84	6448
870.97	6418
871.1	6437
871.23	6604
871.36	6677
871.489	6627
871.619	6730
871.749	6795
871.879	6878
872.008	6973
872.138	6981
872.267	6981
872.397	7042
872.526	7000
872.656	7069
872.785	7225
872.915	7407
873.044	7525
873.173	7502
873.303	7594
873.432	7753
873.561	7883
873.69	7860
873.819	7989
873.948	8161
874.077	8229
874.206	8286
874.335	8446
874.464	8640
874.593	8834
874.722	8967
874.851	9116
874.979	9211
875.108	9321
875.237	9321
875.365	9492
875.494	9656
875.623	9751
875.751	9865
875.88	9979
876.008	10090
876.136	10287
876.265	10432
876.393	10698
876.521	10691
876.65	10782
876.778	10869
876.906	10949
877.034	11006
877.162	11022
877.29	11098
877.418	11372
877.546	11364
877.674	11444
877.802	11345
877.93	11551
878.058	11570
878.185	11520
878.313	11630
878.441	11741
878.568	11638
878.696	11783
878.824	11832
878.951	11904
879.079	11969
879.206	12117
879.333	12144
879.461	11992
879.588	12079
879.715	11996
879.842	12201
879.97	12087
880.097	11885
880.224	11942
880.351	11893
880.478	11779
880.605	11832
880.732	11779
880.859	11946
880.986	11855
881.112	11802
881.239	11714
881.366	11676
881.493	11562
881.619	11551
881.746	11570
881.872	11558
881.999	11463
882.125	11493
882.252	11581
882.378	11505
882.505	11577
882.631	11307
882.757	11239
882.883	11353
883.01	11296
883.136	11265
883.262	11143
883.388	11128
883.514	11223
883.64	11189
883.766	11090
883.892	10987
884.018	10991
884.143	11117
884.269	11136
884.395	10850
884.52	10763
884.646	10759
884.772	10675
884.897	10618
885.023	10573
885.148	10725
885.274	10698
885.399	10687
885.524	10580
885.65	10592
885.775	10596
885.9	10565
886.025	10618
886.15	10561
886.275	10481
886.4	10379
886.525	10303
886.65	10462
886.775	10352
886.9	10417
887.025	10519
887.149	10363
887.274	10238
887.399	10128
887.523	10154
887.648	10154
887.773	10120
887.897	10185
888.021	10154
888.146	10143
888.27	10173
888.395	10147
888.519	10200
888.643	10238
888.767	10177
888.891	10090
889.015	10006
889.139	10029
889.263	9953
889.387	10010
889.511	10109
889.635	10071
889.759	9888
889.883	9930
890.006	10025
890.13	10059
890.254	9960
890.377	9983
890.501	9842
890.624	9873
890.748	9827
890.871	9827
890.995	9770
891.118	9709
891.241	9785
891.364	9728
891.488	9793
891.611	9690
891.734	9701
891.857	9793
891.98	9736
892.103	9751
892.226	9728
892.349	9679
892.471	9492
892.594	9553
892.717	9599
892.839	9641
892.962	9587
893.085	9618
893.207	9561
893.33	9504
893.452	9538
893.575	9637
893.697	9431
893.819	9587
893.941	9614
894.064	9557
894.186	9492
894.308	9435
894.43	9458
894.552	9542
894.674	9500
894.796	9389
894.918	9389
895.04	9317
895.161	9348
895.283	9348
895.405	9207
895.526	9294
895.648	9233
895.769	9222
895.891	9184
896.012	9245
896.134	9192
896.255	9150
896.376	9135
896.498	9138
896.619	9047
896.74	9043
896.861	9127
896.982	9283
897.103	9260
897.224	9176
897.345	9108
897.466	8990
897.587	9024
897.708	9135
897.828	8982
897.949	8914
898.07	8826
898.19	8887
898.311	8971
898.431	8979
898.552	8929
898.672	8944
898.792	8902
898.913	8861
899.033	8838
899.153	8697
899.273	8644
899.393	8750
899.513	8705
899.633	8705
899.753	8746
899.873	8686
899.993	8788
900.113	8667
900.232	8648
900.352	8632
900.472	8602
900.591	8556
900.711	8674
900.83	8552
900.95	8686
901.069	8743
901.189	8613
901.308	8431
901.427	8438
901.546	8423
901.665	8495
901.784	8480
901.904	8393
902.023	8282
902.141	8271
902.26	8218
902.379	8229
902.498	8244
902.617	8229
902.735	8275
902.854	8301
902.973	8305
903.091	8107
903.21	8039
903.328	8100
903.446	8130
903.565	8062
903.683	8081
903.801	8062
903.919	8050
904.038	8138
904.156	8039
904.274	8134
904.392	7989
904.51	8016
904.627	8027
904.745	8115
904.863	8088
904.981	7841
905.098	7879
905.216	7860
905.334	7833
905.451	7860
905.569	7864
905.686	7887
905.803	7913
905.921	7750
906.038	7875
906.155	7818
906.272	7677
906.389	7662
906.506	7636
906.623	7677
906.74	7632
906.857	7518
906.974	7521
907.091	7647
907.208	7712
907.324	7639
907.441	7548
907.557	7483
907.674	7430
907.79	7346
907.907	7388
908.023	7426
908.139	7415
908.256	7388
908.372	7381
908.488	7350
908.604	7282
908.72	7217
908.836	7270
908.952	7285
909.068	7247
909.184	7247
909.3	7266
909.415	7339
909.531	7324
909.647	7133
909.762	7103
909.878	7103
909.993	7133
910.108	7099
910.224	7050
910.339	7076
910.454	7031
910.57	7057
910.685	6951
910.8	7126
910.915	7114
911.03	6935
911.145	6863
911.259	6844
911.374	6882
911.489	6783
911.604	6757
911.718	6734
911.833	6658
911.947	6669
912.062	6563
912.176	6681
912.291	6707
912.405	6673
912.519	6798
912.633	6837
912.748	6753
912.862	6749
912.976	6616
913.09	6471
913.204	6612
913.318	6646
913.431	6635
913.545	6612
913.659	6715
913.772	6589
913.886	6513
914	6563
914.113	6525
914.226	6635
914.34	6642
914.453	6490
914.566	6593
914.68	6559
914.793	6517
914.906	6403
915.019	6460
915.132	6353
915.245	6460
915.358	6460
915.47	6464
915.583	6448
915.696	6471
915.809	6494
915.921	6483
916.034	6460
916.146	6391
916.259	6410
916.371	6429
916.483	6403
916.595	6448
916.708	6410
916.82	6407
916.932	6357
917.044	6346
917.156	6342
917.268	6319
917.38	6323
917.491	6388
917.603	6369
917.715	6380
917.826	6441
917.938	6273
918.049	6289
918.161	6350
918.272	6369
918.384	6418
918.495	6239
918.606	6220
918.717	6190
918.828	6235
918.939	6311
919.05	6197
919.161	6296
919.272	6136
919.383	6125
919.494	6266
919.604	6445
919.715	6308
919.826	6239
919.936	6247
920.047	6365
920.157	6220
920.267	6372
920.378	6315
920.488	6273
920.598	6452
920.708	6528
920.818	6452
920.928	6460
921.038	6578
921.148	6570
921.258	6361
921.368	6315
921.477	6167
921.587	6175
921.697	6106
921.806	6114
921.916	6015
922.025	5920
922.134	5946
922.244	5885
922.353	5958
922.462	5878
922.571	5798
922.68	5733
922.789	5703
922.898	5729
923.007	5661
923.116	5764
923.224	5608
923.333	5688
923.442	5634
923.55	5535
923.659	5581
923.767	5562
923.876	5505
923.984	5611
924.092	5551
924.201	5532
924.309	5528
924.417	5547
924.525	5471
924.633	5493
924.741	6296
924.849	5341
924.956	5410
925.064	5364
925.172	5330
925.279	5296
925.387	5368
925.494	5288
925.602	5421
925.709	5379
925.816	5269
925.924	5322
926.031	5337
926.138	5307
926.245	5284
926.352	5151
926.459	5345
926.566	5288
926.673	5193
926.779	5105
926.886	5121
926.993	5056
927.099	5022
927.206	4938
927.312	4953
927.419	5014
927.525	4965
927.631	4980
927.737	4858
927.843	4843
927.95	4706
928.056	4824
928.162	4824
928.267	4850
928.373	5254
928.479	4839
928.585	4675
928.69	4748
928.796	4729
928.901	4714
929.007	4573
929.112	4664
929.218	4569
929.323	4580
929.428	4649
929.533	4664
929.638	4500
929.743	4558
929.848	4504
929.953	4569
930.058	4405
930.163	4314
930.267	4306
930.372	4386
930.477	4318
930.581	4455
930.685	4310
930.79	4284
930.894	4249
930.998	4272
931.103	4375
931.207	4120
931.311	4067
931.415	4017
931.519	3934
931.623	3941
