Data from glass_V78500241_2724.txt Node
Date: Wed Sep 01 19:33:23 CST 2021
User: usil
Spectrometer: V785-0024
Trigger mode: 0
Integration Time (sec): 4.000000E-1
Scans to average: 1
Nonlinearity correction enabled: false
Boxcar width: 0
Storing dark spectrum: false
XAxis mode: Wavelengths
Number of Pixels in Spectrum: 1024
>>>>>Begin Spectral Data<<<<<
801.071	3728
801.214	3679
801.356	3648
801.499	3728
801.641	3686
801.783	3736
801.926	3827
802.068	3835
802.211	3850
802.353	3838
802.496	3838
802.638	3861
802.78	3876
802.923	3899
803.065	3865
803.208	3835
803.35	3842
803.492	3911
803.635	3907
803.777	3778
803.919	3899
804.061	4124
804.204	3915
804.346	3960
804.488	3907
804.63	4010
804.773	3930
804.915	4032
805.057	4128
805.199	3960
805.341	4090
805.483	4090
805.626	4131
805.768	4124
805.91	4177
806.052	4272
806.194	4211
806.336	4344
806.478	4192
806.62	4169
806.762	4135
806.904	4242
807.046	4348
807.188	4188
807.33	4147
807.472	4200
807.614	4169
807.756	4227
807.898	4242
808.04	4253
808.182	4257
808.324	4322
808.465	4394
808.607	4466
808.749	4428
808.891	4432
809.033	4474
809.174	4322
809.316	4265
809.458	4223
809.6	4158
809.741	4116
809.883	4124
810.025	4211
810.166	4200
810.308	4223
810.45	4196
810.591	4242
810.733	4276
810.875	4512
811.016	4847
811.158	5109
811.299	5322
811.441	5265
811.582	5094
811.724	4694
811.865	4462
812.007	4424
812.148	4432
812.29	4417
812.431	4405
812.573	4440
812.714	4413
812.855	4447
812.997	4394
813.138	4497
813.279	4383
813.421	4417
813.562	4360
813.703	4303
813.845	4325
813.986	4207
814.127	4227
814.268	4242
814.41	4238
814.551	4219
814.692	4272
814.833	4234
814.974	4280
815.115	4268
815.256	4196
815.397	4223
815.539	4265
815.68	4246
815.821	4188
815.962	4272
816.103	4257
816.244	4257
816.385	4204
816.526	4265
816.666	4196
816.807	4135
816.948	4211
817.089	4158
817.23	4059
817.371	4044
817.512	4036
817.653	4078
817.793	4059
817.934	4021
818.075	4093
818.216	4074
818.356	4097
818.497	3968
818.638	3937
818.778	3922
818.919	3827
819.06	3854
819.2	3899
819.341	3869
819.481	3869
819.622	3884
819.762	3983
819.903	3998
820.043	3854
820.184	3835
820.324	3819
820.465	3880
820.605	3857
820.746	3888
820.886	3778
821.026	3956
821.167	3941
821.307	3953
821.447	3975
821.588	3941
821.728	3930
821.868	3888
822.008	3899
822.149	3850
822.289	3930
822.429	3762
822.569	3705
822.709	3770
822.849	3698
822.99	3644
823.13	3720
823.27	3736
823.41	3717
823.55	3682
823.69	3694
823.83	3732
823.97	3675
824.11	3606
824.25	3595
824.389	3667
824.529	3679
824.669	3603
824.809	3686
824.949	3747
825.089	3717
825.228	3682
825.368	3545
825.508	3538
825.648	3584
825.787	3591
825.927	3606
826.067	3587
826.206	3675
826.346	3781
826.485	3804
826.625	3873
826.765	3903
826.904	3827
827.044	3603
827.183	3488
827.323	3458
827.462	3431
827.601	3374
827.741	3428
827.88	3477
828.02	3363
828.159	3389
828.298	3424
828.437	3469
828.577	3454
828.716	3564
828.855	3450
828.994	3363
829.134	3386
829.273	3389
829.412	3317
829.551	3348
829.69	3340
829.829	3428
829.968	3485
830.107	3439
830.246	3412
830.385	3363
830.524	3355
830.663	3294
830.802	3241
830.941	3146
831.08	3161
831.219	3237
831.357	3264
831.496	3382
831.635	3207
831.774	3192
831.913	3169
832.051	3150
832.19	3135
832.329	3199
832.467	3154
832.606	3089
832.744	3173
832.883	3173
833.022	3192
833.16	3268
833.299	3283
833.437	3344
833.576	3351
833.714	3412
833.852	3420
833.991	3416
834.129	3466
834.267	3420
834.406	3374
834.544	3386
834.682	3409
834.821	3389
834.959	3519
835.097	3416
835.235	3496
835.373	3477
835.511	3447
835.65	3462
835.788	3485
835.926	3386
836.064	3359
836.202	3424
836.34	3572
836.478	3557
836.615	3530
836.753	3553
836.891	3595
837.029	3595
837.167	3584
837.305	3538
837.443	3534
837.58	3511
837.718	3545
837.856	3564
837.993	3561
838.131	3599
838.269	3618
838.406	3587
838.544	3545
838.681	3473
838.819	3469
838.956	3374
839.094	3370
839.231	3397
839.369	3519
839.506	3667
839.643	3614
839.781	3473
839.918	3477
840.055	3523
840.193	3515
840.33	3523
840.467	3496
840.604	3587
840.742	3740
840.879	3534
841.016	3530
841.153	3580
841.29	3743
841.427	3701
841.564	3679
841.701	3766
841.838	3656
841.975	3618
842.112	3667
842.249	3641
842.385	3591
842.522	3797
842.659	3656
842.796	3660
842.933	3675
843.069	3690
843.206	3698
843.343	3819
843.479	3755
843.616	3819
843.752	3663
843.889	3660
844.025	3823
844.162	3701
844.298	3827
844.435	3774
844.571	3770
844.708	3960
844.844	3949
844.98	4002
845.117	4013
845.253	3918
845.389	3896
845.525	3899
845.661	3937
845.798	3930
845.934	3937
846.07	3964
846.206	4055
846.342	4078
846.478	4044
846.614	3949
846.75	3930
846.886	3854
847.022	3994
847.158	3934
847.294	4002
847.429	4036
847.565	3960
847.701	4242
847.837	3850
847.972	3854
848.108	3994
848.244	3983
848.379	3861
848.515	3800
848.65	3816
848.786	3850
848.921	3854
849.057	3899
849.192	3911
849.328	3956
849.463	3884
849.598	3873
849.734	3884
849.869	3823
850.004	3732
850.14	3747
850.275	3766
850.41	3743
850.545	3732
850.68	3736
850.815	3804
850.95	3755
851.085	3907
851.22	3869
851.355	3816
851.49	3770
851.625	3766
851.76	3831
851.895	3743
852.03	3698
852.165	3789
852.299	3831
852.434	3896
852.569	3812
852.703	3880
852.838	3960
852.973	3945
853.107	3975
853.242	3869
853.376	3816
853.511	3747
853.645	3797
853.78	3941
853.914	3861
854.048	3884
854.183	3896
854.317	3975
854.451	4078
854.585	4006
854.72	3949
854.854	3998
854.988	3903
855.122	3994
855.256	3892
855.39	3991
855.524	4097
855.658	4067
855.792	4116
855.926	4116
856.06	4112
856.194	4204
856.327	4147
856.461	4078
856.595	4162
856.729	4128
856.862	4246
856.996	4238
857.13	4295
857.263	4303
857.397	4348
857.53	4310
857.664	4394
857.797	4360
857.931	4436
858.064	4409
858.197	4455
858.331	4352
858.464	4386
858.597	4363
858.731	4398
858.864	4402
858.997	4451
859.13	4527
859.263	4546
859.396	4573
859.529	4478
859.662	4500
859.795	4546
859.928	4603
860.061	4656
860.194	4763
860.327	4656
860.46	4641
860.592	4698
860.725	4763
860.858	4752
860.99	4672
861.123	4698
861.256	4660
861.388	4767
861.521	5326
861.653	4706
861.786	4687
861.918	4790
862.05	4778
862.183	4809
862.315	4885
862.447	4900
862.58	4896
862.712	4824
862.844	4755
862.976	4816
863.108	4824
863.24	5296
863.372	4790
863.504	4850
863.636	4866
863.768	4961
863.9	4991
864.032	4866
864.164	4881
864.296	4946
864.428	5113
864.559	5117
864.691	5124
864.823	5151
864.954	5090
865.086	5113
865.217	5094
865.349	5086
865.48	5094
865.612	5170
865.743	5299
865.875	5212
866.006	5140
866.137	5197
866.269	5181
866.4	5208
866.531	5185
866.662	5261
866.793	5223
866.924	5311
867.055	5307
867.186	5296
867.317	5330
867.448	5292
867.579	5372
867.71	5364
867.841	5368
867.972	5360
868.103	5444
868.233	5493
868.364	5505
868.495	5497
868.625	5615
868.756	5691
868.886	5661
869.017	5676
869.147	5844
869.278	5874
869.408	5767
869.539	5832
869.669	5912
869.799	5920
869.929	6019
870.06	5999
870.19	6194
870.32	6155
870.45	6186
870.58	6289
870.71	6376
870.84	6433
870.97	6414
871.1	6426
871.23	6601
871.36	6673
871.489	6623
871.619	6707
871.749	6810
871.879	6871
872.008	6958
872.138	6981
872.267	6993
872.397	6966
872.526	7031
872.656	7088
872.785	7156
872.915	7327
873.044	7521
873.173	7544
873.303	7647
873.432	7689
873.561	7868
873.69	7856
873.819	7997
873.948	8206
874.077	8256
874.206	8301
874.335	8480
874.464	8613
874.593	8845
874.722	8887
874.851	9142
874.979	9260
875.108	9336
875.237	9389
875.365	9485
875.494	9622
875.623	9816
875.751	9816
875.88	10025
876.008	10135
876.136	10234
876.265	10451
876.393	10691
876.521	10679
876.65	10866
876.778	10904
876.906	10908
877.034	10961
877.162	11083
877.29	11064
877.418	11299
877.546	11376
877.674	11402
877.802	11383
877.93	11535
878.058	11505
878.185	11532
878.313	11611
878.441	11668
878.568	11714
878.696	11790
878.824	11859
878.951	11946
879.079	12015
879.206	12053
879.333	12026
879.461	11855
879.588	12030
879.715	12159
879.842	12182
879.97	12117
880.097	11828
880.224	11912
880.351	11935
880.478	11870
880.605	11847
880.732	11775
880.859	11988
880.986	11817
881.112	11813
881.239	11733
881.366	11657
881.493	11608
881.619	11528
881.746	11562
881.872	11566
881.999	11433
882.125	11448
882.252	11570
882.378	11467
882.505	11551
882.631	11307
882.757	11269
882.883	11322
883.01	11216
883.136	11174
883.262	11136
883.388	11041
883.514	11166
883.64	11162
883.766	11121
883.892	10953
884.018	10957
884.143	11079
884.269	11075
884.395	10858
884.52	10771
884.646	10771
884.772	10702
884.897	10626
885.023	10672
885.148	10706
885.274	10656
885.399	10675
885.524	10577
885.65	10573
885.775	10641
885.9	10508
886.025	10588
886.15	10481
886.275	10413
886.4	10291
886.525	10405
886.65	10348
886.775	10329
886.9	10474
887.025	10512
887.149	10295
887.274	10200
887.399	10268
887.523	10131
887.648	10105
887.773	10093
887.897	10265
888.021	10211
888.146	10063
888.27	10135
888.395	10200
888.519	10169
888.643	10124
888.767	10147
888.891	9972
889.015	10101
889.139	10063
889.263	9994
889.387	9987
889.511	10048
889.635	9994
889.759	9930
889.883	9994
890.006	9983
890.13	10135
890.254	9926
890.377	9930
890.501	9835
890.624	9861
890.748	9865
890.871	9785
890.995	9800
891.118	9667
891.241	9778
891.364	9690
891.488	9819
891.611	9671
891.734	9675
891.857	9701
891.98	9728
892.103	9679
892.226	9679
892.349	9618
892.471	9545
892.594	9625
892.717	9595
892.839	9549
892.962	9538
893.085	9606
893.207	9549
893.33	9500
893.452	9553
893.575	9610
893.697	9500
893.819	9572
893.941	9523
894.064	9576
894.186	9420
894.308	9424
894.43	9496
894.552	9584
894.674	9572
894.796	9393
894.918	9313
895.04	9306
895.161	9355
895.283	9336
895.405	9188
895.526	9264
895.648	9180
895.769	9253
895.891	9283
896.012	9230
896.134	9241
896.255	9188
896.376	9085
896.498	9077
896.619	9097
896.74	9097
896.861	9039
896.982	9245
897.103	9275
897.224	9108
897.345	9051
897.466	8948
897.587	8933
897.708	9005
897.828	8998
897.949	8925
898.07	8872
898.19	8883
898.311	8967
898.431	8785
898.552	8872
898.672	8990
898.792	8933
898.913	8921
899.033	8819
899.153	8731
899.273	8648
899.393	8610
899.513	8712
899.633	8766
899.753	8769
899.873	8667
899.993	8712
900.113	8716
900.232	8689
900.352	8598
900.472	8613
900.591	8575
900.711	8587
900.83	8552
900.95	8636
901.069	8632
901.189	8499
901.308	8473
901.427	8351
901.546	8370
901.665	8499
901.784	8450
901.904	8351
902.023	8393
902.141	8221
902.26	8244
902.379	8294
902.498	8199
902.617	8233
902.735	8358
902.854	8290
902.973	8256
903.091	8077
903.21	8168
903.328	8214
903.446	8119
903.565	8096
903.683	8119
903.801	8115
903.919	8058
904.038	8107
904.156	8039
904.274	8069
904.392	8031
904.51	7982
904.627	8027
904.745	8081
904.863	8058
904.981	7925
905.098	7887
905.216	7913
905.334	7974
905.451	7883
905.569	7921
905.686	7902
905.803	7875
905.921	7780
906.038	7849
906.155	7776
906.272	7658
906.389	7704
906.506	7571
906.623	7655
906.74	7533
906.857	7491
906.974	7571
907.091	7540
907.208	7677
907.324	7609
907.441	7506
907.557	7407
907.674	7491
907.79	7373
907.907	7400
908.023	7400
908.139	7354
908.256	7403
908.372	7354
908.488	7335
908.604	7289
908.72	7255
908.836	7270
908.952	7236
909.068	7308
909.184	7320
909.3	7221
909.415	7308
909.531	7278
909.647	7031
909.762	7110
909.878	7057
909.993	7118
910.108	7126
910.224	7065
910.339	7069
910.454	7019
910.57	7015
910.685	6981
910.8	7164
910.915	7015
911.03	6958
911.145	6905
911.259	6829
911.374	6901
911.489	6760
911.604	6768
911.718	6719
911.833	6768
911.947	6597
912.062	6544
912.176	6688
912.291	6696
912.405	6677
912.519	6798
912.633	6844
912.748	6711
912.862	6688
912.976	6563
913.09	6479
913.204	6589
913.318	6582
913.431	6665
913.545	6646
913.659	6692
913.772	6631
913.886	6536
914	6517
914.113	6616
914.226	6608
914.34	6578
914.453	6494
914.566	6563
914.68	6479
914.793	6509
914.906	6308
915.019	6327
915.132	6304
915.245	6414
915.358	6391
915.47	6486
915.583	6437
915.696	6422
915.809	6460
915.921	6498
916.034	6376
916.146	6376
916.259	6350
916.371	6422
916.483	6403
916.595	6399
916.708	6418
916.82	6372
916.932	6376
917.044	6357
917.156	6372
917.268	6327
917.38	6350
917.491	6323
917.603	6388
917.715	6414
917.826	6361
917.938	6361
918.049	6235
918.161	6273
918.272	6391
918.384	6391
918.495	6270
918.606	6224
918.717	6140
918.828	6262
918.939	6216
919.05	6190
919.161	6216
919.272	6117
919.383	6159
919.494	6289
919.604	6399
919.715	6277
919.826	6235
919.936	6251
920.047	6334
920.157	6247
920.267	6483
920.378	6338
920.488	6289
920.598	6410
920.708	6517
920.818	6441
920.928	6460
921.038	6532
921.148	6601
921.258	6323
921.368	6205
921.477	6182
921.587	6140
921.697	6057
921.806	6152
921.916	6015
922.025	5935
922.134	5920
922.244	5874
922.353	5889
922.462	5805
922.571	5733
922.68	5703
922.789	5710
922.898	5661
923.007	5668
923.116	5668
923.224	5646
923.333	5600
923.442	5570
923.55	5573
923.659	5600
923.767	5638
923.876	5509
923.984	5585
924.092	5493
924.201	5562
924.309	5509
924.417	5554
924.525	5459
924.633	5471
924.741	6235
924.849	5318
924.956	5463
925.064	5330
925.172	5284
925.279	5334
925.387	5315
925.494	5322
925.602	5391
925.709	5372
925.816	5277
925.924	5246
926.031	5341
926.138	5250
926.245	5337
926.352	5124
926.459	5315
926.566	5326
926.673	5189
926.779	5109
926.886	5064
926.993	5048
927.099	4991
927.206	4984
927.312	4976
927.419	4995
927.525	4976
927.631	4957
927.737	4885
927.843	4828
927.95	4774
928.056	4797
928.162	4854
928.267	4824
928.373	5307
928.479	4816
928.585	4637
928.69	4721
928.796	4774
928.901	4660
929.007	4527
929.112	4683
929.218	4615
929.323	4561
929.428	4542
929.533	4630
929.638	4459
929.743	4512
929.848	4550
929.953	4554
930.058	4383
930.163	4337
930.267	4322
930.372	4451
930.477	4265
930.581	4443
930.685	4314
930.79	4215
930.894	4287
930.998	4188
931.103	4386
931.207	4055
931.311	4048
931.415	4032
931.519	3907
931.623	3888
