Data from glass_V78500241_2592.txt Node
Date: Wed Sep 01 19:32:28 CST 2021
User: usil
Spectrometer: V785-0024
Trigger mode: 0
Integration Time (sec): 4.000000E-1
Scans to average: 1
Nonlinearity correction enabled: false
Boxcar width: 0
Storing dark spectrum: false
XAxis mode: Wavelengths
Number of Pixels in Spectrum: 1024
>>>>>Begin Spectral Data<<<<<
801.071	3720
801.214	3762
801.356	3663
801.499	3736
801.641	3720
801.783	3762
801.926	3850
802.068	3797
802.211	3873
802.353	3876
802.496	3827
802.638	3880
802.78	3911
802.923	3911
803.065	3869
803.208	3842
803.35	3907
803.492	3880
803.635	3888
803.777	3793
803.919	3854
804.061	4124
804.204	3934
804.346	3945
804.488	3896
804.63	4059
804.773	3987
804.915	3994
805.057	4112
805.199	4067
805.341	4078
805.483	4112
805.626	4135
805.768	4147
805.91	4181
806.052	4196
806.194	4211
806.336	4344
806.478	4211
806.62	4162
806.762	4185
806.904	4196
807.046	4303
807.188	4169
807.33	4207
807.472	4215
807.614	4173
807.756	4249
807.898	4188
808.04	4219
808.182	4303
808.324	4287
808.465	4356
808.607	4409
808.749	4405
808.891	4474
809.033	4481
809.174	4386
809.316	4249
809.458	4287
809.6	4109
809.741	4169
809.883	4169
810.025	4166
810.166	4158
810.308	4238
810.45	4196
810.591	4234
810.733	4295
810.875	4531
811.016	4793
811.158	5056
811.299	5265
811.441	5265
811.582	5056
811.724	4691
811.865	4451
812.007	4462
812.148	4440
812.29	4363
812.431	4405
812.573	4398
812.714	4360
812.855	4402
812.997	4428
813.138	4481
813.279	4413
813.421	4394
813.562	4344
813.703	4344
813.845	4325
813.986	4238
814.127	4219
814.268	4261
814.41	4246
814.551	4265
814.692	4314
814.833	4238
814.974	4348
815.115	4348
815.256	4249
815.397	4257
815.539	4234
815.68	4211
815.821	4200
815.962	4325
816.103	4272
816.244	4272
816.385	4223
816.526	4257
816.666	4196
816.807	4101
816.948	4135
817.089	4185
817.23	4154
817.371	4051
817.512	4029
817.653	4059
817.793	4013
817.934	4071
818.075	4093
818.216	4048
818.356	4097
818.497	4002
818.638	3922
818.778	3873
818.919	3892
819.06	3876
819.2	3911
819.341	3846
819.481	3842
819.622	3922
819.762	3994
819.903	3922
820.043	3850
820.184	3823
820.324	3823
820.465	3888
820.605	3850
820.746	3857
820.886	3831
821.026	3907
821.167	3896
821.307	3975
821.447	3991
821.588	3899
821.728	3896
821.868	3915
822.008	3846
822.149	3926
822.289	3899
822.429	3797
822.569	3774
822.709	3751
822.849	3671
822.99	3724
823.13	3766
823.27	3827
823.41	3660
823.55	3732
823.69	3682
823.83	3713
823.97	3663
824.11	3603
824.25	3564
824.389	3625
824.529	3622
824.669	3614
824.809	3713
824.949	3740
825.089	3728
825.228	3663
825.368	3553
825.508	3584
825.648	3576
825.787	3580
825.927	3625
826.067	3644
826.206	3663
826.346	3743
826.485	3800
826.625	3827
826.765	3934
826.904	3842
827.044	3610
827.183	3504
827.323	3428
827.462	3462
827.601	3447
827.741	3405
827.88	3466
828.02	3317
828.159	3454
828.298	3466
828.437	3545
828.577	3466
828.716	3603
828.855	3500
828.994	3359
829.134	3363
829.273	3355
829.412	3332
829.551	3348
829.69	3386
829.829	3454
829.968	3466
830.107	3431
830.246	3401
830.385	3393
830.524	3302
830.663	3298
830.802	3253
830.941	3180
831.08	3165
831.219	3203
831.357	3211
831.496	3370
831.635	3233
831.774	3222
831.913	3211
832.051	3131
832.19	3127
832.329	3222
832.467	3154
832.606	3093
832.744	3165
832.883	3184
833.022	3207
833.16	3226
833.299	3283
833.437	3317
833.576	3332
833.714	3344
833.852	3435
833.991	3447
834.129	3466
834.267	3435
834.406	3363
834.544	3412
834.682	3416
834.821	3374
834.959	3584
835.097	3401
835.235	3519
835.373	3439
835.511	3450
835.65	3431
835.788	3443
835.926	3389
836.064	3374
836.202	3405
836.34	3553
836.478	3591
836.615	3557
836.753	3564
836.891	3610
837.029	3591
837.167	3549
837.305	3561
837.443	3511
837.58	3481
837.718	3599
837.856	3557
837.993	3542
838.131	3599
838.269	3564
838.406	3564
838.544	3587
838.681	3462
838.819	3462
838.956	3325
839.094	3386
839.231	3431
839.369	3507
839.506	3709
839.643	3675
839.781	3496
839.918	3443
840.055	3515
840.193	3538
840.33	3496
840.467	3538
840.604	3587
840.742	3762
840.879	3542
841.016	3538
841.153	3584
841.29	3740
841.427	3675
841.564	3701
841.701	3743
841.838	3694
841.975	3698
842.112	3713
842.249	3648
842.385	3587
842.522	3842
842.659	3660
842.796	3671
842.933	3698
843.069	3720
843.206	3671
843.343	3766
843.479	3743
843.616	3823
843.752	3663
843.889	3660
844.025	3865
844.162	3694
844.298	3842
844.435	3800
844.571	3816
844.708	3873
844.844	4006
844.98	4025
845.117	3975
845.253	3930
845.389	3884
845.525	3945
845.661	3968
845.798	3869
845.934	4002
846.07	3949
846.206	4048
846.342	4090
846.478	4044
846.614	3915
846.75	3896
846.886	3907
847.022	4036
847.158	3983
847.294	3991
847.429	3998
847.565	3972
847.701	4215
847.837	3911
847.972	3827
848.108	3968
848.244	3937
848.379	3819
848.515	3850
848.65	3797
848.786	3816
848.921	3831
849.057	3896
849.192	3949
849.328	3888
849.463	3892
849.598	3930
849.734	3880
849.869	3854
850.004	3808
850.14	3823
850.275	3774
850.41	3720
850.545	3766
850.68	3743
850.815	3770
850.95	3804
851.085	3941
851.22	3861
851.355	3804
851.49	3797
851.625	3743
851.76	3778
851.895	3701
852.03	3755
852.165	3789
852.299	3816
852.434	3873
852.569	3896
852.703	3892
852.838	3926
852.973	3991
853.107	3964
853.242	3892
853.376	3835
853.511	3778
853.645	3827
853.78	3937
853.914	3899
854.048	3873
854.183	3888
854.317	3926
854.451	4021
854.585	3918
854.72	3930
854.854	3972
854.988	3915
855.122	4025
855.256	3918
855.39	3972
855.524	4116
855.658	4032
855.792	4097
855.926	4105
856.06	4120
856.194	4200
856.327	4128
856.461	4143
856.595	4082
856.729	4143
856.862	4261
856.996	4166
857.13	4291
857.263	4348
857.397	4333
857.53	4291
857.664	4344
857.797	4409
857.931	4421
858.064	4352
858.197	4398
858.331	4325
858.464	4402
858.597	4344
858.731	4421
858.864	4432
858.997	4436
859.13	4512
859.263	4508
859.396	4504
859.529	4497
859.662	4485
859.795	4478
859.928	4584
860.061	4672
860.194	4725
860.327	4630
860.46	4675
860.592	4733
860.725	4755
860.858	4752
860.99	4668
861.123	4694
861.256	4687
861.388	4729
861.521	5292
861.653	4771
861.786	4679
861.918	4744
862.05	4782
862.183	4835
862.315	4908
862.447	4919
862.58	4858
862.712	4812
862.844	4801
862.976	4831
863.108	4862
863.24	5155
863.372	4771
863.504	4908
863.636	4934
863.768	4976
863.9	4965
864.032	4896
864.164	4949
864.296	4987
864.428	5102
864.559	5086
864.691	5155
864.823	5102
864.954	5121
865.086	5117
865.217	5155
865.349	5090
865.48	5155
865.612	5212
865.743	5307
865.875	5185
866.006	5178
866.137	5231
866.269	5189
866.4	5299
866.531	5201
866.662	5197
866.793	5288
866.924	5258
867.055	5345
867.186	5326
867.317	5345
867.448	5311
867.579	5372
867.71	5341
867.841	5387
867.972	5440
868.103	5474
868.233	5459
868.364	5505
868.495	5524
868.625	5695
868.756	5718
868.886	5668
869.017	5714
869.147	5855
869.278	5859
869.408	5798
869.539	5893
869.669	5958
869.799	5904
869.929	6022
870.06	5977
870.19	6148
870.32	6232
870.45	6262
870.58	6327
870.71	6414
870.84	6479
870.97	6407
871.1	6418
871.23	6616
871.36	6665
871.489	6639
871.619	6703
871.749	6783
871.879	6863
872.008	6985
872.138	6958
872.267	6966
872.397	6985
872.526	6973
872.656	7107
872.785	7133
872.915	7350
873.044	7537
873.173	7525
873.303	7616
873.432	7753
873.561	7841
873.69	7887
873.819	8031
873.948	8096
874.077	8202
874.206	8320
874.335	8537
874.464	8697
874.593	8823
874.722	8925
874.851	9131
874.979	9222
875.108	9363
875.237	9450
875.365	9526
875.494	9663
875.623	9743
875.751	9812
875.88	9968
876.008	10204
876.136	10287
876.265	10455
876.393	10698
876.521	10683
876.65	10763
876.778	10862
876.906	10812
877.034	11022
877.162	11181
877.29	11147
877.418	11269
877.546	11383
877.674	11440
877.802	11444
877.93	11474
878.058	11551
878.185	11482
878.313	11649
878.441	11767
878.568	11756
878.696	11798
878.824	11798
878.951	11893
879.079	12034
879.206	12155
879.333	12106
879.461	12019
879.588	12068
879.715	12136
879.842	12209
879.97	12049
880.097	11813
880.224	11920
880.351	11847
880.478	11836
880.605	11874
880.732	11809
880.859	11992
880.986	11805
881.112	11843
881.239	11741
881.366	11691
881.493	11718
881.619	11570
881.746	11501
881.872	11471
881.999	11497
882.125	11501
882.252	11611
882.378	11471
882.505	11509
882.631	11459
882.757	11254
882.883	11307
883.01	11250
883.136	11178
883.262	11159
883.388	11060
883.514	11178
883.64	11197
883.766	11155
883.892	10957
884.018	10968
884.143	11048
884.269	11075
884.395	10866
884.52	10752
884.646	10839
884.772	10725
884.897	10683
885.023	10687
885.148	10672
885.274	10831
885.399	10694
885.524	10611
885.65	10637
885.775	10558
885.9	10558
886.025	10656
886.15	10531
886.275	10424
886.4	10402
886.525	10432
886.65	10424
886.775	10303
886.9	10481
887.025	10558
887.149	10341
887.274	10211
887.399	10139
887.523	10215
887.648	10173
887.773	10112
887.897	10253
888.021	10139
888.146	10143
888.27	10173
888.395	10192
888.519	10162
888.643	10185
888.767	10223
888.891	10032
889.015	10010
889.139	10044
889.263	10036
889.387	10051
889.511	10128
889.635	10063
889.759	10044
889.883	9960
890.006	9880
890.13	10128
890.254	10013
890.377	9945
890.501	9895
890.624	9819
890.748	9888
890.871	9823
890.995	9778
891.118	9759
891.241	9747
891.364	9743
891.488	9808
891.611	9789
891.734	9732
891.857	9743
891.98	9762
892.103	9686
892.226	9679
892.349	9606
892.471	9584
892.594	9679
892.717	9606
892.839	9603
892.962	9599
893.085	9633
893.207	9561
893.33	9526
893.452	9488
893.575	9584
893.697	9401
893.819	9603
893.941	9557
894.064	9564
894.186	9458
894.308	9420
894.43	9458
894.552	9542
894.674	9530
894.796	9351
894.918	9405
895.04	9344
895.161	9386
895.283	9363
895.405	9222
895.526	9199
895.648	9222
895.769	9253
895.891	9123
896.012	9241
896.134	9233
896.255	9161
896.376	9112
896.498	9150
896.619	9135
896.74	9043
896.861	9066
896.982	9150
897.103	9321
897.224	9070
897.345	9077
897.466	8944
897.587	8937
897.708	9085
897.828	9001
897.949	8979
898.07	8883
898.19	8876
898.311	9032
898.431	8815
898.552	8944
898.672	8982
898.792	8971
898.913	8906
899.033	8804
899.153	8735
899.273	8670
899.393	8788
899.513	8640
899.633	8724
899.753	8750
899.873	8636
899.993	8708
900.113	8712
900.232	8754
900.352	8590
900.472	8590
900.591	8610
900.711	8499
900.83	8644
900.95	8651
901.069	8701
901.189	8575
901.308	8427
901.427	8408
901.546	8419
901.665	8408
901.784	8442
901.904	8355
902.023	8313
902.141	8221
902.26	8199
902.379	8301
902.498	8214
902.617	8218
902.735	8294
902.854	8279
902.973	8248
903.091	8126
903.21	8088
903.328	8062
903.446	8149
903.565	8024
903.683	8103
903.801	8092
903.919	8020
904.038	8130
904.156	8039
904.274	8103
904.392	8039
904.51	7989
904.627	8031
904.745	8092
904.863	8115
904.981	7921
905.098	7814
905.216	7837
905.334	7894
905.451	7936
905.569	7883
905.686	7890
905.803	7887
905.921	7780
906.038	7852
906.155	7708
906.272	7693
906.389	7753
906.506	7662
906.623	7605
906.74	7582
906.857	7563
906.974	7616
907.091	7643
907.208	7723
907.324	7658
907.441	7510
907.557	7487
907.674	7441
907.79	7392
907.907	7411
908.023	7460
908.139	7384
908.256	7415
908.372	7400
908.488	7308
908.604	7335
908.72	7217
908.836	7282
908.952	7206
909.068	7209
909.184	7289
909.3	7247
909.415	7232
909.531	7263
909.647	7061
909.762	7129
909.878	7072
909.993	7069
910.108	7034
910.224	7129
910.339	7053
910.454	7088
910.57	6909
910.685	6947
910.8	7122
910.915	7080
911.03	7015
911.145	6935
911.259	6859
911.374	6913
911.489	6833
911.604	6825
911.718	6730
911.833	6764
911.947	6620
912.062	6601
912.176	6669
912.291	6658
912.405	6692
912.519	6837
912.633	6859
912.748	6650
912.862	6688
912.976	6646
913.09	6544
913.204	6536
913.318	6578
913.431	6650
913.545	6677
913.659	6692
913.772	6620
913.886	6593
914	6540
914.113	6593
914.226	6642
914.34	6582
914.453	6456
914.566	6612
914.68	6528
914.793	6506
914.906	6342
915.019	6452
915.132	6327
915.245	6467
915.358	6441
915.47	6445
915.583	6471
915.696	6483
915.809	6555
915.921	6502
916.034	6384
916.146	6437
916.259	6327
916.371	6460
916.483	6407
916.595	6369
916.708	6452
916.82	6372
916.932	6365
917.044	6338
917.156	6391
917.268	6323
917.38	6365
917.491	6300
917.603	6331
917.715	6380
917.826	6376
917.938	6300
918.049	6277
918.161	6300
918.272	6399
918.384	6407
918.495	6395
918.606	6205
918.717	6175
918.828	6289
918.939	6228
919.05	6175
919.161	6262
919.272	6117
919.383	6178
919.494	6315
919.604	6445
919.715	6327
919.826	6266
919.936	6232
920.047	6319
920.157	6262
920.267	6399
920.378	6365
920.488	6292
920.598	6452
920.708	6513
920.818	6460
920.928	6475
921.038	6604
921.148	6544
921.258	6391
921.368	6319
921.477	6159
921.587	6125
921.697	6076
921.806	6159
921.916	6057
922.025	5901
922.134	5923
922.244	5889
922.353	5901
922.462	5809
922.571	5748
922.68	5653
922.789	5672
922.898	5722
923.007	5638
923.116	5718
923.224	5649
923.333	5668
923.442	5630
923.55	5570
923.659	5600
923.767	5532
923.876	5566
923.984	5634
924.092	5501
924.201	5585
924.309	5535
924.417	5577
924.525	5433
924.633	5478
924.741	6224
924.849	5357
924.956	5448
925.064	5334
925.172	5322
925.279	5307
925.387	5315
925.494	5307
925.602	5444
925.709	5395
925.816	5265
925.924	5357
926.031	5360
926.138	5296
926.245	5360
926.352	5254
926.459	5303
926.566	5273
926.673	5185
926.779	5109
926.886	5060
926.993	5003
927.099	5014
927.206	4995
927.312	4942
927.419	5029
927.525	4965
927.631	4949
927.737	4873
927.843	4892
927.95	4809
928.056	4828
928.162	4831
928.267	4854
928.373	5250
928.479	4809
928.585	4637
928.69	4744
928.796	4774
928.901	4687
929.007	4554
929.112	4634
929.218	4580
929.323	4577
929.428	4558
929.533	4622
929.638	4516
929.743	4542
929.848	4531
929.953	4531
930.058	4481
930.163	4329
930.267	4329
930.372	4409
930.477	4287
930.581	4466
930.685	4417
930.79	4242
930.894	4352
930.998	4268
931.103	4344
931.207	4093
931.311	4048
931.415	4048
931.519	3949
931.623	3953
