Data from glass_V78500241_587.txt Node
Date: Wed Sep 01 19:18:34 CST 2021
User: usil
Spectrometer: V785-0024
Trigger mode: 0
Integration Time (sec): 4.000000E-1
Scans to average: 1
Nonlinearity correction enabled: false
Boxcar width: 0
Storing dark spectrum: false
XAxis mode: Wavelengths
Number of Pixels in Spectrum: 1024
>>>>>Begin Spectral Data<<<<<
801.071	3747
801.214	3766
801.356	3766
801.499	3732
801.641	3740
801.783	3781
801.926	3937
802.068	3854
802.211	3857
802.353	3865
802.496	3838
802.638	3873
802.78	3907
802.923	3907
803.065	3907
803.208	3911
803.35	3892
803.492	3930
803.635	3964
803.777	3785
803.919	3880
804.061	4185
804.204	3983
804.346	3911
804.488	3926
804.63	4063
804.773	4013
804.915	3998
805.057	4154
805.199	4063
805.341	4093
805.483	4093
805.626	4120
805.768	4112
805.91	4242
806.052	4287
806.194	4242
806.336	4398
806.478	4215
806.62	4227
806.762	4211
806.904	4246
807.046	4356
807.188	4230
807.33	4177
807.472	4234
807.614	4219
807.756	4322
807.898	4207
808.04	4162
808.182	4299
808.324	4344
808.465	4394
808.607	4436
808.749	4500
808.891	4447
809.033	4508
809.174	4466
809.316	4230
809.458	4261
809.6	4166
809.741	4162
809.883	4181
810.025	4181
810.166	4211
810.308	4246
810.45	4246
810.591	4234
810.733	4299
810.875	4508
811.016	4854
811.158	5128
811.299	5288
811.441	5330
811.582	5041
811.724	4714
811.865	4481
812.007	4485
812.148	4459
812.29	4493
812.431	4440
812.573	4443
812.714	4421
812.855	4478
812.997	4432
813.138	4455
813.279	4432
813.421	4390
813.562	4375
813.703	4356
813.845	4322
813.986	4268
814.127	4246
814.268	4284
814.41	4227
814.551	4303
814.692	4341
814.833	4284
814.974	4329
815.115	4375
815.256	4249
815.397	4257
815.539	4295
815.68	4207
815.821	4265
815.962	4310
816.103	4310
816.244	4249
816.385	4246
816.526	4272
816.666	4192
816.807	4105
816.948	4166
817.089	4169
817.23	4143
817.371	4059
817.512	4097
817.653	4097
817.793	4074
817.934	4059
818.075	4074
818.216	4090
818.356	4116
818.497	4013
818.638	3888
818.778	3930
818.919	3930
819.06	3876
819.2	3972
819.341	3869
819.481	3880
819.622	3915
819.762	4074
819.903	3983
820.043	3896
820.184	3827
820.324	3808
820.465	3911
820.605	3854
820.746	3926
820.886	3800
821.026	3926
821.167	3918
821.307	4021
821.447	3987
821.588	3975
821.728	3934
821.868	3953
822.008	3869
822.149	3865
822.289	3899
822.429	3812
822.569	3793
822.709	3808
822.849	3740
822.99	3732
823.13	3762
823.27	3774
823.41	3728
823.55	3755
823.69	3728
823.83	3800
823.97	3675
824.11	3648
824.25	3637
824.389	3667
824.529	3667
824.669	3686
824.809	3701
824.949	3808
825.089	3747
825.228	3652
825.368	3568
825.508	3599
825.648	3595
825.787	3618
825.927	3652
826.067	3584
826.206	3701
826.346	3766
826.485	3876
826.625	3880
826.765	4006
826.904	3819
827.044	3591
827.183	3606
827.323	3477
827.462	3511
827.601	3454
827.741	3488
827.88	3485
828.02	3386
828.159	3462
828.298	3477
828.437	3553
828.577	3447
828.716	3603
828.855	3534
828.994	3393
829.134	3405
829.273	3389
829.412	3363
829.551	3336
829.69	3389
829.829	3450
829.968	3553
830.107	3454
830.246	3428
830.385	3409
830.524	3355
830.663	3310
830.802	3294
830.941	3226
831.08	3233
831.219	3306
831.357	3306
831.496	3424
831.635	3230
831.774	3211
831.913	3180
832.051	3108
832.19	3127
832.329	3203
832.467	3119
832.606	3142
832.744	3173
832.883	3195
833.022	3192
833.16	3249
833.299	3332
833.437	3348
833.576	3405
833.714	3428
833.852	3420
833.991	3496
834.129	3504
834.267	3447
834.406	3439
834.544	3454
834.682	3409
834.821	3443
834.959	3595
835.097	3393
835.235	3572
835.373	3519
835.511	3477
835.65	3485
835.788	3485
835.926	3393
836.064	3424
836.202	3435
836.34	3614
836.478	3603
836.615	3614
836.753	3591
836.891	3660
837.029	3610
837.167	3587
837.305	3557
837.443	3587
837.58	3507
837.718	3618
837.856	3553
837.993	3584
838.131	3618
838.269	3625
838.406	3606
838.544	3591
838.681	3496
838.819	3492
838.956	3405
839.094	3374
839.231	3473
839.369	3504
839.506	3728
839.643	3637
839.781	3523
839.918	3477
840.055	3561
840.193	3534
840.33	3530
840.467	3572
840.604	3644
840.742	3835
840.879	3580
841.016	3591
841.153	3625
841.29	3793
841.427	3709
841.564	3694
841.701	3762
841.838	3743
841.975	3732
842.112	3755
842.249	3614
842.385	3595
842.522	3808
842.659	3717
842.796	3682
842.933	3759
843.069	3724
843.206	3728
843.343	3838
843.479	3812
843.616	3865
843.752	3705
843.889	3690
844.025	3876
844.162	3720
844.298	3876
844.435	3785
844.571	3804
844.708	3918
844.844	4013
844.98	4010
845.117	4017
845.253	3911
845.389	3926
845.525	3960
845.661	3994
845.798	3930
845.934	4036
846.07	3949
846.206	4040
846.342	4166
846.478	4090
846.614	3975
846.75	3945
846.886	3911
847.022	4071
847.158	3972
847.294	4013
847.429	4036
847.565	3998
847.701	4268
847.837	3888
847.972	3892
848.108	3987
848.244	3983
848.379	3896
848.515	3823
848.65	3812
848.786	3854
848.921	3896
849.057	3907
849.192	3953
849.328	3949
849.463	3930
849.598	3888
849.734	3857
849.869	3846
850.004	3797
850.14	3854
850.275	3816
850.41	3728
850.545	3797
850.68	3781
850.815	3835
850.95	3819
851.085	3922
851.22	3884
851.355	3842
851.49	3838
851.625	3827
851.76	3812
851.895	3759
852.03	3743
852.165	3861
852.299	3930
852.434	3945
852.569	3846
852.703	3896
852.838	3918
852.973	4025
853.107	3979
853.242	3899
853.376	3884
853.511	3766
853.645	3819
853.78	3972
853.914	3934
854.048	3907
854.183	3827
854.317	3930
854.451	4040
854.585	3987
854.72	4002
854.854	4101
854.988	3934
855.122	4048
855.256	3960
855.39	3998
855.524	4078
855.658	4090
855.792	4097
855.926	4135
856.06	4177
856.194	4223
856.327	4158
856.461	4147
856.595	4135
856.729	4162
856.862	4314
856.996	4227
857.13	4303
857.263	4325
857.397	4390
857.53	4325
857.664	4379
857.797	4398
857.931	4428
858.064	4402
858.197	4466
858.331	4421
858.464	4421
858.597	4363
858.731	4443
858.864	4428
858.997	4443
859.13	4561
859.263	4523
859.396	4607
859.529	4535
859.662	4565
859.795	4580
859.928	4675
860.061	4748
860.194	4771
860.327	4660
860.46	4653
860.592	4710
860.725	4755
860.858	4786
860.99	4664
861.123	4672
861.256	4717
861.388	4839
861.521	5402
861.653	4748
861.786	4710
861.918	4774
862.05	4820
862.183	4850
862.315	4889
862.447	4976
862.58	4934
862.712	4816
862.844	4782
862.976	4866
863.108	4915
863.24	5197
863.372	4809
863.504	4965
863.636	4915
863.768	4946
863.9	5014
864.032	4946
864.164	5003
864.296	5045
864.428	5052
864.559	5151
864.691	5151
864.823	5117
864.954	5132
865.086	5132
865.217	5178
865.349	5094
865.48	5189
865.612	5223
865.743	5318
865.875	5250
866.006	5204
866.137	5250
866.269	5242
866.4	5239
866.531	5296
866.662	5242
866.793	5261
866.924	5273
867.055	5368
867.186	5368
867.317	5357
867.448	5277
867.579	5341
867.71	5398
867.841	5337
867.972	5497
868.103	5497
868.233	5471
868.364	5501
868.495	5551
868.625	5695
868.756	5805
868.886	5707
869.017	5726
869.147	5836
869.278	5859
869.408	5847
869.539	5813
869.669	5958
869.799	5980
869.929	6003
870.06	6041
870.19	6178
870.32	6167
870.45	6296
870.58	6365
870.71	6433
870.84	6471
870.97	6422
871.1	6460
871.23	6662
871.36	6703
871.489	6696
871.619	6749
871.749	6806
871.879	6848
872.008	7042
872.138	7046
872.267	7069
872.397	6973
872.526	6981
872.656	7061
872.785	7247
872.915	7365
873.044	7502
873.173	7510
873.303	7636
873.432	7738
873.561	7902
873.69	7944
873.819	8005
873.948	8259
874.077	8248
874.206	8305
874.335	8446
874.464	8587
874.593	8929
874.722	8971
874.851	9211
874.979	9203
875.108	9359
875.237	9412
875.365	9507
875.494	9641
875.623	9819
875.751	9899
875.88	9975
876.008	10207
876.136	10295
876.265	10523
876.393	10687
876.521	10763
876.65	10805
876.778	10892
876.906	10877
877.034	11067
877.162	11090
877.29	11124
877.418	11254
877.546	11330
877.674	11395
877.802	11532
877.93	11558
878.058	11600
878.185	11615
878.313	11684
878.441	11733
878.568	11710
878.696	11840
878.824	11859
878.951	11961
879.079	12003
879.206	12152
879.333	12034
879.461	12049
879.588	12125
879.715	12011
879.842	12228
879.97	12102
880.097	11882
880.224	11851
880.351	11798
880.478	11840
880.605	11851
880.732	11885
880.859	12030
880.986	11821
881.112	11809
881.239	11760
881.366	11653
881.493	11653
881.619	11581
881.746	11551
881.872	11566
881.999	11547
882.125	11539
882.252	11581
882.378	11497
882.505	11573
882.631	11383
882.757	11326
882.883	11284
883.01	11254
883.136	11166
883.262	11147
883.388	11159
883.514	11353
883.64	11166
883.766	11140
883.892	11071
884.018	11018
884.143	11121
884.269	11102
884.395	10793
884.52	10755
884.646	10752
884.772	10725
884.897	10668
885.023	10767
885.148	10717
885.274	10755
885.399	10710
885.524	10535
885.65	10596
885.775	10527
885.9	10573
886.025	10603
886.15	10508
886.275	10519
886.4	10352
886.525	10413
886.65	10428
886.775	10405
886.9	10436
887.025	10561
887.149	10344
887.274	10173
887.399	10185
887.523	10238
887.648	10078
887.773	10071
887.897	10253
888.021	10234
888.146	10139
888.27	10246
888.395	10276
888.519	10173
888.643	10150
888.767	10223
888.891	10124
889.015	10067
889.139	10086
889.263	9979
889.387	10105
889.511	10051
889.635	10086
889.759	9968
889.883	9956
890.006	10048
890.13	10139
890.254	9960
890.377	9953
890.501	9888
890.624	9857
890.748	9975
890.871	9888
890.995	9800
891.118	9736
891.241	9732
891.364	9797
891.488	9857
891.611	9778
891.734	9747
891.857	9816
891.98	9713
892.103	9740
892.226	9762
892.349	9728
892.471	9561
892.594	9580
892.717	9629
892.839	9637
892.962	9675
893.085	9724
893.207	9633
893.33	9504
893.452	9511
893.575	9591
893.697	9469
893.819	9584
893.941	9603
894.064	9606
894.186	9473
894.308	9359
894.43	9534
894.552	9629
894.674	9568
894.796	9416
894.918	9405
895.04	9344
895.161	9340
895.283	9275
895.405	9294
895.526	9272
895.648	9279
895.769	9214
895.891	9283
896.012	9279
896.134	9283
896.255	9173
896.376	9112
896.498	9192
896.619	9112
896.74	9180
896.861	9100
896.982	9245
897.103	9351
897.224	9150
897.345	9119
897.466	9017
897.587	9074
897.708	9119
897.828	8982
897.949	8960
898.07	8861
898.19	8941
898.311	8963
898.431	8891
898.552	8899
898.672	8941
898.792	8979
898.913	8872
899.033	8826
899.153	8735
899.273	8678
899.393	8720
899.513	8746
899.633	8773
899.753	8712
899.873	8712
899.993	8769
900.113	8708
900.232	8743
900.352	8629
900.472	8530
900.591	8545
900.711	8625
900.83	8598
900.95	8701
901.069	8712
901.189	8617
901.308	8488
901.427	8389
901.546	8461
901.665	8465
901.784	8495
901.904	8442
902.023	8336
902.141	8221
902.26	8237
902.379	8240
902.498	8221
902.617	8164
902.735	8347
902.854	8271
902.973	8336
903.091	8157
903.21	8172
903.328	8187
903.446	8111
903.565	8168
903.683	8142
903.801	8035
903.919	8130
904.038	8168
904.156	8046
904.274	8119
904.392	8050
904.51	7982
904.627	8058
904.745	8157
904.863	8092
904.981	7917
905.098	7868
905.216	7890
905.334	7959
905.451	7951
905.569	7841
905.686	8043
905.803	7894
905.921	7799
906.038	7860
906.155	7814
906.272	7761
906.389	7761
906.506	7639
906.623	7632
906.74	7639
906.857	7499
906.974	7578
907.091	7647
907.208	7792
907.324	7647
907.441	7609
907.557	7499
907.674	7441
907.79	7350
907.907	7422
908.023	7537
908.139	7476
908.256	7358
908.372	7373
908.488	7346
908.604	7282
908.72	7209
908.836	7289
908.952	7274
909.068	7289
909.184	7266
909.3	7232
909.415	7244
909.531	7285
909.647	7107
909.762	7137
909.878	7114
909.993	7149
910.108	7114
910.224	7084
910.339	7050
910.454	7034
910.57	7019
910.685	6928
910.8	7206
910.915	7133
911.03	6996
911.145	6909
911.259	6947
911.374	6913
911.489	6863
911.604	6795
911.718	6719
911.833	6776
911.947	6665
912.062	6597
912.176	6719
912.291	6730
912.405	6753
912.519	6863
912.633	6909
912.748	6768
912.862	6757
912.976	6650
913.09	6528
913.204	6646
913.318	6593
913.431	6669
913.545	6662
913.659	6692
913.772	6719
913.886	6601
914	6540
914.113	6658
914.226	6658
914.34	6631
914.453	6521
914.566	6597
914.68	6582
914.793	6555
914.906	6426
915.019	6456
915.132	6361
915.245	6429
915.358	6426
915.47	6448
915.583	6422
915.696	6521
915.809	6547
915.921	6547
916.034	6445
916.146	6464
916.259	6365
916.371	6456
916.483	6452
916.595	6407
916.708	6437
916.82	6380
916.932	6372
917.044	6365
917.156	6429
917.268	6346
917.38	6410
917.491	6334
917.603	6350
917.715	6399
917.826	6410
917.938	6319
918.049	6300
918.161	6384
918.272	6452
918.384	6388
918.495	6376
918.606	6334
918.717	6182
918.828	6285
918.939	6239
919.05	6175
919.161	6277
919.272	6155
919.383	6163
919.494	6311
919.604	6403
919.715	6353
919.826	6232
919.936	6213
920.047	6376
920.157	6285
920.267	6483
920.378	6323
920.488	6292
920.598	6448
920.708	6540
920.818	6467
920.928	6464
921.038	6563
921.148	6551
921.258	6388
921.368	6285
921.477	6243
921.587	6228
921.697	6102
921.806	6163
921.916	6190
922.025	6015
922.134	5912
922.244	5927
922.353	5927
922.462	5844
922.571	5775
922.68	5779
922.789	5699
922.898	5775
923.007	5722
923.116	5707
923.224	5714
923.333	5676
923.442	5589
923.55	5577
923.659	5592
923.767	5619
923.876	5562
923.984	5600
924.092	5512
924.201	5596
924.309	5562
924.417	5551
924.525	5493
924.633	5516
924.741	6338
924.849	5425
924.956	5433
925.064	5368
925.172	5360
925.279	5334
925.387	5372
925.494	5307
925.602	5395
925.709	5410
925.816	5307
925.924	5353
926.031	5402
926.138	5334
926.245	5376
926.352	5212
926.459	5349
926.566	5349
926.673	5242
926.779	5155
926.886	5143
926.993	5048
927.099	5033
927.206	4957
927.312	4984
927.419	5010
927.525	4984
927.631	4949
927.737	4911
927.843	4862
927.95	4793
928.056	4866
928.162	4831
928.267	4885
928.373	5296
928.479	4862
928.585	4653
928.69	4782
928.796	4782
928.901	4653
929.007	4607
929.112	4687
929.218	4641
929.323	4622
929.428	4592
929.533	4683
929.638	4558
929.743	4554
929.848	4599
929.953	4569
930.058	4459
930.163	4329
930.267	4356
930.372	4470
930.477	4344
930.581	4447
930.685	4383
930.79	4276
930.894	4299
930.998	4295
931.103	4402
931.207	4188
931.311	4101
931.415	4051
931.519	3941
931.623	3979
