Data from glass_V78500241_240.txt Node
Date: Wed Sep 01 19:16:09 CST 2021
User: usil
Spectrometer: V785-0024
Trigger mode: 0
Integration Time (sec): 4.000000E-1
Scans to average: 1
Nonlinearity correction enabled: false
Boxcar width: 0
Storing dark spectrum: false
XAxis mode: Wavelengths
Number of Pixels in Spectrum: 1024
>>>>>Begin Spectral Data<<<<<
801.071	3736
801.214	3740
801.356	3713
801.499	3740
801.641	3759
801.783	3797
801.926	3861
802.068	3819
802.211	3846
802.353	3888
802.496	3857
802.638	3880
802.78	3896
802.923	3956
803.065	3896
803.208	3857
803.35	3854
803.492	3922
803.635	3876
803.777	3808
803.919	3892
804.061	4173
804.204	4044
804.346	3975
804.488	3941
804.63	4093
804.773	4025
804.915	3998
805.057	4188
805.199	4051
805.341	4082
805.483	4158
805.626	4147
805.768	4150
805.91	4242
806.052	4246
806.194	4223
806.336	4363
806.478	4234
806.62	4207
806.762	4215
806.904	4291
807.046	4299
807.188	4192
807.33	4246
807.472	4249
807.614	4230
807.756	4265
807.898	4219
808.04	4238
808.182	4280
808.324	4337
808.465	4371
808.607	4447
808.749	4538
808.891	4436
809.033	4546
809.174	4428
809.316	4280
809.458	4268
809.6	4177
809.741	4185
809.883	4135
810.025	4234
810.166	4215
810.308	4253
810.45	4230
810.591	4268
810.733	4344
810.875	4508
811.016	4839
811.158	5178
811.299	5269
811.441	5326
811.582	5056
811.724	4645
811.865	4459
812.007	4428
812.148	4443
812.29	4413
812.431	4409
812.573	4398
812.714	4344
812.855	4455
812.997	4432
813.138	4470
813.279	4424
813.421	4421
813.562	4356
813.703	4341
813.845	4310
813.986	4291
814.127	4223
814.268	4287
814.41	4291
814.551	4238
814.692	4314
814.833	4261
814.974	4333
815.115	4344
815.256	4253
815.397	4261
815.539	4246
815.68	4246
815.821	4215
815.962	4383
816.103	4276
816.244	4291
816.385	4265
816.526	4306
816.666	4223
816.807	4124
816.948	4219
817.089	4211
817.23	4135
817.371	4032
817.512	4086
817.653	4093
817.793	4032
817.934	4040
818.075	4128
818.216	4063
818.356	4090
818.497	4063
818.638	3922
818.778	3934
818.919	3892
819.06	3854
819.2	3934
819.341	3842
819.481	3865
819.622	3918
819.762	4017
819.903	3964
820.043	3850
820.184	3838
820.324	3800
820.465	3873
820.605	3888
820.746	3869
820.886	3819
821.026	3960
821.167	3953
821.307	4002
821.447	4002
821.588	3930
821.728	3972
821.868	3941
822.008	3949
822.149	3930
822.289	3926
822.429	3797
822.569	3728
822.709	3755
822.849	3713
822.99	3751
823.13	3740
823.27	3804
823.41	3720
823.55	3804
823.69	3766
823.83	3766
823.97	3705
824.11	3610
824.25	3633
824.389	3682
824.529	3648
824.669	3610
824.809	3709
824.949	3740
825.089	3778
825.228	3751
825.368	3633
825.508	3553
825.648	3587
825.787	3656
825.927	3656
826.067	3663
826.206	3686
826.346	3789
826.485	3850
826.625	3846
826.765	3983
826.904	3876
827.044	3599
827.183	3526
827.323	3469
827.462	3473
827.601	3439
827.741	3416
827.88	3485
828.02	3389
828.159	3481
828.298	3511
828.437	3538
828.577	3488
828.716	3599
828.855	3504
828.994	3397
829.134	3389
829.273	3355
829.412	3348
829.551	3363
829.69	3351
829.829	3466
829.968	3557
830.107	3481
830.246	3443
830.385	3389
830.524	3351
830.663	3332
830.802	3291
830.941	3199
831.08	3173
831.219	3298
831.357	3260
831.496	3405
831.635	3233
831.774	3226
831.913	3195
832.051	3142
832.19	3165
832.329	3237
832.467	3123
832.606	3123
832.744	3192
832.883	3207
833.022	3226
833.16	3249
833.299	3306
833.437	3359
833.576	3393
833.714	3405
833.852	3443
833.991	3462
834.129	3496
834.267	3420
834.406	3443
834.544	3416
834.682	3409
834.821	3435
834.959	3580
835.097	3454
835.235	3534
835.373	3473
835.511	3561
835.65	3485
835.788	3492
835.926	3443
836.064	3386
836.202	3409
836.34	3576
836.478	3603
836.615	3549
836.753	3603
836.891	3667
837.029	3595
837.167	3591
837.305	3561
837.443	3561
837.58	3526
837.718	3622
837.856	3564
837.993	3526
838.131	3603
838.269	3557
838.406	3591
838.544	3606
838.681	3485
838.819	3462
838.956	3412
839.094	3424
839.231	3466
839.369	3534
839.506	3778
839.643	3644
839.781	3511
839.918	3450
840.055	3568
840.193	3545
840.33	3576
840.467	3576
840.604	3603
840.742	3838
840.879	3572
841.016	3599
841.153	3625
841.29	3755
841.427	3736
841.564	3701
841.701	3778
841.838	3694
841.975	3705
842.112	3724
842.249	3660
842.385	3660
842.522	3800
842.659	3690
842.796	3671
842.933	3755
843.069	3701
843.206	3774
843.343	3831
843.479	3800
843.616	3854
843.752	3705
843.889	3713
844.025	3850
844.162	3713
844.298	3850
844.435	3804
844.571	3797
844.708	3888
844.844	3972
844.98	3983
845.117	4036
845.253	3888
845.389	3892
845.525	4002
845.661	3979
845.798	3888
845.934	4029
846.07	3918
846.206	4040
846.342	4093
846.478	4093
846.614	3991
846.75	3949
846.886	3968
847.022	4044
847.158	3991
847.294	4032
847.429	4040
847.565	4006
847.701	4230
847.837	3907
847.972	3876
848.108	3994
848.244	4002
848.379	3876
848.515	3846
848.65	3869
848.786	3861
848.921	3869
849.057	3953
849.192	3979
849.328	3876
849.463	3964
849.598	3945
849.734	3876
849.869	3888
850.004	3789
850.14	3869
850.275	3800
850.41	3740
850.545	3804
850.68	3812
850.815	3831
850.95	3835
851.085	3937
851.22	3861
851.355	3854
851.49	3781
851.625	3800
851.76	3781
851.895	3762
852.03	3743
852.165	3838
852.299	3831
852.434	3922
852.569	3922
852.703	3854
852.838	3975
852.973	4044
853.107	3968
853.242	3941
853.376	3876
853.511	3797
853.645	3850
853.78	3968
853.914	3903
854.048	3918
854.183	3918
854.317	3911
854.451	4116
854.585	4013
854.72	3983
854.854	4040
854.988	3964
855.122	4013
855.256	3937
855.39	4021
855.524	4139
855.658	4067
855.792	4154
855.926	4188
856.06	4200
856.194	4238
856.327	4196
856.461	4158
856.595	4135
856.729	4211
856.862	4299
856.996	4230
857.13	4272
857.263	4310
857.397	4428
857.53	4261
857.664	4383
857.797	4405
857.931	4417
858.064	4386
858.197	4497
858.331	4440
858.464	4375
858.597	4344
858.731	4417
858.864	4462
858.997	4436
859.13	4516
859.263	4558
859.396	4580
859.529	4516
859.662	4542
859.795	4558
859.928	4611
860.061	4687
860.194	4721
860.327	4706
860.46	4653
860.592	4744
860.725	4748
860.858	4786
860.99	4725
861.123	4736
861.256	4714
861.388	4835
861.521	5379
861.653	4736
861.786	4710
861.918	4778
862.05	4797
862.183	4854
862.315	4942
862.447	4946
862.58	4930
862.712	4740
862.844	4801
862.976	4873
863.108	4938
863.24	5246
863.372	4854
863.504	4835
863.636	4911
863.768	4961
863.9	5052
864.032	4938
864.164	4961
864.296	5048
864.428	5056
864.559	5155
864.691	5193
864.823	5174
864.954	5143
865.086	5102
865.217	5136
865.349	5162
865.48	5178
865.612	5197
865.743	5280
865.875	5235
866.006	5227
866.137	5246
866.269	5250
866.4	5250
866.531	5273
866.662	5216
866.793	5315
866.924	5299
867.055	5341
867.186	5395
867.317	5368
867.448	5280
867.579	5429
867.71	5391
867.841	5402
867.972	5467
868.103	5486
868.233	5474
868.364	5516
868.495	5528
868.625	5668
868.756	5802
868.886	5710
869.017	5775
869.147	5844
869.278	5885
869.408	5866
869.539	5885
869.669	5901
869.799	5946
869.929	5984
870.06	6007
870.19	6254
870.32	6171
870.45	6247
870.58	6300
870.71	6391
870.84	6460
870.97	6460
871.1	6448
871.23	6631
871.36	6707
871.489	6631
871.619	6749
871.749	6757
871.879	6894
872.008	6901
872.138	6996
872.267	7046
872.397	6996
872.526	7000
872.656	7164
872.785	7289
872.915	7327
873.044	7578
873.173	7571
873.303	7666
873.432	7761
873.561	7902
873.69	7936
873.819	8107
873.948	8214
874.077	8225
874.206	8381
874.335	8370
874.464	8705
874.593	8902
874.722	8876
874.851	9131
874.979	9279
875.108	9374
875.237	9492
875.365	9511
875.494	9682
875.623	9816
875.751	9850
875.88	9994
876.008	10169
876.136	10341
876.265	10584
876.393	10668
876.521	10771
876.65	10805
876.778	10934
876.906	10873
877.034	10972
877.162	11105
877.29	11045
877.418	11288
877.546	11269
877.674	11421
877.802	11512
877.93	11486
878.058	11596
878.185	11604
878.313	11684
878.441	11824
878.568	11634
878.696	11794
878.824	11920
878.951	11961
879.079	12003
879.206	12155
879.333	12045
879.461	12038
879.588	12057
879.715	12087
879.842	12319
879.97	12117
880.097	11920
880.224	11897
880.351	11942
880.478	11855
880.605	11901
880.732	11836
880.859	12019
880.986	11836
881.112	11863
881.239	11783
881.366	11573
881.493	11676
881.619	11497
881.746	11535
881.872	11490
881.999	11547
882.125	11471
882.252	11577
882.378	11448
882.505	11627
882.631	11452
882.757	11284
882.883	11398
883.01	11201
883.136	11227
883.262	11124
883.388	11181
883.514	11254
883.64	11143
883.766	11113
883.892	11022
884.018	10999
884.143	11010
884.269	11006
884.395	10858
884.52	10782
884.646	10717
884.772	10763
884.897	10717
885.023	10759
885.148	10649
885.274	10740
885.399	10763
885.524	10672
885.65	10611
885.775	10637
885.9	10660
886.025	10599
886.15	10561
886.275	10440
886.4	10318
886.525	10428
886.65	10352
886.775	10409
886.9	10516
887.025	10516
887.149	10432
887.274	10215
887.399	10242
887.523	10147
887.648	10227
887.773	10128
887.897	10219
888.021	10310
888.146	10135
888.27	10238
888.395	10215
888.519	10154
888.643	10128
888.767	10211
888.891	10063
889.015	10071
889.139	10048
889.263	9953
889.387	10109
889.511	10109
889.635	10032
889.759	10021
889.883	9937
890.006	10025
890.13	10147
890.254	9945
890.377	9964
890.501	9884
890.624	9842
890.748	9949
890.871	9899
890.995	9797
891.118	9713
891.241	9762
891.364	9728
891.488	9812
891.611	9728
891.734	9766
891.857	9740
891.98	9755
892.103	9770
892.226	9785
892.349	9713
892.471	9507
892.594	9587
892.717	9690
892.839	9564
892.962	9663
893.085	9644
893.207	9618
893.33	9496
893.452	9523
893.575	9625
893.697	9481
893.819	9663
893.941	9614
894.064	9614
894.186	9462
894.308	9462
894.43	9530
894.552	9561
894.674	9572
894.796	9424
894.918	9496
895.04	9416
895.161	9393
895.283	9382
895.405	9283
895.526	9298
895.648	9199
895.769	9165
895.891	9321
896.012	9283
896.134	9222
896.255	9199
896.376	9154
896.498	9119
896.619	9157
896.74	9062
896.861	9161
896.982	9256
897.103	9325
897.224	9199
897.345	9055
897.466	9020
897.587	9070
897.708	9116
897.828	9039
897.949	8952
898.07	8906
898.19	8971
898.311	8998
898.431	8849
898.552	8906
898.672	9032
898.792	8986
898.913	8849
899.033	8876
899.153	8830
899.273	8640
899.393	8746
899.513	8792
899.633	8769
899.753	8781
899.873	8720
899.993	8712
900.113	8667
900.232	8701
900.352	8659
900.472	8606
900.591	8590
900.711	8659
900.83	8606
900.95	8682
901.069	8640
901.189	8598
901.308	8473
901.427	8377
901.546	8507
901.665	8465
901.784	8488
901.904	8412
902.023	8324
902.141	8240
902.26	8225
902.379	8244
902.498	8259
902.617	8218
902.735	8320
902.854	8347
902.973	8301
903.091	8202
903.21	8130
903.328	8149
903.446	8130
903.565	8115
903.683	8126
903.801	8096
903.919	8161
904.038	8199
904.156	8027
904.274	8092
904.392	8065
904.51	8084
904.627	8054
904.745	8111
904.863	8035
904.981	7928
905.098	7856
905.216	7917
905.334	7902
905.451	7909
905.569	7883
905.686	7917
905.803	7936
905.921	7795
906.038	7864
906.155	7784
906.272	7742
906.389	7738
906.506	7636
906.623	7632
906.74	7609
906.857	7506
906.974	7563
907.091	7753
907.208	7734
907.324	7658
907.441	7620
907.557	7434
907.674	7453
907.79	7434
907.907	7369
908.023	7403
908.139	7495
908.256	7422
908.372	7381
908.488	7373
908.604	7244
908.72	7266
908.836	7312
908.952	7259
909.068	7247
909.184	7362
909.3	7221
909.415	7259
909.531	7312
909.647	7206
909.762	7110
909.878	7133
909.993	7145
910.108	7141
910.224	7099
910.339	7171
910.454	7072
910.57	7057
910.685	6970
910.8	7160
910.915	7126
911.03	7023
911.145	6951
911.259	6970
911.374	6928
911.489	6840
911.604	6867
911.718	6700
911.833	6745
911.947	6646
912.062	6635
912.176	6684
912.291	6681
912.405	6692
912.519	6844
912.633	6818
912.748	6715
912.862	6730
912.976	6593
913.09	6502
913.204	6604
913.318	6627
913.431	6726
913.545	6696
913.659	6711
913.772	6650
913.886	6574
914	6532
914.113	6627
914.226	6700
914.34	6650
914.453	6517
914.566	6623
914.68	6544
914.793	6540
914.906	6471
915.019	6407
915.132	6388
915.245	6445
915.358	6433
915.47	6479
915.583	6486
915.696	6418
915.809	6528
915.921	6566
916.034	6445
916.146	6418
916.259	6372
916.371	6456
916.483	6445
916.595	6410
916.708	6422
916.82	6399
916.932	6380
917.044	6388
917.156	6414
917.268	6300
917.38	6395
917.491	6346
917.603	6365
917.715	6433
917.826	6437
917.938	6334
918.049	6232
918.161	6327
918.272	6388
918.384	6441
918.495	6380
918.606	6281
918.717	6190
918.828	6273
918.939	6277
919.05	6235
919.161	6308
919.272	6190
919.383	6205
919.494	6346
919.604	6452
919.715	6281
919.826	6277
919.936	6224
920.047	6334
920.157	6292
920.267	6464
920.378	6338
920.488	6331
920.598	6433
920.708	6582
920.818	6479
920.928	6464
921.038	6627
921.148	6566
921.258	6361
921.368	6304
921.477	6186
921.587	6235
921.697	6091
921.806	6228
921.916	6095
922.025	5954
922.134	5931
922.244	5882
922.353	5969
922.462	5805
922.571	5809
922.68	5699
922.789	5676
922.898	5733
923.007	5634
923.116	5707
923.224	5722
923.333	5691
923.442	5585
923.55	5596
923.659	5608
923.767	5570
923.876	5577
923.984	5589
924.092	5581
924.201	5566
924.309	5535
924.417	5573
924.525	5482
924.633	5535
924.741	6273
924.849	5379
924.956	5474
925.064	5368
925.172	5311
925.279	5337
925.387	5337
925.494	5299
925.602	5421
925.709	5360
925.816	5288
925.924	5349
926.031	5383
926.138	5307
926.245	5337
926.352	5265
926.459	5349
926.566	5322
926.673	5242
926.779	5155
926.886	5105
926.993	5045
927.099	5029
927.206	4995
927.312	5003
927.419	5048
927.525	5010
927.631	4987
927.737	4911
927.843	4873
927.95	4816
928.056	4843
928.162	4801
928.267	4889
928.373	5296
928.479	4870
928.585	4672
928.69	4763
928.796	4782
928.901	4714
929.007	4603
929.112	4656
929.218	4611
929.323	4596
929.428	4603
929.533	4641
929.638	4531
929.743	4599
929.848	4599
929.953	4519
930.058	4451
930.163	4310
930.267	4383
930.372	4443
930.477	4295
930.581	4516
930.685	4436
930.79	4314
930.894	4284
930.998	4261
931.103	4352
931.207	4169
931.311	4162
931.415	4093
931.519	3953
931.623	3937
