Data from glass_V78500241_919.txt Node
Date: Wed Sep 01 19:20:52 CST 2021
User: usil
Spectrometer: V785-0024
Trigger mode: 0
Integration Time (sec): 4.000000E-1
Scans to average: 1
Nonlinearity correction enabled: false
Boxcar width: 0
Storing dark spectrum: false
XAxis mode: Wavelengths
Number of Pixels in Spectrum: 1024
>>>>>Begin Spectral Data<<<<<
801.071	3755
801.214	3709
801.356	3732
801.499	3759
801.641	3713
801.783	3762
801.926	3846
802.068	3831
802.211	3869
802.353	3842
802.496	3854
802.638	3922
802.78	3888
802.923	3922
803.065	3903
803.208	3865
803.35	3880
803.492	3892
803.635	3937
803.777	3831
803.919	3903
804.061	4154
804.204	3956
804.346	3949
804.488	3930
804.63	4063
804.773	3983
804.915	4044
805.057	4185
805.199	4048
805.341	4093
805.483	4112
805.626	4173
805.768	4143
805.91	4177
806.052	4204
806.194	4227
806.336	4375
806.478	4177
806.62	4158
806.762	4238
806.904	4265
807.046	4367
807.188	4299
807.33	4177
807.472	4268
807.614	4227
807.756	4280
807.898	4177
808.04	4211
808.182	4295
808.324	4310
808.465	4363
808.607	4447
808.749	4413
808.891	4474
809.033	4478
809.174	4462
809.316	4299
809.458	4257
809.6	4150
809.741	4162
809.883	4185
810.025	4257
810.166	4207
810.308	4242
810.45	4238
810.591	4276
810.733	4284
810.875	4485
811.016	4850
811.158	5143
811.299	5250
811.441	5303
811.582	5079
811.724	4725
811.865	4470
812.007	4489
812.148	4440
812.29	4428
812.431	4432
812.573	4440
812.714	4348
812.855	4432
812.997	4424
813.138	4558
813.279	4478
813.421	4344
813.562	4367
813.703	4341
813.845	4306
813.986	4291
814.127	4192
814.268	4303
814.41	4253
814.551	4299
814.692	4333
814.833	4284
814.974	4261
815.115	4310
815.256	4318
815.397	4215
815.539	4246
815.68	4188
815.821	4211
815.962	4329
816.103	4306
816.244	4246
816.385	4261
816.526	4303
816.666	4223
816.807	4124
816.948	4196
817.089	4192
817.23	4131
817.371	4086
817.512	4071
817.653	4059
817.793	4055
817.934	4078
818.075	4143
818.216	4143
818.356	4120
818.497	3998
818.638	3983
818.778	3994
818.919	3899
819.06	3907
819.2	3949
819.341	3850
819.481	3838
819.622	3937
819.762	4048
819.903	3945
820.043	3857
820.184	3831
820.324	3842
820.465	3892
820.605	3846
820.746	3907
820.886	3785
821.026	3869
821.167	3930
821.307	3975
821.447	3964
821.588	3949
821.728	3937
821.868	3964
822.008	3907
822.149	3994
822.289	3896
822.429	3819
822.569	3785
822.709	3816
822.849	3675
822.99	3705
823.13	3812
823.27	3785
823.41	3770
823.55	3774
823.69	3732
823.83	3728
823.97	3679
824.11	3625
824.25	3572
824.389	3625
824.529	3698
824.669	3656
824.809	3774
824.949	3755
825.089	3751
825.228	3675
825.368	3599
825.508	3591
825.648	3564
825.787	3656
825.927	3614
826.067	3610
826.206	3663
826.346	3766
826.485	3861
826.625	3873
826.765	3983
826.904	3838
827.044	3622
827.183	3542
827.323	3431
827.462	3485
827.601	3443
827.741	3424
827.88	3485
828.02	3393
828.159	3447
828.298	3507
828.437	3564
828.577	3500
828.716	3614
828.855	3511
828.994	3409
829.134	3397
829.273	3340
829.412	3389
829.551	3355
829.69	3409
829.829	3439
829.968	3526
830.107	3481
830.246	3447
830.385	3374
830.524	3378
830.663	3306
830.802	3256
830.941	3203
831.08	3154
831.219	3275
831.357	3272
831.496	3420
831.635	3241
831.774	3192
831.913	3211
832.051	3150
832.19	3123
832.329	3245
832.467	3146
832.606	3123
832.744	3154
832.883	3203
833.022	3237
833.16	3226
833.299	3313
833.437	3306
833.576	3397
833.714	3397
833.852	3450
833.991	3439
834.129	3481
834.267	3454
834.406	3409
834.544	3458
834.682	3397
834.821	3443
834.959	3587
835.097	3439
835.235	3595
835.373	3492
835.511	3477
835.65	3462
835.788	3492
835.926	3412
836.064	3420
836.202	3409
836.34	3564
836.478	3591
836.615	3568
836.753	3610
836.891	3648
837.029	3641
837.167	3614
837.305	3587
837.443	3549
837.58	3511
837.718	3591
837.856	3580
837.993	3545
838.131	3595
838.269	3599
838.406	3576
838.544	3568
838.681	3500
838.819	3462
838.956	3378
839.094	3420
839.231	3454
839.369	3519
839.506	3728
839.643	3622
839.781	3511
839.918	3488
840.055	3523
840.193	3561
840.33	3549
840.467	3580
840.604	3614
840.742	3812
840.879	3603
841.016	3591
841.153	3606
841.29	3774
841.427	3743
841.564	3755
841.701	3774
841.838	3732
841.975	3629
842.112	3713
842.249	3641
842.385	3652
842.522	3861
842.659	3660
842.796	3679
842.933	3656
843.069	3740
843.206	3701
843.343	3888
843.479	3759
843.616	3838
843.752	3675
843.889	3709
844.025	3869
844.162	3724
844.298	3827
844.435	3751
844.571	3778
844.708	3934
844.844	3994
844.98	4051
845.117	4029
845.253	3964
845.389	3892
845.525	3968
845.661	4002
845.798	3941
845.934	3983
846.07	3964
846.206	4063
846.342	4181
846.478	4051
846.614	3975
846.75	3979
846.886	3911
847.022	4048
847.158	3975
847.294	4021
847.429	4017
847.565	3987
847.701	4253
847.837	3941
847.972	3911
848.108	4032
848.244	3991
848.379	3857
848.515	3842
848.65	3789
848.786	3797
848.921	3903
849.057	3911
849.192	3972
849.328	3896
849.463	3960
849.598	3876
849.734	3846
849.869	3835
850.004	3835
850.14	3850
850.275	3812
850.41	3682
850.545	3816
850.68	3797
850.815	3819
850.95	3789
851.085	3926
851.22	3873
851.355	3838
851.49	3838
851.625	3816
851.76	3797
851.895	3770
852.03	3740
852.165	3804
852.299	3857
852.434	3915
852.569	3869
852.703	3850
852.838	3930
852.973	4013
853.107	3994
853.242	3884
853.376	3880
853.511	3781
853.645	3789
853.78	3964
853.914	3907
854.048	3896
854.183	3949
854.317	3968
854.451	4090
854.585	3968
854.72	3934
854.854	4082
854.988	3903
855.122	4036
855.256	3926
855.39	4040
855.524	4154
855.658	4135
855.792	4093
855.926	4147
856.06	4181
856.194	4223
856.327	4185
856.461	4131
856.595	4188
856.729	4200
856.862	4310
856.996	4295
857.13	4287
857.263	4341
857.397	4424
857.53	4306
857.664	4303
857.797	4356
857.931	4440
858.064	4405
858.197	4440
858.331	4398
858.464	4390
858.597	4375
858.731	4459
858.864	4443
858.997	4474
859.13	4512
859.263	4592
859.396	4588
859.529	4596
859.662	4535
859.795	4481
859.928	4603
860.061	4706
860.194	4778
860.327	4725
860.46	4630
860.592	4752
860.725	4763
860.858	4801
860.99	4736
861.123	4683
861.256	4717
861.388	4793
861.521	5524
861.653	4729
861.786	4691
861.918	4767
862.05	4805
862.183	4820
862.315	4885
862.447	4892
862.58	4889
862.712	4843
862.844	4767
862.976	4858
863.108	4881
863.24	5181
863.372	4866
863.504	4908
863.636	4885
863.768	5018
863.9	4972
864.032	4904
864.164	4927
864.296	5037
864.428	5136
864.559	5124
864.691	5147
864.823	5090
864.954	5117
865.086	5121
865.217	5197
865.349	5124
865.48	5170
865.612	5204
865.743	5235
865.875	5208
866.006	5181
866.137	5334
866.269	5208
866.4	5265
866.531	5223
866.662	5201
866.793	5292
866.924	5337
867.055	5357
867.186	5357
867.317	5292
867.448	5322
867.579	5368
867.71	5376
867.841	5387
867.972	5444
868.103	5444
868.233	5524
868.364	5539
868.495	5524
868.625	5680
868.756	5794
868.886	5699
869.017	5752
869.147	5893
869.278	5866
869.408	5840
869.539	5847
869.669	5923
869.799	5996
869.929	5996
870.06	6034
870.19	6220
870.32	6232
870.45	6270
870.58	6410
870.71	6460
870.84	6467
870.97	6422
871.1	6486
871.23	6669
871.36	6688
871.489	6696
871.619	6810
871.749	6818
871.879	6859
872.008	7027
872.138	6966
872.267	7027
872.397	6989
872.526	7027
872.656	7072
872.785	7183
872.915	7327
873.044	7472
873.173	7563
873.303	7689
873.432	7780
873.561	7875
873.69	7898
873.819	8084
873.948	8153
874.077	8244
874.206	8343
874.335	8503
874.464	8705
874.593	8834
874.722	8887
874.851	9081
874.979	9249
875.108	9340
875.237	9412
875.365	9523
875.494	9644
875.623	9793
875.751	9838
875.88	10032
876.008	10135
876.136	10337
876.265	10554
876.393	10630
876.521	10759
876.65	10866
876.778	10934
876.906	10854
877.034	11052
877.162	11086
877.29	11105
877.418	11239
877.546	11345
877.674	11410
877.802	11501
877.93	11524
878.058	11566
878.185	11566
878.313	11646
878.441	11741
878.568	11733
878.696	11824
878.824	11908
878.951	12015
879.079	11999
879.206	12136
879.333	12125
879.461	12064
879.588	12091
879.715	12129
879.842	12163
879.97	12038
880.097	11836
880.224	11950
880.351	11889
880.478	11908
880.605	11855
880.732	11859
880.859	12091
880.986	11813
881.112	11878
881.239	11729
881.366	11634
881.493	11634
881.619	11634
881.746	11611
881.872	11547
881.999	11535
882.125	11482
882.252	11509
882.378	11459
882.505	11577
882.631	11322
882.757	11242
882.883	11345
883.01	11216
883.136	11223
883.262	11159
883.388	11170
883.514	11185
883.64	11235
883.766	11071
883.892	11041
884.018	10942
884.143	11105
884.269	11128
884.395	10911
884.52	10862
884.646	10763
884.772	10729
884.897	10626
885.023	10702
885.148	10786
885.274	10702
885.399	10698
885.524	10603
885.65	10535
885.775	10683
885.9	10535
886.025	10660
886.15	10599
886.275	10478
886.4	10379
886.525	10371
886.65	10413
886.775	10344
886.9	10538
887.025	10599
887.149	10360
887.274	10306
887.399	10177
887.523	10090
887.648	10120
887.773	10196
887.897	10166
888.021	10295
888.146	10150
888.27	10207
888.395	10192
888.519	10325
888.643	10192
888.767	10177
888.891	10082
889.015	9991
889.139	10128
889.263	9998
889.387	10158
889.511	10154
889.635	10036
889.759	9899
889.883	9983
890.006	9987
890.13	10131
890.254	9945
890.377	10048
890.501	9907
890.624	9861
890.748	9899
890.871	9831
890.995	9793
891.118	9785
891.241	9778
891.364	9747
891.488	9808
891.611	9793
891.734	9755
891.857	9755
891.98	9720
892.103	9781
892.226	9686
892.349	9679
892.471	9534
892.594	9591
892.717	9603
892.839	9637
892.962	9641
893.085	9629
893.207	9553
893.33	9542
893.452	9576
893.575	9595
893.697	9523
893.819	9641
893.941	9641
894.064	9606
894.186	9485
894.308	9344
894.43	9435
894.552	9641
894.674	9523
894.796	9348
894.918	9412
895.04	9317
895.161	9401
895.283	9382
895.405	9260
895.526	9264
895.648	9264
895.769	9313
895.891	9214
896.012	9214
896.134	9230
896.255	9192
896.376	9100
896.498	9222
896.619	9104
896.74	9093
896.861	9070
896.982	9249
897.103	9294
897.224	9214
897.345	9154
897.466	8982
897.587	9051
897.708	9062
897.828	9043
897.949	8998
898.07	8842
898.19	8910
898.311	8994
898.431	8933
898.552	8994
898.672	8982
898.792	8933
898.913	8933
899.033	8838
899.153	8781
899.273	8655
899.393	8746
899.513	8773
899.633	8678
899.753	8720
899.873	8720
899.993	8712
900.113	8731
900.232	8724
900.352	8716
900.472	8621
900.591	8621
900.711	8594
900.83	8564
900.95	8651
901.069	8712
901.189	8644
901.308	8465
901.427	8431
901.546	8419
901.665	8476
901.784	8473
901.904	8423
902.023	8362
902.141	8206
902.26	8248
902.379	8336
902.498	8199
902.617	8328
902.735	8286
902.854	8282
902.973	8263
903.091	8058
903.21	8161
903.328	8157
903.446	8138
903.565	7997
903.683	8119
903.801	8035
903.919	8180
904.038	8206
904.156	8027
904.274	8077
904.392	8062
904.51	8069
904.627	8111
904.745	8119
904.863	8073
904.981	8005
905.098	7849
905.216	7868
905.334	7890
905.451	7890
905.569	7883
905.686	7936
905.803	7932
905.921	7814
906.038	7951
906.155	7814
906.272	7712
906.389	7727
906.506	7693
906.623	7609
906.74	7616
906.857	7582
906.974	7590
907.091	7666
907.208	7696
907.324	7647
907.441	7537
907.557	7487
907.674	7422
907.79	7468
907.907	7411
908.023	7472
908.139	7392
908.256	7381
908.372	7335
908.488	7365
908.604	7274
908.72	7301
908.836	7263
908.952	7251
909.068	7293
909.184	7384
909.3	7297
909.415	7285
909.531	7240
909.647	7091
909.762	7141
909.878	7152
909.993	7114
910.108	7187
910.224	7050
910.339	7149
910.454	7012
910.57	7050
910.685	6939
910.8	7202
910.915	7133
911.03	6970
911.145	6920
911.259	6920
911.374	6886
911.489	6825
911.604	6833
911.718	6688
911.833	6760
911.947	6654
912.062	6631
912.176	6677
912.291	6700
912.405	6719
912.519	6791
912.633	6814
912.748	6776
912.862	6703
912.976	6601
913.09	6578
913.204	6578
913.318	6589
913.431	6707
913.545	6658
913.659	6703
913.772	6608
913.886	6631
914	6593
914.113	6585
914.226	6665
914.34	6574
914.453	6502
914.566	6604
914.68	6570
914.793	6566
914.906	6410
915.019	6448
915.132	6395
915.245	6403
915.358	6414
915.47	6502
915.583	6471
915.696	6494
915.809	6578
915.921	6509
916.034	6448
916.146	6399
916.259	6376
916.371	6479
916.483	6452
916.595	6353
916.708	6410
916.82	6376
916.932	6384
917.044	6384
917.156	6376
917.268	6300
917.38	6380
917.491	6353
917.603	6357
917.715	6380
917.826	6391
917.938	6365
918.049	6281
918.161	6300
918.272	6464
918.384	6456
918.495	6353
918.606	6311
918.717	6190
918.828	6296
918.939	6308
919.05	6175
919.161	6281
919.272	6114
919.383	6186
919.494	6296
919.604	6422
919.715	6319
919.826	6235
919.936	6239
920.047	6350
920.157	6277
920.267	6426
920.378	6361
920.488	6243
920.598	6475
920.708	6597
920.818	6486
920.928	6460
921.038	6696
921.148	6559
921.258	6376
921.368	6338
921.477	6186
921.587	6209
921.697	6197
921.806	6201
921.916	6095
922.025	5942
922.134	5935
922.244	5882
922.353	6007
922.462	5817
922.571	5790
922.68	5733
922.789	5741
922.898	5703
923.007	5634
923.116	5748
923.224	5649
923.333	5676
923.442	5600
923.55	5615
923.659	5611
923.767	5649
923.876	5600
923.984	5596
924.092	5547
924.201	5554
924.309	5562
924.417	5547
924.525	5528
924.633	5520
924.741	6125
924.849	5349
924.956	5490
925.064	5398
925.172	5315
925.279	5315
925.387	5337
925.494	5349
925.602	5414
925.709	5402
925.816	5307
925.924	5322
926.031	5395
926.138	5364
926.245	5357
926.352	5223
926.459	5357
926.566	5307
926.673	5250
926.779	5147
926.886	5094
926.993	5033
927.099	5022
927.206	4987
927.312	4980
927.419	5041
927.525	4999
927.631	4953
927.737	4885
927.843	4835
927.95	4801
928.056	4805
928.162	4870
928.267	4877
928.373	5303
928.479	4862
928.585	4706
928.69	4793
928.796	4759
928.901	4683
929.007	4592
929.112	4660
929.218	4687
929.323	4542
929.428	4565
929.533	4687
929.638	4508
929.743	4542
929.848	4622
929.953	4519
930.058	4417
930.163	4333
930.267	4322
930.372	4394
930.477	4367
930.581	4535
930.685	4390
930.79	4280
930.894	4310
930.998	4230
931.103	4424
931.207	4150
931.311	4105
931.415	4071
931.519	3983
931.623	3960
