Data from glass_V78500241_446.txt Node
Date: Wed Sep 01 19:17:35 CST 2021
User: usil
Spectrometer: V785-0024
Trigger mode: 0
Integration Time (sec): 4.000000E-1
Scans to average: 1
Nonlinearity correction enabled: false
Boxcar width: 0
Storing dark spectrum: false
XAxis mode: Wavelengths
Number of Pixels in Spectrum: 1024
>>>>>Begin Spectral Data<<<<<
801.071	3724
801.214	3743
801.356	3720
801.499	3766
801.641	3781
801.783	3793
801.926	3892
802.068	3857
802.211	3838
802.353	3915
802.496	3857
802.638	3907
802.78	3903
802.923	3949
803.065	3911
803.208	3869
803.35	3911
803.492	3899
803.635	3922
803.777	3797
803.919	3896
804.061	4128
804.204	4002
804.346	3975
804.488	3953
804.63	4044
804.773	4002
804.915	4067
805.057	4162
805.199	4025
805.341	4109
805.483	4131
805.626	4124
805.768	4131
805.91	4192
806.052	4196
806.194	4219
806.336	4348
806.478	4211
806.62	4219
806.762	4223
806.904	4261
807.046	4371
807.188	4257
807.33	4211
807.472	4291
807.614	4185
807.756	4257
807.898	4238
808.04	4219
808.182	4272
808.324	4360
808.465	4367
808.607	4466
808.749	4474
808.891	4497
809.033	4485
809.174	4405
809.316	4314
809.458	4280
809.6	4162
809.741	4162
809.883	4181
810.025	4207
810.166	4249
810.308	4234
810.45	4272
810.591	4280
810.733	4249
810.875	4542
811.016	4839
811.158	5140
811.299	5284
811.441	5254
811.582	5098
811.724	4702
811.865	4493
812.007	4493
812.148	4451
812.29	4421
812.431	4436
812.573	4409
812.714	4424
812.855	4405
812.997	4428
813.138	4478
813.279	4413
813.421	4421
813.562	4383
813.703	4303
813.845	4356
813.986	4291
814.127	4234
814.268	4310
814.41	4318
814.551	4268
814.692	4310
814.833	4291
814.974	4314
815.115	4310
815.256	4280
815.397	4261
815.539	4272
815.68	4204
815.821	4215
815.962	4341
816.103	4314
816.244	4272
816.385	4223
816.526	4291
816.666	4230
816.807	4116
816.948	4215
817.089	4177
817.23	4169
817.371	4093
817.512	4074
817.653	4078
817.793	4032
817.934	4029
818.075	4097
818.216	4082
818.356	4131
818.497	3972
818.638	3941
818.778	3926
818.919	3907
819.06	3873
819.2	3949
819.341	3831
819.481	3873
819.622	3918
819.762	4055
819.903	3960
820.043	3861
820.184	3850
820.324	3854
820.465	3884
820.605	3835
820.746	3892
820.886	3827
821.026	3960
821.167	3953
821.307	3998
821.447	4036
821.588	3964
821.728	3968
821.868	3945
822.008	3903
822.149	3915
822.289	3987
822.429	3789
822.569	3816
822.709	3797
822.849	3724
822.99	3705
823.13	3774
823.27	3732
823.41	3724
823.55	3762
823.69	3770
823.83	3740
823.97	3667
824.11	3622
824.25	3576
824.389	3614
824.529	3698
824.669	3618
824.809	3747
824.949	3774
825.089	3751
825.228	3701
825.368	3625
825.508	3572
825.648	3568
825.787	3587
825.927	3603
826.067	3641
826.206	3690
826.346	3781
826.485	3819
826.625	3861
826.765	3949
826.904	3835
827.044	3618
827.183	3576
827.323	3443
827.462	3557
827.601	3424
827.741	3447
827.88	3458
828.02	3409
828.159	3485
828.298	3526
828.437	3557
828.577	3492
828.716	3618
828.855	3481
828.994	3370
829.134	3348
829.273	3447
829.412	3363
829.551	3363
829.69	3370
829.829	3466
829.968	3511
830.107	3439
830.246	3431
830.385	3416
830.524	3367
830.663	3317
830.802	3253
830.941	3195
831.08	3195
831.219	3279
831.357	3260
831.496	3412
831.635	3253
831.774	3176
831.913	3218
832.051	3157
832.19	3184
832.329	3256
832.467	3176
832.606	3062
832.744	3169
832.883	3211
833.022	3214
833.16	3283
833.299	3294
833.437	3336
833.576	3370
833.714	3428
833.852	3416
833.991	3435
834.129	3492
834.267	3477
834.406	3435
834.544	3412
834.682	3431
834.821	3412
834.959	3595
835.097	3443
835.235	3545
835.373	3485
835.511	3511
835.65	3454
835.788	3507
835.926	3405
836.064	3393
836.202	3397
836.34	3580
836.478	3644
836.615	3622
836.753	3641
836.891	3682
837.029	3663
837.167	3637
837.305	3549
837.443	3530
837.58	3481
837.718	3633
837.856	3584
837.993	3538
838.131	3606
838.269	3610
838.406	3591
838.544	3606
838.681	3488
838.819	3469
838.956	3386
839.094	3405
839.231	3458
839.369	3523
839.506	3736
839.643	3671
839.781	3511
839.918	3485
840.055	3545
840.193	3538
840.33	3538
840.467	3576
840.604	3614
840.742	3835
840.879	3557
841.016	3580
841.153	3595
841.29	3781
841.427	3743
841.564	3709
841.701	3732
841.838	3766
841.975	3656
842.112	3698
842.249	3675
842.385	3622
842.522	3835
842.659	3679
842.796	3667
842.933	3709
843.069	3717
843.206	3698
843.343	3789
843.479	3842
843.616	3816
843.752	3656
843.889	3713
844.025	3861
844.162	3785
844.298	3884
844.435	3789
844.571	3831
844.708	3930
844.844	4010
844.98	4013
845.117	4006
845.253	3949
845.389	3896
845.525	3998
845.661	3994
845.798	3960
845.934	4036
846.07	4010
846.206	4055
846.342	4112
846.478	4135
846.614	4006
846.75	3937
846.886	3880
847.022	4025
847.158	3983
847.294	4029
847.429	4006
847.565	3991
847.701	4261
847.837	3892
847.972	3869
848.108	4029
848.244	4029
848.379	3854
848.515	3816
848.65	3835
848.786	3785
848.921	3827
849.057	3987
849.192	3987
849.328	3983
849.463	3846
849.598	3892
849.734	3896
849.869	3823
850.004	3823
850.14	3846
850.275	3778
850.41	3717
850.545	3781
850.68	3785
850.815	3835
850.95	3804
851.085	3968
851.22	3842
851.355	3823
851.49	3793
851.625	3842
851.76	3774
851.895	3762
852.03	3774
852.165	3819
852.299	3850
852.434	3930
852.569	3842
852.703	3869
852.838	3926
852.973	4002
853.107	4002
853.242	3854
853.376	3823
853.511	3755
853.645	3846
853.78	3975
853.914	3945
854.048	3911
854.183	3884
854.317	3960
854.451	4071
854.585	3975
854.72	3964
854.854	4093
854.988	3960
855.122	4067
855.256	3968
855.39	4017
855.524	4147
855.658	4082
855.792	4147
855.926	4147
856.06	4188
856.194	4219
856.327	4154
856.461	4166
856.595	4173
856.729	4230
856.862	4310
856.996	4257
857.13	4322
857.263	4329
857.397	4371
857.53	4291
857.664	4375
857.797	4390
857.931	4409
858.064	4390
858.197	4455
858.331	4386
858.464	4367
858.597	4325
858.731	4394
858.864	4500
858.997	4474
859.13	4558
859.263	4554
859.396	4550
859.529	4531
859.662	4508
859.795	4546
859.928	4599
860.061	4725
860.194	4763
860.327	4656
860.46	4607
860.592	4797
860.725	4774
860.858	4797
860.99	4672
861.123	4698
861.256	4706
861.388	4797
861.521	5448
861.653	4668
861.786	4729
861.918	4809
862.05	4850
862.183	4854
862.315	4900
862.447	4934
862.58	4850
862.712	4793
862.844	4816
862.976	4911
863.108	4881
863.24	5208
863.372	4839
863.504	4896
863.636	4889
863.768	4999
863.9	4995
864.032	4968
864.164	4987
864.296	5045
864.428	5060
864.559	5136
864.691	5147
864.823	5136
864.954	5143
865.086	5105
865.217	5136
865.349	5113
865.48	5155
865.612	5201
865.743	5254
865.875	5235
866.006	5174
866.137	5204
866.269	5265
866.4	5239
866.531	5258
866.662	5227
866.793	5246
866.924	5364
867.055	5337
867.186	5315
867.317	5341
867.448	5299
867.579	5376
867.71	5387
867.841	5364
867.972	5414
868.103	5452
868.233	5512
868.364	5474
868.495	5562
868.625	5646
868.756	5771
868.886	5649
869.017	5729
869.147	5813
869.278	5874
869.408	5885
869.539	5859
869.669	5946
869.799	5897
869.929	6053
870.06	5984
870.19	6243
870.32	6228
870.45	6273
870.58	6372
870.71	6422
870.84	6464
870.97	6452
871.1	6536
871.23	6646
871.36	6715
871.489	6623
871.619	6772
871.749	6852
871.879	6825
872.008	6977
872.138	7023
872.267	6962
872.397	7008
872.526	7027
872.656	7103
872.785	7251
872.915	7362
873.044	7518
873.173	7544
873.303	7616
873.432	7814
873.561	7830
873.69	7997
873.819	8012
873.948	8183
874.077	8248
874.206	8347
874.335	8446
874.464	8606
874.593	8830
874.722	8921
874.851	9081
874.979	9329
875.108	9389
875.237	9485
875.365	9511
875.494	9660
875.623	9766
875.751	9892
875.88	10029
876.008	10150
876.136	10219
876.265	10493
876.393	10714
876.521	10744
876.65	10793
876.778	10843
876.906	10904
877.034	10965
877.162	11045
877.29	11117
877.418	11273
877.546	11303
877.674	11463
877.802	11463
877.93	11501
878.058	11463
878.185	11642
878.313	11707
878.441	11718
878.568	11638
878.696	11832
878.824	11748
878.951	11996
879.079	12007
879.206	12038
879.333	12034
879.461	12015
879.588	12019
879.715	12095
879.842	12171
879.97	12076
880.097	11832
880.224	11870
880.351	11908
880.478	11923
880.605	11786
880.732	11885
880.859	11958
880.986	11847
881.112	11771
881.239	11741
881.366	11638
881.493	11611
881.619	11532
881.746	11627
881.872	11524
881.999	11459
882.125	11471
882.252	11512
882.378	11436
882.505	11493
882.631	11448
882.757	11337
882.883	11212
883.01	11315
883.136	11105
883.262	11147
883.388	11121
883.514	11193
883.64	11231
883.766	11075
883.892	11048
884.018	11045
884.143	11003
884.269	11025
884.395	10816
884.52	10820
884.646	10839
884.772	10740
884.897	10626
885.023	10744
885.148	10687
885.274	10797
885.399	10664
885.524	10641
885.65	10702
885.775	10607
885.9	10580
886.025	10618
886.15	10573
886.275	10443
886.4	10394
886.525	10386
886.65	10356
886.775	10314
886.9	10542
887.025	10561
887.149	10352
887.274	10173
887.399	10253
887.523	10147
887.648	10128
887.773	10169
887.897	10261
888.021	10291
888.146	10200
888.27	10192
888.395	10219
888.519	10204
888.643	10227
888.767	10223
888.891	10139
889.015	9975
889.139	10063
889.263	10025
889.387	10162
889.511	10071
889.635	10071
889.759	10006
889.883	9911
890.006	10032
890.13	10082
890.254	9998
890.377	9998
890.501	9819
890.624	9960
890.748	9915
890.871	9812
890.995	9816
891.118	9667
891.241	9736
891.364	9785
891.488	9854
891.611	9793
891.734	9778
891.857	9762
891.98	9663
892.103	9838
892.226	9789
892.349	9671
892.471	9428
892.594	9591
892.717	9622
892.839	9618
892.962	9557
893.085	9698
893.207	9492
893.33	9530
893.452	9473
893.575	9610
893.697	9488
893.819	9644
893.941	9580
894.064	9622
894.186	9496
894.308	9428
894.43	9610
894.552	9492
894.674	9481
894.796	9435
894.918	9469
895.04	9412
895.161	9367
895.283	9332
895.405	9241
895.526	9294
895.648	9310
895.769	9272
895.891	9199
896.012	9233
896.134	9253
896.255	9207
896.376	9074
896.498	9097
896.619	9097
896.74	9055
896.861	9108
896.982	9256
897.103	9359
897.224	9192
897.345	9081
897.466	9028
897.587	9047
897.708	9089
897.828	9043
897.949	9013
898.07	8918
898.19	8910
898.311	9028
898.431	8941
898.552	8880
898.672	9017
898.792	9005
898.913	8933
899.033	8781
899.153	8705
899.273	8697
899.393	8708
899.513	8762
899.633	8773
899.753	8785
899.873	8712
899.993	8781
900.113	8590
900.232	8769
900.352	8621
900.472	8594
900.591	8571
900.711	8629
900.83	8511
900.95	8678
901.069	8697
901.189	8617
901.308	8518
901.427	8404
901.546	8446
901.665	8431
901.784	8541
901.904	8412
902.023	8381
902.141	8183
902.26	8229
902.379	8248
902.498	8126
902.617	8221
902.735	8233
902.854	8263
902.973	8248
903.091	8138
903.21	8123
903.328	8126
903.446	8115
903.565	8123
903.683	8123
903.801	8035
903.919	8142
904.038	8218
904.156	8031
904.274	8111
904.392	8050
904.51	8088
904.627	8043
904.745	8043
904.863	8119
904.981	7913
905.098	7811
905.216	7871
905.334	7868
905.451	7932
905.569	7913
905.686	7921
905.803	7902
905.921	7742
906.038	7921
906.155	7799
906.272	7765
906.389	7734
906.506	7636
906.623	7632
906.74	7559
906.857	7506
906.974	7499
907.091	7677
907.208	7738
907.324	7681
907.441	7567
907.557	7487
907.674	7491
907.79	7422
907.907	7369
908.023	7506
908.139	7430
908.256	7381
908.372	7381
908.488	7327
908.604	7270
908.72	7225
908.836	7289
908.952	7289
909.068	7255
909.184	7289
909.3	7289
909.415	7301
909.531	7343
909.647	7133
909.762	7137
909.878	7107
909.993	7187
910.108	7110
910.224	7114
910.339	7072
910.454	7046
910.57	6985
910.685	6958
910.8	7171
910.915	7118
911.03	7053
911.145	6920
911.259	6852
911.374	6875
911.489	6814
911.604	6806
911.718	6745
911.833	6753
911.947	6627
912.062	6650
912.176	6768
912.291	6692
912.405	6650
912.519	6844
912.633	6840
912.748	6719
912.862	6646
912.976	6639
913.09	6509
913.204	6631
913.318	6589
913.431	6688
913.545	6654
913.659	6738
913.772	6673
913.886	6574
914	6582
914.113	6627
914.226	6608
914.34	6673
914.453	6509
914.566	6662
914.68	6547
914.793	6551
914.906	6429
915.019	6403
915.132	6361
915.245	6471
915.358	6498
915.47	6486
915.583	6513
915.696	6528
915.809	6490
915.921	6528
916.034	6422
916.146	6395
916.259	6365
916.371	6483
916.483	6414
916.595	6361
916.708	6437
916.82	6429
916.932	6414
917.044	6418
917.156	6418
917.268	6350
917.38	6388
917.491	6315
917.603	6426
917.715	6372
917.826	6475
917.938	6361
918.049	6258
918.161	6342
918.272	6376
918.384	6471
918.495	6353
918.606	6285
918.717	6224
918.828	6235
918.939	6300
919.05	6254
919.161	6235
919.272	6125
919.383	6197
919.494	6292
919.604	6403
919.715	6300
919.826	6289
919.936	6281
920.047	6266
920.157	6292
920.267	6486
920.378	6346
920.488	6323
920.598	6429
920.708	6551
920.818	6490
920.928	6467
921.038	6612
921.148	6593
921.258	6384
921.368	6292
921.477	6190
921.587	6216
921.697	6102
921.806	6178
921.916	6038
922.025	5973
922.134	5904
922.244	5908
922.353	5973
922.462	5836
922.571	5767
922.68	5767
922.789	5661
922.898	5703
923.007	5684
923.116	5661
923.224	5638
923.333	5630
923.442	5642
923.55	5611
923.659	5562
923.767	5680
923.876	5577
923.984	5573
924.092	5459
924.201	5585
924.309	5501
924.417	5562
924.525	5524
924.633	5532
924.741	6380
924.849	5357
924.956	5501
925.064	5341
925.172	5307
925.279	5299
925.387	5330
925.494	5330
925.602	5459
925.709	5433
925.816	5296
925.924	5334
926.031	5353
926.138	5337
926.245	5364
926.352	5227
926.459	5277
926.566	5345
926.673	5181
926.779	5140
926.886	5159
926.993	5041
927.099	5048
927.206	4957
927.312	4957
927.419	5006
927.525	4949
927.631	4961
927.737	4984
927.843	4927
927.95	4828
928.056	4881
928.162	4870
928.267	4824
928.373	5334
928.479	4870
928.585	4672
928.69	4786
928.796	4812
928.901	4710
929.007	4607
929.112	4668
929.218	4668
929.323	4622
929.428	4577
929.533	4634
929.638	4519
929.743	4531
929.848	4573
929.953	4508
930.058	4432
930.163	4356
930.267	4390
930.372	4508
930.477	4306
930.581	4497
930.685	4352
930.79	4284
930.894	4310
930.998	4238
931.103	4367
931.207	4128
931.311	4131
931.415	4059
931.519	3949
931.623	3956
