Data from glass_V78500241_2726.txt Node
Date: Wed Sep 01 19:33:23 CST 2021
User: usil
Spectrometer: V785-0024
Trigger mode: 0
Integration Time (sec): 4.000000E-1
Scans to average: 1
Nonlinearity correction enabled: false
Boxcar width: 0
Storing dark spectrum: false
XAxis mode: Wavelengths
Number of Pixels in Spectrum: 1024
>>>>>Begin Spectral Data<<<<<
801.071	3736
801.214	3740
801.356	3694
801.499	3675
801.641	3728
801.783	3789
801.926	3869
802.068	3823
802.211	3850
802.353	3865
802.496	3846
802.638	3876
802.78	3880
802.923	3899
803.065	3865
803.208	3861
803.35	3850
803.492	3857
803.635	3876
803.777	3774
803.919	3892
804.061	4109
804.204	3907
804.346	3983
804.488	3911
804.63	4044
804.773	3979
804.915	4002
805.057	4101
805.199	4040
805.341	4086
805.483	4143
805.626	4131
805.768	4101
805.91	4177
806.052	4192
806.194	4196
806.336	4341
806.478	4154
806.62	4109
806.762	4169
806.904	4257
807.046	4333
807.188	4211
807.33	4139
807.472	4265
807.614	4169
807.756	4253
807.898	4192
808.04	4238
808.182	4234
808.324	4287
808.465	4333
808.607	4432
808.749	4417
808.891	4443
809.033	4466
809.174	4356
809.316	4234
809.458	4219
809.6	4143
809.741	4112
809.883	4116
810.025	4177
810.166	4207
810.308	4223
810.45	4219
810.591	4181
810.733	4295
810.875	4478
811.016	4786
811.158	5136
811.299	5250
811.441	5261
811.582	5056
811.724	4679
811.865	4409
812.007	4481
812.148	4428
812.29	4409
812.431	4417
812.573	4348
812.714	4383
812.855	4394
812.997	4447
813.138	4459
813.279	4432
813.421	4367
813.562	4348
813.703	4299
813.845	4325
813.986	4219
814.127	4192
814.268	4261
814.41	4253
814.551	4242
814.692	4249
814.833	4215
814.974	4272
815.115	4287
815.256	4207
815.397	4207
815.539	4246
815.68	4200
815.821	4188
815.962	4257
816.103	4268
816.244	4230
816.385	4200
816.526	4276
816.666	4207
816.807	4116
816.948	4143
817.089	4143
817.23	4158
817.371	4048
817.512	4067
817.653	4048
817.793	4010
817.934	4040
818.075	4101
818.216	4071
818.356	4051
818.497	3979
818.638	3892
818.778	3888
818.919	3896
819.06	3846
819.2	3918
819.341	3850
819.481	3823
819.622	3869
819.762	4021
819.903	3934
820.043	3819
820.184	3797
820.324	3759
820.465	3812
820.605	3865
820.746	3835
820.886	3812
821.026	3903
821.167	3911
821.307	3926
821.447	4010
821.588	3930
821.728	3911
821.868	3915
822.008	3865
822.149	3892
822.289	3880
822.429	3793
822.569	3717
822.709	3804
822.849	3667
822.99	3770
823.13	3759
823.27	3759
823.41	3701
823.55	3690
823.69	3717
823.83	3759
823.97	3675
824.11	3595
824.25	3557
824.389	3599
824.529	3618
824.669	3606
824.809	3690
824.949	3736
825.089	3667
825.228	3698
825.368	3580
825.508	3488
825.648	3591
825.787	3618
825.927	3614
826.067	3614
826.206	3641
826.346	3751
826.485	3804
826.625	3846
826.765	3934
826.904	3800
827.044	3633
827.183	3492
827.323	3424
827.462	3488
827.601	3412
827.741	3412
827.88	3428
828.02	3378
828.159	3401
828.298	3458
828.437	3500
828.577	3435
828.716	3618
828.855	3466
828.994	3359
829.134	3359
829.273	3378
829.412	3344
829.551	3321
829.69	3363
829.829	3428
829.968	3500
830.107	3416
830.246	3386
830.385	3397
830.524	3348
830.663	3279
830.802	3272
830.941	3192
831.08	3203
831.219	3272
831.357	3249
831.496	3447
831.635	3233
831.774	3173
831.913	3180
832.051	3138
832.19	3119
832.329	3203
832.467	3119
832.606	3150
832.744	3180
832.883	3180
833.022	3157
833.16	3298
833.299	3291
833.437	3321
833.576	3348
833.714	3355
833.852	3454
833.991	3420
834.129	3443
834.267	3447
834.406	3367
834.544	3420
834.682	3416
834.821	3370
834.959	3545
835.097	3412
835.235	3519
835.373	3439
835.511	3492
835.65	3409
835.788	3477
835.926	3374
836.064	3374
836.202	3370
836.34	3587
836.478	3580
836.615	3576
836.753	3591
836.891	3591
837.029	3603
837.167	3561
837.305	3549
837.443	3504
837.58	3462
837.718	3568
837.856	3568
837.993	3553
838.131	3625
838.269	3557
838.406	3587
838.544	3587
838.681	3458
838.819	3443
838.956	3370
839.094	3351
839.231	3469
839.369	3500
839.506	3728
839.643	3618
839.781	3504
839.918	3477
840.055	3519
840.193	3523
840.33	3504
840.467	3545
840.604	3580
840.742	3766
840.879	3534
841.016	3534
841.153	3561
841.29	3759
841.427	3694
841.564	3747
841.701	3770
841.838	3694
841.975	3660
842.112	3720
842.249	3652
842.385	3622
842.522	3816
842.659	3660
842.796	3667
842.933	3682
843.069	3701
843.206	3701
843.343	3789
843.479	3759
843.616	3793
843.752	3618
843.889	3660
844.025	3816
844.162	3694
844.298	3819
844.435	3812
844.571	3789
844.708	3876
844.844	3934
844.98	3949
845.117	3979
845.253	3903
845.389	3873
845.525	3953
845.661	3937
845.798	3915
845.934	3968
846.07	3945
846.206	4017
846.342	4139
846.478	4059
846.614	3953
846.75	3937
846.886	3873
847.022	3998
847.158	4002
847.294	3937
847.429	4006
847.565	3994
847.701	4242
847.837	3876
847.972	3846
848.108	3915
848.244	3945
848.379	3842
848.515	3781
848.65	3835
848.786	3838
848.921	3850
849.057	3934
849.192	3956
849.328	3915
849.463	3934
849.598	3869
849.734	3838
849.869	3793
850.004	3759
850.14	3812
850.275	3781
850.41	3717
850.545	3701
850.68	3755
850.815	3804
850.95	3762
851.085	3953
851.22	3850
851.355	3804
851.49	3720
851.625	3724
851.76	3789
851.895	3709
852.03	3736
852.165	3808
852.299	3846
852.434	3888
852.569	3861
852.703	3857
852.838	3911
852.973	3983
853.107	3994
853.242	3884
853.376	3842
853.511	3759
853.645	3838
853.78	3998
853.914	3861
854.048	3854
854.183	3857
854.317	3911
854.451	4090
854.585	3926
854.72	3960
854.854	4006
854.988	3899
855.122	4029
855.256	3899
855.39	4040
855.524	4158
855.658	4032
855.792	4063
855.926	4116
856.06	4112
856.194	4204
856.327	4128
856.461	4090
856.595	4116
856.729	4112
856.862	4223
856.996	4230
857.13	4318
857.263	4299
857.397	4360
857.53	4299
857.664	4322
857.797	4417
857.931	4379
858.064	4341
858.197	4428
858.331	4371
858.464	4318
858.597	4333
858.731	4417
858.864	4440
858.997	4424
859.13	4485
859.263	4474
859.396	4558
859.529	4504
859.662	4531
859.795	4561
859.928	4603
860.061	4683
860.194	4694
860.327	4641
860.46	4641
860.592	4698
860.725	4778
860.858	4744
860.99	4702
861.123	4679
861.256	4679
861.388	4729
861.521	5318
861.653	4675
861.786	4721
861.918	4736
862.05	4793
862.183	4812
862.315	4889
862.447	4923
862.58	4858
862.712	4744
862.844	4771
862.976	4877
863.108	4904
863.24	5170
863.372	4816
863.504	4889
863.636	4854
863.768	4995
863.9	4957
864.032	4911
864.164	4984
864.296	5045
864.428	5098
864.559	5121
864.691	5140
864.823	5098
864.954	5098
865.086	5166
865.217	5090
865.349	5041
865.48	5185
865.612	5181
865.743	5303
865.875	5151
866.006	5204
866.137	5284
866.269	5204
866.4	5258
866.531	5220
866.662	5201
866.793	5265
866.924	5303
867.055	5330
867.186	5311
867.317	5337
867.448	5280
867.579	5357
867.71	5334
867.841	5349
867.972	5421
868.103	5467
868.233	5463
868.364	5463
868.495	5558
868.625	5642
868.756	5798
868.886	5691
869.017	5726
869.147	5794
869.278	5817
869.408	5752
869.539	5832
869.669	5878
869.799	5897
869.929	5996
870.06	6030
870.19	6159
870.32	6163
870.45	6251
870.58	6319
870.71	6395
870.84	6399
870.97	6372
871.1	6437
871.23	6627
871.36	6646
871.489	6700
871.619	6715
871.749	6814
871.879	6859
872.008	6996
872.138	6943
872.267	7038
872.397	6947
872.526	6966
872.656	7118
872.785	7164
872.915	7403
873.044	7529
873.173	7499
873.303	7609
873.432	7742
873.561	7830
873.69	7906
873.819	8050
873.948	8187
874.077	8187
874.206	8237
874.335	8434
874.464	8583
874.593	8861
874.722	8895
874.851	9108
874.979	9195
875.108	9363
875.237	9424
875.365	9462
875.494	9667
875.623	9781
875.751	9816
875.88	9979
876.008	10097
876.136	10268
876.265	10538
876.393	10694
876.521	10744
876.65	10812
876.778	10858
876.906	10866
877.034	10976
877.162	10999
877.29	11105
877.418	11299
877.546	11258
877.674	11368
877.802	11440
877.93	11471
878.058	11611
878.185	11577
878.313	11627
878.441	11710
878.568	11668
878.696	11729
878.824	11885
878.951	11927
879.079	11980
879.206	12175
879.333	12030
879.461	11870
879.588	12038
879.715	11984
879.842	12163
879.97	12034
880.097	11836
880.224	11843
880.351	11855
880.478	11805
880.605	11805
880.732	11847
880.859	11950
880.986	11771
881.112	11817
881.239	11699
881.366	11566
881.493	11615
881.619	11520
881.746	11512
881.872	11543
881.999	11417
882.125	11493
882.252	11600
882.378	11463
882.505	11551
882.631	11311
882.757	11303
882.883	11269
883.01	11261
883.136	11181
883.262	11098
883.388	11109
883.514	11212
883.64	11067
883.766	11071
883.892	10908
884.018	10965
884.143	11067
884.269	11060
884.395	10805
884.52	10694
884.646	10801
884.772	10759
884.897	10637
885.023	10649
885.148	10858
885.274	10767
885.399	10580
885.524	10626
885.65	10580
885.775	10607
885.9	10558
886.025	10615
886.15	10500
886.275	10451
886.4	10375
886.525	10375
886.65	10284
886.775	10314
886.9	10424
887.025	10546
887.149	10363
887.274	10120
887.399	10204
887.523	10109
887.648	10124
887.773	10032
887.897	10295
888.021	10276
888.146	10261
888.27	10227
888.395	10166
888.519	10143
888.643	10112
888.767	10211
888.891	10017
889.015	9975
889.139	10048
889.263	9907
889.387	10078
889.511	10097
889.635	9987
889.759	9975
889.883	9880
890.006	10036
890.13	10082
890.254	10017
890.377	10025
890.501	9838
890.624	9861
890.748	9869
890.871	9747
890.995	9808
891.118	9759
891.241	9728
891.364	9694
891.488	9720
891.611	9705
891.734	9720
891.857	9781
891.98	9580
892.103	9797
892.226	9709
892.349	9660
892.471	9534
892.594	9564
892.717	9614
892.839	9568
892.962	9496
893.085	9671
893.207	9515
893.33	9481
893.452	9458
893.575	9507
893.697	9454
893.819	9660
893.941	9587
894.064	9515
894.186	9397
894.308	9374
894.43	9454
894.552	9584
894.674	9557
894.796	9374
894.918	9302
895.04	9291
895.161	9416
895.283	9359
895.405	9176
895.526	9268
895.648	9230
895.769	9188
895.891	9245
896.012	9264
896.134	9150
896.255	9203
896.376	9123
896.498	9127
896.619	9081
896.74	9024
896.861	9089
896.982	9157
897.103	9298
897.224	9142
897.345	9077
897.466	8937
897.587	8960
897.708	8990
897.828	8994
897.949	8979
898.07	8880
898.19	8864
898.311	8948
898.431	8876
898.552	8887
898.672	8948
898.792	8918
898.913	8861
899.033	8861
899.153	8731
899.273	8674
899.393	8693
899.513	8769
899.633	8746
899.753	8788
899.873	8651
899.993	8716
900.113	8682
900.232	8731
900.352	8629
900.472	8602
900.591	8434
900.711	8583
900.83	8640
900.95	8629
901.069	8648
901.189	8579
901.308	8450
901.427	8355
901.546	8454
901.665	8454
901.784	8492
901.904	8328
902.023	8320
902.141	8240
902.26	8142
902.379	8263
902.498	8286
902.617	8225
902.735	8275
902.854	8252
902.973	8233
903.091	8073
903.21	8126
903.328	8134
903.446	8115
903.565	8024
903.683	8065
903.801	8039
903.919	8065
904.038	8024
904.156	8035
904.274	8046
904.392	7989
904.51	7986
904.627	8001
904.745	8035
904.863	8111
904.981	7879
905.098	7902
905.216	7887
905.334	7879
905.451	7860
905.569	7849
905.686	7879
905.803	7944
905.921	7769
906.038	7845
906.155	7788
906.272	7674
906.389	7693
906.506	7677
906.623	7597
906.74	7582
906.857	7533
906.974	7487
907.091	7636
907.208	7704
907.324	7651
907.441	7537
907.557	7407
907.674	7453
907.79	7422
907.907	7407
908.023	7430
908.139	7403
908.256	7392
908.372	7331
908.488	7343
908.604	7213
908.72	7263
908.836	7369
908.952	7232
909.068	7259
909.184	7274
909.3	7240
909.415	7225
909.531	7305
909.647	7046
909.762	7118
909.878	7012
909.993	7091
910.108	7038
910.224	7050
910.339	7019
910.454	7031
910.57	6970
910.685	6954
910.8	7110
910.915	7034
911.03	7023
911.145	6871
911.259	6859
911.374	6905
911.489	6844
911.604	6829
911.718	6654
911.833	6722
911.947	6662
912.062	6673
912.176	6639
912.291	6673
912.405	6608
912.519	6787
912.633	6776
912.748	6764
912.862	6677
912.976	6616
913.09	6509
913.204	6559
913.318	6604
913.431	6665
913.545	6654
913.659	6677
913.772	6681
913.886	6604
914	6582
914.113	6555
914.226	6547
914.34	6570
914.453	6460
914.566	6547
914.68	6456
914.793	6559
914.906	6433
915.019	6376
915.132	6365
915.245	6486
915.358	6384
915.47	6490
915.583	6441
915.696	6483
915.809	6483
915.921	6593
916.034	6399
916.146	6399
916.259	6327
916.371	6528
916.483	6437
916.595	6361
916.708	6433
916.82	6338
916.932	6361
917.044	6429
917.156	6441
917.268	6281
917.38	6281
917.491	6247
917.603	6296
917.715	6338
917.826	6384
917.938	6239
918.049	6247
918.161	6331
918.272	6369
918.384	6433
918.495	6361
918.606	6201
918.717	6216
918.828	6232
918.939	6285
919.05	6182
919.161	6262
919.272	6095
919.383	6102
919.494	6266
919.604	6426
919.715	6289
919.826	6247
919.936	6213
920.047	6300
920.157	6270
920.267	6403
920.378	6273
920.488	6251
920.598	6418
920.708	6502
920.818	6395
920.928	6429
921.038	6544
921.148	6578
921.258	6365
921.368	6304
921.477	6159
921.587	6167
921.697	6064
921.806	6136
921.916	6015
922.025	5935
922.134	5882
922.244	5847
922.353	5935
922.462	5866
922.571	5809
922.68	5688
922.789	5707
922.898	5668
923.007	5589
923.116	5672
923.224	5672
923.333	5642
923.442	5604
923.55	5524
923.659	5570
923.767	5627
923.876	5509
923.984	5627
924.092	5501
924.201	5528
924.309	5551
924.417	5497
924.525	5448
924.633	5471
924.741	6254
924.849	5357
924.956	5490
925.064	5330
925.172	5242
925.279	5254
925.387	5357
925.494	5299
925.602	5421
925.709	5337
925.816	5216
925.924	5261
926.031	5357
926.138	5239
926.245	5292
926.352	5204
926.459	5337
926.566	5311
926.673	5162
926.779	5094
926.886	5147
926.993	4999
927.099	5033
927.206	4953
927.312	4915
927.419	4976
927.525	4946
927.631	5006
927.737	4854
927.843	4858
927.95	4812
928.056	4839
928.162	4812
928.267	4824
928.373	5311
928.479	4831
928.585	4679
928.69	4744
928.796	4748
928.901	4679
929.007	4596
929.112	4599
929.218	4603
929.323	4603
929.428	4516
929.533	4653
929.638	4531
929.743	4535
929.848	4550
929.953	4478
930.058	4440
930.163	4295
930.267	4299
930.372	4436
930.477	4280
930.581	4451
930.685	4367
930.79	4272
930.894	4284
930.998	4242
931.103	4375
931.207	4109
931.311	4044
931.415	3987
931.519	3941
931.623	3941
