Data from glass_V78500241_1671.txt Node
Date: Wed Sep 01 19:26:05 CST 2021
User: usil
Spectrometer: V785-0024
Trigger mode: 0
Integration Time (sec): 4.000000E-1
Scans to average: 1
Nonlinearity correction enabled: false
Boxcar width: 0
Storing dark spectrum: false
XAxis mode: Wavelengths
Number of Pixels in Spectrum: 1024
>>>>>Begin Spectral Data<<<<<
801.071	3747
801.214	3762
801.356	3667
801.499	3743
801.641	3713
801.783	3778
801.926	3831
802.068	3797
802.211	3850
802.353	3888
802.496	3831
802.638	3876
802.78	3892
802.923	3922
803.065	3922
803.208	3892
803.35	3838
803.492	3930
803.635	3896
803.777	3812
803.919	3899
804.061	4185
804.204	3968
804.346	3934
804.488	3987
804.63	4017
804.773	3949
804.915	4044
805.057	4169
805.199	4032
805.341	4120
805.483	4128
805.626	4143
805.768	4131
805.91	4257
806.052	4257
806.194	4215
806.336	4333
806.478	4223
806.62	4147
806.762	4200
806.904	4265
807.046	4310
807.188	4215
807.33	4150
807.472	4223
807.614	4169
807.756	4249
807.898	4188
808.04	4215
808.182	4261
808.324	4314
808.465	4402
808.607	4443
808.749	4497
808.891	4470
809.033	4481
809.174	4440
809.316	4329
809.458	4287
809.6	4124
809.741	4120
809.883	4120
810.025	4219
810.166	4223
810.308	4177
810.45	4227
810.591	4181
810.733	4322
810.875	4535
811.016	4866
811.158	5121
811.299	5261
811.441	5284
811.582	5071
811.724	4698
811.865	4466
812.007	4489
812.148	4409
812.29	4398
812.431	4424
812.573	4432
812.714	4352
812.855	4409
812.997	4421
813.138	4455
813.279	4443
813.421	4367
813.562	4348
813.703	4291
813.845	4356
813.986	4261
814.127	4207
814.268	4261
814.41	4284
814.551	4242
814.692	4272
814.833	4257
814.974	4314
815.115	4325
815.256	4261
815.397	4253
815.539	4276
815.68	4207
815.821	4238
815.962	4306
816.103	4322
816.244	4249
816.385	4177
816.526	4284
816.666	4227
816.807	4135
816.948	4150
817.089	4204
817.23	4131
817.371	4036
817.512	4086
817.653	4093
817.793	4029
817.934	4078
818.075	4105
818.216	4032
818.356	4101
818.497	3975
818.638	3922
818.778	3922
818.919	3869
819.06	3861
819.2	3918
819.341	3850
819.481	3831
819.622	3918
819.762	4017
819.903	3960
820.043	3827
820.184	3846
820.324	3835
820.465	3876
820.605	3831
820.746	3869
820.886	3800
821.026	3915
821.167	3880
821.307	3987
821.447	3972
821.588	3941
821.728	3926
821.868	3896
822.008	3850
822.149	3884
822.289	3888
822.429	3781
822.569	3789
822.709	3812
822.849	3732
822.99	3709
823.13	3724
823.27	3800
823.41	3682
823.55	3759
823.69	3720
823.83	3705
823.97	3686
824.11	3595
824.25	3591
824.389	3663
824.529	3667
824.669	3644
824.809	3709
824.949	3755
825.089	3713
825.228	3709
825.368	3576
825.508	3572
825.648	3557
825.787	3667
825.927	3614
826.067	3599
826.206	3633
826.346	3781
826.485	3812
826.625	3831
826.765	3934
826.904	3842
827.044	3622
827.183	3515
827.323	3424
827.462	3515
827.601	3458
827.741	3401
827.88	3439
828.02	3378
828.159	3424
828.298	3477
828.437	3542
828.577	3424
828.716	3622
828.855	3545
828.994	3409
829.134	3348
829.273	3382
829.412	3332
829.551	3313
829.69	3401
829.829	3405
829.968	3523
830.107	3469
830.246	3454
830.385	3378
830.524	3291
830.663	3283
830.802	3253
830.941	3192
831.08	3211
831.219	3268
831.357	3272
831.496	3405
831.635	3237
831.774	3161
831.913	3222
832.051	3127
832.19	3211
832.329	3199
832.467	3138
832.606	3142
832.744	3154
832.883	3180
833.022	3192
833.16	3237
833.299	3275
833.437	3329
833.576	3370
833.714	3386
833.852	3431
833.991	3454
834.129	3473
834.267	3439
834.406	3401
834.544	3409
834.682	3401
834.821	3412
834.959	3568
835.097	3458
835.235	3526
835.373	3466
835.511	3511
835.65	3458
835.788	3492
835.926	3401
836.064	3351
836.202	3412
836.34	3557
836.478	3564
836.615	3553
836.753	3576
836.891	3644
837.029	3614
837.167	3595
837.305	3580
837.443	3545
837.58	3511
837.718	3610
837.856	3542
837.993	3561
838.131	3656
838.269	3568
838.406	3614
838.544	3553
838.681	3466
838.819	3435
838.956	3359
839.094	3359
839.231	3443
839.369	3488
839.506	3705
839.643	3629
839.781	3526
839.918	3485
840.055	3576
840.193	3519
840.33	3542
840.467	3523
840.604	3568
840.742	3785
840.879	3523
841.016	3584
841.153	3603
841.29	3759
841.427	3724
841.564	3694
841.701	3736
841.838	3667
841.975	3667
842.112	3720
842.249	3633
842.385	3618
842.522	3880
842.659	3679
842.796	3648
842.933	3682
843.069	3705
843.206	3720
843.343	3850
843.479	3819
843.616	3770
843.752	3641
843.889	3656
844.025	3819
844.162	3709
844.298	3857
844.435	3808
844.571	3785
844.708	3915
844.844	4029
844.98	4025
845.117	4063
845.253	3926
845.389	3896
845.525	3915
845.661	3991
845.798	3926
845.934	3983
846.07	3937
846.206	4048
846.342	4109
846.478	4040
846.614	3983
846.75	3903
846.886	3888
847.022	4010
847.158	3979
847.294	4002
847.429	4067
847.565	3998
847.701	4215
847.837	3850
847.972	3850
848.108	3941
848.244	3968
848.379	3857
848.515	3827
848.65	3854
848.786	3819
848.921	3854
849.057	3953
849.192	3930
849.328	3907
849.463	3934
849.598	3896
849.734	3846
849.869	3827
850.004	3789
850.14	3823
850.275	3774
850.41	3694
850.545	3766
850.68	3785
850.815	3740
850.95	3831
851.085	3926
851.22	3838
851.355	3827
851.49	3797
851.625	3766
851.76	3793
851.895	3755
852.03	3717
852.165	3766
852.299	3819
852.434	3873
852.569	3857
852.703	3896
852.838	3945
852.973	3975
853.107	3975
853.242	3884
853.376	3812
853.511	3732
853.645	3831
853.78	3934
853.914	3869
854.048	3896
854.183	3869
854.317	3960
854.451	4101
854.585	3941
854.72	3899
854.854	4051
854.988	3998
855.122	4025
855.256	3896
855.39	3994
855.524	4124
855.658	4139
855.792	4124
855.926	4120
856.06	4162
856.194	4223
856.327	4169
856.461	4105
856.595	4162
856.729	4162
856.862	4284
856.996	4246
857.13	4341
857.263	4341
857.397	4318
857.53	4265
857.664	4295
857.797	4367
857.931	4436
858.064	4367
858.197	4405
858.331	4402
858.464	4386
858.597	4405
858.731	4443
858.864	4436
858.997	4466
859.13	4550
859.263	4558
859.396	4588
859.529	4527
859.662	4542
859.795	4546
859.928	4596
860.061	4668
860.194	4717
860.327	4664
860.46	4706
860.592	4767
860.725	4725
860.858	4744
860.99	4710
861.123	4710
861.256	4687
861.388	4702
861.521	5398
861.653	4706
861.786	4702
861.918	4763
862.05	4801
862.183	4820
862.315	4877
862.447	4919
862.58	4873
862.712	4782
862.844	4771
862.976	4839
863.108	4881
863.24	5284
863.372	4805
863.504	4900
863.636	4881
863.768	4942
863.9	4938
864.032	4930
864.164	4961
864.296	5033
864.428	5090
864.559	5136
864.691	5143
864.823	5067
864.954	5083
865.086	5140
865.217	5094
865.349	5098
865.48	5204
865.612	5216
865.743	5307
865.875	5174
866.006	5178
866.137	5223
866.269	5216
866.4	5273
866.531	5189
866.662	5254
866.793	5269
866.924	5292
867.055	5326
867.186	5322
867.317	5341
867.448	5372
867.579	5334
867.71	5353
867.841	5364
867.972	5440
868.103	5455
868.233	5478
868.364	5452
868.495	5554
868.625	5668
868.756	5870
868.886	5642
869.017	5775
869.147	5729
869.278	5897
869.408	5836
869.539	5828
869.669	5908
869.799	5961
869.929	6003
870.06	6045
870.19	6201
870.32	6213
870.45	6258
870.58	6388
870.71	6410
870.84	6502
870.97	6456
871.1	6418
871.23	6639
871.36	6722
871.489	6620
871.619	6711
871.749	6810
871.879	6821
872.008	6943
872.138	6970
872.267	7027
872.397	6966
872.526	6993
872.656	7110
872.785	7175
872.915	7377
873.044	7487
873.173	7480
873.303	7601
873.432	7811
873.561	7917
873.69	7913
873.819	8058
873.948	8123
874.077	8240
874.206	8336
874.335	8503
874.464	8724
874.593	8849
874.722	8918
874.851	9142
874.979	9188
875.108	9332
875.237	9454
875.365	9545
875.494	9686
875.623	9857
875.751	9835
875.88	10029
876.008	10162
876.136	10268
876.265	10432
876.393	10687
876.521	10782
876.65	10873
876.778	10908
876.906	10866
877.034	10957
877.162	11067
877.29	11159
877.418	11299
877.546	11349
877.674	11433
877.802	11429
877.93	11463
878.058	11551
878.185	11592
878.313	11718
878.441	11756
878.568	11638
878.696	11775
878.824	11870
878.951	11942
879.079	12015
879.206	12121
879.333	12053
879.461	11958
879.588	12102
879.715	12167
879.842	12175
879.97	12117
880.097	11878
880.224	11794
880.351	11885
880.478	11859
880.605	11863
880.732	11901
880.859	12060
880.986	11775
881.112	11847
881.239	11729
881.366	11691
881.493	11600
881.619	11535
881.746	11661
881.872	11505
881.999	11478
882.125	11471
882.252	11543
882.378	11501
882.505	11577
882.631	11334
882.757	11311
882.883	11307
883.01	11265
883.136	11201
883.262	11071
883.388	11151
883.514	11193
883.64	11086
883.766	11155
883.892	11014
884.018	11048
884.143	11075
884.269	11083
884.395	10866
884.52	10714
884.646	10816
884.772	10592
884.897	10679
885.023	10683
885.148	10752
885.274	10786
885.399	10675
885.524	10641
885.65	10577
885.775	10645
885.9	10599
886.025	10596
886.15	10618
886.275	10519
886.4	10360
886.525	10371
886.65	10314
886.775	10344
886.9	10421
887.025	10592
887.149	10341
887.274	10234
887.399	10154
887.523	10249
887.648	10147
887.773	10139
887.897	10291
888.021	10154
888.146	10162
888.27	10219
888.395	10162
888.519	10234
888.643	10109
888.767	10207
888.891	10105
889.015	9987
889.139	10025
889.263	10059
889.387	10002
889.511	10135
889.635	10017
889.759	10029
889.883	9968
890.006	10017
890.13	10032
890.254	9979
890.377	9880
890.501	9770
890.624	9884
890.748	9861
890.871	9793
890.995	9766
891.118	9682
891.241	9778
891.364	9732
891.488	9907
891.611	9755
891.734	9679
891.857	9770
891.98	9701
892.103	9781
892.226	9720
892.349	9713
892.471	9587
892.594	9549
892.717	9686
892.839	9564
892.962	9686
893.085	9652
893.207	9599
893.33	9466
893.452	9519
893.575	9584
893.697	9584
893.819	9663
893.941	9572
894.064	9591
894.186	9431
894.308	9416
894.43	9538
894.552	9614
894.674	9515
894.796	9393
894.918	9393
895.04	9466
895.161	9363
895.283	9287
895.405	9287
895.526	9245
895.648	9264
895.769	9256
895.891	9264
896.012	9291
896.134	9195
896.255	9146
896.376	9180
896.498	9161
896.619	9127
896.74	9100
896.861	9058
896.982	9203
897.103	9313
897.224	9138
897.345	9097
897.466	9001
897.587	9013
897.708	9051
897.828	9062
897.949	8998
898.07	8891
898.19	8857
898.311	9028
898.431	8883
898.552	8902
898.672	8883
898.792	8941
898.913	8914
899.033	8800
899.153	8758
899.273	8682
899.393	8686
899.513	8727
899.633	8746
899.753	8735
899.873	8720
899.993	8769
900.113	8659
900.232	8598
900.352	8610
900.472	8598
900.591	8568
900.711	8602
900.83	8530
900.95	8598
901.069	8720
901.189	8636
901.308	8442
901.427	8320
901.546	8488
901.665	8400
901.784	8526
901.904	8374
902.023	8282
902.141	8240
902.26	8214
902.379	8271
902.498	8210
902.617	8244
902.735	8301
902.854	8305
902.973	8275
903.091	8130
903.21	8130
903.328	8130
903.446	8176
903.565	8077
903.683	8062
903.801	8024
903.919	8062
904.038	8138
904.156	8077
904.274	8027
904.392	8039
904.51	8043
904.627	8054
904.745	8054
904.863	8088
904.981	7951
905.098	7860
905.216	7883
905.334	7868
905.451	7845
905.569	7883
905.686	7894
905.803	7936
905.921	7746
906.038	7879
906.155	7830
906.272	7712
906.389	7788
906.506	7609
906.623	7658
906.74	7582
906.857	7521
906.974	7571
907.091	7666
907.208	7704
907.324	7662
907.441	7582
907.557	7514
907.674	7453
907.79	7384
907.907	7441
908.023	7381
908.139	7460
908.256	7392
908.372	7335
908.488	7384
908.604	7247
908.72	7312
908.836	7270
908.952	7278
909.068	7236
909.184	7282
909.3	7293
909.415	7232
909.531	7285
909.647	7122
909.762	7046
909.878	7103
909.993	7141
910.108	7095
910.224	7091
910.339	7080
910.454	7069
910.57	7023
910.685	6970
910.8	7175
910.915	7065
911.03	7027
911.145	6901
911.259	6886
911.374	6863
911.489	6791
911.604	6779
911.718	6662
911.833	6715
911.947	6612
912.062	6616
912.176	6719
912.291	6658
912.405	6688
912.519	6768
912.633	6852
912.748	6726
912.862	6665
912.976	6635
913.09	6509
913.204	6616
913.318	6616
913.431	6650
913.545	6608
913.659	6726
913.772	6650
913.886	6479
914	6479
914.113	6585
914.226	6642
914.34	6684
914.453	6521
914.566	6559
914.68	6540
914.793	6547
914.906	6384
915.019	6380
915.132	6323
915.245	6388
915.358	6429
915.47	6422
915.583	6475
915.696	6441
915.809	6547
915.921	6574
916.034	6391
916.146	6437
916.259	6353
916.371	6456
916.483	6437
916.595	6433
916.708	6418
916.82	6361
916.932	6414
917.044	6388
917.156	6418
917.268	6388
917.38	6342
917.491	6292
917.603	6323
917.715	6342
917.826	6395
917.938	6262
918.049	6266
918.161	6247
918.272	6422
918.384	6467
918.495	6285
918.606	6182
918.717	6159
918.828	6277
918.939	6281
919.05	6175
919.161	6292
919.272	6106
919.383	6171
919.494	6323
919.604	6467
919.715	6262
919.826	6220
919.936	6300
920.047	6384
920.157	6285
920.267	6426
920.378	6254
920.488	6247
920.598	6410
920.708	6521
920.818	6498
920.928	6486
921.038	6582
921.148	6555
921.258	6384
921.368	6342
921.477	6186
921.587	6190
921.697	6098
921.806	6216
921.916	6019
922.025	5969
922.134	5931
922.244	5870
922.353	5946
922.462	5908
922.571	5824
922.68	5684
922.789	5684
922.898	5695
923.007	5642
923.116	5726
923.224	5623
923.333	5665
923.442	5608
923.55	5539
923.659	5661
923.767	5630
923.876	5532
923.984	5570
924.092	5539
924.201	5581
924.309	5581
924.417	5497
924.525	5505
924.633	5532
924.741	6273
924.849	5326
924.956	5493
925.064	5311
925.172	5269
925.279	5311
925.387	5395
925.494	5288
925.602	5425
925.709	5391
925.816	5303
925.924	5357
926.031	5322
926.138	5330
926.245	5330
926.352	5193
926.459	5315
926.566	5334
926.673	5170
926.779	5113
926.886	5121
926.993	5056
927.099	4991
927.206	4965
927.312	4957
927.419	5071
927.525	4968
927.631	4999
927.737	4881
927.843	4854
927.95	4801
928.056	4839
928.162	4816
928.267	4889
928.373	5353
928.479	4885
928.585	4687
928.69	4748
928.796	4786
928.901	4687
929.007	4599
929.112	4672
929.218	4656
929.323	4615
929.428	4584
929.533	4683
929.638	4523
929.743	4531
929.848	4569
929.953	4443
930.058	4413
930.163	4333
930.267	4356
930.372	4459
930.477	4314
930.581	4447
930.685	4303
930.79	4261
930.894	4310
930.998	4261
931.103	4394
931.207	4097
931.311	4116
931.415	4067
931.519	3922
931.623	3949
