Data from glass_V78500241_1184.txt Node
Date: Wed Sep 01 19:22:42 CST 2021
User: usil
Spectrometer: V785-0024
Trigger mode: 0
Integration Time (sec): 4.000000E-1
Scans to average: 1
Nonlinearity correction enabled: false
Boxcar width: 0
Storing dark spectrum: false
XAxis mode: Wavelengths
Number of Pixels in Spectrum: 1024
>>>>>Begin Spectral Data<<<<<
801.071	3804
801.214	3732
801.356	3663
801.499	3728
801.641	3743
801.783	3766
801.926	3857
802.068	3812
802.211	3869
802.353	3903
802.496	3892
802.638	3884
802.78	3873
802.923	3911
803.065	3873
803.208	3896
803.35	3892
803.492	3888
803.635	3937
803.777	3789
803.919	3918
804.061	4147
804.204	3994
804.346	3968
804.488	3934
804.63	4025
804.773	4025
804.915	4032
805.057	4181
805.199	4032
805.341	4093
805.483	4124
805.626	4188
805.768	4086
805.91	4215
806.052	4253
806.194	4261
806.336	4344
806.478	4238
806.62	4166
806.762	4173
806.904	4287
807.046	4318
807.188	4196
807.33	4154
807.472	4223
807.614	4227
807.756	4280
807.898	4242
808.04	4227
808.182	4310
808.324	4306
808.465	4409
808.607	4455
808.749	4440
808.891	4466
809.033	4538
809.174	4436
809.316	4257
809.458	4284
809.6	4177
809.741	4169
809.883	4131
810.025	4238
810.166	4238
810.308	4234
810.45	4291
810.591	4196
810.733	4325
810.875	4550
811.016	4831
811.158	5162
811.299	5269
811.441	5280
811.582	5132
811.724	4714
811.865	4459
812.007	4512
812.148	4459
812.29	4470
812.431	4390
812.573	4421
812.714	4379
812.855	4413
812.997	4440
813.138	4481
813.279	4436
813.421	4398
813.562	4421
813.703	4367
813.845	4348
813.986	4314
814.127	4268
814.268	4238
814.41	4322
814.551	4249
814.692	4276
814.833	4265
814.974	4303
815.115	4333
815.256	4253
815.397	4246
815.539	4287
815.68	4219
815.821	4223
815.962	4257
816.103	4310
816.244	4257
816.385	4257
816.526	4303
816.666	4246
816.807	4101
816.948	4204
817.089	4200
817.23	4112
817.371	4032
817.512	4090
817.653	4032
817.793	4040
817.934	4078
818.075	4078
818.216	4086
818.356	4090
818.497	3991
818.638	3918
818.778	3937
818.919	3945
819.06	3907
819.2	3892
819.341	3819
819.481	3850
819.622	3930
819.762	4036
819.903	3934
820.043	3842
820.184	3861
820.324	3812
820.465	3880
820.605	3922
820.746	3873
820.886	3823
821.026	3930
821.167	3884
821.307	3968
821.447	4029
821.588	3949
821.728	3937
821.868	3949
822.008	3876
822.149	3911
822.289	3956
822.429	3823
822.569	3770
822.709	3835
822.849	3694
822.99	3720
823.13	3774
823.27	3774
823.41	3751
823.55	3728
823.69	3728
823.83	3762
823.97	3671
824.11	3614
824.25	3633
824.389	3652
824.529	3682
824.669	3671
824.809	3720
824.949	3797
825.089	3747
825.228	3717
825.368	3622
825.508	3591
825.648	3584
825.787	3622
825.927	3652
826.067	3644
826.206	3660
826.346	3804
826.485	3850
826.625	3857
826.765	3949
826.904	3857
827.044	3591
827.183	3572
827.323	3439
827.462	3473
827.601	3447
827.741	3492
827.88	3462
828.02	3367
828.159	3481
828.298	3492
828.437	3545
828.577	3439
828.716	3629
828.855	3553
828.994	3355
829.134	3370
829.273	3409
829.412	3367
829.551	3332
829.69	3374
829.829	3431
829.968	3477
830.107	3435
830.246	3428
830.385	3329
830.524	3348
830.663	3275
830.802	3283
830.941	3165
831.08	3192
831.219	3245
831.357	3306
831.496	3428
831.635	3253
831.774	3222
831.913	3218
832.051	3138
832.19	3138
832.329	3230
832.467	3138
832.606	3100
832.744	3157
832.883	3211
833.022	3161
833.16	3275
833.299	3321
833.437	3348
833.576	3363
833.714	3420
833.852	3443
833.991	3450
834.129	3469
834.267	3435
834.406	3431
834.544	3435
834.682	3393
834.821	3420
834.959	3606
835.097	3431
835.235	3523
835.373	3473
835.511	3500
835.65	3481
835.788	3481
835.926	3412
836.064	3355
836.202	3439
836.34	3587
836.478	3625
836.615	3526
836.753	3584
836.891	3656
837.029	3614
837.167	3572
837.305	3576
837.443	3587
837.58	3523
837.718	3576
837.856	3568
837.993	3564
838.131	3603
838.269	3591
838.406	3629
838.544	3580
838.681	3519
838.819	3428
838.956	3359
839.094	3389
839.231	3447
839.369	3530
839.506	3789
839.643	3591
839.781	3496
839.918	3496
840.055	3526
840.193	3534
840.33	3492
840.467	3534
840.604	3606
840.742	3785
840.879	3549
841.016	3587
841.153	3587
841.29	3789
841.427	3717
841.564	3705
841.701	3743
841.838	3732
841.975	3705
842.112	3705
842.249	3644
842.385	3667
842.522	3819
842.659	3701
842.796	3705
842.933	3778
843.069	3679
843.206	3728
843.343	3819
843.479	3762
843.616	3827
843.752	3709
843.889	3660
844.025	3884
844.162	3724
844.298	3884
844.435	3789
844.571	3770
844.708	3922
844.844	3964
844.98	4048
845.117	3998
845.253	3930
845.389	3934
845.525	3983
845.661	3975
845.798	3949
845.934	4021
846.07	3964
846.206	4051
846.342	4101
846.478	4048
846.614	3968
846.75	3968
846.886	3896
847.022	4002
847.158	3964
847.294	3968
847.429	4048
847.565	4025
847.701	4272
847.837	3918
847.972	3896
848.108	3979
848.244	3991
848.379	3876
848.515	3842
848.65	3850
848.786	3831
848.921	3876
849.057	3915
849.192	3964
849.328	3884
849.463	3876
849.598	3876
849.734	3861
849.869	3865
850.004	3778
850.14	3823
850.275	3736
850.41	3778
850.545	3766
850.68	3740
850.815	3819
850.95	3762
851.085	3956
851.22	3835
851.355	3800
851.49	3800
851.625	3816
851.76	3789
851.895	3759
852.03	3690
852.165	3781
852.299	3827
852.434	3903
852.569	3861
852.703	3899
852.838	3926
852.973	4010
853.107	3956
853.242	3934
853.376	3838
853.511	3785
853.645	3846
853.78	3949
853.914	3915
854.048	3926
854.183	3888
854.317	3964
854.451	4055
854.585	3956
854.72	4002
854.854	4074
854.988	3956
855.122	4006
855.256	3949
855.39	4055
855.524	4116
855.658	4032
855.792	4097
855.926	4131
856.06	4177
856.194	4227
856.327	4181
856.461	4154
856.595	4150
856.729	4181
856.862	4291
856.996	4265
857.13	4287
857.263	4386
857.397	4398
857.53	4249
857.664	4363
857.797	4363
857.931	4386
858.064	4424
858.197	4470
858.331	4344
858.464	4371
858.597	4337
858.731	4451
858.864	4428
858.997	4462
859.13	4542
859.263	4573
859.396	4660
859.529	4538
859.662	4558
859.795	4523
859.928	4637
860.061	4714
860.194	4744
860.327	4653
860.46	4664
860.592	4702
860.725	4778
860.858	4793
860.99	4725
861.123	4653
861.256	4675
861.388	4744
861.521	5376
861.653	4710
861.786	4721
861.918	4698
862.05	4812
862.183	4824
862.315	4854
862.447	4972
862.58	4908
862.712	4824
862.844	4771
862.976	4843
863.108	4904
863.24	5212
863.372	4828
863.504	4896
863.636	4896
863.768	4946
863.9	4927
864.032	4938
864.164	4961
864.296	5014
864.428	5113
864.559	5109
864.691	5136
864.823	5105
864.954	5124
865.086	5170
865.217	5128
865.349	5124
865.48	5136
865.612	5140
865.743	5292
865.875	5166
866.006	5197
866.137	5242
866.269	5223
866.4	5296
866.531	5231
866.662	5235
866.793	5280
866.924	5353
867.055	5337
867.186	5353
867.317	5296
867.448	5330
867.579	5349
867.71	5353
867.841	5410
867.972	5452
868.103	5471
868.233	5478
868.364	5455
868.495	5539
868.625	5672
868.756	5764
868.886	5684
869.017	5760
869.147	5844
869.278	5916
869.408	5836
869.539	5790
869.669	5866
869.799	5897
869.929	5984
870.06	5999
870.19	6175
870.32	6194
870.45	6296
870.58	6304
870.71	6445
870.84	6517
870.97	6407
871.1	6467
871.23	6616
871.36	6665
871.489	6654
871.619	6821
871.749	6829
871.879	6779
872.008	6993
872.138	6954
872.267	7027
872.397	6951
872.526	7069
872.656	7160
872.785	7183
872.915	7403
873.044	7537
873.173	7537
873.303	7658
873.432	7769
873.561	7906
873.69	7913
873.819	7993
873.948	8138
874.077	8259
874.206	8339
874.335	8465
874.464	8640
874.593	8910
874.722	9009
874.851	9123
874.979	9249
875.108	9359
875.237	9367
875.365	9488
875.494	9667
875.623	9785
875.751	9835
875.88	9991
876.008	10131
876.136	10322
876.265	10542
876.393	10702
876.521	10740
876.65	10824
876.778	10889
876.906	10824
877.034	10908
877.162	11136
877.29	11143
877.418	11216
877.546	11391
877.674	11463
877.802	11528
877.93	11471
878.058	11585
878.185	11592
878.313	11752
878.441	11802
878.568	11684
878.696	11710
878.824	11859
878.951	11893
879.079	12007
879.206	12121
879.333	12076
879.461	12038
879.588	12053
879.715	12095
879.842	12216
879.97	11996
880.097	11939
880.224	11855
880.351	11965
880.478	11923
880.605	11885
880.732	11824
880.859	12076
880.986	11821
881.112	11901
881.239	11710
881.366	11703
881.493	11627
881.619	11642
881.746	11532
881.872	11562
881.999	11524
882.125	11471
882.252	11672
882.378	11497
882.505	11482
882.631	11497
882.757	11208
882.883	11326
883.01	11265
883.136	11220
883.262	11147
883.388	11086
883.514	11113
883.64	11242
883.766	11178
883.892	11022
884.018	11075
884.143	11060
884.269	11166
884.395	10843
884.52	10797
884.646	10691
884.772	10679
884.897	10687
885.023	10721
885.148	10816
885.274	10820
885.399	10782
885.524	10611
885.65	10569
885.775	10569
885.9	10550
886.025	10584
886.15	10535
886.275	10443
886.4	10417
886.525	10398
886.65	10451
886.775	10352
886.9	10470
887.025	10554
887.149	10367
887.274	10154
887.399	10219
887.523	10128
887.648	10101
887.773	10147
887.897	10253
888.021	10265
888.146	10044
888.27	10257
888.395	10207
888.519	10200
888.643	10265
888.767	10268
888.891	10124
889.015	10002
889.139	10074
889.263	9994
889.387	10093
889.511	10124
889.635	10059
889.759	9964
889.883	10036
890.006	9994
890.13	10093
890.254	9861
890.377	9956
890.501	9899
890.624	9911
890.748	9960
890.871	9797
890.995	9781
891.118	9720
891.241	9823
891.364	9766
891.488	9770
891.611	9755
891.734	9770
891.857	9762
891.98	9709
892.103	9686
892.226	9743
892.349	9679
892.471	9466
892.594	9603
892.717	9587
892.839	9591
892.962	9622
893.085	9637
893.207	9530
893.33	9538
893.452	9473
893.575	9595
893.697	9488
893.819	9584
893.941	9614
894.064	9584
894.186	9386
894.308	9435
894.43	9576
894.552	9549
894.674	9504
894.796	9382
894.918	9401
895.04	9412
895.161	9401
895.283	9329
895.405	9237
895.526	9340
895.648	9207
895.769	9218
895.891	9211
896.012	9287
896.134	9222
896.255	9214
896.376	9142
896.498	9237
896.619	9161
896.74	9116
896.861	9062
896.982	9226
897.103	9325
897.224	9188
897.345	9077
897.466	9032
897.587	8952
897.708	9062
897.828	9039
897.949	8975
898.07	8876
898.19	8971
898.311	8963
898.431	8899
898.552	8910
898.672	8925
898.792	8902
898.913	8975
899.033	8811
899.153	8743
899.273	8682
899.393	8807
899.513	8746
899.633	8735
899.753	8693
899.873	8773
899.993	8834
900.113	8712
900.232	8720
900.352	8693
900.472	8621
900.591	8533
900.711	8571
900.83	8537
900.95	8705
901.069	8655
901.189	8651
901.308	8465
901.427	8412
901.546	8457
901.665	8454
901.784	8480
901.904	8396
902.023	8404
902.141	8202
902.26	8183
902.379	8286
902.498	8202
902.617	8191
902.735	8343
902.854	8358
902.973	8252
903.091	8176
903.21	8145
903.328	8157
903.446	8119
903.565	8039
903.683	8031
903.801	8062
903.919	8107
904.038	8107
904.156	8016
904.274	8092
904.392	8043
904.51	8016
904.627	8024
904.745	8142
904.863	8062
904.981	7879
905.098	7925
905.216	7887
905.334	7898
905.451	7852
905.569	7883
905.686	7833
905.803	7947
905.921	7727
906.038	7818
906.155	7818
906.272	7738
906.389	7734
906.506	7582
906.623	7624
906.74	7563
906.857	7575
906.974	7594
907.091	7727
907.208	7731
907.324	7639
907.441	7559
907.557	7419
907.674	7464
907.79	7400
907.907	7388
908.023	7445
908.139	7476
908.256	7407
908.372	7403
908.488	7327
908.604	7289
908.72	7255
908.836	7339
908.952	7293
909.068	7259
909.184	7377
909.3	7289
909.415	7297
909.531	7270
909.647	7069
909.762	7156
909.878	7126
909.993	7107
910.108	7110
910.224	7050
910.339	7107
910.454	7069
910.57	6954
910.685	6981
910.8	7133
910.915	7198
911.03	7046
911.145	6920
911.259	6878
911.374	6859
911.489	6848
911.604	6837
911.718	6719
911.833	6722
911.947	6673
912.062	6646
912.176	6665
912.291	6722
912.405	6768
912.519	6840
912.633	6795
912.748	6734
912.862	6684
912.976	6589
913.09	6559
913.204	6585
913.318	6604
913.431	6722
913.545	6673
913.659	6711
913.772	6627
913.886	6593
914	6623
914.113	6646
914.226	6627
914.34	6650
914.453	6547
914.566	6646
914.68	6479
914.793	6559
914.906	6445
915.019	6410
915.132	6365
915.245	6475
915.358	6467
915.47	6448
915.583	6490
915.696	6433
915.809	6528
915.921	6551
916.034	6467
916.146	6429
916.259	6441
916.371	6498
916.483	6475
916.595	6429
916.708	6380
916.82	6395
916.932	6369
917.044	6350
917.156	6384
917.268	6365
917.38	6388
917.491	6372
917.603	6315
917.715	6441
917.826	6437
917.938	6323
918.049	6220
918.161	6399
918.272	6372
918.384	6380
918.495	6342
918.606	6243
918.717	6258
918.828	6224
918.939	6266
919.05	6228
919.161	6338
919.272	6163
919.383	6155
919.494	6319
919.604	6441
919.715	6331
919.826	6220
919.936	6273
920.047	6350
920.157	6327
920.267	6437
920.378	6353
920.488	6281
920.598	6490
920.708	6563
920.818	6448
920.928	6483
921.038	6601
921.148	6585
921.258	6361
921.368	6308
921.477	6232
921.587	6220
921.697	6117
921.806	6262
921.916	6083
922.025	5984
922.134	5851
922.244	5885
922.353	6019
922.462	5897
922.571	5851
922.68	5718
922.789	5752
922.898	5710
923.007	5638
923.116	5695
923.224	5703
923.333	5657
923.442	5585
923.55	5581
923.659	5570
923.767	5672
923.876	5558
923.984	5657
924.092	5539
924.201	5600
924.309	5581
924.417	5611
924.525	5524
924.633	5520
924.741	6262
924.849	5357
924.956	5478
925.064	5376
925.172	5307
925.279	5341
925.387	5360
925.494	5307
925.602	5448
925.709	5357
925.816	5296
925.924	5341
926.031	5357
926.138	5307
926.245	5349
926.352	5227
926.459	5303
926.566	5311
926.673	5250
926.779	5109
926.886	5083
926.993	5022
927.099	4942
927.206	4991
927.312	4995
927.419	5086
927.525	5018
927.631	5033
927.737	4938
927.843	4904
927.95	4790
928.056	4812
928.162	4858
928.267	4900
928.373	5307
928.479	4831
928.585	4660
928.69	4801
928.796	4782
928.901	4729
929.007	4588
929.112	4622
929.218	4691
929.323	4573
929.428	4569
929.533	4687
929.638	4580
929.743	4603
929.848	4542
929.953	4516
930.058	4443
930.163	4337
930.267	4360
930.372	4428
930.477	4329
930.581	4493
930.685	4352
930.79	4276
930.894	4287
930.998	4246
931.103	4390
931.207	4109
931.311	4101
931.415	4055
931.519	3934
931.623	3964
