Data from glass_V78500241_182.txt Node
Date: Wed Sep 01 19:15:45 CST 2021
User: usil
Spectrometer: V785-0024
Trigger mode: 0
Integration Time (sec): 4.000000E-1
Scans to average: 1
Nonlinearity correction enabled: false
Boxcar width: 0
Storing dark spectrum: false
XAxis mode: Wavelengths
Number of Pixels in Spectrum: 1024
>>>>>Begin Spectral Data<<<<<
801.071	3762
801.214	3793
801.356	3724
801.499	3720
801.641	3770
801.783	3800
801.926	3865
802.068	3857
802.211	3850
802.353	3899
802.496	3808
802.638	3896
802.78	3937
802.923	3911
803.065	3896
803.208	3850
803.35	3869
803.492	3892
803.635	3930
803.777	3827
803.919	3926
804.061	4173
804.204	3983
804.346	3953
804.488	3926
804.63	4025
804.773	3975
804.915	4017
805.057	4139
805.199	4059
805.341	4124
805.483	4162
805.626	4105
805.768	4147
805.91	4230
806.052	4268
806.194	4223
806.336	4394
806.478	4230
806.62	4200
806.762	4181
806.904	4295
807.046	4371
807.188	4200
807.33	4185
807.472	4227
807.614	4207
807.756	4242
807.898	4234
808.04	4242
808.182	4325
808.324	4310
808.465	4367
808.607	4466
808.749	4485
808.891	4432
809.033	4531
809.174	4367
809.316	4314
809.458	4280
809.6	4147
809.741	4166
809.883	4185
810.025	4234
810.166	4200
810.308	4246
810.45	4291
810.591	4291
810.733	4318
810.875	4474
811.016	4831
811.158	5117
811.299	5250
811.441	5235
811.582	5128
811.724	4672
811.865	4470
812.007	4478
812.148	4432
812.29	4424
812.431	4432
812.573	4379
812.714	4360
812.855	4398
812.997	4421
813.138	4466
813.279	4436
813.421	4409
813.562	4417
813.703	4325
813.845	4310
813.986	4242
814.127	4280
814.268	4299
814.41	4287
814.551	4306
814.692	4356
814.833	4276
814.974	4310
815.115	4329
815.256	4299
815.397	4238
815.539	4265
815.68	4242
815.821	4261
815.962	4337
816.103	4310
816.244	4276
816.385	4246
816.526	4295
816.666	4265
816.807	4105
816.948	4177
817.089	4207
817.23	4169
817.371	4086
817.512	4063
817.653	4071
817.793	4059
817.934	4090
818.075	4097
818.216	4090
818.356	4105
818.497	4029
818.638	3922
818.778	3899
818.919	3896
819.06	3873
819.2	3922
819.341	3884
819.481	3827
819.622	3907
819.762	4040
819.903	3975
820.043	3888
820.184	3857
820.324	3857
820.465	3873
820.605	3861
820.746	3876
820.886	3793
821.026	3911
821.167	3915
821.307	4010
821.447	3987
821.588	3964
821.728	3953
821.868	3994
822.008	3876
822.149	3911
822.289	3956
822.429	3778
822.569	3759
822.709	3789
822.849	3686
822.99	3732
823.13	3838
823.27	3816
823.41	3698
823.55	3740
823.69	3701
823.83	3755
823.97	3701
824.11	3648
824.25	3622
824.389	3686
824.529	3675
824.669	3705
824.809	3720
824.949	3766
825.089	3728
825.228	3675
825.368	3629
825.508	3572
825.648	3572
825.787	3606
825.927	3637
826.067	3663
826.206	3690
826.346	3766
826.485	3831
826.625	3907
826.765	3979
826.904	3850
827.044	3618
827.183	3538
827.323	3477
827.462	3466
827.601	3466
827.741	3416
827.88	3511
828.02	3393
828.159	3428
828.298	3443
828.437	3568
828.577	3450
828.716	3614
828.855	3485
828.994	3382
829.134	3382
829.273	3416
829.412	3363
829.551	3351
829.69	3363
829.829	3458
829.968	3553
830.107	3462
830.246	3450
830.385	3382
830.524	3397
830.663	3306
830.802	3283
830.941	3222
831.08	3199
831.219	3306
831.357	3310
831.496	3412
831.635	3268
831.774	3211
831.913	3226
832.051	3138
832.19	3165
832.329	3260
832.467	3116
832.606	3112
832.744	3203
832.883	3188
833.022	3192
833.16	3260
833.299	3302
833.437	3329
833.576	3370
833.714	3458
833.852	3443
833.991	3458
834.129	3458
834.267	3435
834.406	3420
834.544	3447
834.682	3409
834.821	3424
834.959	3599
835.097	3405
835.235	3523
835.373	3496
835.511	3549
835.65	3481
835.788	3515
835.926	3458
836.064	3374
836.202	3397
836.34	3561
836.478	3660
836.615	3561
836.753	3610
836.891	3698
837.029	3641
837.167	3618
837.305	3584
837.443	3534
837.58	3530
837.718	3610
837.856	3572
837.993	3564
838.131	3633
838.269	3614
838.406	3584
838.544	3584
838.681	3488
838.819	3466
838.956	3363
839.094	3386
839.231	3431
839.369	3492
839.506	3751
839.643	3660
839.781	3488
839.918	3466
840.055	3542
840.193	3584
840.33	3504
840.467	3561
840.604	3595
840.742	3766
840.879	3557
841.016	3576
841.153	3572
841.29	3759
841.427	3755
841.564	3724
841.701	3781
841.838	3667
841.975	3698
842.112	3740
842.249	3667
842.385	3622
842.522	3854
842.659	3660
842.796	3698
842.933	3713
843.069	3743
843.206	3720
843.343	3831
843.479	3800
843.616	3789
843.752	3675
843.889	3747
844.025	3907
844.162	3770
844.298	3816
844.435	3785
844.571	3831
844.708	3907
844.844	4021
844.98	4055
845.117	3998
845.253	3888
845.389	3949
845.525	3968
845.661	4013
845.798	3934
845.934	3979
846.07	3956
846.206	4032
846.342	4116
846.478	4059
846.614	3968
846.75	3945
846.886	3918
847.022	4048
847.158	3975
847.294	4025
847.429	4036
847.565	3998
847.701	4249
847.837	3873
847.972	3876
848.108	4013
848.244	3998
848.379	3857
848.515	3850
848.65	3804
848.786	3892
848.921	3884
849.057	3964
849.192	3956
849.328	3949
849.463	3964
849.598	3915
849.734	3846
849.869	3838
850.004	3781
850.14	3827
850.275	3812
850.41	3755
850.545	3789
850.68	3812
850.815	3785
850.95	3823
851.085	3941
851.22	3896
851.355	3876
851.49	3869
851.625	3819
851.76	3797
851.895	3793
852.03	3759
852.165	3846
852.299	3838
852.434	3922
852.569	3861
852.703	3896
852.838	3915
852.973	4055
853.107	3998
853.242	3869
853.376	3865
853.511	3770
853.645	3903
853.78	3991
853.914	3922
854.048	3907
854.183	3880
854.317	3972
854.451	4067
854.585	3953
854.72	3911
854.854	4025
854.988	3949
855.122	4051
855.256	3945
855.39	4055
855.524	4135
855.658	4120
855.792	4154
855.926	4135
856.06	4192
856.194	4227
856.327	4120
856.461	4120
856.595	4215
856.729	4185
856.862	4253
856.996	4223
857.13	4333
857.263	4322
857.397	4405
857.53	4303
857.664	4375
857.797	4405
857.931	4432
858.064	4405
858.197	4481
858.331	4451
858.464	4402
858.597	4363
858.731	4447
858.864	4459
858.997	4466
859.13	4538
859.263	4535
859.396	4592
859.529	4554
859.662	4577
859.795	4584
859.928	4580
860.061	4733
860.194	4790
860.327	4698
860.46	4656
860.592	4786
860.725	4801
860.858	4786
860.99	4649
861.123	4736
861.256	4710
861.388	4759
861.521	5398
861.653	4702
861.786	4733
861.918	4793
862.05	4805
862.183	4847
862.315	4915
862.447	4911
862.58	4904
862.712	4824
862.844	4759
862.976	4881
863.108	4870
863.24	5269
863.372	4847
863.504	4942
863.636	4866
863.768	4999
863.9	4980
864.032	4946
864.164	4957
864.296	5071
864.428	5079
864.559	5094
864.691	5079
864.823	5132
864.954	5094
865.086	5159
865.217	5090
865.349	5162
865.48	5155
865.612	5212
865.743	5292
865.875	5227
866.006	5197
866.137	5242
866.269	5242
866.4	5273
866.531	5239
866.662	5261
866.793	5254
866.924	5292
867.055	5334
867.186	5398
867.317	5345
867.448	5307
867.579	5395
867.71	5387
867.841	5402
867.972	5490
868.103	5509
868.233	5547
868.364	5520
868.495	5535
868.625	5668
868.756	5809
868.886	5737
869.017	5729
869.147	5870
869.278	5882
869.408	5859
869.539	5870
869.669	5939
869.799	5946
869.929	5965
870.06	6038
870.19	6178
870.32	6178
870.45	6235
870.58	6388
870.71	6460
870.84	6452
870.97	6540
871.1	6506
871.23	6623
871.36	6684
871.489	6627
871.619	6814
871.749	6859
871.879	6848
872.008	7038
872.138	6928
872.267	7023
872.397	6973
872.526	7027
872.656	7133
872.785	7202
872.915	7381
873.044	7597
873.173	7601
873.303	7681
873.432	7753
873.561	7814
873.69	7852
873.819	8031
873.948	8221
874.077	8309
874.206	8351
874.335	8427
874.464	8667
874.593	8773
874.722	8967
874.851	9089
874.979	9237
875.108	9374
875.237	9348
875.365	9557
875.494	9667
875.623	9888
875.751	9850
875.88	10067
876.008	10120
876.136	10227
876.265	10558
876.393	10774
876.521	10714
876.65	10862
876.778	10839
876.906	10889
877.034	11029
877.162	11128
877.29	11124
877.418	11322
877.546	11303
877.674	11433
877.802	11493
877.93	11497
878.058	11543
878.185	11539
878.313	11634
878.441	11802
878.568	11707
878.696	11855
878.824	11878
878.951	11984
879.079	12011
879.206	12167
879.333	12095
879.461	12026
879.588	12095
879.715	12144
879.842	12235
879.97	12095
880.097	11942
880.224	11950
880.351	11908
880.478	11916
880.605	11935
880.732	11790
880.859	11973
880.986	11840
881.112	11889
881.239	11802
881.366	11638
881.493	11627
881.619	11585
881.746	11577
881.872	11566
881.999	11532
882.125	11440
882.252	11611
882.378	11440
882.505	11551
882.631	11402
882.757	11299
882.883	11318
883.01	11261
883.136	11193
883.262	11151
883.388	11094
883.514	11140
883.64	11143
883.766	11121
883.892	10972
884.018	10942
884.143	11060
884.269	11094
884.395	10911
884.52	10809
884.646	10771
884.772	10641
884.897	10687
885.023	10683
885.148	10774
885.274	10694
885.399	10744
885.524	10569
885.65	10584
885.775	10561
885.9	10577
886.025	10588
886.15	10497
886.275	10417
886.4	10409
886.525	10455
886.65	10386
886.775	10379
886.9	10588
887.025	10554
887.149	10299
887.274	10234
887.399	10181
887.523	10192
887.648	10090
887.773	10093
887.897	10276
888.021	10219
888.146	10173
888.27	10192
888.395	10112
888.519	10185
888.643	10211
888.767	10200
888.891	10135
889.015	9964
889.139	10093
889.263	9979
889.387	10097
889.511	10154
889.635	10032
889.759	9994
889.883	9987
890.006	10071
890.13	10086
890.254	9960
890.377	9915
890.501	9895
890.624	9842
890.748	9884
890.871	9812
890.995	9778
891.118	9709
891.241	9816
891.364	9812
891.488	9876
891.611	9823
891.734	9728
891.857	9705
891.98	9667
892.103	9778
892.226	9732
892.349	9717
892.471	9603
892.594	9549
892.717	9584
892.839	9572
892.962	9656
893.085	9599
893.207	9545
893.33	9466
893.452	9507
893.575	9606
893.697	9504
893.819	9584
893.941	9614
894.064	9595
894.186	9439
894.308	9405
894.43	9511
894.552	9587
894.674	9622
894.796	9382
894.918	9431
895.04	9336
895.161	9439
895.283	9367
895.405	9298
895.526	9279
895.648	9233
895.769	9275
895.891	9298
896.012	9287
896.134	9222
896.255	9211
896.376	9138
896.498	9188
896.619	9150
896.74	9077
896.861	9161
896.982	9233
897.103	9340
897.224	9291
897.345	9047
897.466	9020
897.587	8994
897.708	9043
897.828	9024
897.949	8979
898.07	8895
898.19	8891
898.311	9009
898.431	8975
898.552	9013
898.672	8941
898.792	8872
898.913	8956
899.033	8864
899.153	8754
899.273	8629
899.393	8758
899.513	8743
899.633	8689
899.753	8746
899.873	8686
899.993	8708
900.113	8724
900.232	8670
900.352	8583
900.472	8663
900.591	8549
900.711	8625
900.83	8575
900.95	8708
901.069	8716
901.189	8575
901.308	8488
901.427	8404
901.546	8438
901.665	8434
901.784	8499
901.904	8419
902.023	8347
902.141	8195
902.26	8183
902.379	8229
902.498	8237
902.617	8233
902.735	8275
902.854	8275
902.973	8305
903.091	8073
903.21	8138
903.328	8187
903.446	8180
903.565	8138
903.683	8145
903.801	8145
903.919	8149
904.038	8126
904.156	8008
904.274	8126
904.392	8001
904.51	8027
904.627	8043
904.745	8046
904.863	8138
904.981	7906
905.098	7887
905.216	7890
905.334	7925
905.451	7944
905.569	7940
905.686	7921
905.803	7925
905.921	7818
906.038	7860
906.155	7849
906.272	7696
906.389	7734
906.506	7685
906.623	7628
906.74	7639
906.857	7578
906.974	7590
907.091	7605
907.208	7685
907.324	7601
907.441	7632
907.557	7434
907.674	7499
907.79	7480
907.907	7407
908.023	7453
908.139	7438
908.256	7441
908.372	7438
908.488	7396
908.604	7301
908.72	7240
908.836	7285
908.952	7198
909.068	7225
909.184	7369
909.3	7316
909.415	7285
909.531	7308
909.647	7175
909.762	7145
909.878	7114
909.993	7164
910.108	7164
910.224	7065
910.339	7110
910.454	7084
910.57	7008
910.685	6932
910.8	7194
910.915	7133
911.03	6996
911.145	6894
911.259	6905
911.374	6901
911.489	6878
911.604	6886
911.718	6677
911.833	6760
911.947	6627
912.062	6620
912.176	6730
912.291	6665
912.405	6730
912.519	6878
912.633	6840
912.748	6707
912.862	6722
912.976	6639
913.09	6604
913.204	6540
913.318	6646
913.431	6719
913.545	6722
913.659	6783
913.772	6665
913.886	6521
914	6551
914.113	6635
914.226	6650
914.34	6612
914.453	6551
914.566	6623
914.68	6544
914.793	6506
914.906	6441
915.019	6388
915.132	6372
915.245	6467
915.358	6448
915.47	6437
915.583	6513
915.696	6483
915.809	6547
915.921	6544
916.034	6429
916.146	6376
916.259	6403
916.371	6464
916.483	6441
916.595	6403
916.708	6448
916.82	6429
916.932	6369
917.044	6426
917.156	6391
917.268	6353
917.38	6353
917.491	6304
917.603	6353
917.715	6414
917.826	6441
917.938	6376
918.049	6323
918.161	6361
918.272	6426
918.384	6464
918.495	6342
918.606	6296
918.717	6251
918.828	6357
918.939	6273
919.05	6213
919.161	6224
919.272	6159
919.383	6144
919.494	6338
919.604	6498
919.715	6277
919.826	6216
919.936	6254
920.047	6372
920.157	6281
920.267	6498
920.378	6315
920.488	6334
920.598	6490
920.708	6585
920.818	6486
920.928	6502
921.038	6635
921.148	6593
921.258	6353
921.368	6300
921.477	6239
921.587	6190
921.697	6106
921.806	6216
921.916	6091
922.025	5901
922.134	5893
922.244	5946
922.353	5961
922.462	5847
922.571	5767
922.68	5638
922.789	5657
922.898	5703
923.007	5619
923.116	5710
923.224	5726
923.333	5646
923.442	5611
923.55	5581
923.659	5630
923.767	5688
923.876	5490
923.984	5570
924.092	5539
924.201	5558
924.309	5570
924.417	5592
924.525	5509
924.633	5516
924.741	6167
924.849	5337
924.956	5520
925.064	5395
925.172	5318
925.279	5296
925.387	5345
925.494	5330
925.602	5436
925.709	5379
925.816	5341
925.924	5322
926.031	5357
926.138	5280
926.245	5372
926.352	5204
926.459	5303
926.566	5296
926.673	5227
926.779	5109
926.886	5159
926.993	5056
927.099	5029
927.206	4949
927.312	4976
927.419	5033
927.525	4987
927.631	5041
927.737	4896
927.843	4953
927.95	4793
928.056	4870
928.162	4854
928.267	4866
928.373	5231
928.479	4847
928.585	4656
928.69	4793
928.796	4786
928.901	4702
929.007	4596
929.112	4691
929.218	4683
929.323	4649
929.428	4542
929.533	4645
929.638	4508
929.743	4580
929.848	4554
929.953	4535
930.058	4485
930.163	4352
930.267	4337
930.372	4466
930.477	4356
930.581	4447
930.685	4341
930.79	4325
930.894	4306
930.998	4291
931.103	4409
931.207	4181
931.311	4097
931.415	4067
931.519	3953
931.623	3949
