Data from glass_V78500241_2385.txt Node
Date: Wed Sep 01 19:31:02 CST 2021
User: usil
Spectrometer: V785-0024
Trigger mode: 0
Integration Time (sec): 4.000000E-1
Scans to average: 1
Nonlinearity correction enabled: false
Boxcar width: 0
Storing dark spectrum: false
XAxis mode: Wavelengths
Number of Pixels in Spectrum: 1024
>>>>>Begin Spectral Data<<<<<
801.071	3720
801.214	3762
801.356	3709
801.499	3740
801.641	3747
801.783	3770
801.926	3842
802.068	3831
802.211	3827
802.353	3876
802.496	3831
802.638	3838
802.78	3854
802.923	3911
803.065	3854
803.208	3861
803.35	3812
803.492	3930
803.635	3911
803.777	3793
803.919	3861
804.061	4139
804.204	3960
804.346	3945
804.488	3926
804.63	4032
804.773	3964
804.915	4040
805.057	4101
805.199	4078
805.341	4040
805.483	4158
805.626	4173
805.768	4124
805.91	4185
806.052	4192
806.194	4204
806.336	4322
806.478	4238
806.62	4135
806.762	4181
806.904	4261
807.046	4360
807.188	4173
807.33	4131
807.472	4242
807.614	4169
807.756	4223
807.898	4200
808.04	4211
808.182	4299
808.324	4268
808.465	4379
808.607	4474
808.749	4432
808.891	4470
809.033	4489
809.174	4405
809.316	4215
809.458	4215
809.6	4120
809.741	4173
809.883	4154
810.025	4181
810.166	4192
810.308	4185
810.45	4230
810.591	4227
810.733	4238
810.875	4478
811.016	4801
811.158	5105
811.299	5181
811.441	5284
811.582	5086
811.724	4687
811.865	4447
812.007	4504
812.148	4424
812.29	4436
812.431	4428
812.573	4386
812.714	4337
812.855	4398
812.997	4413
813.138	4493
813.279	4383
813.421	4375
813.562	4356
813.703	4268
813.845	4318
813.986	4272
814.127	4211
814.268	4268
814.41	4337
814.551	4238
814.692	4246
814.833	4265
814.974	4318
815.115	4325
815.256	4253
815.397	4211
815.539	4230
815.68	4181
815.821	4246
815.962	4310
816.103	4287
816.244	4230
816.385	4238
816.526	4261
816.666	4219
816.807	4059
816.948	4204
817.089	4139
817.23	4131
817.371	4013
817.512	4025
817.653	4063
817.793	4021
817.934	4040
818.075	4131
818.216	4029
818.356	4063
818.497	3972
818.638	3911
818.778	3934
818.919	3861
819.06	3857
819.2	3930
819.341	3838
819.481	3861
819.622	3873
819.762	4013
819.903	3945
820.043	3823
820.184	3857
820.324	3789
820.465	3892
820.605	3819
820.746	3827
820.886	3819
821.026	3922
821.167	3945
821.307	3945
821.447	3998
821.588	3949
821.728	3972
821.868	3876
822.008	3869
822.149	3918
822.289	3884
822.429	3785
822.569	3755
822.709	3804
822.849	3690
822.99	3705
823.13	3766
823.27	3762
823.41	3701
823.55	3770
823.69	3690
823.83	3713
823.97	3709
824.11	3591
824.25	3587
824.389	3599
824.529	3641
824.669	3576
824.809	3709
824.949	3747
825.089	3717
825.228	3701
825.368	3568
825.508	3568
825.648	3610
825.787	3599
825.927	3633
826.067	3614
826.206	3686
826.346	3785
826.485	3823
826.625	3884
826.765	3918
826.904	3808
827.044	3572
827.183	3542
827.323	3424
827.462	3492
827.601	3416
827.741	3397
827.88	3454
828.02	3363
828.159	3439
828.298	3515
828.437	3519
828.577	3447
828.716	3576
828.855	3485
828.994	3359
829.134	3389
829.273	3340
829.412	3344
829.551	3378
829.69	3374
829.829	3435
829.968	3526
830.107	3412
830.246	3431
830.385	3359
830.524	3340
830.663	3272
830.802	3249
830.941	3199
831.08	3180
831.219	3253
831.357	3253
831.496	3389
831.635	3203
831.774	3180
831.913	3192
832.051	3119
832.19	3112
832.329	3199
832.467	3138
832.606	3127
832.744	3157
832.883	3218
833.022	3192
833.16	3256
833.299	3268
833.437	3317
833.576	3374
833.714	3420
833.852	3401
833.991	3431
834.129	3428
834.267	3454
834.406	3386
834.544	3428
834.682	3416
834.821	3359
834.959	3545
835.097	3378
835.235	3534
835.373	3481
835.511	3496
835.65	3409
835.788	3435
835.926	3344
836.064	3382
836.202	3401
836.34	3530
836.478	3561
836.615	3530
836.753	3587
836.891	3595
837.029	3603
837.167	3603
837.305	3549
837.443	3557
837.58	3462
837.718	3603
837.856	3523
837.993	3530
838.131	3584
838.269	3610
838.406	3557
838.544	3530
838.681	3504
838.819	3454
838.956	3355
839.094	3359
839.231	3439
839.369	3530
839.506	3720
839.643	3610
839.781	3481
839.918	3458
840.055	3545
840.193	3500
840.33	3519
840.467	3572
840.604	3572
840.742	3793
840.879	3530
841.016	3576
841.153	3606
841.29	3720
841.427	3701
841.564	3732
841.701	3713
841.838	3671
841.975	3656
842.112	3682
842.249	3660
842.385	3614
842.522	3835
842.659	3652
842.796	3667
842.933	3663
843.069	3671
843.206	3713
843.343	3812
843.479	3789
843.616	3880
843.752	3694
843.889	3663
844.025	3835
844.162	3694
844.298	3823
844.435	3740
844.571	3816
844.708	3846
844.844	3964
844.98	4021
845.117	4025
845.253	3918
845.389	3907
845.525	3941
845.661	3937
845.798	3896
845.934	3983
846.07	3937
846.206	4025
846.342	4124
846.478	4040
846.614	3983
846.75	3915
846.886	3876
847.022	3991
847.158	3979
847.294	4029
847.429	4017
847.565	3972
847.701	4246
847.837	3880
847.972	3857
848.108	3979
848.244	3975
848.379	3812
848.515	3838
848.65	3835
848.786	3907
848.921	3876
849.057	3926
849.192	3953
849.328	3880
849.463	3922
849.598	3876
849.734	3876
849.869	3838
850.004	3816
850.14	3770
850.275	3759
850.41	3717
850.545	3778
850.68	3732
850.815	3766
850.95	3774
851.085	3945
851.22	3869
851.355	3827
851.49	3797
851.625	3789
851.76	3762
851.895	3728
852.03	3751
852.165	3846
852.299	3850
852.434	3907
852.569	3842
852.703	3873
852.838	3922
852.973	3945
853.107	3987
853.242	3869
853.376	3857
853.511	3759
853.645	3838
853.78	3949
853.914	3915
854.048	3854
854.183	3896
854.317	3949
854.451	4090
854.585	3945
854.72	3915
854.854	4032
854.988	3880
855.122	3945
855.256	3884
855.39	4025
855.524	4082
855.658	4093
855.792	4147
855.926	4112
856.06	4105
856.194	4185
856.327	4177
856.461	4109
856.595	4166
856.729	4177
856.862	4272
856.996	4238
857.13	4265
857.263	4291
857.397	4367
857.53	4291
857.664	4329
857.797	4459
857.931	4394
858.064	4436
858.197	4436
858.331	4428
858.464	4352
858.597	4344
858.731	4424
858.864	4402
858.997	4455
859.13	4519
859.263	4527
859.396	4519
859.529	4535
859.662	4523
859.795	4542
859.928	4584
860.061	4675
860.194	4683
860.327	4649
860.46	4588
860.592	4714
860.725	4755
860.858	4752
860.99	4675
861.123	4679
861.256	4721
861.388	4748
861.521	5425
861.653	4717
861.786	4721
861.918	4721
862.05	4759
862.183	4839
862.315	4858
862.447	4934
862.58	4877
862.712	4763
862.844	4759
862.976	4877
863.108	4923
863.24	5269
863.372	4839
863.504	4904
863.636	4904
863.768	4968
863.9	4911
864.032	4881
864.164	4980
864.296	5033
864.428	5064
864.559	5064
864.691	5086
864.823	5071
864.954	5067
865.086	5113
865.217	5109
865.349	5102
865.48	5151
865.612	5208
865.743	5296
865.875	5189
866.006	5231
866.137	5197
866.269	5246
866.4	5265
866.531	5261
866.662	5197
866.793	5250
866.924	5288
867.055	5360
867.186	5368
867.317	5334
867.448	5265
867.579	5402
867.71	5395
867.841	5402
867.972	5448
868.103	5436
868.233	5455
868.364	5516
868.495	5539
868.625	5657
868.756	5741
868.886	5642
869.017	5699
869.147	5866
869.278	5832
869.408	5775
869.539	5863
869.669	5851
869.799	5954
869.929	6011
870.06	5980
870.19	6254
870.32	6129
870.45	6251
870.58	6361
870.71	6407
870.84	6403
870.97	6437
871.1	6429
871.23	6692
871.36	6673
871.489	6639
871.619	6753
871.749	6837
871.879	6806
872.008	6939
872.138	6951
872.267	7042
872.397	7019
872.526	6970
872.656	7126
872.785	7175
872.915	7316
873.044	7510
873.173	7514
873.303	7685
873.432	7704
873.561	7845
873.69	7917
873.819	8001
873.948	8176
874.077	8267
874.206	8294
874.335	8415
874.464	8731
874.593	8842
874.722	8929
874.851	9157
874.979	9253
875.108	9287
875.237	9500
875.365	9469
875.494	9675
875.623	9781
875.751	9861
875.88	10002
876.008	10188
876.136	10253
876.265	10443
876.393	10603
876.521	10694
876.65	10824
876.778	10774
876.906	10961
877.034	10896
877.162	11041
877.29	11170
877.418	11296
877.546	11368
877.674	11421
877.802	11425
877.93	11512
878.058	11592
878.185	11535
878.313	11691
878.441	11745
878.568	11668
878.696	11802
878.824	11885
878.951	11916
879.079	11920
879.206	12140
879.333	12022
879.461	12022
879.588	12095
879.715	12007
879.842	12232
879.97	12068
880.097	11901
880.224	11882
880.351	11824
880.478	11863
880.605	11786
880.732	11828
880.859	12003
880.986	11752
881.112	11843
881.239	11699
881.366	11611
881.493	11642
881.619	11482
881.746	11581
881.872	11425
881.999	11429
882.125	11509
882.252	11554
882.378	11436
882.505	11543
882.631	11372
882.757	11273
882.883	11277
883.01	11303
883.136	11067
883.262	11075
883.388	11071
883.514	11147
883.64	11181
883.766	11147
883.892	10968
884.018	10976
884.143	11048
884.269	11147
884.395	10843
884.52	10748
884.646	10740
884.772	10706
884.897	10569
885.023	10725
885.148	10714
885.274	10828
885.399	10656
885.524	10603
885.65	10626
885.775	10565
885.9	10523
886.025	10679
886.15	10611
886.275	10493
886.4	10348
886.525	10489
886.65	10390
886.775	10261
886.9	10440
887.025	10504
887.149	10352
887.274	10120
887.399	10128
887.523	10204
887.648	10131
887.773	10093
887.897	10253
888.021	10246
888.146	10150
888.27	10280
888.395	10196
888.519	10204
888.643	10162
888.767	10192
888.891	10154
889.015	10002
889.139	9994
889.263	9983
889.387	10109
889.511	10143
889.635	10044
889.759	9865
889.883	9930
890.006	9983
890.13	10071
890.254	9934
890.377	9956
890.501	9842
890.624	9934
890.748	9865
890.871	9774
890.995	9644
891.118	9663
891.241	9694
891.364	9819
891.488	9835
891.611	9793
891.734	9701
891.857	9755
891.98	9755
892.103	9732
892.226	9682
892.349	9671
892.471	9473
892.594	9648
892.717	9637
892.839	9557
892.962	9633
893.085	9656
893.207	9641
893.33	9526
893.452	9534
893.575	9553
893.697	9564
893.819	9667
893.941	9633
894.064	9557
894.186	9488
894.308	9412
894.43	9458
894.552	9584
894.674	9504
894.796	9367
894.918	9393
895.04	9344
895.161	9428
895.283	9363
895.405	9253
895.526	9207
895.648	9226
895.769	9291
895.891	9241
896.012	9272
896.134	9203
896.255	9203
896.376	9135
896.498	9199
896.619	9192
896.74	9165
896.861	9085
896.982	9260
897.103	9264
897.224	9188
897.345	9131
897.466	9009
897.587	8967
897.708	9077
897.828	8998
897.949	8895
898.07	8921
898.19	8857
898.311	9017
898.431	8929
898.552	8902
898.672	9039
898.792	8948
898.913	8883
899.033	8762
899.153	8750
899.273	8617
899.393	8708
899.513	8678
899.633	8689
899.753	8693
899.873	8727
899.993	8724
900.113	8648
900.232	8651
900.352	8655
900.472	8579
900.591	8549
900.711	8549
900.83	8552
900.95	8617
901.069	8724
901.189	8594
901.308	8374
901.427	8370
901.546	8469
901.665	8450
901.784	8415
901.904	8282
902.023	8332
902.141	8271
902.26	8221
902.379	8336
902.498	8237
902.617	8206
902.735	8263
902.854	8229
902.973	8225
903.091	8096
903.21	8103
903.328	8142
903.446	8107
903.565	8130
903.683	8153
903.801	8039
903.919	8081
904.038	8107
904.156	8050
904.274	8073
904.392	7989
904.51	8012
904.627	8050
904.745	8077
904.863	8100
904.981	7887
905.098	7883
905.216	7860
905.334	7887
905.451	7932
905.569	7860
905.686	7883
905.803	7818
905.921	7750
906.038	7856
906.155	7753
906.272	7742
906.389	7696
906.506	7632
906.623	7609
906.74	7609
906.857	7548
906.974	7514
907.091	7643
907.208	7693
907.324	7639
907.441	7636
907.557	7495
907.674	7464
907.79	7434
907.907	7354
908.023	7396
908.139	7407
908.256	7373
908.372	7327
908.488	7316
908.604	7282
908.72	7206
908.836	7316
908.952	7274
909.068	7266
909.184	7320
909.3	7198
909.415	7270
909.531	7274
909.647	7141
909.762	7107
909.878	7103
909.993	7110
910.108	7103
910.224	7091
910.339	7152
910.454	7072
910.57	7000
910.685	6947
910.8	7076
910.915	7107
911.03	6973
911.145	6901
911.259	6833
911.374	6871
911.489	6814
911.604	6726
911.718	6719
911.833	6753
911.947	6623
912.062	6585
912.176	6707
912.291	6696
912.405	6703
912.519	6901
912.633	6920
912.748	6662
912.862	6734
912.976	6627
913.09	6566
913.204	6551
913.318	6604
913.431	6658
913.545	6642
913.659	6681
913.772	6673
913.886	6555
914	6551
914.113	6631
914.226	6597
914.34	6589
914.453	6479
914.566	6559
914.68	6486
914.793	6536
914.906	6391
915.019	6433
915.132	6403
915.245	6365
915.358	6437
915.47	6448
915.583	6479
915.696	6456
915.809	6479
915.921	6509
916.034	6426
916.146	6437
916.259	6380
916.371	6399
916.483	6456
916.595	6357
916.708	6418
916.82	6395
916.932	6376
917.044	6433
917.156	6414
917.268	6331
917.38	6380
917.491	6270
917.603	6369
917.715	6399
917.826	6391
917.938	6391
918.049	6285
918.161	6273
918.272	6418
918.384	6448
918.495	6350
918.606	6194
918.717	6167
918.828	6262
918.939	6285
919.05	6224
919.161	6239
919.272	6121
919.383	6140
919.494	6247
919.604	6361
919.715	6308
919.826	6220
919.936	6194
920.047	6353
920.157	6232
920.267	6445
920.378	6357
920.488	6247
920.598	6410
920.708	6547
920.818	6426
920.928	6399
921.038	6623
921.148	6616
921.258	6327
921.368	6277
921.477	6216
921.587	6171
921.697	6114
921.806	6182
921.916	6030
922.025	5973
922.134	5859
922.244	5844
922.353	5980
922.462	5870
922.571	5790
922.68	5630
922.789	5726
922.898	5707
923.007	5589
923.116	5718
923.224	5653
923.333	5691
923.442	5592
923.55	5528
923.659	5558
923.767	5745
923.876	5524
923.984	5585
924.092	5547
924.201	5589
924.309	5501
924.417	5558
924.525	5452
924.633	5474
924.741	6258
924.849	5353
924.956	5455
925.064	5364
925.172	5261
925.279	5284
925.387	5330
925.494	5414
925.602	5337
925.709	5421
925.816	5273
925.924	5280
926.031	5387
926.138	5280
926.245	5353
926.352	5189
926.459	5318
926.566	5326
926.673	5223
926.779	5060
926.886	5151
926.993	5003
927.099	5003
927.206	4919
927.312	4980
927.419	4984
927.525	4976
927.631	4965
927.737	4919
927.843	4858
927.95	4782
928.056	4809
928.162	4850
928.267	4877
928.373	5265
928.479	4847
928.585	4698
928.69	4752
928.796	4740
928.901	4687
929.007	4634
929.112	4675
929.218	4626
929.323	4569
929.428	4512
929.533	4675
929.638	4519
929.743	4485
929.848	4546
929.953	4451
930.058	4474
930.163	4333
930.267	4333
930.372	4386
930.477	4329
930.581	4459
930.685	4344
930.79	4223
930.894	4249
930.998	4230
931.103	4360
931.207	4147
931.311	4097
931.415	4006
931.519	3937
931.623	3953
