Data from glass_V78500241_409.txt Node
Date: Wed Sep 01 19:17:20 CST 2021
User: usil
Spectrometer: V785-0024
Trigger mode: 0
Integration Time (sec): 4.000000E-1
Scans to average: 1
Nonlinearity correction enabled: false
Boxcar width: 0
Storing dark spectrum: false
XAxis mode: Wavelengths
Number of Pixels in Spectrum: 1024
>>>>>Begin Spectral Data<<<<<
801.071	3740
801.214	3747
801.356	3709
801.499	3747
801.641	3732
801.783	3781
801.926	3869
802.068	3838
802.211	3850
802.353	3876
802.496	3888
802.638	3884
802.78	3911
802.923	3930
803.065	3922
803.208	3876
803.35	3892
803.492	3918
803.635	3945
803.777	3819
803.919	3911
804.061	4158
804.204	3968
804.346	4017
804.488	3964
804.63	4059
804.773	3994
804.915	4017
805.057	4150
805.199	4078
805.341	4112
805.483	4109
805.626	4128
805.768	4093
805.91	4200
806.052	4196
806.194	4223
806.336	4375
806.478	4257
806.62	4207
806.762	4211
806.904	4249
807.046	4352
807.188	4215
807.33	4158
807.472	4280
807.614	4192
807.756	4303
807.898	4234
808.04	4211
808.182	4333
808.324	4341
808.465	4390
808.607	4478
808.749	4508
808.891	4466
809.033	4554
809.174	4462
809.316	4306
809.458	4246
809.6	4147
809.741	4154
809.883	4147
810.025	4177
810.166	4246
810.308	4238
810.45	4265
810.591	4246
810.733	4303
810.875	4489
811.016	4873
811.158	5166
811.299	5265
811.441	5349
811.582	5079
811.724	4721
811.865	4470
812.007	4489
812.148	4409
812.29	4405
812.431	4402
812.573	4409
812.714	4383
812.855	4447
812.997	4459
813.138	4493
813.279	4413
813.421	4394
813.562	4379
813.703	4344
813.845	4310
813.986	4268
814.127	4230
814.268	4242
814.41	4310
814.551	4234
814.692	4306
814.833	4306
814.974	4333
815.115	4352
815.256	4295
815.397	4291
815.539	4291
815.68	4211
815.821	4246
815.962	4306
816.103	4287
816.244	4249
816.385	4249
816.526	4295
816.666	4173
816.807	4131
816.948	4169
817.089	4200
817.23	4128
817.371	4086
817.512	4071
817.653	4044
817.793	4021
817.934	4059
818.075	4097
818.216	4097
818.356	4090
818.497	4021
818.638	3945
818.778	3892
818.919	3915
819.06	3880
819.2	3934
819.341	3915
819.481	3846
819.622	3949
819.762	4036
819.903	3922
820.043	3876
820.184	3854
820.324	3846
820.465	3865
820.605	3892
820.746	3888
820.886	3816
821.026	3949
821.167	3941
821.307	3949
821.447	4029
821.588	3968
821.728	3945
821.868	3937
822.008	3873
822.149	3899
822.289	3975
822.429	3793
822.569	3781
822.709	3800
822.849	3724
822.99	3736
823.13	3713
823.27	3793
823.41	3720
823.55	3736
823.69	3701
823.83	3766
823.97	3686
824.11	3595
824.25	3618
824.389	3675
824.529	3686
824.669	3660
824.809	3740
824.949	3781
825.089	3724
825.228	3751
825.368	3618
825.508	3595
825.648	3595
825.787	3610
825.927	3663
826.067	3622
826.206	3686
826.346	3827
826.485	3846
826.625	3816
826.765	3945
826.904	3869
827.044	3648
827.183	3538
827.323	3466
827.462	3469
827.601	3424
827.741	3435
827.88	3481
828.02	3416
828.159	3428
828.298	3523
828.437	3507
828.577	3515
828.716	3595
828.855	3466
828.994	3386
829.134	3397
829.273	3363
829.412	3359
829.551	3386
829.69	3386
829.829	3424
829.968	3542
830.107	3424
830.246	3447
830.385	3378
830.524	3359
830.663	3351
830.802	3260
830.941	3195
831.08	3180
831.219	3260
831.357	3287
831.496	3397
831.635	3249
831.774	3199
831.913	3211
832.051	3104
832.19	3154
832.329	3226
832.467	3169
832.606	3142
832.744	3180
832.883	3222
833.022	3199
833.16	3264
833.299	3302
833.437	3367
833.576	3363
833.714	3370
833.852	3416
833.991	3473
834.129	3466
834.267	3473
834.406	3405
834.544	3435
834.682	3466
834.821	3409
834.959	3572
835.097	3454
835.235	3500
835.373	3496
835.511	3504
835.65	3507
835.788	3477
835.926	3401
836.064	3386
836.202	3412
836.34	3610
836.478	3599
836.615	3553
836.753	3641
836.891	3641
837.029	3644
837.167	3625
837.305	3557
837.443	3557
837.58	3504
837.718	3625
837.856	3584
837.993	3557
838.131	3622
838.269	3595
838.406	3599
838.544	3584
838.681	3450
838.819	3515
838.956	3370
839.094	3416
839.231	3447
839.369	3488
839.506	3755
839.643	3656
839.781	3545
839.918	3462
840.055	3526
840.193	3542
840.33	3507
840.467	3553
840.604	3629
840.742	3854
840.879	3515
841.016	3591
841.153	3618
841.29	3789
841.427	3728
841.564	3740
841.701	3774
841.838	3728
841.975	3728
842.112	3747
842.249	3663
842.385	3663
842.522	3861
842.659	3698
842.796	3713
842.933	3705
843.069	3743
843.206	3709
843.343	3816
843.479	3861
843.616	3838
843.752	3701
843.889	3675
844.025	3888
844.162	3759
844.298	3846
844.435	3816
844.571	3827
844.708	3888
844.844	4010
844.98	4036
845.117	4006
845.253	3953
845.389	3934
845.525	3937
845.661	3941
845.798	3918
845.934	3972
846.07	3979
846.206	4082
846.342	4124
846.478	4097
846.614	3949
846.75	3915
846.886	3941
847.022	4048
847.158	4032
847.294	3983
847.429	4032
847.565	4055
847.701	4280
847.837	3930
847.972	3873
848.108	3998
848.244	3975
848.379	3850
848.515	3785
848.65	3846
848.786	3846
848.921	3861
849.057	3934
849.192	3934
849.328	3968
849.463	3956
849.598	3937
849.734	3876
849.869	3797
850.004	3800
850.14	3873
850.275	3797
850.41	3770
850.545	3785
850.68	3785
850.815	3823
850.95	3812
851.085	3964
851.22	3907
851.355	3842
851.49	3755
851.625	3800
851.76	3778
851.895	3751
852.03	3785
852.165	3804
852.299	3857
852.434	3930
852.569	3869
852.703	3876
852.838	3968
852.973	3983
853.107	4040
853.242	3926
853.376	3865
853.511	3831
853.645	3838
853.78	3987
853.914	3945
854.048	3907
854.183	3884
854.317	3968
854.451	4048
854.585	3987
854.72	3941
854.854	4040
854.988	3934
855.122	4017
855.256	3941
855.39	4036
855.524	4131
855.658	4097
855.792	4116
855.926	4181
856.06	4207
856.194	4238
856.327	4147
856.461	4097
856.595	4147
856.729	4181
856.862	4284
856.996	4257
857.13	4261
857.263	4386
857.397	4360
857.53	4314
857.664	4344
857.797	4432
857.931	4451
858.064	4417
858.197	4481
858.331	4417
858.464	4383
858.597	4329
858.731	4428
858.864	4440
858.997	4485
859.13	4481
859.263	4542
859.396	4596
859.529	4504
859.662	4538
859.795	4558
859.928	4611
860.061	4748
860.194	4721
860.327	4694
860.46	4584
860.592	4717
860.725	4755
860.858	4752
860.99	4649
861.123	4694
861.256	4698
861.388	4729
861.521	5406
861.653	4714
861.786	4710
861.918	4790
862.05	4786
862.183	4801
862.315	4957
862.447	4961
862.58	4892
862.712	4820
862.844	4797
862.976	4877
863.108	4877
863.24	5269
863.372	4828
863.504	4923
863.636	4835
863.768	4976
863.9	4949
864.032	4900
864.164	5003
864.296	4965
864.428	5086
864.559	5124
864.691	5159
864.823	5128
864.954	5162
865.086	5174
865.217	5166
865.349	5128
865.48	5159
865.612	5170
865.743	5284
865.875	5212
866.006	5201
866.137	5254
866.269	5231
866.4	5258
866.531	5231
866.662	5239
866.793	5288
866.924	5288
867.055	5383
867.186	5337
867.317	5376
867.448	5326
867.579	5402
867.71	5360
867.841	5395
867.972	5482
868.103	5452
868.233	5471
868.364	5528
868.495	5535
868.625	5661
868.756	5851
868.886	5649
869.017	5745
869.147	5847
869.278	5832
869.408	5805
869.539	5882
869.669	5920
869.799	5916
869.929	6003
870.06	6041
870.19	6167
870.32	6224
870.45	6266
870.58	6327
870.71	6410
870.84	6475
870.97	6506
871.1	6410
871.23	6662
871.36	6692
871.489	6741
871.619	6791
871.749	6818
871.879	6821
872.008	7019
872.138	6993
872.267	7031
872.397	7065
872.526	7023
872.656	7084
872.785	7198
872.915	7350
873.044	7563
873.173	7556
873.303	7624
873.432	7803
873.561	7856
873.69	7932
873.819	8027
873.948	8172
874.077	8221
874.206	8336
874.335	8492
874.464	8594
874.593	8868
874.722	8887
874.851	9116
874.979	9249
875.108	9355
875.237	9469
875.365	9443
875.494	9644
875.623	9808
875.751	9857
875.88	9937
876.008	10093
876.136	10310
876.265	10497
876.393	10733
876.521	10835
876.65	10847
876.778	10892
876.906	10904
877.034	11003
877.162	11113
877.29	11124
877.418	11322
877.546	11349
877.674	11372
877.802	11497
877.93	11493
878.058	11505
878.185	11535
878.313	11672
878.441	11703
878.568	11657
878.696	11794
878.824	11878
878.951	11897
879.079	12007
879.206	12072
879.333	12038
879.461	12049
879.588	12064
879.715	12133
879.842	12266
879.97	12057
880.097	11897
880.224	11889
880.351	11897
880.478	11958
880.605	11927
880.732	11802
880.859	12076
880.986	11783
881.112	11946
881.239	11684
881.366	11707
881.493	11634
881.619	11539
881.746	11611
881.872	11551
881.999	11516
882.125	11604
882.252	11562
882.378	11501
882.505	11551
882.631	11353
882.757	11155
882.883	11379
883.01	11296
883.136	11227
883.262	11140
883.388	11147
883.514	11166
883.64	11102
883.766	11090
883.892	11079
884.018	10984
884.143	11048
884.269	11147
884.395	10759
884.52	10885
884.646	10847
884.772	10645
884.897	10634
885.023	10691
885.148	10714
885.274	10763
885.399	10725
885.524	10641
885.65	10588
885.775	10645
885.9	10622
886.025	10592
886.15	10569
886.275	10493
886.4	10371
886.525	10379
886.65	10363
886.775	10371
886.9	10436
887.025	10554
887.149	10394
887.274	10272
887.399	10207
887.523	10086
887.648	10185
887.773	10143
887.897	10268
888.021	10227
888.146	10147
888.27	10177
888.395	10223
888.519	10215
888.643	10173
888.767	10257
888.891	10044
889.015	10101
889.139	10067
889.263	10025
889.387	9998
889.511	10162
889.635	10112
889.759	9979
889.883	10017
890.006	9972
890.13	10093
890.254	9975
890.377	9899
890.501	9819
890.624	9827
890.748	9953
890.871	9793
890.995	9797
891.118	9724
891.241	9732
891.364	9743
891.488	9934
891.611	9709
891.734	9690
891.857	9789
891.98	9743
892.103	9709
892.226	9717
892.349	9656
892.471	9572
892.594	9526
892.717	9637
892.839	9614
892.962	9595
893.085	9663
893.207	9622
893.33	9557
893.452	9485
893.575	9671
893.697	9462
893.819	9652
893.941	9572
894.064	9629
894.186	9378
894.308	9420
894.43	9511
894.552	9633
894.674	9538
894.796	9405
894.918	9507
895.04	9310
895.161	9431
895.283	9389
895.405	9241
895.526	9287
895.648	9241
895.769	9272
895.891	9279
896.012	9355
896.134	9169
896.255	9203
896.376	9154
896.498	9131
896.619	9146
896.74	9119
896.861	9104
896.982	9313
897.103	9340
897.224	9119
897.345	9100
897.466	8967
897.587	9005
897.708	9081
897.828	9017
897.949	9017
898.07	8830
898.19	8899
898.311	8918
898.431	8853
898.552	9032
898.672	9047
898.792	8952
898.913	8933
899.033	8788
899.153	8716
899.273	8674
899.393	8777
899.513	8804
899.633	8731
899.753	8743
899.873	8697
899.993	8773
900.113	8686
900.232	8720
900.352	8640
900.472	8697
900.591	8503
900.711	8556
900.83	8598
900.95	8629
901.069	8724
901.189	8606
901.308	8499
901.427	8393
901.546	8427
901.665	8442
901.784	8442
901.904	8309
902.023	8377
902.141	8214
902.26	8191
902.379	8233
902.498	8225
902.617	8271
902.735	8301
902.854	8290
902.973	8298
903.091	8199
903.21	8164
903.328	8161
903.446	8157
903.565	8062
903.683	8081
903.801	8084
903.919	8126
904.038	8202
904.156	8073
904.274	8081
904.392	8035
904.51	8119
904.627	8107
904.745	8088
904.863	8088
904.981	7883
905.098	7947
905.216	7860
905.334	7955
905.451	7951
905.569	7887
905.686	7959
905.803	7921
905.921	7765
906.038	7871
906.155	7776
906.272	7738
906.389	7708
906.506	7658
906.623	7636
906.74	7590
906.857	7586
906.974	7575
907.091	7685
907.208	7731
907.324	7559
907.441	7620
907.557	7453
907.674	7392
907.79	7415
907.907	7400
908.023	7487
908.139	7445
908.256	7358
908.372	7419
908.488	7392
908.604	7282
908.72	7316
908.836	7282
908.952	7228
909.068	7331
909.184	7358
909.3	7247
909.415	7308
909.531	7247
909.647	7183
909.762	7118
909.878	7061
909.993	7103
910.108	7103
910.224	7088
910.339	7141
910.454	7019
910.57	7034
910.685	7019
910.8	7202
910.915	7095
911.03	7050
911.145	6970
911.259	6875
911.374	6863
911.489	6844
911.604	6833
911.718	6711
911.833	6779
911.947	6738
912.062	6620
912.176	6776
912.291	6707
912.405	6703
912.519	6859
912.633	6802
912.748	6757
912.862	6719
912.976	6612
913.09	6597
913.204	6650
913.318	6612
913.431	6707
913.545	6673
913.659	6760
913.772	6711
913.886	6604
914	6589
914.113	6646
914.226	6681
914.34	6627
914.453	6540
914.566	6585
914.68	6486
914.793	6540
914.906	6467
915.019	6391
915.132	6369
915.245	6441
915.358	6414
915.47	6437
915.583	6460
915.696	6456
915.809	6544
915.921	6544
916.034	6452
916.146	6429
916.259	6414
916.371	6448
916.483	6464
916.595	6399
916.708	6384
916.82	6460
916.932	6372
917.044	6414
917.156	6422
917.268	6380
917.38	6403
917.491	6342
917.603	6384
917.715	6452
917.826	6395
917.938	6353
918.049	6197
918.161	6380
918.272	6391
918.384	6464
918.495	6395
918.606	6266
918.717	6216
918.828	6262
918.939	6254
919.05	6220
919.161	6262
919.272	6136
919.383	6140
919.494	6361
919.604	6407
919.715	6319
919.826	6277
919.936	6235
920.047	6357
920.157	6235
920.267	6456
920.378	6304
920.488	6296
920.598	6441
920.708	6544
920.818	6494
920.928	6426
921.038	6635
921.148	6551
921.258	6407
921.368	6376
921.477	6197
921.587	6159
921.697	6087
921.806	6186
921.916	6015
922.025	5931
922.134	5965
922.244	5920
922.353	5946
922.462	5847
922.571	5809
922.68	5676
922.789	5710
922.898	5703
923.007	5649
923.116	5726
923.224	5668
923.333	5691
923.442	5615
923.55	5623
923.659	5573
923.767	5634
923.876	5528
923.984	5661
924.092	5497
924.201	5585
924.309	5570
924.417	5581
924.525	5474
924.633	5528
924.741	6327
924.849	5357
924.956	5501
925.064	5383
925.172	5353
925.279	5311
925.387	5364
925.494	5368
925.602	5436
925.709	5379
925.816	5299
925.924	5303
926.031	5368
926.138	5410
926.245	5364
926.352	5239
926.459	5353
926.566	5357
926.673	5212
926.779	5124
926.886	5140
926.993	5079
927.099	4995
927.206	5033
927.312	4965
927.419	4995
927.525	5006
927.631	5003
927.737	4927
927.843	4870
927.95	4816
928.056	4854
928.162	4873
928.267	4870
928.373	5322
928.479	4854
928.585	4714
928.69	4828
928.796	4812
928.901	4694
929.007	4592
929.112	4664
929.218	4649
929.323	4599
929.428	4588
929.533	4653
929.638	4561
929.743	4569
929.848	4592
929.953	4500
930.058	4432
930.163	4314
930.267	4375
930.372	4421
930.477	4329
930.581	4519
930.685	4360
930.79	4249
930.894	4318
930.998	4261
931.103	4417
931.207	4162
931.311	4063
931.415	4036
931.519	3945
931.623	3934
