Data from glass_V78500241_170.txt Node
Date: Wed Sep 01 19:15:40 CST 2021
User: usil
Spectrometer: V785-0024
Trigger mode: 0
Integration Time (sec): 4.000000E-1
Scans to average: 1
Nonlinearity correction enabled: false
Boxcar width: 0
Storing dark spectrum: false
XAxis mode: Wavelengths
Number of Pixels in Spectrum: 1024
>>>>>Begin Spectral Data<<<<<
801.071	3743
801.214	3781
801.356	3720
801.499	3781
801.641	3736
801.783	3766
801.926	3899
802.068	3854
802.211	3899
802.353	3903
802.496	3857
802.638	3918
802.78	3899
802.923	3968
803.065	3930
803.208	3884
803.35	3918
803.492	3899
803.635	3899
803.777	3781
803.919	3892
804.061	4150
804.204	3994
804.346	3968
804.488	3945
804.63	4051
804.773	3983
804.915	4055
805.057	4154
805.199	4063
805.341	4139
805.483	4158
805.626	4147
805.768	4143
805.91	4234
806.052	4242
806.194	4188
806.336	4390
806.478	4257
806.62	4207
806.762	4185
806.904	4265
807.046	4390
807.188	4230
807.33	4196
807.472	4291
807.614	4223
807.756	4261
807.898	4215
808.04	4257
808.182	4295
808.324	4303
808.465	4432
808.607	4447
808.749	4527
808.891	4455
809.033	4493
809.174	4390
809.316	4272
809.458	4227
809.6	4150
809.741	4177
809.883	4162
810.025	4230
810.166	4227
810.308	4200
810.45	4242
810.591	4223
810.733	4310
810.875	4538
811.016	4812
811.158	5155
811.299	5280
811.441	5239
811.582	5025
811.724	4744
811.865	4519
812.007	4440
812.148	4462
812.29	4394
812.431	4443
812.573	4421
812.714	4413
812.855	4466
812.997	4459
813.138	4527
813.279	4466
813.421	4421
813.562	4421
813.703	4318
813.845	4325
813.986	4268
814.127	4200
814.268	4272
814.41	4303
814.551	4265
814.692	4356
814.833	4303
814.974	4322
815.115	4344
815.256	4287
815.397	4265
815.539	4257
815.68	4219
815.821	4280
815.962	4360
816.103	4261
816.244	4246
816.385	4242
816.526	4348
816.666	4188
816.807	4128
816.948	4192
817.089	4230
817.23	4143
817.371	4086
817.512	4090
817.653	4071
817.793	4074
817.934	4025
818.075	4105
818.216	4124
818.356	4112
818.497	3987
818.638	3930
818.778	3979
818.919	3918
819.06	3861
819.2	3892
819.341	3865
819.481	3896
819.622	3937
819.762	4013
819.903	3983
820.043	3876
820.184	3850
820.324	3873
820.465	3880
820.605	3854
820.746	3903
820.886	3846
821.026	3888
821.167	3926
821.307	4006
821.447	4010
821.588	4002
821.728	3899
821.868	3956
822.008	3857
822.149	3956
822.289	3937
822.429	3838
822.569	3785
822.709	3888
822.849	3701
822.99	3728
823.13	3770
823.27	3774
823.41	3698
823.55	3759
823.69	3751
823.83	3759
823.97	3686
824.11	3656
824.25	3637
824.389	3652
824.529	3682
824.669	3679
824.809	3717
824.949	3766
825.089	3774
825.228	3682
825.368	3610
825.508	3530
825.648	3515
825.787	3603
825.927	3633
826.067	3644
826.206	3637
826.346	3778
826.485	3808
826.625	3884
826.765	3968
826.904	3808
827.044	3587
827.183	3534
827.323	3450
827.462	3458
827.601	3424
827.741	3409
827.88	3431
828.02	3405
828.159	3405
828.298	3523
828.437	3572
828.577	3466
828.716	3614
828.855	3477
828.994	3431
829.134	3363
829.273	3393
829.412	3321
829.551	3363
829.69	3382
829.829	3458
829.968	3553
830.107	3496
830.246	3431
830.385	3386
830.524	3393
830.663	3306
830.802	3268
830.941	3222
831.08	3214
831.219	3268
831.357	3306
831.496	3409
831.635	3287
831.774	3207
831.913	3203
832.051	3146
832.19	3180
832.329	3237
832.467	3169
832.606	3127
832.744	3192
832.883	3199
833.022	3195
833.16	3256
833.299	3340
833.437	3382
833.576	3363
833.714	3397
833.852	3454
833.991	3454
834.129	3469
834.267	3450
834.406	3431
834.544	3439
834.682	3458
834.821	3409
834.959	3595
835.097	3439
835.235	3492
835.373	3500
835.511	3542
835.65	3488
835.788	3492
835.926	3424
836.064	3393
836.202	3401
836.34	3561
836.478	3595
836.615	3587
836.753	3618
836.891	3690
837.029	3576
837.167	3622
837.305	3568
837.443	3545
837.58	3557
837.718	3618
837.856	3603
837.993	3511
838.131	3633
838.269	3587
838.406	3572
838.544	3568
838.681	3481
838.819	3488
838.956	3367
839.094	3378
839.231	3462
839.369	3545
839.506	3717
839.643	3644
839.781	3564
839.918	3519
840.055	3542
840.193	3549
840.33	3526
840.467	3599
840.604	3637
840.742	3835
840.879	3580
841.016	3614
841.153	3614
841.29	3808
841.427	3781
841.564	3743
841.701	3781
841.838	3690
841.975	3724
842.112	3732
842.249	3629
842.385	3622
842.522	3789
842.659	3686
842.796	3686
842.933	3743
843.069	3698
843.206	3762
843.343	3831
843.479	3808
843.616	3808
843.752	3717
843.889	3709
844.025	3922
844.162	3701
844.298	3865
844.435	3785
844.571	3819
844.708	3949
844.844	3972
844.98	4010
845.117	4013
845.253	3926
845.389	3884
845.525	3945
845.661	3964
845.798	3899
845.934	4013
846.07	3945
846.206	4071
846.342	4143
846.478	4090
846.614	3953
846.75	3922
846.886	3956
847.022	4078
847.158	3964
847.294	3979
847.429	4036
847.565	4029
847.701	4230
847.837	3915
847.972	3884
848.108	4013
848.244	3956
848.379	3880
848.515	3831
848.65	3838
848.786	3854
848.921	3865
849.057	3953
849.192	3934
849.328	3930
849.463	3979
849.598	3896
849.734	3915
849.869	3869
850.004	3797
850.14	3869
850.275	3793
850.41	3740
850.545	3778
850.68	3819
850.815	3808
850.95	3827
851.085	3983
851.22	3888
851.355	3797
851.49	3793
851.625	3785
851.76	3850
851.895	3705
852.03	3701
852.165	3823
852.299	3892
852.434	3869
852.569	3880
852.703	3842
852.838	3937
852.973	4067
853.107	4029
853.242	3930
853.376	3861
853.511	3785
853.645	3838
853.78	4010
853.914	3880
854.048	3926
854.183	3842
854.317	3968
854.451	4074
854.585	3975
854.72	3979
854.854	4078
854.988	3956
855.122	4006
855.256	3964
855.39	4002
855.524	4143
855.658	4101
855.792	4143
855.926	4143
856.06	4188
856.194	4173
856.327	4162
856.461	4116
856.595	4166
856.729	4223
856.862	4284
856.996	4268
857.13	4257
857.263	4344
857.397	4379
857.53	4341
857.664	4310
857.797	4459
857.931	4447
858.064	4432
858.197	4432
858.331	4436
858.464	4379
858.597	4356
858.731	4443
858.864	4478
858.997	4455
859.13	4474
859.263	4504
859.396	4634
859.529	4531
859.662	4584
859.795	4577
859.928	4622
860.061	4698
860.194	4805
860.327	4714
860.46	4668
860.592	4740
860.725	4782
860.858	4790
860.99	4733
861.123	4710
861.256	4717
861.388	4801
861.521	5444
861.653	4744
861.786	4740
861.918	4733
862.05	4816
862.183	4835
862.315	4889
862.447	4934
862.58	4911
862.712	4797
862.844	4733
862.976	4938
863.108	4889
863.24	5296
863.372	4801
863.504	4946
863.636	4904
863.768	4984
863.9	4949
864.032	4968
864.164	4957
864.296	5045
864.428	5075
864.559	5128
864.691	5178
864.823	5132
864.954	5109
865.086	5132
865.217	5159
865.349	5162
865.48	5197
865.612	5223
865.743	5330
865.875	5220
866.006	5201
866.137	5231
866.269	5212
866.4	5299
866.531	5269
866.662	5223
866.793	5307
866.924	5269
867.055	5326
867.186	5398
867.317	5337
867.448	5292
867.579	5398
867.71	5429
867.841	5395
867.972	5452
868.103	5512
868.233	5474
868.364	5509
868.495	5543
868.625	5688
868.756	5824
868.886	5676
869.017	5737
869.147	5832
869.278	5878
869.408	5805
869.539	5832
869.669	5950
869.799	5904
869.929	5916
870.06	6057
870.19	6266
870.32	6201
870.45	6292
870.58	6414
870.71	6460
870.84	6467
870.97	6433
871.1	6452
871.23	6631
871.36	6711
871.489	6684
871.619	6798
871.749	6852
871.879	6867
872.008	6958
872.138	6954
872.267	6989
872.397	6996
872.526	7053
872.656	7160
872.785	7232
872.915	7354
873.044	7582
873.173	7613
873.303	7700
873.432	7780
873.561	7894
873.69	7970
873.819	8027
873.948	8172
874.077	8218
874.206	8343
874.335	8412
874.464	8686
874.593	8853
874.722	8960
874.851	9161
874.979	9283
875.108	9397
875.237	9378
875.365	9496
875.494	9682
875.623	9816
875.751	9888
875.88	9994
876.008	10067
876.136	10329
876.265	10512
876.393	10698
876.521	10679
876.65	10824
876.778	10904
876.906	11003
877.034	11025
877.162	11083
877.29	11193
877.418	11277
877.546	11360
877.674	11440
877.802	11478
877.93	11608
878.058	11535
878.185	11562
878.313	11630
878.441	11718
878.568	11657
878.696	11885
878.824	11832
878.951	11988
879.079	12049
879.206	12171
879.333	12045
879.461	12072
879.588	11984
879.715	12197
879.842	12235
879.97	12007
880.097	11885
880.224	11836
880.351	11901
880.478	11904
880.605	11863
880.732	11855
880.859	11988
880.986	11832
881.112	11843
881.239	11653
881.366	11714
881.493	11581
881.619	11577
881.746	11570
881.872	11558
881.999	11573
882.125	11512
882.252	11630
882.378	11505
882.505	11596
882.631	11341
882.757	11345
882.883	11337
883.01	11231
883.136	11170
883.262	11178
883.388	11113
883.514	11216
883.64	11155
883.766	11113
883.892	11048
884.018	10995
884.143	11083
884.269	11109
884.395	10820
884.52	10782
884.646	10774
884.772	10687
884.897	10721
885.023	10664
885.148	10698
885.274	10736
885.399	10698
885.524	10634
885.65	10561
885.775	10622
885.9	10573
886.025	10664
886.15	10588
886.275	10493
886.4	10436
886.525	10382
886.65	10413
886.775	10379
886.9	10481
887.025	10569
887.149	10356
887.274	10280
887.399	10211
887.523	10135
887.648	10154
887.773	10169
887.897	10257
888.021	10360
888.146	10196
888.27	10348
888.395	10257
888.519	10147
888.643	10219
888.767	10139
888.891	10044
889.015	9998
889.139	10109
889.263	10036
889.387	10116
889.511	10158
889.635	10185
889.759	9972
889.883	9945
890.006	10074
890.13	10101
890.254	9998
890.377	9934
890.501	9861
890.624	9941
890.748	9941
890.871	9793
890.995	9728
891.118	9713
891.241	9679
891.364	9732
891.488	9846
891.611	9743
891.734	9770
891.857	9785
891.98	9759
892.103	9755
892.226	9766
892.349	9709
892.471	9488
892.594	9606
892.717	9641
892.839	9618
892.962	9576
893.085	9698
893.207	9580
893.33	9511
893.452	9534
893.575	9542
893.697	9488
893.819	9679
893.941	9652
894.064	9618
894.186	9523
894.308	9397
894.43	9530
894.552	9591
894.674	9568
894.796	9481
894.918	9351
895.04	9367
895.161	9389
895.283	9397
895.405	9230
895.526	9195
895.648	9275
895.769	9268
895.891	9207
896.012	9317
896.134	9226
896.255	9199
896.376	9104
896.498	9173
896.619	9169
896.74	9062
896.861	9157
896.982	9287
897.103	9306
897.224	9169
897.345	9146
897.466	8986
897.587	9062
897.708	9104
897.828	9024
897.949	8925
898.07	8891
898.19	8937
898.311	9020
898.431	8868
898.552	8963
898.672	8967
898.792	8941
898.913	8876
899.033	8830
899.153	8788
899.273	8678
899.393	8712
899.513	8773
899.633	8754
899.753	8720
899.873	8682
899.993	8727
900.113	8743
900.232	8727
900.352	8693
900.472	8659
900.591	8579
900.711	8670
900.83	8629
900.95	8651
901.069	8689
901.189	8514
901.308	8396
901.427	8389
901.546	8461
901.665	8454
901.784	8488
901.904	8385
902.023	8347
902.141	8279
902.26	8206
902.379	8259
902.498	8248
902.617	8221
902.735	8279
902.854	8259
902.973	8305
903.091	8119
903.21	8153
903.328	8221
903.446	8180
903.565	8001
903.683	8123
903.801	8062
903.919	8172
904.038	8142
904.156	8020
904.274	8081
904.392	8062
904.51	8065
904.627	8100
904.745	8065
904.863	8115
904.981	7947
905.098	7928
905.216	7906
905.334	7959
905.451	7913
905.569	7936
905.686	7959
905.803	7932
905.921	7738
906.038	7883
906.155	7803
906.272	7750
906.389	7727
906.506	7628
906.623	7674
906.74	7597
906.857	7575
906.974	7597
907.091	7655
907.208	7727
907.324	7666
907.441	7616
907.557	7441
907.674	7483
907.79	7460
907.907	7453
908.023	7495
908.139	7388
908.256	7430
908.372	7320
908.488	7400
908.604	7274
908.72	7278
908.836	7221
908.952	7312
909.068	7240
909.184	7343
909.3	7289
909.415	7301
909.531	7289
909.647	7160
909.762	7156
909.878	7084
909.993	7110
910.108	7164
910.224	7057
910.339	7141
910.454	7088
910.57	7076
910.685	6928
910.8	7156
910.915	7107
911.03	7091
911.145	6905
911.259	6951
911.374	6939
911.489	6856
911.604	6821
911.718	6802
911.833	6776
911.947	6681
912.062	6635
912.176	6700
912.291	6749
912.405	6711
912.519	6787
912.633	6837
912.748	6776
912.862	6711
912.976	6623
913.09	6532
913.204	6593
913.318	6604
913.431	6745
913.545	6654
913.659	6791
913.772	6684
913.886	6627
914	6555
914.113	6616
914.226	6585
914.34	6582
914.453	6525
914.566	6570
914.68	6544
914.793	6547
914.906	6376
915.019	6433
915.132	6391
915.245	6429
915.358	6448
915.47	6494
915.583	6494
915.696	6506
915.809	6559
915.921	6601
916.034	6372
916.146	6471
916.259	6407
916.371	6494
916.483	6437
916.595	6395
916.708	6437
916.82	6403
916.932	6418
917.044	6376
917.156	6429
917.268	6323
917.38	6365
917.491	6350
917.603	6342
917.715	6448
917.826	6429
917.938	6376
918.049	6273
918.161	6361
918.272	6471
918.384	6433
918.495	6346
918.606	6300
918.717	6194
918.828	6319
918.939	6296
919.05	6182
919.161	6292
919.272	6163
919.383	6205
919.494	6338
919.604	6433
919.715	6289
919.826	6175
919.936	6273
920.047	6380
920.157	6247
920.267	6467
920.378	6346
920.488	6308
920.598	6483
920.708	6593
920.818	6486
920.928	6490
921.038	6669
921.148	6635
921.258	6395
921.368	6281
921.477	6270
921.587	6152
921.697	6076
921.806	6209
921.916	6098
922.025	5965
922.134	5954
922.244	5912
922.353	5973
922.462	5897
922.571	5756
922.68	5722
922.789	5699
922.898	5718
923.007	5642
923.116	5760
923.224	5615
923.333	5653
923.442	5623
923.55	5627
923.659	5600
923.767	5646
923.876	5539
923.984	5604
924.092	5516
924.201	5577
924.309	5592
924.417	5589
924.525	5543
924.633	5459
924.741	6140
924.849	5421
924.956	5509
925.064	5307
925.172	5330
925.279	5315
925.387	5353
925.494	5292
925.602	5501
925.709	5414
925.816	5299
925.924	5326
926.031	5395
926.138	5303
926.245	5353
926.352	5258
926.459	5341
926.566	5322
926.673	5193
926.779	5151
926.886	5105
926.993	5048
927.099	5029
927.206	4957
927.312	4991
927.419	4999
927.525	5010
927.631	5025
927.737	4927
927.843	4854
927.95	4774
928.056	4828
928.162	4828
928.267	4885
928.373	5406
928.479	4862
928.585	4729
928.69	4748
928.796	4790
928.901	4694
929.007	4626
929.112	4653
929.218	4626
929.323	4622
929.428	4584
929.533	4702
929.638	4565
929.743	4542
929.848	4592
929.953	4558
930.058	4474
930.163	4306
930.267	4367
930.372	4436
930.477	4310
930.581	4481
930.685	4379
930.79	4291
930.894	4295
930.998	4268
931.103	4405
931.207	4112
931.311	4112
931.415	4063
931.519	3930
931.623	3960
