Data from glass_V78500241_151.txt Node
Date: Wed Sep 01 19:15:32 CST 2021
User: usil
Spectrometer: V785-0024
Trigger mode: 0
Integration Time (sec): 4.000000E-1
Scans to average: 1
Nonlinearity correction enabled: false
Boxcar width: 0
Storing dark spectrum: false
XAxis mode: Wavelengths
Number of Pixels in Spectrum: 1024
>>>>>Begin Spectral Data<<<<<
801.071	3740
801.214	3789
801.356	3747
801.499	3785
801.641	3694
801.783	3793
801.926	3873
802.068	3846
802.211	3903
802.353	3888
802.496	3850
802.638	3888
802.78	3926
802.923	3941
803.065	3930
803.208	3869
803.35	3896
803.492	3915
803.635	3922
803.777	3797
803.919	3880
804.061	4192
804.204	3975
804.346	3987
804.488	3903
804.63	4048
804.773	3979
804.915	4074
805.057	4169
805.199	4040
805.341	4124
805.483	4128
805.626	4150
805.768	4158
805.91	4287
806.052	4284
806.194	4219
806.336	4352
806.478	4200
806.62	4200
806.762	4196
806.904	4242
807.046	4329
807.188	4242
807.33	4204
807.472	4257
807.614	4196
807.756	4276
807.898	4234
808.04	4230
808.182	4287
808.324	4318
808.465	4421
808.607	4493
808.749	4386
808.891	4440
809.033	4474
809.174	4405
809.316	4268
809.458	4280
809.6	4223
809.741	4128
809.883	4166
810.025	4223
810.166	4204
810.308	4257
810.45	4291
810.591	4287
810.733	4272
810.875	4561
811.016	4828
811.158	5128
811.299	5341
811.441	5242
811.582	5041
811.724	4717
811.865	4485
812.007	4447
812.148	4474
812.29	4390
812.431	4409
812.573	4432
812.714	4424
812.855	4436
812.997	4432
813.138	4512
813.279	4413
813.421	4421
813.562	4371
813.703	4386
813.845	4352
813.986	4253
814.127	4238
814.268	4291
814.41	4322
814.551	4253
814.692	4310
814.833	4253
814.974	4352
815.115	4329
815.256	4257
815.397	4230
815.539	4360
815.68	4207
815.821	4219
815.962	4341
816.103	4261
816.244	4291
816.385	4234
816.526	4295
816.666	4223
816.807	4147
816.948	4207
817.089	4169
817.23	4150
817.371	4067
817.512	4021
817.653	4090
817.793	4067
817.934	4097
818.075	4109
818.216	4128
818.356	4101
818.497	4040
818.638	3918
818.778	3937
818.919	3915
819.06	3876
819.2	3922
819.341	3846
819.481	3869
819.622	3907
819.762	4055
819.903	3987
820.043	3865
820.184	3804
820.324	3819
820.465	3876
820.605	3846
820.746	3915
820.886	3861
821.026	3941
821.167	3934
821.307	3994
821.447	3964
821.588	3922
821.728	3968
821.868	3960
822.008	3846
822.149	3953
822.289	3937
822.429	3793
822.569	3755
822.709	3816
822.849	3732
822.99	3770
823.13	3785
823.27	3835
823.41	3732
823.55	3705
823.69	3759
823.83	3747
823.97	3679
824.11	3587
824.25	3618
824.389	3648
824.529	3690
824.669	3633
824.809	3743
824.949	3766
825.089	3720
825.228	3728
825.368	3595
825.508	3572
825.648	3568
825.787	3663
825.927	3656
826.067	3679
826.206	3709
826.346	3804
826.485	3907
826.625	3869
826.765	3934
826.904	3854
827.044	3641
827.183	3523
827.323	3469
827.462	3492
827.601	3431
827.741	3447
827.88	3443
828.02	3359
828.159	3477
828.298	3485
828.437	3526
828.577	3500
828.716	3618
828.855	3473
828.994	3393
829.134	3359
829.273	3405
829.412	3370
829.551	3355
829.69	3363
829.829	3462
829.968	3473
830.107	3481
830.246	3443
830.385	3401
830.524	3359
830.663	3317
830.802	3241
830.941	3195
831.08	3199
831.219	3283
831.357	3256
831.496	3389
831.635	3310
831.774	3203
831.913	3230
832.051	3154
832.19	3161
832.329	3233
832.467	3192
832.606	3131
832.744	3127
832.883	3237
833.022	3211
833.16	3256
833.299	3317
833.437	3344
833.576	3401
833.714	3439
833.852	3443
833.991	3458
834.129	3481
834.267	3424
834.406	3450
834.544	3428
834.682	3462
834.821	3412
834.959	3610
835.097	3424
835.235	3553
835.373	3526
835.511	3519
835.65	3477
835.788	3500
835.926	3412
836.064	3374
836.202	3382
836.34	3584
836.478	3641
836.615	3542
836.753	3656
836.891	3671
837.029	3603
837.167	3633
837.305	3599
837.443	3584
837.58	3542
837.718	3591
837.856	3576
837.993	3534
838.131	3625
838.269	3549
838.406	3614
838.544	3595
838.681	3500
838.819	3462
838.956	3389
839.094	3435
839.231	3466
839.369	3561
839.506	3762
839.643	3622
839.781	3466
839.918	3492
840.055	3534
840.193	3458
840.33	3553
840.467	3564
840.604	3633
840.742	3827
840.879	3549
841.016	3629
841.153	3603
841.29	3770
841.427	3720
841.564	3720
841.701	3751
841.838	3694
841.975	3675
842.112	3743
842.249	3698
842.385	3614
842.522	3835
842.659	3720
842.796	3671
842.933	3804
843.069	3698
843.206	3740
843.343	3808
843.479	3797
843.616	3827
843.752	3701
843.889	3682
844.025	3869
844.162	3751
844.298	3865
844.435	3827
844.571	3781
844.708	3918
844.844	4025
844.98	4006
845.117	4059
845.253	3949
845.389	3930
845.525	3998
845.661	3994
845.798	3964
845.934	3994
846.07	3968
846.206	4055
846.342	4124
846.478	4090
846.614	3968
846.75	3972
846.886	3926
847.022	4021
847.158	4044
847.294	4006
847.429	4048
847.565	4017
847.701	4272
847.837	3880
847.972	3911
848.108	4010
848.244	3953
848.379	3884
848.515	3861
848.65	3838
848.786	3850
848.921	3850
849.057	3922
849.192	3949
849.328	3884
849.463	3930
849.598	3892
849.734	3861
849.869	3842
850.004	3797
850.14	3835
850.275	3812
850.41	3785
850.545	3781
850.68	3812
850.815	3827
850.95	3797
851.085	3949
851.22	3896
851.355	3835
851.49	3850
851.625	3819
851.76	3793
851.895	3732
852.03	3732
852.165	3842
852.299	3812
852.434	3915
852.569	3888
852.703	3915
852.838	3949
852.973	4017
853.107	4006
853.242	3873
853.376	3869
853.511	3816
853.645	3835
853.78	3979
853.914	3911
854.048	3915
854.183	3888
854.317	3960
854.451	4105
854.585	3956
854.72	3979
854.854	4059
854.988	3964
855.122	3998
855.256	3956
855.39	4013
855.524	4112
855.658	4120
855.792	4105
855.926	4124
856.06	4173
856.194	4249
856.327	4116
856.461	4143
856.595	4162
856.729	4192
856.862	4287
856.996	4284
857.13	4341
857.263	4325
857.397	4386
857.53	4280
857.664	4333
857.797	4440
857.931	4409
858.064	4443
858.197	4447
858.331	4440
858.464	4398
858.597	4371
858.731	4478
858.864	4462
858.997	4451
859.13	4561
859.263	4573
859.396	4618
859.529	4535
859.662	4580
859.795	4546
859.928	4634
860.061	4774
860.194	4740
860.327	4698
860.46	4645
860.592	4797
860.725	4797
860.858	4774
860.99	4691
861.123	4698
861.256	4725
861.388	4793
861.521	5543
861.653	4702
861.786	4725
861.918	4729
862.05	4812
862.183	4892
862.315	4927
862.447	4949
862.58	4892
862.712	4812
862.844	4786
862.976	4908
863.108	4892
863.24	5292
863.372	4843
863.504	4873
863.636	4919
863.768	4927
863.9	4911
864.032	4923
864.164	5037
864.296	5025
864.428	5067
864.559	5128
864.691	5117
864.823	5151
864.954	5140
865.086	5143
865.217	5143
865.349	5090
865.48	5197
865.612	5246
865.743	5288
865.875	5235
866.006	5212
866.137	5265
866.269	5273
866.4	5277
866.531	5261
866.662	5250
866.793	5261
866.924	5296
867.055	5337
867.186	5307
867.317	5315
867.448	5357
867.579	5368
867.71	5433
867.841	5410
867.972	5467
868.103	5452
868.233	5501
868.364	5532
868.495	5558
868.625	5733
868.756	5748
868.886	5691
869.017	5718
869.147	5912
869.278	5878
869.408	5863
869.539	5821
869.669	5950
869.799	5965
869.929	5961
870.06	6007
870.19	6213
870.32	6190
870.45	6209
870.58	6388
870.71	6471
870.84	6506
870.97	6391
871.1	6429
871.23	6642
871.36	6692
871.489	6654
871.619	6696
871.749	6829
871.879	6882
872.008	6970
872.138	6973
872.267	7008
872.397	6985
872.526	6989
872.656	7072
872.785	7213
872.915	7392
873.044	7575
873.173	7575
873.303	7677
873.432	7731
873.561	7830
873.69	7997
873.819	8020
873.948	8176
874.077	8282
874.206	8358
874.335	8465
874.464	8697
874.593	8781
874.722	8952
874.851	9142
874.979	9268
875.108	9393
875.237	9443
875.365	9473
875.494	9641
875.623	9823
875.751	9869
875.88	10021
876.008	10162
876.136	10363
876.265	10478
876.393	10740
876.521	10790
876.65	10847
876.778	10881
876.906	10930
877.034	11041
877.162	11075
877.29	11143
877.418	11288
877.546	11337
877.674	11410
877.802	11490
877.93	11520
878.058	11448
878.185	11524
878.313	11642
878.441	11764
878.568	11665
878.696	11824
878.824	11870
878.951	11920
879.079	11969
879.206	12171
879.333	12053
879.461	12057
879.588	12079
879.715	12022
879.842	12220
879.97	12087
880.097	11935
880.224	11923
880.351	11927
880.478	11935
880.605	11783
880.732	11897
880.859	11996
880.986	11813
881.112	11855
881.239	11760
881.366	11646
881.493	11604
881.619	11657
881.746	11642
881.872	11623
881.999	11535
882.125	11448
882.252	11604
882.378	11505
882.505	11497
882.631	11455
882.757	11280
882.883	11421
883.01	11269
883.136	11239
883.262	11075
883.388	11041
883.514	11155
883.64	11151
883.766	11060
883.892	10987
884.018	10946
884.143	11102
884.269	11128
884.395	10889
884.52	10854
884.646	10752
884.772	10668
884.897	10637
885.023	10736
885.148	10740
885.274	10782
885.399	10725
885.524	10580
885.65	10588
885.775	10653
885.9	10618
886.025	10538
886.15	10561
886.275	10478
886.4	10314
886.525	10356
886.65	10436
886.775	10322
886.9	10409
887.025	10554
887.149	10341
887.274	10246
887.399	10242
887.523	10154
887.648	10219
887.773	10143
887.897	10276
888.021	10246
888.146	10147
888.27	10238
888.395	10219
888.519	10135
888.643	10154
888.767	10238
888.891	10101
889.015	10006
889.139	10036
889.263	9998
889.387	10101
889.511	10181
889.635	10150
889.759	10013
889.883	10074
890.006	10021
890.13	10090
890.254	9907
890.377	9991
890.501	9884
890.624	9793
890.748	9816
890.871	9861
890.995	9713
891.118	9785
891.241	9857
891.364	9747
891.488	9774
891.611	9701
891.734	9766
891.857	9789
891.98	9762
892.103	9838
892.226	9766
892.349	9637
892.471	9488
892.594	9576
892.717	9557
892.839	9629
892.962	9614
893.085	9648
893.207	9553
893.33	9526
893.452	9507
893.575	9633
893.697	9466
893.819	9610
893.941	9705
894.064	9603
894.186	9466
894.308	9439
894.43	9496
894.552	9587
894.674	9530
894.796	9401
894.918	9439
895.04	9302
895.161	9405
895.283	9397
895.405	9214
895.526	9329
895.648	9287
895.769	9256
895.891	9306
896.012	9325
896.134	9214
896.255	9097
896.376	9188
896.498	9161
896.619	9100
896.74	9077
896.861	9150
896.982	9214
897.103	9249
897.224	9138
897.345	9108
897.466	9047
897.587	9005
897.708	9131
897.828	9043
897.949	9009
898.07	8902
898.19	8933
898.311	9055
898.431	8990
898.552	8952
898.672	9009
898.792	8990
898.913	8933
899.033	8880
899.153	8815
899.273	8686
899.393	8792
899.513	8708
899.633	8720
899.753	8785
899.873	8644
899.993	8743
900.113	8746
900.232	8693
900.352	8773
900.472	8670
900.591	8571
900.711	8594
900.83	8610
900.95	8663
901.069	8693
901.189	8556
901.308	8438
901.427	8454
901.546	8438
901.665	8488
901.784	8556
901.904	8313
902.023	8332
902.141	8298
902.26	8157
902.379	8313
902.498	8256
902.617	8164
902.735	8366
902.854	8271
902.973	8343
903.091	8130
903.21	8187
903.328	8164
903.446	8142
903.565	8062
903.683	8153
903.801	8077
903.919	8100
904.038	8134
904.156	8039
904.274	8088
904.392	8020
904.51	8073
904.627	8088
904.745	8107
904.863	8084
904.981	7951
905.098	7909
905.216	7936
905.334	7940
905.451	7909
905.569	7871
905.686	7974
905.803	8001
905.921	7772
906.038	7860
906.155	7811
906.272	7677
906.389	7723
906.506	7685
906.623	7632
906.74	7636
906.857	7563
906.974	7624
907.091	7670
907.208	7712
907.324	7753
907.441	7556
907.557	7438
907.674	7445
907.79	7392
907.907	7362
908.023	7438
908.139	7426
908.256	7369
908.372	7316
908.488	7346
908.604	7282
908.72	7263
908.836	7308
908.952	7244
909.068	7217
909.184	7354
909.3	7270
909.415	7327
909.531	7316
909.647	7126
909.762	7137
909.878	7072
909.993	7149
910.108	7149
910.224	7069
910.339	7061
910.454	7103
910.57	7004
910.685	6909
910.8	7240
910.915	7099
911.03	7019
911.145	6939
911.259	6848
911.374	6886
911.489	6890
911.604	6840
911.718	6730
911.833	6753
911.947	6658
912.062	6696
912.176	6760
912.291	6757
912.405	6757
912.519	6878
912.633	6840
912.748	6795
912.862	6646
912.976	6631
913.09	6513
913.204	6612
913.318	6601
913.431	6669
913.545	6711
913.659	6722
913.772	6707
913.886	6570
914	6525
914.113	6616
914.226	6639
914.34	6627
914.453	6475
914.566	6665
914.68	6540
914.793	6566
914.906	6452
915.019	6441
915.132	6410
915.245	6513
915.358	6460
915.47	6502
915.583	6426
915.696	6490
915.809	6544
915.921	6582
916.034	6433
916.146	6361
916.259	6395
916.371	6506
916.483	6410
916.595	6456
916.708	6494
916.82	6456
916.932	6418
917.044	6380
917.156	6410
917.268	6327
917.38	6372
917.491	6315
917.603	6380
917.715	6365
917.826	6422
917.938	6311
918.049	6224
918.161	6369
918.272	6365
918.384	6445
918.495	6380
918.606	6262
918.717	6163
918.828	6304
918.939	6331
919.05	6175
919.161	6323
919.272	6121
919.383	6194
919.494	6296
919.604	6441
919.715	6311
919.826	6270
919.936	6300
920.047	6346
920.157	6300
920.267	6452
920.378	6327
920.488	6285
920.598	6471
920.708	6589
920.818	6513
920.928	6490
921.038	6673
921.148	6551
921.258	6369
921.368	6350
921.477	6251
921.587	6133
921.697	6102
921.806	6201
921.916	6072
922.025	5965
922.134	5954
922.244	5901
922.353	5954
922.462	5832
922.571	5775
922.68	5695
922.789	5699
922.898	5695
923.007	5699
923.116	5748
923.224	5676
923.333	5676
923.442	5627
923.55	5615
923.659	5562
923.767	5684
923.876	5543
923.984	5558
924.092	5482
924.201	5596
924.309	5532
924.417	5539
924.525	5501
924.633	5501
924.741	6197
924.849	5452
924.956	5516
925.064	5357
925.172	5269
925.279	5307
925.387	5379
925.494	5391
925.602	5440
925.709	5425
925.816	5296
925.924	5315
926.031	5368
926.138	5322
926.245	5368
926.352	5181
926.459	5326
926.566	5357
926.673	5242
926.779	5159
926.886	5128
926.993	5045
927.099	4980
927.206	4972
927.312	4957
927.419	5090
927.525	5014
927.631	5041
927.737	4949
927.843	4919
927.95	4797
928.056	4828
928.162	4839
928.267	4889
928.373	5349
928.479	4881
928.585	4702
928.69	4816
928.796	4801
928.901	4687
929.007	4592
929.112	4637
929.218	4668
929.323	4649
929.428	4569
929.533	4611
929.638	4565
929.743	4580
929.848	4561
929.953	4504
930.058	4424
930.163	4333
930.267	4375
930.372	4436
930.477	4318
930.581	4489
930.685	4386
930.79	4257
930.894	4287
930.998	4291
931.103	4383
931.207	4143
931.311	4086
931.415	4044
931.519	3991
931.623	3922
