Data from glass_V78500241_2537.txt Node
Date: Wed Sep 01 19:32:05 CST 2021
User: usil
Spectrometer: V785-0024
Trigger mode: 0
Integration Time (sec): 4.000000E-1
Scans to average: 1
Nonlinearity correction enabled: false
Boxcar width: 0
Storing dark spectrum: false
XAxis mode: Wavelengths
Number of Pixels in Spectrum: 1024
>>>>>Begin Spectral Data<<<<<
801.071	3732
801.214	3728
801.356	3671
801.499	3740
801.641	3732
801.783	3770
801.926	3838
802.068	3816
802.211	3819
802.353	3880
802.496	3861
802.638	3857
802.78	3911
802.923	3892
803.065	3888
803.208	3869
803.35	3827
803.492	3869
803.635	3930
803.777	3838
803.919	3888
804.061	4135
804.204	3926
804.346	3922
804.488	3964
804.63	4063
804.773	3960
804.915	4051
805.057	4147
805.199	4044
805.341	4059
805.483	4139
805.626	4154
805.768	4154
805.91	4166
806.052	4200
806.194	4185
806.336	4348
806.478	4188
806.62	4147
806.762	4169
806.904	4253
807.046	4333
807.188	4223
807.33	4139
807.472	4211
807.614	4150
807.756	4276
807.898	4207
808.04	4211
808.182	4284
808.324	4306
808.465	4360
808.607	4462
808.749	4398
808.891	4443
809.033	4478
809.174	4363
809.316	4238
809.458	4230
809.6	4143
809.741	4150
809.883	4143
810.025	4200
810.166	4211
810.308	4181
810.45	4265
810.591	4219
810.733	4246
810.875	4519
811.016	4786
811.158	5117
811.299	5273
811.441	5261
811.582	5022
811.724	4710
811.865	4489
812.007	4466
812.148	4371
812.29	4402
812.431	4379
812.573	4379
812.714	4325
812.855	4451
812.997	4383
813.138	4405
813.279	4402
813.421	4394
813.562	4371
813.703	4333
813.845	4337
813.986	4268
814.127	4188
814.268	4215
814.41	4299
814.551	4227
814.692	4276
814.833	4276
814.974	4261
815.115	4287
815.256	4253
815.397	4234
815.539	4196
815.68	4230
815.821	4188
815.962	4341
816.103	4268
816.244	4223
816.385	4234
816.526	4276
816.666	4207
816.807	4078
816.948	4211
817.089	4139
817.23	4135
817.371	4071
817.512	4074
817.653	4074
817.793	3968
817.934	4017
818.075	4112
818.216	4131
818.356	4101
818.497	4021
818.638	3937
818.778	3880
818.919	3861
819.06	3876
819.2	3922
819.341	3888
819.481	3816
819.622	3907
819.762	3998
819.903	3934
820.043	3823
820.184	3804
820.324	3797
820.465	3918
820.605	3850
820.746	3838
820.886	3759
821.026	3896
821.167	3903
821.307	3987
821.447	3956
821.588	3956
821.728	3949
821.868	3934
822.008	3816
822.149	3892
822.289	3922
822.429	3778
822.569	3728
822.709	3816
822.849	3698
822.99	3701
823.13	3713
823.27	3736
823.41	3690
823.55	3720
823.69	3728
823.83	3720
823.97	3629
824.11	3637
824.25	3584
824.389	3656
824.529	3671
824.669	3648
824.809	3671
824.949	3759
825.089	3751
825.228	3667
825.368	3576
825.508	3523
825.648	3576
825.787	3568
825.927	3633
826.067	3614
826.206	3648
826.346	3804
826.485	3819
826.625	3850
826.765	3930
826.904	3819
827.044	3633
827.183	3500
827.323	3458
827.462	3496
827.601	3431
827.741	3405
827.88	3462
828.02	3378
828.159	3412
828.298	3454
828.437	3507
828.577	3458
828.716	3572
828.855	3507
828.994	3386
829.134	3344
829.273	3393
829.412	3378
829.551	3378
829.69	3363
829.829	3401
829.968	3481
830.107	3431
830.246	3412
830.385	3344
830.524	3313
830.663	3306
830.802	3207
830.941	3203
831.08	3184
831.219	3241
831.357	3275
831.496	3420
831.635	3237
831.774	3169
831.913	3176
832.051	3131
832.19	3131
832.329	3203
832.467	3116
832.606	3074
832.744	3135
832.883	3176
833.022	3192
833.16	3222
833.299	3310
833.437	3344
833.576	3363
833.714	3401
833.852	3439
833.991	3447
834.129	3450
834.267	3447
834.406	3416
834.544	3416
834.682	3409
834.821	3409
834.959	3538
835.097	3397
835.235	3504
835.373	3545
835.511	3492
835.65	3477
835.788	3462
835.926	3382
836.064	3370
836.202	3386
836.34	3523
836.478	3610
836.615	3526
836.753	3584
836.891	3644
837.029	3625
837.167	3603
837.305	3530
837.443	3534
837.58	3450
837.718	3625
837.856	3504
837.993	3511
838.131	3553
838.269	3542
838.406	3549
838.544	3587
838.681	3466
838.819	3401
838.956	3382
839.094	3348
839.231	3435
839.369	3485
839.506	3682
839.643	3637
839.781	3492
839.918	3439
840.055	3511
840.193	3488
840.33	3523
840.467	3549
840.604	3610
840.742	3800
840.879	3576
841.016	3557
841.153	3599
841.29	3705
841.427	3728
841.564	3728
841.701	3740
841.838	3709
841.975	3656
842.112	3656
842.249	3641
842.385	3660
842.522	3793
842.659	3667
842.796	3663
842.933	3686
843.069	3740
843.206	3675
843.343	3812
843.479	3785
843.616	3800
843.752	3663
843.889	3690
844.025	3857
844.162	3701
844.298	3827
844.435	3762
844.571	3759
844.708	3888
844.844	3972
844.98	4017
845.117	4010
845.253	3899
845.389	3884
845.525	3945
845.661	3941
845.798	3903
845.934	3983
846.07	3930
846.206	3998
846.342	4116
846.478	4048
846.614	3922
846.75	3892
846.886	3899
847.022	4051
847.158	3937
847.294	4017
847.429	3983
847.565	4021
847.701	4246
847.837	3838
847.972	3884
848.108	3960
848.244	3964
848.379	3838
848.515	3816
848.65	3808
848.786	3812
848.921	3865
849.057	3892
849.192	3934
849.328	3873
849.463	3911
849.598	3835
849.734	3819
849.869	3876
850.004	3770
850.14	3793
850.275	3789
850.41	3755
850.545	3743
850.68	3781
850.815	3789
850.95	3751
851.085	3934
851.22	3865
851.355	3816
851.49	3774
851.625	3785
851.76	3740
851.895	3755
852.03	3724
852.165	3800
852.299	3819
852.434	3903
852.569	3880
852.703	3854
852.838	3953
852.973	3987
853.107	4006
853.242	3854
853.376	3819
853.511	3762
853.645	3857
853.78	3975
853.914	3896
854.048	3888
854.183	3888
854.317	3953
854.451	4059
854.585	3930
854.72	3922
854.854	4025
854.988	3934
855.122	3975
855.256	3903
855.39	3968
855.524	4109
855.658	4044
855.792	4082
855.926	4143
856.06	4131
856.194	4162
856.327	4093
856.461	4124
856.595	4162
856.729	4154
856.862	4242
856.996	4230
857.13	4261
857.263	4284
857.397	4386
857.53	4253
857.664	4310
857.797	4390
857.931	4375
858.064	4421
858.197	4409
858.331	4375
858.464	4402
858.597	4333
858.731	4398
858.864	4424
858.997	4432
859.13	4459
859.263	4500
859.396	4603
859.529	4508
859.662	4516
859.795	4516
859.928	4634
860.061	4645
860.194	4694
860.327	4706
860.46	4622
860.592	4744
860.725	4736
860.858	4744
860.99	4714
861.123	4702
861.256	4656
861.388	4778
861.521	5421
861.653	4675
861.786	4698
861.918	4774
862.05	4782
862.183	4854
862.315	4870
862.447	4946
862.58	4889
862.712	4862
862.844	4740
862.976	4812
863.108	4889
863.24	5162
863.372	4797
863.504	4904
863.636	4934
863.768	4957
863.9	5010
864.032	4911
864.164	4976
864.296	4991
864.428	5037
864.559	5075
864.691	5170
864.823	5140
864.954	5086
865.086	5159
865.217	5143
865.349	5090
865.48	5117
865.612	5170
865.743	5299
865.875	5136
866.006	5143
866.137	5166
866.269	5185
866.4	5292
866.531	5231
866.662	5269
866.793	5220
866.924	5280
867.055	5307
867.186	5326
867.317	5284
867.448	5277
867.579	5410
867.71	5360
867.841	5444
867.972	5440
868.103	5486
868.233	5459
868.364	5509
868.495	5547
868.625	5668
868.756	5703
868.886	5649
869.017	5665
869.147	5821
869.278	5821
869.408	5836
869.539	5844
869.669	5969
869.799	5916
869.929	5908
870.06	5996
870.19	6152
870.32	6205
870.45	6315
870.58	6304
870.71	6429
870.84	6521
870.97	6422
871.1	6414
871.23	6684
871.36	6642
871.489	6642
871.619	6715
871.749	6772
871.879	6840
872.008	6951
872.138	6939
872.267	6943
872.397	6947
872.526	7012
872.656	7088
872.785	7244
872.915	7350
873.044	7533
873.173	7559
873.303	7666
873.432	7712
873.561	7792
873.69	7860
873.819	7963
873.948	8157
874.077	8267
874.206	8351
874.335	8473
874.464	8682
874.593	8864
874.722	8986
874.851	9161
874.979	9233
875.108	9325
875.237	9367
875.365	9481
875.494	9633
875.623	9884
875.751	9781
875.88	10010
876.008	10173
876.136	10284
876.265	10531
876.393	10687
876.521	10679
876.65	10820
876.778	10885
876.906	10911
877.034	10900
877.162	11170
877.29	11041
877.418	11334
877.546	11303
877.674	11490
877.802	11433
877.93	11532
878.058	11558
878.185	11570
878.313	11604
878.441	11786
878.568	11680
878.696	11840
878.824	11901
878.951	11897
879.079	11996
879.206	12121
879.333	12102
879.461	12007
879.588	12019
879.715	12167
879.842	12266
879.97	12072
880.097	11832
880.224	11847
880.351	11885
880.478	11866
880.605	11703
880.732	11832
880.859	12034
880.986	11802
881.112	11889
881.239	11722
881.366	11699
881.493	11566
881.619	11467
881.746	11608
881.872	11543
881.999	11493
882.125	11509
882.252	11486
882.378	11501
882.505	11676
882.631	11436
882.757	11379
882.883	11303
883.01	11231
883.136	11086
883.262	11102
883.388	11132
883.514	11193
883.64	11155
883.766	11159
883.892	10953
884.018	10991
884.143	11025
884.269	11113
884.395	10850
884.52	10729
884.646	10763
884.772	10725
884.897	10698
885.023	10683
885.148	10645
885.274	10687
885.399	10691
885.524	10672
885.65	10561
885.775	10615
885.9	10542
886.025	10607
886.15	10500
886.275	10386
886.4	10402
886.525	10390
886.65	10402
886.775	10360
886.9	10466
887.025	10588
887.149	10329
887.274	10246
887.399	10230
887.523	10120
887.648	10223
887.773	10128
887.897	10242
888.021	10219
888.146	10147
888.27	10181
888.395	10154
888.519	10227
888.643	10211
888.767	10169
888.891	10105
889.015	9899
889.139	10131
889.263	10017
889.387	10059
889.511	10010
889.635	9991
889.759	9888
889.883	10006
890.006	9960
890.13	10109
890.254	9922
890.377	9949
890.501	9819
890.624	9865
890.748	9861
890.871	9808
890.995	9778
891.118	9732
891.241	9800
891.364	9728
891.488	9842
891.611	9671
891.734	9797
891.857	9759
891.98	9686
892.103	9728
892.226	9644
892.349	9732
892.471	9523
892.594	9557
892.717	9652
892.839	9557
892.962	9572
893.085	9686
893.207	9603
893.33	9412
893.452	9477
893.575	9633
893.697	9443
893.819	9610
893.941	9553
894.064	9622
894.186	9408
894.308	9264
894.43	9473
894.552	9660
894.674	9500
894.796	9401
894.918	9439
895.04	9359
895.161	9355
895.283	9317
895.405	9169
895.526	9245
895.648	9203
895.769	9264
895.891	9230
896.012	9249
896.134	9199
896.255	9184
896.376	9123
896.498	9116
896.619	9119
896.74	9150
896.861	9051
896.982	9302
897.103	9279
897.224	9142
897.345	9074
897.466	9104
897.587	8952
897.708	9047
897.828	9009
897.949	8906
898.07	8868
898.19	8902
898.311	9001
898.431	8979
898.552	8914
898.672	8914
898.792	8944
898.913	8883
899.033	8796
899.153	8701
899.273	8697
899.393	8659
899.513	8739
899.633	8766
899.753	8804
899.873	8632
899.993	8773
900.113	8674
900.232	8686
900.352	8644
900.472	8583
900.591	8632
900.711	8579
900.83	8545
900.95	8648
901.069	8655
901.189	8575
901.308	8461
901.427	8393
901.546	8355
901.665	8400
901.784	8530
901.904	8355
902.023	8366
902.141	8267
902.26	8256
902.379	8286
902.498	8191
902.617	8195
902.735	8282
902.854	8317
902.973	8244
903.091	8100
903.21	8142
903.328	8123
903.446	8092
903.565	8054
903.683	8138
903.801	8005
903.919	8145
904.038	8119
904.156	8164
904.274	8111
904.392	8035
904.51	7947
904.627	8050
904.745	8046
904.863	8103
904.981	7936
905.098	7841
905.216	7864
905.334	7902
905.451	7936
905.569	7883
905.686	7917
905.803	7868
905.921	7750
906.038	7830
906.155	7826
906.272	7712
906.389	7772
906.506	7632
906.623	7636
906.74	7582
906.857	7502
906.974	7540
907.091	7651
907.208	7738
907.324	7643
907.441	7533
907.557	7422
907.674	7449
907.79	7407
907.907	7384
908.023	7407
908.139	7396
908.256	7350
908.372	7422
908.488	7244
908.604	7209
908.72	7213
908.836	7274
908.952	7251
909.068	7282
909.184	7308
909.3	7236
909.415	7289
909.531	7282
909.647	7126
909.762	7099
909.878	7019
909.993	7103
910.108	7046
910.224	7065
910.339	7072
910.454	7038
910.57	7038
910.685	6928
910.8	7152
910.915	7118
911.03	7019
911.145	6916
911.259	6814
911.374	6875
911.489	6840
911.604	6882
911.718	6738
911.833	6688
911.947	6547
912.062	6627
912.176	6722
912.291	6700
912.405	6703
912.519	6798
912.633	6783
912.748	6684
912.862	6684
912.976	6604
913.09	6589
913.204	6566
913.318	6650
913.431	6734
913.545	6650
913.659	6696
913.772	6635
913.886	6578
914	6544
914.113	6612
914.226	6585
914.34	6665
914.453	6433
914.566	6601
914.68	6536
914.793	6471
914.906	6361
915.019	6369
915.132	6384
915.245	6460
915.358	6452
915.47	6361
915.583	6414
915.696	6509
915.809	6559
915.921	6551
916.034	6380
916.146	6376
916.259	6369
916.371	6467
916.483	6414
916.595	6319
916.708	6372
916.82	6388
916.932	6254
917.044	6407
917.156	6350
917.268	6270
917.38	6277
917.491	6258
917.603	6292
917.715	6395
917.826	6441
917.938	6334
918.049	6235
918.161	6319
918.272	6422
918.384	6403
918.495	6327
918.606	6254
918.717	6190
918.828	6266
918.939	6300
919.05	6224
919.161	6232
919.272	6110
919.383	6148
919.494	6277
919.604	6380
919.715	6235
919.826	6239
919.936	6296
920.047	6308
920.157	6277
920.267	6407
920.378	6361
920.488	6281
920.598	6410
920.708	6506
920.818	6445
920.928	6441
921.038	6570
921.148	6578
921.258	6350
921.368	6308
921.477	6190
921.587	6152
921.697	6136
921.806	6152
921.916	6072
922.025	5935
922.134	5939
922.244	5885
922.353	5996
922.462	5908
922.571	5779
922.68	5680
922.789	5672
922.898	5707
923.007	5615
923.116	5691
923.224	5661
923.333	5619
923.442	5547
923.55	5619
923.659	5524
923.767	5642
923.876	5520
923.984	5592
924.092	5497
924.201	5566
924.309	5573
924.417	5543
924.525	5501
924.633	5516
924.741	6289
924.849	5345
924.956	5520
925.064	5360
925.172	5307
925.279	5326
925.387	5353
925.494	5360
925.602	5364
925.709	5376
925.816	5246
925.924	5303
926.031	5372
926.138	5254
926.245	5326
926.352	5197
926.459	5292
926.566	5322
926.673	5220
926.779	5132
926.886	5041
926.993	5025
927.099	5067
927.206	4991
927.312	4961
927.419	5052
927.525	4919
927.631	5056
927.737	4862
927.843	4805
927.95	4782
928.056	4790
928.162	4774
928.267	4854
928.373	5223
928.479	4812
928.585	4653
928.69	4774
928.796	4744
928.901	4675
929.007	4603
929.112	4717
929.218	4596
929.323	4653
929.428	4550
929.533	4615
929.638	4500
929.743	4504
929.848	4512
929.953	4489
930.058	4417
930.163	4318
930.267	4333
930.372	4436
930.477	4299
930.581	4470
930.685	4333
930.79	4249
930.894	4272
930.998	4272
931.103	4329
931.207	4093
931.311	4131
931.415	4029
931.519	3911
931.623	3960
