Data from glass_V78500241_2680.txt Node
Date: Wed Sep 01 19:33:04 CST 2021
User: usil
Spectrometer: V785-0024
Trigger mode: 0
Integration Time (sec): 4.000000E-1
Scans to average: 1
Nonlinearity correction enabled: false
Boxcar width: 0
Storing dark spectrum: false
XAxis mode: Wavelengths
Number of Pixels in Spectrum: 1024
>>>>>Begin Spectral Data<<<<<
801.071	3694
801.214	3728
801.356	3709
801.499	3717
801.641	3736
801.783	3751
801.926	3842
802.068	3808
802.211	3876
802.353	3846
802.496	3842
802.638	3804
802.78	3918
802.923	3892
803.065	3846
803.208	3842
803.35	3854
803.492	3884
803.635	3888
803.777	3751
803.919	3865
804.061	4147
804.204	3945
804.346	3987
804.488	3915
804.63	4029
804.773	3930
804.915	3994
805.057	4131
805.199	4025
805.341	4071
805.483	4105
805.626	4128
805.768	4082
805.91	4227
806.052	4227
806.194	4188
806.336	4344
806.478	4196
806.62	4166
806.762	4158
806.904	4230
807.046	4318
807.188	4185
807.33	4135
807.472	4242
807.614	4242
807.756	4276
807.898	4200
808.04	4192
808.182	4276
808.324	4303
808.465	4363
808.607	4413
808.749	4398
808.891	4508
809.033	4466
809.174	4390
809.316	4238
809.458	4246
809.6	4158
809.741	4131
809.883	4093
810.025	4200
810.166	4246
810.308	4211
810.45	4207
810.591	4215
810.733	4287
810.875	4485
811.016	4801
811.158	5105
811.299	5265
811.441	5265
811.582	5079
811.724	4702
811.865	4451
812.007	4451
812.148	4383
812.29	4371
812.431	4394
812.573	4363
812.714	4360
812.855	4367
812.997	4363
813.138	4436
813.279	4455
813.421	4386
813.562	4379
813.703	4322
813.845	4333
813.986	4242
814.127	4211
814.268	4227
814.41	4234
814.551	4253
814.692	4276
814.833	4287
814.974	4291
815.115	4303
815.256	4211
815.397	4223
815.539	4223
815.68	4173
815.821	4185
815.962	4295
816.103	4276
816.244	4227
816.385	4200
816.526	4219
816.666	4177
816.807	4032
816.948	4162
817.089	4135
817.23	4078
817.371	4036
817.512	4105
817.653	4067
817.793	4006
817.934	4013
818.075	4055
818.216	4067
818.356	4093
818.497	4063
818.638	3888
818.778	3888
818.919	3884
819.06	3884
819.2	3899
819.341	3842
819.481	3831
819.622	3922
819.762	3991
819.903	3968
820.043	3888
820.184	3857
820.324	3785
820.465	3838
820.605	3888
820.746	3888
820.886	3770
821.026	3915
821.167	3884
821.307	3964
821.447	3953
821.588	3956
821.728	3926
821.868	3922
822.008	3831
822.149	3865
822.289	3865
822.429	3762
822.569	3751
822.709	3781
822.849	3679
822.99	3705
823.13	3713
823.27	3759
823.41	3682
823.55	3705
823.69	3709
823.83	3679
823.97	3690
824.11	3622
824.25	3564
824.389	3614
824.529	3637
824.669	3622
824.809	3694
824.949	3736
825.089	3762
825.228	3671
825.368	3591
825.508	3519
825.648	3519
825.787	3595
825.927	3610
826.067	3557
826.206	3698
826.346	3800
826.485	3827
826.625	3876
826.765	3915
826.904	3812
827.044	3584
827.183	3481
827.323	3409
827.462	3488
827.601	3428
827.741	3363
827.88	3458
828.02	3367
828.159	3431
828.298	3431
828.437	3492
828.577	3439
828.716	3557
828.855	3488
828.994	3363
829.134	3363
829.273	3359
829.412	3348
829.551	3348
829.69	3351
829.829	3431
829.968	3473
830.107	3424
830.246	3450
830.385	3378
830.524	3344
830.663	3272
830.802	3245
830.941	3203
831.08	3192
831.219	3256
831.357	3230
831.496	3359
831.635	3211
831.774	3203
831.913	3169
832.051	3112
832.19	3195
832.329	3245
832.467	3131
832.606	3123
832.744	3138
832.883	3169
833.022	3218
833.16	3253
833.299	3317
833.437	3325
833.576	3363
833.714	3386
833.852	3378
833.991	3420
834.129	3454
834.267	3393
834.406	3374
834.544	3367
834.682	3416
834.821	3397
834.959	3545
835.097	3420
835.235	3496
835.373	3511
835.511	3515
835.65	3450
835.788	3473
835.926	3389
836.064	3355
836.202	3355
836.34	3599
836.478	3610
836.615	3542
836.753	3568
836.891	3641
837.029	3576
837.167	3561
837.305	3561
837.443	3511
837.58	3488
837.718	3584
837.856	3523
837.993	3534
838.131	3568
838.269	3576
838.406	3561
838.544	3553
838.681	3469
838.819	3409
838.956	3336
839.094	3378
839.231	3435
839.369	3515
839.506	3713
839.643	3644
839.781	3511
839.918	3454
840.055	3561
840.193	3526
840.33	3523
840.467	3549
840.604	3553
840.742	3800
840.879	3538
841.016	3549
841.153	3603
841.29	3759
841.427	3701
841.564	3682
841.701	3755
841.838	3667
841.975	3644
842.112	3679
842.249	3618
842.385	3584
842.522	3808
842.659	3694
842.796	3663
842.933	3690
843.069	3637
843.206	3690
843.343	3812
843.479	3755
843.616	3850
843.752	3652
843.889	3671
844.025	3838
844.162	3671
844.298	3819
844.435	3793
844.571	3740
844.708	3903
844.844	3972
844.98	4051
845.117	3987
845.253	3896
845.389	3907
845.525	3953
845.661	3972
845.798	3880
845.934	3960
846.07	3994
846.206	3983
846.342	4109
846.478	4010
846.614	3956
846.75	3880
846.886	3899
847.022	3987
847.158	3964
847.294	4010
847.429	3994
847.565	3960
847.701	4242
847.837	3857
847.972	3915
848.108	3918
848.244	3956
848.379	3816
848.515	3812
848.65	3804
848.786	3827
848.921	3831
849.057	3884
849.192	3922
849.328	3888
849.463	3903
849.598	3873
849.734	3880
849.869	3819
850.004	3797
850.14	3812
850.275	3797
850.41	3759
850.545	3709
850.68	3781
850.815	3755
850.95	3816
851.085	3915
851.22	3869
851.355	3835
851.49	3789
851.625	3804
851.76	3785
851.895	3736
852.03	3740
852.165	3804
852.299	3816
852.434	3835
852.569	3778
852.703	3827
852.838	3918
852.973	4025
853.107	3922
853.242	3880
853.376	3819
853.511	3766
853.645	3812
853.78	3956
853.914	3922
854.048	3865
854.183	3804
854.317	3915
854.451	4036
854.585	3937
854.72	3968
854.854	4021
854.988	3949
855.122	3991
855.256	3918
855.39	3983
855.524	4051
855.658	4074
855.792	4082
855.926	4135
856.06	4131
856.194	4162
856.327	4097
856.461	4128
856.595	4150
856.729	4169
856.862	4272
856.996	4272
857.13	4272
857.263	4341
857.397	4371
857.53	4272
857.664	4337
857.797	4356
857.931	4421
858.064	4341
858.197	4375
858.331	4386
858.464	4371
858.597	4310
858.731	4413
858.864	4428
858.997	4428
859.13	4519
859.263	4523
859.396	4618
859.529	4523
859.662	4436
859.795	4459
859.928	4611
860.061	4725
860.194	4702
860.327	4603
860.46	4668
860.592	4744
860.725	4725
860.858	4736
860.99	4664
861.123	4664
861.256	4687
861.388	4748
861.521	5322
861.653	4706
861.786	4660
861.918	4683
862.05	4790
862.183	4881
862.315	4881
862.447	4934
862.58	4854
862.712	4748
862.844	4744
862.976	4835
863.108	4892
863.24	5231
863.372	4850
863.504	4885
863.636	4854
863.768	4930
863.9	4934
864.032	4904
864.164	4938
864.296	5025
864.428	5098
864.559	5060
864.691	5105
864.823	5132
864.954	5174
865.086	5151
865.217	5132
865.349	5094
865.48	5193
865.612	5189
865.743	5307
865.875	5178
866.006	5105
866.137	5193
866.269	5273
866.4	5265
866.531	5216
866.662	5246
866.793	5235
866.924	5235
867.055	5307
867.186	5288
867.317	5307
867.448	5284
867.579	5345
867.71	5315
867.841	5429
867.972	5436
868.103	5455
868.233	5493
868.364	5486
868.495	5619
868.625	5615
868.756	5824
868.886	5691
869.017	5733
869.147	5813
869.278	5821
869.408	5798
869.539	5798
869.669	5889
869.799	5950
869.929	5984
870.06	5958
870.19	6194
870.32	6163
870.45	6251
870.58	6331
870.71	6403
870.84	6445
870.97	6388
871.1	6448
871.23	6544
871.36	6665
871.489	6597
871.619	6779
871.749	6802
871.879	6814
872.008	6985
872.138	6928
872.267	7023
872.397	6970
872.526	7000
872.656	7057
872.785	7198
872.915	7358
873.044	7529
873.173	7556
873.303	7620
873.432	7708
873.561	7852
873.69	7944
873.819	8005
873.948	8096
874.077	8244
874.206	8343
874.335	8469
874.464	8617
874.593	8819
874.722	8967
874.851	9062
874.979	9180
875.108	9359
875.237	9397
875.365	9424
875.494	9637
875.623	9797
875.751	9838
875.88	9983
876.008	10074
876.136	10215
876.265	10497
876.393	10694
876.521	10782
876.65	10831
876.778	10786
876.906	10915
877.034	10904
877.162	11064
877.29	11140
877.418	11223
877.546	11406
877.674	11455
877.802	11509
877.93	11493
878.058	11474
878.185	11520
878.313	11608
878.441	11813
878.568	11638
878.696	11817
878.824	11843
878.951	11935
879.079	12015
879.206	12064
879.333	11965
879.461	11935
879.588	12015
879.715	12053
879.842	12148
879.97	12045
880.097	11843
880.224	11874
880.351	11889
880.478	11904
880.605	11802
880.732	11775
880.859	11927
880.986	11737
881.112	11802
881.239	11756
881.366	11581
881.493	11596
881.619	11535
881.746	11535
881.872	11505
881.999	11535
882.125	11520
882.252	11490
882.378	11509
882.505	11566
882.631	11410
882.757	11204
882.883	11318
883.01	11261
883.136	11189
883.262	11086
883.388	11136
883.514	11128
883.64	11181
883.766	11098
883.892	10892
884.018	10980
884.143	11052
884.269	11045
884.395	10843
884.52	10710
884.646	10729
884.772	10584
884.897	10637
885.023	10664
885.148	10820
885.274	10831
885.399	10672
885.524	10573
885.65	10554
885.775	10630
885.9	10504
886.025	10569
886.15	10527
886.275	10497
886.4	10306
886.525	10432
886.65	10333
886.775	10337
886.9	10462
887.025	10500
887.149	10352
887.274	10291
887.399	10230
887.523	10185
887.648	10051
887.773	10097
887.897	10215
888.021	10150
888.146	10158
888.27	10162
888.395	10242
888.519	10215
888.643	10158
888.767	10147
888.891	10051
889.015	9964
889.139	10032
889.263	9892
889.387	10010
889.511	10090
889.635	10036
889.759	9880
889.883	9945
890.006	10021
890.13	10116
890.254	9922
890.377	9941
890.501	9804
890.624	9812
890.748	9941
890.871	9793
890.995	9781
891.118	9679
891.241	9732
891.364	9698
891.488	9819
891.611	9740
891.734	9793
891.857	9793
891.98	9701
892.103	9705
892.226	9732
892.349	9599
892.471	9477
892.594	9576
892.717	9542
892.839	9545
892.962	9629
893.085	9576
893.207	9553
893.33	9466
893.452	9564
893.575	9572
893.697	9511
893.819	9599
893.941	9618
894.064	9633
894.186	9374
894.308	9378
894.43	9526
894.552	9557
894.674	9458
894.796	9344
894.918	9389
895.04	9310
895.161	9355
895.283	9340
895.405	9199
895.526	9222
895.648	9253
895.769	9306
895.891	9272
896.012	9222
896.134	9275
896.255	9123
896.376	9119
896.498	9112
896.619	9138
896.74	9100
896.861	9112
896.982	9268
897.103	9298
897.224	9104
897.345	9070
897.466	8948
897.587	8979
897.708	9066
897.828	9009
897.949	8906
898.07	8792
898.19	8910
898.311	8914
898.431	8948
898.552	8872
898.672	8925
898.792	8929
898.913	8899
899.033	8838
899.153	8705
899.273	8598
899.393	8724
899.513	8705
899.633	8750
899.753	8758
899.873	8739
899.993	8743
900.113	8724
900.232	8663
900.352	8640
900.472	8648
900.591	8522
900.711	8629
900.83	8571
900.95	8720
901.069	8678
901.189	8594
901.308	8400
901.427	8366
901.546	8362
901.665	8442
901.784	8495
901.904	8396
902.023	8347
902.141	8267
902.26	8240
902.379	8240
902.498	8214
902.617	8210
902.735	8317
902.854	8229
902.973	8244
903.091	8142
903.21	8126
903.328	8168
903.446	8115
903.565	8031
903.683	8130
903.801	8054
903.919	8081
904.038	8161
904.156	8096
904.274	8043
904.392	7989
904.51	8050
904.627	8020
904.745	8043
904.863	8065
904.981	7913
905.098	7871
905.216	7864
905.334	7860
905.451	7890
905.569	7841
905.686	7951
905.803	7925
905.921	7700
906.038	7856
906.155	7784
906.272	7685
906.389	7677
906.506	7651
906.623	7677
906.74	7567
906.857	7510
906.974	7468
907.091	7677
907.208	7597
907.324	7620
907.441	7609
907.557	7396
907.674	7403
907.79	7407
907.907	7415
908.023	7434
908.139	7350
908.256	7392
908.372	7350
908.488	7335
908.604	7274
908.72	7232
908.836	7278
908.952	7251
909.068	7301
909.184	7255
909.3	7259
909.415	7282
909.531	7285
909.647	7091
909.762	7122
909.878	7110
909.993	7095
910.108	7133
910.224	7114
910.339	7110
910.454	7034
910.57	6985
910.685	6958
910.8	7133
910.915	7118
911.03	7023
911.145	6897
911.259	6859
911.374	6897
911.489	6818
911.604	6753
911.718	6688
911.833	6741
911.947	6665
912.062	6570
912.176	6734
912.291	6749
912.405	6692
912.519	6772
912.633	6825
912.748	6665
912.862	6749
912.976	6559
913.09	6540
913.204	6540
913.318	6635
913.431	6688
913.545	6688
913.659	6753
913.772	6570
913.886	6483
914	6528
914.113	6665
914.226	6612
914.34	6612
914.453	6521
914.566	6563
914.68	6490
914.793	6483
914.906	6410
915.019	6395
915.132	6342
915.245	6384
915.358	6471
915.47	6395
915.583	6525
915.696	6452
915.809	6502
915.921	6528
916.034	6323
916.146	6391
916.259	6334
916.371	6494
916.483	6467
916.595	6407
916.708	6350
916.82	6403
916.932	6407
917.044	6365
917.156	6380
917.268	6270
917.38	6346
917.491	6342
917.603	6319
917.715	6391
917.826	6403
917.938	6365
918.049	6247
918.161	6292
918.272	6418
918.384	6403
918.495	6353
918.606	6228
918.717	6175
918.828	6228
918.939	6247
919.05	6190
919.161	6254
919.272	6045
919.383	6148
919.494	6304
919.604	6391
919.715	6281
919.826	6178
919.936	6254
920.047	6346
920.157	6224
920.267	6429
920.378	6300
920.488	6277
920.598	6448
920.708	6547
920.818	6410
920.928	6407
921.038	6570
921.148	6582
921.258	6338
921.368	6342
921.477	6232
921.587	6148
921.697	6072
921.806	6144
921.916	6026
922.025	5916
922.134	5889
922.244	5901
922.353	5954
922.462	5889
922.571	5786
922.68	5680
922.789	5672
922.898	5718
923.007	5630
923.116	5695
923.224	5657
923.333	5592
923.442	5570
923.55	5604
923.659	5581
923.767	5589
923.876	5554
923.984	5566
924.092	5516
924.201	5516
924.309	5512
924.417	5558
924.525	5493
924.633	5497
924.741	6224
924.849	5402
924.956	5486
925.064	5360
925.172	5292
925.279	5337
925.387	5265
925.494	5311
925.602	5463
925.709	5349
925.816	5212
925.924	5292
926.031	5311
926.138	5288
926.245	5341
926.352	5193
926.459	5265
926.566	5318
926.673	5208
926.779	5098
926.886	5094
926.993	5037
927.099	4972
927.206	4976
927.312	4991
927.419	4972
927.525	4995
927.631	4972
927.737	4915
927.843	4911
927.95	4740
928.056	4786
928.162	4812
928.267	4858
928.373	5223
928.479	4805
928.585	4698
928.69	4771
928.796	4763
928.901	4675
929.007	4573
929.112	4672
929.218	4637
929.323	4607
929.428	4512
929.533	4675
929.638	4504
929.743	4500
929.848	4569
929.953	4478
930.058	4409
930.163	4303
930.267	4299
930.372	4341
930.477	4284
930.581	4466
930.685	4371
930.79	4238
930.894	4318
930.998	4272
931.103	4367
931.207	4124
931.311	4105
931.415	4002
931.519	3888
931.623	3926
