Data from glass_V78500241_2533.txt Node
Date: Wed Sep 01 19:32:03 CST 2021
User: usil
Spectrometer: V785-0024
Trigger mode: 0
Integration Time (sec): 4.000000E-1
Scans to average: 1
Nonlinearity correction enabled: false
Boxcar width: 0
Storing dark spectrum: false
XAxis mode: Wavelengths
Number of Pixels in Spectrum: 1024
>>>>>Begin Spectral Data<<<<<
801.071	3705
801.214	3736
801.356	3675
801.499	3713
801.641	3740
801.783	3732
801.926	3911
802.068	3842
802.211	3857
802.353	3884
802.496	3846
802.638	3846
802.78	3888
802.923	3907
803.065	3857
803.208	3876
803.35	3869
803.492	3884
803.635	3915
803.777	3797
803.919	3922
804.061	4158
804.204	3918
804.346	3964
804.488	3880
804.63	3991
804.773	3983
804.915	4051
805.057	4086
805.199	3964
805.341	4021
805.483	4150
805.626	4101
805.768	4128
805.91	4223
806.052	4192
806.194	4185
806.336	4318
806.478	4158
806.62	4109
806.762	4196
806.904	4261
807.046	4303
807.188	4192
807.33	4169
807.472	4238
807.614	4192
807.756	4253
807.898	4135
808.04	4223
808.182	4257
808.324	4318
808.465	4337
808.607	4447
808.749	4451
808.891	4443
809.033	4451
809.174	4390
809.316	4249
809.458	4219
809.6	4162
809.741	4158
809.883	4124
810.025	4223
810.166	4227
810.308	4169
810.45	4246
810.591	4265
810.733	4318
810.875	4523
811.016	4858
811.158	5124
811.299	5303
811.441	5265
811.582	5018
811.724	4656
811.865	4440
812.007	4466
812.148	4443
812.29	4428
812.431	4428
812.573	4386
812.714	4314
812.855	4417
812.997	4409
813.138	4485
813.279	4409
813.421	4398
813.562	4375
813.703	4341
813.845	4295
813.986	4234
814.127	4177
814.268	4238
814.41	4306
814.551	4249
814.692	4299
814.833	4246
814.974	4242
815.115	4333
815.256	4238
815.397	4246
815.539	4284
815.68	4200
815.821	4173
815.962	4303
816.103	4253
816.244	4192
816.385	4223
816.526	4234
816.666	4181
816.807	4097
816.948	4177
817.089	4158
817.23	4086
817.371	4044
817.512	4029
817.653	4055
817.793	4021
817.934	4013
818.075	4105
818.216	4059
818.356	4101
818.497	3934
818.638	3869
818.778	3884
818.919	3892
819.06	3861
819.2	3918
819.341	3827
819.481	3857
819.622	3907
819.762	4021
819.903	3896
820.043	3842
820.184	3873
820.324	3793
820.465	3823
820.605	3896
820.746	3876
820.886	3808
821.026	3937
821.167	3937
821.307	4006
821.447	3983
821.588	3934
821.728	3907
821.868	3945
822.008	3835
822.149	3930
822.289	3918
822.429	3766
822.569	3766
822.709	3778
822.849	3701
822.99	3701
823.13	3740
823.27	3766
823.41	3732
823.55	3736
823.69	3701
823.83	3770
823.97	3671
824.11	3595
824.25	3553
824.389	3606
824.529	3713
824.669	3618
824.809	3713
824.949	3743
825.089	3751
825.228	3675
825.368	3557
825.508	3561
825.648	3614
825.787	3568
825.927	3591
826.067	3644
826.206	3660
826.346	3770
826.485	3869
826.625	3850
826.765	3915
826.904	3861
827.044	3606
827.183	3485
827.323	3443
827.462	3443
827.601	3393
827.741	3409
827.88	3447
828.02	3340
828.159	3420
828.298	3462
828.437	3485
828.577	3462
828.716	3587
828.855	3458
828.994	3393
829.134	3378
829.273	3351
829.412	3329
829.551	3344
829.69	3367
829.829	3420
829.968	3530
830.107	3443
830.246	3424
830.385	3351
830.524	3325
830.663	3294
830.802	3249
830.941	3173
831.08	3195
831.219	3245
831.357	3291
831.496	3370
831.635	3233
831.774	3176
831.913	3184
832.051	3135
832.19	3116
832.329	3226
832.467	3131
832.606	3123
832.744	3127
832.883	3154
833.022	3203
833.16	3275
833.299	3256
833.437	3340
833.576	3382
833.714	3374
833.852	3401
833.991	3416
834.129	3485
834.267	3431
834.406	3386
834.544	3412
834.682	3439
834.821	3412
834.959	3572
835.097	3420
835.235	3519
835.373	3473
835.511	3466
835.65	3466
835.788	3458
835.926	3393
836.064	3389
836.202	3389
836.34	3568
836.478	3591
836.615	3500
836.753	3584
836.891	3618
837.029	3633
837.167	3549
837.305	3504
837.443	3572
837.58	3477
837.718	3584
837.856	3568
837.993	3542
838.131	3576
838.269	3572
838.406	3584
838.544	3553
838.681	3466
838.819	3439
838.956	3355
839.094	3409
839.231	3485
839.369	3534
839.506	3720
839.643	3614
839.781	3511
839.918	3458
840.055	3477
840.193	3519
840.33	3553
840.467	3534
840.604	3625
840.742	3774
840.879	3618
841.016	3519
841.153	3568
841.29	3774
841.427	3690
841.564	3720
841.701	3717
841.838	3648
841.975	3679
842.112	3686
842.249	3629
842.385	3614
842.522	3800
842.659	3686
842.796	3675
842.933	3698
843.069	3682
843.206	3701
843.343	3797
843.479	3762
843.616	3804
843.752	3667
843.889	3694
844.025	3838
844.162	3720
844.298	3823
844.435	3797
844.571	3774
844.708	3880
844.844	4002
844.98	3994
845.117	4013
845.253	3918
845.389	3922
845.525	3922
845.661	3964
845.798	3945
845.934	3983
846.07	3964
846.206	4036
846.342	4082
846.478	4071
846.614	3964
846.75	3941
846.886	3896
847.022	4044
847.158	3968
847.294	3960
847.429	3960
847.565	3937
847.701	4253
847.837	3903
847.972	3869
848.108	3941
848.244	3922
848.379	3827
848.515	3808
848.65	3781
848.786	3789
848.921	3812
849.057	3915
849.192	3953
849.328	3850
849.463	3930
849.598	3861
849.734	3861
849.869	3797
850.004	3759
850.14	3793
850.275	3778
850.41	3766
850.545	3736
850.68	3740
850.815	3800
850.95	3728
851.085	3918
851.22	3865
851.355	3846
851.49	3781
851.625	3751
851.76	3797
851.895	3755
852.03	3717
852.165	3766
852.299	3835
852.434	3896
852.569	3854
852.703	3857
852.838	3911
852.973	4002
853.107	4006
853.242	3835
853.376	3804
853.511	3743
853.645	3869
853.78	3937
853.914	3869
854.048	3884
854.183	3903
854.317	3907
854.451	4063
854.585	3926
854.72	3915
854.854	4097
854.988	3953
855.122	4021
855.256	3930
855.39	4006
855.524	4086
855.658	4036
855.792	4097
855.926	4131
856.06	4139
856.194	4177
856.327	4154
856.461	4139
856.595	4150
856.729	4128
856.862	4246
856.996	4211
857.13	4280
857.263	4261
857.397	4306
857.53	4261
857.664	4352
857.797	4398
857.931	4421
858.064	4398
858.197	4421
858.331	4367
858.464	4344
858.597	4379
858.731	4409
858.864	4409
858.997	4474
859.13	4474
859.263	4550
859.396	4569
859.529	4550
859.662	4573
859.795	4577
859.928	4580
860.061	4736
860.194	4729
860.327	4653
860.46	4672
860.592	4733
860.725	4725
860.858	4717
860.99	4691
861.123	4637
861.256	4645
861.388	4755
861.521	5387
861.653	4710
861.786	4721
861.918	4740
862.05	4767
862.183	4847
862.315	4915
862.447	4904
862.58	4885
862.712	4797
862.844	4748
862.976	4870
863.108	4839
863.24	5174
863.372	4858
863.504	4934
863.636	4900
863.768	4991
863.9	4927
864.032	4919
864.164	4908
864.296	4968
864.428	5102
864.559	5121
864.691	5086
864.823	5105
864.954	5140
865.086	5124
865.217	5109
865.349	5121
865.48	5140
865.612	5140
865.743	5292
865.875	5189
866.006	5162
866.137	5189
866.269	5204
866.4	5246
866.531	5231
866.662	5227
866.793	5235
866.924	5273
867.055	5318
867.186	5311
867.317	5307
867.448	5315
867.579	5345
867.71	5357
867.841	5395
867.972	5448
868.103	5452
868.233	5471
868.364	5543
868.495	5520
868.625	5649
868.756	5794
868.886	5688
869.017	5722
869.147	5874
869.278	5870
869.408	5847
869.539	5817
869.669	5916
869.799	5889
869.929	6041
870.06	5988
870.19	6197
870.32	6152
870.45	6270
870.58	6311
870.71	6418
870.84	6464
870.97	6357
871.1	6399
871.23	6620
871.36	6745
871.489	6616
871.619	6753
871.749	6772
871.879	6859
872.008	6943
872.138	6928
872.267	6970
872.397	6947
872.526	7004
872.656	7084
872.785	7270
872.915	7331
873.044	7556
873.173	7495
873.303	7620
873.432	7750
873.561	7830
873.69	7868
873.819	7989
873.948	8168
874.077	8252
874.206	8332
874.335	8438
874.464	8621
874.593	8868
874.722	8891
874.851	9138
874.979	9294
875.108	9279
875.237	9344
875.365	9477
875.494	9637
875.623	9854
875.751	9873
875.88	9983
876.008	10173
876.136	10344
876.265	10443
876.393	10698
876.521	10714
876.65	10858
876.778	10824
876.906	10923
877.034	10946
877.162	11113
877.29	11159
877.418	11284
877.546	11364
877.674	11421
877.802	11391
877.93	11486
878.058	11558
878.185	11528
878.313	11615
878.441	11695
878.568	11684
878.696	11783
878.824	11813
878.951	11893
879.079	12041
879.206	12117
879.333	12068
879.461	12019
879.588	12148
879.715	12121
879.842	12251
879.97	12003
880.097	11805
880.224	11939
880.351	11786
880.478	11901
880.605	11859
880.732	11824
880.859	11946
880.986	11840
881.112	11901
881.239	11695
881.366	11581
881.493	11619
881.619	11589
881.746	11600
881.872	11463
881.999	11562
882.125	11535
882.252	11471
882.378	11497
882.505	11600
882.631	11360
882.757	11307
882.883	11284
883.01	11193
883.136	11178
883.262	11162
883.388	11105
883.514	11181
883.64	11143
883.766	11136
883.892	10942
884.018	10915
884.143	11105
884.269	11121
884.395	10858
884.52	10748
884.646	10714
884.772	10714
884.897	10622
885.023	10683
885.148	10710
885.274	10740
885.399	10744
885.524	10668
885.65	10577
885.775	10478
885.9	10504
886.025	10561
886.15	10535
886.275	10417
886.4	10405
886.525	10409
886.65	10367
886.775	10329
886.9	10451
887.025	10470
887.149	10337
887.274	10249
887.399	10204
887.523	10173
887.648	10116
887.773	10128
887.897	10268
888.021	10211
888.146	10101
888.27	10200
888.395	10253
888.519	10173
888.643	10143
888.767	10207
888.891	10055
889.015	10025
889.139	10036
889.263	10006
889.387	10048
889.511	10150
889.635	10013
889.759	9831
889.883	9998
890.006	10021
890.13	10109
890.254	9926
890.377	9975
890.501	9797
890.624	9842
890.748	9884
890.871	9732
890.995	9732
891.118	9671
891.241	9751
891.364	9740
891.488	9759
891.611	9759
891.734	9743
891.857	9720
891.98	9720
892.103	9732
892.226	9751
892.349	9675
892.471	9443
892.594	9595
892.717	9580
892.839	9618
892.962	9587
893.085	9603
893.207	9542
893.33	9500
893.452	9507
893.575	9614
893.697	9526
893.819	9629
893.941	9701
894.064	9591
894.186	9431
894.308	9450
894.43	9523
894.552	9545
894.674	9557
894.796	9405
894.918	9447
895.04	9283
895.161	9397
895.283	9351
895.405	9230
895.526	9226
895.648	9237
895.769	9310
895.891	9253
896.012	9268
896.134	9192
896.255	9260
896.376	9142
896.498	9089
896.619	9157
896.74	9070
896.861	9066
896.982	9203
897.103	9348
897.224	9165
897.345	9154
897.466	9074
897.587	8990
897.708	9020
897.828	8990
897.949	9001
898.07	8838
898.19	8895
898.311	8971
898.431	8941
898.552	8872
898.672	8963
898.792	8883
898.913	8910
899.033	8792
899.153	8701
899.273	8644
899.393	8705
899.513	8735
899.633	8727
899.753	8693
899.873	8697
899.993	8735
900.113	8686
900.232	8625
900.352	8632
900.472	8632
900.591	8488
900.711	8484
900.83	8503
900.95	8701
901.069	8644
901.189	8655
901.308	8438
901.427	8374
901.546	8404
901.665	8469
901.784	8454
901.904	8434
902.023	8294
902.141	8233
902.26	8187
902.379	8267
902.498	8214
902.617	8271
902.735	8252
902.854	8313
902.973	8271
903.091	8149
903.21	8096
903.328	8096
903.446	8065
903.565	8073
903.683	8123
903.801	8054
903.919	8119
904.038	8107
904.156	8016
904.274	8084
904.392	8001
904.51	8027
904.627	8016
904.745	8031
904.863	8073
904.981	7864
905.098	7902
905.216	7887
905.334	7928
905.451	7890
905.569	7849
905.686	7925
905.803	7932
905.921	7807
906.038	7811
906.155	7765
906.272	7761
906.389	7700
906.506	7578
906.623	7597
906.74	7597
906.857	7563
906.974	7651
907.091	7696
907.208	7674
907.324	7620
907.441	7594
907.557	7464
907.674	7403
907.79	7358
907.907	7369
908.023	7441
908.139	7438
908.256	7449
908.372	7331
908.488	7320
908.604	7289
908.72	7213
908.836	7259
908.952	7221
909.068	7228
909.184	7324
909.3	7206
909.415	7324
909.531	7289
909.647	7091
909.762	7114
909.878	7076
909.993	7126
910.108	7046
910.224	7103
910.339	7069
910.454	6973
910.57	7008
910.685	6894
910.8	7160
910.915	7088
911.03	7015
911.145	6909
911.259	6859
911.374	6882
911.489	6837
911.604	6840
911.718	6719
911.833	6787
911.947	6620
912.062	6601
912.176	6654
912.291	6715
912.405	6688
912.519	6791
912.633	6848
912.748	6696
912.862	6642
912.976	6597
913.09	6528
913.204	6623
913.318	6585
913.431	6669
913.545	6688
913.659	6684
913.772	6650
913.886	6547
914	6513
914.113	6623
914.226	6601
914.34	6566
914.453	6486
914.566	6639
914.68	6521
914.793	6494
914.906	6372
915.019	6399
915.132	6422
915.245	6426
915.358	6467
915.47	6448
915.583	6407
915.696	6486
915.809	6517
915.921	6509
916.034	6460
916.146	6391
916.259	6346
916.371	6448
916.483	6410
916.595	6372
916.708	6407
916.82	6361
916.932	6372
917.044	6403
917.156	6342
917.268	6319
917.38	6342
917.491	6273
917.603	6365
917.715	6395
917.826	6388
917.938	6334
918.049	6300
918.161	6243
918.272	6479
918.384	6422
918.495	6365
918.606	6243
918.717	6163
918.828	6235
918.939	6315
919.05	6213
919.161	6205
919.272	6186
919.383	6121
919.494	6273
919.604	6471
919.715	6292
919.826	6254
919.936	6228
920.047	6315
920.157	6254
920.267	6403
920.378	6319
920.488	6232
920.598	6471
920.708	6551
920.818	6464
920.928	6437
921.038	6540
921.148	6483
921.258	6353
921.368	6304
921.477	6175
921.587	6167
921.697	6083
921.806	6102
921.916	6064
922.025	5916
922.134	5889
922.244	5809
922.353	5935
922.462	5844
922.571	5786
922.68	5703
922.789	5649
922.898	5684
923.007	5649
923.116	5665
923.224	5661
923.333	5688
923.442	5649
923.55	5592
923.659	5592
923.767	5581
923.876	5566
923.984	5630
924.092	5512
924.201	5509
924.309	5520
924.417	5554
924.525	5497
924.633	5474
924.741	6201
924.849	5387
924.956	5444
925.064	5345
925.172	5357
925.279	5258
925.387	5330
925.494	5383
925.602	5398
925.709	5429
925.816	5284
925.924	5292
926.031	5299
926.138	5318
926.245	5326
926.352	5181
926.459	5315
926.566	5307
926.673	5212
926.779	5113
926.886	5090
926.993	4991
927.099	5022
927.206	4995
927.312	4942
927.419	4999
927.525	4919
927.631	4934
927.737	4892
927.843	4877
927.95	4767
928.056	4812
928.162	4801
928.267	4835
928.373	5273
928.479	4843
928.585	4672
928.69	4744
928.796	4733
928.901	4714
929.007	4538
929.112	4672
929.218	4641
929.323	4573
929.428	4592
929.533	4607
929.638	4474
929.743	4504
929.848	4546
929.953	4489
930.058	4421
930.163	4287
930.267	4318
930.372	4413
930.477	4333
930.581	4466
930.685	4325
930.79	4249
930.894	4280
930.998	4261
931.103	4390
931.207	4059
931.311	4097
931.415	4021
931.519	3911
931.623	3953
