Data from glass_V78500241_1038.txt Node
Date: Wed Sep 01 19:21:41 CST 2021
User: usil
Spectrometer: V785-0024
Trigger mode: 0
Integration Time (sec): 4.000000E-1
Scans to average: 1
Nonlinearity correction enabled: false
Boxcar width: 0
Storing dark spectrum: false
XAxis mode: Wavelengths
Number of Pixels in Spectrum: 1024
>>>>>Begin Spectral Data<<<<<
801.071	3755
801.214	3781
801.356	3736
801.499	3682
801.641	3709
801.783	3766
801.926	3857
802.068	3854
802.211	3816
802.353	3918
802.496	3861
802.638	3876
802.78	3911
802.923	3945
803.065	3926
803.208	3857
803.35	3861
803.492	3926
803.635	3937
803.777	3793
803.919	3899
804.061	4192
804.204	3956
804.346	3941
804.488	3975
804.63	4063
804.773	3998
804.915	4051
805.057	4158
805.199	4032
805.341	4055
805.483	4173
805.626	4147
805.768	4150
805.91	4246
806.052	4276
806.194	4238
806.336	4402
806.478	4223
806.62	4166
806.762	4234
806.904	4249
807.046	4348
807.188	4177
807.33	4196
807.472	4268
807.614	4215
807.756	4276
807.898	4257
808.04	4242
808.182	4284
808.324	4303
808.465	4390
808.607	4421
808.749	4485
808.891	4443
809.033	4512
809.174	4424
809.316	4329
809.458	4276
809.6	4166
809.741	4131
809.883	4219
810.025	4211
810.166	4246
810.308	4238
810.45	4265
810.591	4207
810.733	4265
810.875	4561
811.016	4828
811.158	5181
811.299	5337
811.441	5258
811.582	5136
811.724	4694
811.865	4436
812.007	4459
812.148	4413
812.29	4413
812.431	4421
812.573	4390
812.714	4424
812.855	4493
812.997	4405
813.138	4443
813.279	4447
813.421	4398
813.562	4367
813.703	4356
813.845	4325
813.986	4299
814.127	4211
814.268	4234
814.41	4291
814.551	4276
814.692	4291
814.833	4246
814.974	4314
815.115	4344
815.256	4310
815.397	4276
815.539	4314
815.68	4200
815.821	4246
815.962	4325
816.103	4299
816.244	4227
816.385	4223
816.526	4287
816.666	4227
816.807	4131
816.948	4166
817.089	4211
817.23	4093
817.371	4082
817.512	4116
817.653	4048
817.793	4051
817.934	4093
818.075	4078
818.216	4112
818.356	4090
818.497	4021
818.638	3911
818.778	3949
818.919	3888
819.06	3892
819.2	3930
819.341	3869
819.481	3816
819.622	3937
819.762	4109
819.903	3975
820.043	3888
820.184	3846
820.324	3785
820.465	3892
820.605	3831
820.746	3934
820.886	3827
821.026	3975
821.167	3945
821.307	3983
821.447	3968
821.588	3975
821.728	3915
821.868	3907
822.008	3869
822.149	3934
822.289	3922
822.429	3816
822.569	3781
822.709	3808
822.849	3747
822.99	3705
823.13	3774
823.27	3804
823.41	3713
823.55	3724
823.69	3720
823.83	3797
823.97	3690
824.11	3625
824.25	3595
824.389	3625
824.529	3694
824.669	3656
824.809	3724
824.949	3762
825.089	3743
825.228	3671
825.368	3603
825.508	3568
825.648	3587
825.787	3610
825.927	3644
826.067	3618
826.206	3709
826.346	3785
826.485	3842
826.625	3880
826.765	3941
826.904	3846
827.044	3606
827.183	3568
827.323	3420
827.462	3534
827.601	3469
827.741	3428
827.88	3462
828.02	3374
828.159	3439
828.298	3526
828.437	3530
828.577	3492
828.716	3606
828.855	3473
828.994	3405
829.134	3378
829.273	3397
829.412	3359
829.551	3370
829.69	3386
829.829	3462
829.968	3526
830.107	3393
830.246	3443
830.385	3397
830.524	3382
830.663	3348
830.802	3237
830.941	3207
831.08	3165
831.219	3294
831.357	3264
831.496	3389
831.635	3249
831.774	3260
831.913	3173
832.051	3146
832.19	3157
832.329	3222
832.467	3138
832.606	3104
832.744	3131
832.883	3173
833.022	3207
833.16	3291
833.299	3302
833.437	3344
833.576	3359
833.714	3370
833.852	3435
833.991	3504
834.129	3500
834.267	3420
834.406	3466
834.544	3435
834.682	3435
834.821	3393
834.959	3576
835.097	3439
835.235	3492
835.373	3530
835.511	3526
835.65	3485
835.788	3454
835.926	3389
836.064	3389
836.202	3431
836.34	3553
836.478	3576
836.615	3549
836.753	3599
836.891	3656
837.029	3610
837.167	3572
837.305	3557
837.443	3584
837.58	3504
837.718	3633
837.856	3553
837.993	3530
838.131	3637
838.269	3606
838.406	3599
838.544	3595
838.681	3485
838.819	3462
838.956	3367
839.094	3416
839.231	3424
839.369	3542
839.506	3724
839.643	3690
839.781	3519
839.918	3504
840.055	3568
840.193	3507
840.33	3561
840.467	3568
840.604	3603
840.742	3835
840.879	3564
841.016	3568
841.153	3595
841.29	3751
841.427	3740
841.564	3728
841.701	3766
841.838	3717
841.975	3686
842.112	3728
842.249	3637
842.385	3595
842.522	3842
842.659	3701
842.796	3682
842.933	3682
843.069	3720
843.206	3690
843.343	3823
843.479	3816
843.616	3827
843.752	3682
843.889	3705
844.025	3869
844.162	3732
844.298	3899
844.435	3774
844.571	3804
844.708	3899
844.844	4002
844.98	4017
845.117	4029
845.253	3918
845.389	3918
845.525	3979
845.661	4017
845.798	3911
845.934	4036
846.07	3964
846.206	4067
846.342	4120
846.478	4071
846.614	3975
846.75	3972
846.886	3918
847.022	4036
847.158	3975
847.294	4025
847.429	4059
847.565	3994
847.701	4200
847.837	3869
847.972	3857
848.108	3964
848.244	3949
848.379	3869
848.515	3812
848.65	3797
848.786	3873
848.921	3899
849.057	3972
849.192	3972
849.328	3896
849.463	3915
849.598	3899
849.734	3846
849.869	3838
850.004	3797
850.14	3876
850.275	3823
850.41	3717
850.545	3778
850.68	3812
850.815	3785
850.95	3808
851.085	3972
851.22	3896
851.355	3865
851.49	3800
851.625	3808
851.76	3751
851.895	3774
852.03	3743
852.165	3785
852.299	3850
852.434	3918
852.569	3873
852.703	3869
852.838	3918
852.973	4013
853.107	4013
853.242	3941
853.376	3835
853.511	3766
853.645	3865
853.78	3968
853.914	3873
854.048	3930
854.183	3892
854.317	3991
854.451	4101
854.585	3983
854.72	3926
854.854	4063
854.988	3941
855.122	3972
855.256	3934
855.39	4029
855.524	4101
855.658	4086
855.792	4124
855.926	4154
856.06	4188
856.194	4188
856.327	4147
856.461	4101
856.595	4192
856.729	4234
856.862	4341
856.996	4261
857.13	4295
857.263	4337
857.397	4333
857.53	4306
857.664	4360
857.797	4375
857.931	4421
858.064	4413
858.197	4466
858.331	4405
858.464	4417
858.597	4348
858.731	4481
858.864	4440
858.997	4424
859.13	4554
859.263	4500
859.396	4580
859.529	4573
859.662	4500
859.795	4554
859.928	4637
860.061	4717
860.194	4702
860.327	4653
860.46	4611
860.592	4744
860.725	4774
860.858	4828
860.99	4687
861.123	4653
861.256	4691
861.388	4759
861.521	5486
861.653	4710
861.786	4691
861.918	4763
862.05	4774
862.183	4820
862.315	4866
862.447	4915
862.58	4862
862.712	4790
862.844	4782
862.976	4870
863.108	4858
863.24	5322
863.372	4854
863.504	4892
863.636	4904
863.768	4949
863.9	5006
864.032	4946
864.164	4938
864.296	5056
864.428	5113
864.559	5105
864.691	5124
864.823	5140
864.954	5086
865.086	5098
865.217	5105
865.349	5132
865.48	5124
865.612	5166
865.743	5292
865.875	5235
866.006	5181
866.137	5227
866.269	5189
866.4	5280
866.531	5242
866.662	5227
866.793	5299
866.924	5261
867.055	5330
867.186	5353
867.317	5368
867.448	5280
867.579	5360
867.71	5398
867.841	5406
867.972	5497
868.103	5512
868.233	5478
868.364	5543
868.495	5532
868.625	5684
868.756	5786
868.886	5729
869.017	5786
869.147	5855
869.278	5824
869.408	5794
869.539	5878
869.669	5935
869.799	5950
869.929	5977
870.06	6022
870.19	6239
870.32	6232
870.45	6266
870.58	6357
870.71	6384
870.84	6471
870.97	6429
871.1	6471
871.23	6681
871.36	6688
871.489	6753
871.619	6791
871.749	6856
871.879	6856
872.008	6954
872.138	6928
872.267	7004
872.397	7004
872.526	7031
872.656	7141
872.785	7198
872.915	7415
873.044	7540
873.173	7578
873.303	7666
873.432	7795
873.561	7906
873.69	7925
873.819	8073
873.948	8206
874.077	8263
874.206	8358
874.335	8431
874.464	8625
874.593	8819
874.722	8918
874.851	9192
874.979	9287
875.108	9428
875.237	9412
875.365	9496
875.494	9599
875.623	9899
875.751	9888
875.88	9979
876.008	10200
876.136	10325
876.265	10561
876.393	10759
876.521	10740
876.65	10812
876.778	10900
876.906	10980
877.034	10953
877.162	11181
877.29	11204
877.418	11349
877.546	11349
877.674	11414
877.802	11448
877.93	11585
878.058	11566
878.185	11581
878.313	11589
878.441	11779
878.568	11676
878.696	11786
878.824	11904
878.951	11920
879.079	12011
879.206	12121
879.333	12007
879.461	12015
879.588	12091
879.715	12045
879.842	12213
879.97	12106
880.097	11935
880.224	11927
880.351	11851
880.478	11870
880.605	11840
880.732	11794
880.859	11965
880.986	11805
881.112	11912
881.239	11726
881.366	11649
881.493	11592
881.619	11581
881.746	11623
881.872	11493
881.999	11455
882.125	11474
882.252	11646
882.378	11509
882.505	11627
882.631	11334
882.757	11383
882.883	11280
883.01	11261
883.136	11239
883.262	11140
883.388	11113
883.514	11258
883.64	11174
883.766	11094
883.892	11003
884.018	10957
884.143	11067
884.269	11151
884.395	10782
884.52	10797
884.646	10744
884.772	10694
884.897	10691
885.023	10717
885.148	10710
885.274	10759
885.399	10744
885.524	10561
885.65	10668
885.775	10691
885.9	10611
886.025	10645
886.15	10592
886.275	10443
886.4	10417
886.525	10455
886.65	10405
886.775	10310
886.9	10489
887.025	10466
887.149	10371
887.274	10207
887.399	10242
887.523	10253
887.648	10131
887.773	10147
887.897	10204
888.021	10200
888.146	10181
888.27	10257
888.395	10185
888.519	10154
888.643	10147
888.767	10230
888.891	10086
889.015	10032
889.139	10112
889.263	10017
889.387	10154
889.511	10162
889.635	10093
889.759	9915
889.883	9953
890.006	9998
890.13	10181
890.254	9937
890.377	9945
890.501	9846
890.624	9778
890.748	9895
890.871	9857
890.995	9709
891.118	9759
891.241	9698
891.364	9728
891.488	9766
891.611	9709
891.734	9766
891.857	9808
891.98	9736
892.103	9774
892.226	9755
892.349	9686
892.471	9526
892.594	9644
892.717	9720
892.839	9530
892.962	9603
893.085	9637
893.207	9587
893.33	9496
893.452	9568
893.575	9618
893.697	9523
893.819	9614
893.941	9641
894.064	9576
894.186	9397
894.308	9424
894.43	9538
894.552	9595
894.674	9500
894.796	9355
894.918	9431
895.04	9336
895.161	9359
895.283	9412
895.405	9294
895.526	9230
895.648	9272
895.769	9184
895.891	9275
896.012	9260
896.134	9180
896.255	9207
896.376	9108
896.498	9199
896.619	9154
896.74	9097
896.861	9043
896.982	9306
897.103	9310
897.224	9142
897.345	9047
897.466	9024
897.587	8994
897.708	9093
897.828	9085
897.949	8990
898.07	8929
898.19	8925
898.311	9051
898.431	8914
898.552	8883
898.672	9017
898.792	8979
898.913	8933
899.033	8807
899.153	8746
899.273	8644
899.393	8655
899.513	8750
899.633	8693
899.753	8746
899.873	8663
899.993	8746
900.113	8754
900.232	8667
900.352	8625
900.472	8651
900.591	8564
900.711	8602
900.83	8556
900.95	8682
901.069	8682
901.189	8568
901.308	8431
901.427	8412
901.546	8431
901.665	8465
901.784	8518
901.904	8427
902.023	8351
902.141	8263
902.26	8180
902.379	8305
902.498	8233
902.617	8202
902.735	8332
902.854	8286
902.973	8259
903.091	8073
903.21	8157
903.328	8149
903.446	8126
903.565	8062
903.683	8096
903.801	8096
903.919	8107
904.038	8138
904.156	8050
904.274	8016
904.392	7993
904.51	8035
904.627	8058
904.745	8123
904.863	8130
904.981	7982
905.098	7837
905.216	7921
905.334	7887
905.451	7959
905.569	7868
905.686	7860
905.803	7936
905.921	7765
906.038	7909
906.155	7788
906.272	7753
906.389	7803
906.506	7658
906.623	7624
906.74	7655
906.857	7548
906.974	7594
907.091	7693
907.208	7753
907.324	7616
907.441	7632
907.557	7468
907.674	7419
907.79	7457
907.907	7426
908.023	7411
908.139	7460
908.256	7430
908.372	7354
908.488	7354
908.604	7320
908.72	7194
908.836	7236
908.952	7270
909.068	7240
909.184	7346
909.3	7247
909.415	7285
909.531	7285
909.647	7110
909.762	7141
909.878	7084
909.993	7122
910.108	7076
910.224	7072
910.339	7110
910.454	7027
910.57	7015
910.685	7008
910.8	7202
910.915	7114
911.03	7042
911.145	6939
911.259	6871
911.374	6958
911.489	6798
911.604	6791
911.718	6749
911.833	6753
911.947	6654
912.062	6547
912.176	6738
912.291	6749
912.405	6760
912.519	6825
912.633	6779
912.748	6730
912.862	6722
912.976	6597
913.09	6547
913.204	6566
913.318	6631
913.431	6749
913.545	6711
913.659	6726
913.772	6635
913.886	6551
914	6574
914.113	6642
914.226	6662
914.34	6654
914.453	6513
914.566	6623
914.68	6483
914.793	6536
914.906	6464
915.019	6433
915.132	6403
915.245	6494
915.358	6445
915.47	6502
915.583	6555
915.696	6464
915.809	6574
915.921	6582
916.034	6403
916.146	6403
916.259	6399
916.371	6445
916.483	6532
916.595	6437
916.708	6448
916.82	6407
916.932	6361
917.044	6399
917.156	6414
917.268	6315
917.38	6361
917.491	6338
917.603	6350
917.715	6410
917.826	6433
917.938	6338
918.049	6258
918.161	6391
918.272	6483
918.384	6433
918.495	6369
918.606	6251
918.717	6213
918.828	6300
918.939	6270
919.05	6190
919.161	6228
919.272	6125
919.383	6167
919.494	6388
919.604	6471
919.715	6289
919.826	6216
919.936	6251
920.047	6331
920.157	6292
920.267	6410
920.378	6304
920.488	6338
920.598	6490
920.708	6544
920.818	6498
920.928	6445
921.038	6547
921.148	6601
921.258	6361
921.368	6262
921.477	6190
921.587	6186
921.697	6114
921.806	6148
921.916	6068
922.025	5961
922.134	5920
922.244	5832
922.353	5992
922.462	5897
922.571	5832
922.68	5726
922.789	5752
922.898	5638
923.007	5672
923.116	5695
923.224	5710
923.333	5634
923.442	5623
923.55	5554
923.659	5566
923.767	5623
923.876	5562
923.984	5611
924.092	5539
924.201	5554
924.309	5600
924.417	5562
924.525	5524
924.633	5482
924.741	6281
924.849	5330
924.956	5501
925.064	5414
925.172	5357
925.279	5334
925.387	5372
925.494	5330
925.602	5436
925.709	5372
925.816	5261
925.924	5364
926.031	5364
926.138	5376
926.245	5364
926.352	5239
926.459	5334
926.566	5337
926.673	5239
926.779	5162
926.886	5143
926.993	5045
927.099	5014
927.206	5018
927.312	4984
927.419	5037
927.525	4972
927.631	4965
927.737	4911
927.843	4885
927.95	4767
928.056	4805
928.162	4873
928.267	4889
928.373	5341
928.479	4877
928.585	4683
928.69	4752
928.796	4736
928.901	4675
929.007	4634
929.112	4664
929.218	4656
929.323	4634
929.428	4592
929.533	4729
929.638	4523
929.743	4550
929.848	4558
929.953	4519
930.058	4436
930.163	4383
930.267	4337
930.372	4413
930.477	4303
930.581	4462
930.685	4352
930.79	4265
930.894	4303
930.998	4227
931.103	4371
931.207	4154
931.311	4105
931.415	4029
931.519	3945
931.623	3956
