Data from glass_V78500241_390.txt Node
Date: Wed Sep 01 19:17:12 CST 2021
User: usil
Spectrometer: V785-0024
Trigger mode: 0
Integration Time (sec): 4.000000E-1
Scans to average: 1
Nonlinearity correction enabled: false
Boxcar width: 0
Storing dark spectrum: false
XAxis mode: Wavelengths
Number of Pixels in Spectrum: 1024
>>>>>Begin Spectral Data<<<<<
801.071	3785
801.214	3804
801.356	3747
801.499	3705
801.641	3743
801.783	3778
801.926	3888
802.068	3869
802.211	3861
802.353	3869
802.496	3884
802.638	3903
802.78	3892
802.923	3930
803.065	3930
803.208	3876
803.35	3899
803.492	3941
803.635	3964
803.777	3846
803.919	3907
804.061	4200
804.204	3968
804.346	3964
804.488	3930
804.63	3994
804.773	4029
804.915	3994
805.057	4147
805.199	4048
805.341	4097
805.483	4116
805.626	4162
805.768	4150
805.91	4253
806.052	4238
806.194	4196
806.336	4394
806.478	4215
806.62	4188
806.762	4158
806.904	4246
807.046	4375
807.188	4223
807.33	4230
807.472	4280
807.614	4207
807.756	4272
807.898	4230
808.04	4211
808.182	4322
808.324	4344
808.465	4447
808.607	4485
808.749	4500
808.891	4489
809.033	4485
809.174	4421
809.316	4268
809.458	4257
809.6	4169
809.741	4162
809.883	4147
810.025	4211
810.166	4188
810.308	4268
810.45	4246
810.591	4227
810.733	4291
810.875	4497
811.016	4824
811.158	5159
811.299	5239
811.441	5277
811.582	5124
811.724	4725
811.865	4497
812.007	4462
812.148	4386
812.29	4447
812.431	4436
812.573	4371
812.714	4390
812.855	4424
812.997	4402
813.138	4508
813.279	4432
813.421	4421
813.562	4402
813.703	4344
813.845	4322
813.986	4276
814.127	4234
814.268	4341
814.41	4329
814.551	4284
814.692	4325
814.833	4284
814.974	4291
815.115	4375
815.256	4276
815.397	4238
815.539	4261
815.68	4211
815.821	4227
815.962	4242
816.103	4276
816.244	4268
816.385	4280
816.526	4276
816.666	4230
816.807	4093
816.948	4173
817.089	4177
817.23	4082
817.371	4051
817.512	4071
817.653	4078
817.793	4044
817.934	4040
818.075	4120
818.216	4120
818.356	4082
818.497	4032
818.638	3918
818.778	3899
818.919	3899
819.06	3930
819.2	3911
819.341	3903
819.481	3842
819.622	3922
819.762	4048
819.903	3998
820.043	3854
820.184	3846
820.324	3823
820.465	3903
820.605	3869
820.746	3854
820.886	3854
821.026	3934
821.167	3934
821.307	3975
821.447	3983
821.588	3941
821.728	3934
821.868	3968
822.008	3835
822.149	3941
822.289	3926
822.429	3804
822.569	3778
822.709	3812
822.849	3732
822.99	3724
823.13	3774
823.27	3774
823.41	3793
823.55	3755
823.69	3732
823.83	3724
823.97	3698
824.11	3591
824.25	3606
824.389	3671
824.529	3675
824.669	3652
824.809	3770
824.949	3770
825.089	3732
825.228	3717
825.368	3599
825.508	3625
825.648	3603
825.787	3603
825.927	3652
826.067	3625
826.206	3701
826.346	3793
826.485	3831
826.625	3918
826.765	3983
826.904	3842
827.044	3580
827.183	3523
827.323	3439
827.462	3519
827.601	3481
827.741	3435
827.88	3443
828.02	3348
828.159	3450
828.298	3492
828.437	3576
828.577	3458
828.716	3603
828.855	3492
828.994	3367
829.134	3386
829.273	3382
829.412	3325
829.551	3359
829.69	3367
829.829	3447
829.968	3526
830.107	3458
830.246	3496
830.385	3405
830.524	3389
830.663	3298
830.802	3256
830.941	3195
831.08	3226
831.219	3272
831.357	3283
831.496	3439
831.635	3294
831.774	3226
831.913	3222
832.051	3135
832.19	3131
832.329	3226
832.467	3176
832.606	3127
832.744	3161
832.883	3195
833.022	3188
833.16	3241
833.299	3329
833.437	3332
833.576	3382
833.714	3439
833.852	3466
833.991	3431
834.129	3477
834.267	3450
834.406	3393
834.544	3447
834.682	3428
834.821	3439
834.959	3568
835.097	3424
835.235	3526
835.373	3519
835.511	3538
835.65	3469
835.788	3507
835.926	3393
836.064	3389
836.202	3462
836.34	3572
836.478	3625
836.615	3549
836.753	3606
836.891	3679
837.029	3572
837.167	3614
837.305	3618
837.443	3572
837.58	3511
837.718	3576
837.856	3549
837.993	3576
838.131	3606
838.269	3595
838.406	3595
838.544	3595
838.681	3462
838.819	3469
838.956	3367
839.094	3412
839.231	3431
839.369	3549
839.506	3724
839.643	3656
839.781	3485
839.918	3473
840.055	3564
840.193	3504
840.33	3549
840.467	3564
840.604	3629
840.742	3808
840.879	3553
841.016	3606
841.153	3614
841.29	3751
841.427	3747
841.564	3759
841.701	3743
841.838	3732
841.975	3694
842.112	3755
842.249	3622
842.385	3648
842.522	3823
842.659	3709
842.796	3637
842.933	3736
843.069	3720
843.206	3747
843.343	3816
843.479	3759
843.616	3812
843.752	3698
843.889	3675
844.025	3899
844.162	3740
844.298	3842
844.435	3812
844.571	3770
844.708	3892
844.844	4002
844.98	3991
845.117	3975
845.253	3926
845.389	3926
845.525	3975
845.661	3991
845.798	3945
845.934	3975
846.07	3968
846.206	4059
846.342	4154
846.478	4101
846.614	3964
846.75	3960
846.886	3934
847.022	4032
847.158	3991
847.294	4010
847.429	4029
847.565	3975
847.701	4204
847.837	3926
847.972	3873
848.108	3994
848.244	3964
848.379	3884
848.515	3808
848.65	3816
848.786	3892
848.921	3842
849.057	3968
849.192	3964
849.328	3896
849.463	3983
849.598	3915
849.734	3850
849.869	3846
850.004	3781
850.14	3831
850.275	3827
850.41	3785
850.545	3789
850.68	3781
850.815	3800
850.95	3793
851.085	3979
851.22	3892
851.355	3850
851.49	3835
851.625	3838
851.76	3835
851.895	3770
852.03	3736
852.165	3838
852.299	3850
852.434	3945
852.569	3907
852.703	3899
852.838	3975
852.973	4017
853.107	4036
853.242	3922
853.376	3922
853.511	3812
853.645	3827
853.78	4010
853.914	3896
854.048	3945
854.183	3865
854.317	3934
854.451	4071
854.585	3998
854.72	3941
854.854	4078
854.988	3937
855.122	4010
855.256	3953
855.39	4051
855.524	4112
855.658	4120
855.792	4120
855.926	4204
856.06	4196
856.194	4219
856.327	4166
856.461	4147
856.595	4211
856.729	4181
856.862	4265
856.996	4284
857.13	4303
857.263	4375
857.397	4348
857.53	4314
857.664	4344
857.797	4413
857.931	4443
858.064	4409
858.197	4489
858.331	4413
858.464	4421
858.597	4344
858.731	4432
858.864	4462
858.997	4432
859.13	4542
859.263	4577
859.396	4573
859.529	4516
859.662	4535
859.795	4542
859.928	4630
860.061	4744
860.194	4767
860.327	4691
860.46	4656
860.592	4748
860.725	4725
860.858	4797
860.99	4687
861.123	4710
861.256	4691
861.388	4782
861.521	5436
861.653	4778
861.786	4710
861.918	4752
862.05	4805
862.183	4854
862.315	4885
862.447	4949
862.58	4942
862.712	4767
862.844	4782
862.976	4900
863.108	4923
863.24	5258
863.372	4816
863.504	4965
863.636	4923
863.768	4938
863.9	5045
864.032	4968
864.164	4976
864.296	5067
864.428	5098
864.559	5098
864.691	5132
864.823	5166
864.954	5174
865.086	5136
865.217	5166
865.349	5124
865.48	5185
865.612	5216
865.743	5303
865.875	5235
866.006	5212
866.137	5239
866.269	5246
866.4	5239
866.531	5296
866.662	5273
866.793	5258
866.924	5326
867.055	5330
867.186	5326
867.317	5345
867.448	5372
867.579	5318
867.71	5341
867.841	5421
867.972	5497
868.103	5501
868.233	5532
868.364	5516
868.495	5562
868.625	5688
868.756	5775
868.886	5680
869.017	5718
869.147	5840
869.278	5878
869.408	5832
869.539	5866
869.669	5916
869.799	5931
869.929	5999
870.06	6049
870.19	6163
870.32	6190
870.45	6247
870.58	6369
870.71	6422
870.84	6517
870.97	6456
871.1	6422
871.23	6688
871.36	6730
871.489	6692
871.619	6791
871.749	6776
871.879	6878
872.008	6993
872.138	6977
872.267	7034
872.397	7015
872.526	7046
872.656	7126
872.785	7194
872.915	7438
873.044	7563
873.173	7578
873.303	7655
873.432	7719
873.561	7890
873.69	7841
873.819	8031
873.948	8142
874.077	8248
874.206	8336
874.335	8461
874.464	8674
874.593	8880
874.722	8872
874.851	9184
874.979	9195
875.108	9458
875.237	9420
875.365	9469
875.494	9656
875.623	9854
875.751	9812
875.88	10055
876.008	10078
876.136	10287
876.265	10447
876.393	10714
876.521	10694
876.65	10858
876.778	10858
876.906	10896
877.034	10972
877.162	11143
877.29	11136
877.418	11379
877.546	11410
877.674	11433
877.802	11444
877.93	11509
878.058	11581
878.185	11570
878.313	11703
878.441	11688
878.568	11752
878.696	11821
878.824	11832
878.951	11916
879.079	12041
879.206	12133
879.333	11965
879.461	11992
879.588	12114
879.715	12102
879.842	12175
879.97	12068
880.097	11893
880.224	11847
880.351	11863
880.478	11863
880.605	11885
880.732	11805
880.859	12034
880.986	11836
881.112	11851
881.239	11722
881.366	11699
881.493	11627
881.619	11623
881.746	11611
881.872	11516
881.999	11474
882.125	11467
882.252	11539
882.378	11592
882.505	11509
882.631	11334
882.757	11337
882.883	11395
883.01	11277
883.136	11128
883.262	11052
883.388	11140
883.514	11140
883.64	11136
883.766	11132
883.892	10961
884.018	10953
884.143	11086
884.269	11079
884.395	10847
884.52	10755
884.646	10809
884.772	10736
884.897	10691
885.023	10702
885.148	10717
885.274	10790
885.399	10786
885.524	10558
885.65	10694
885.775	10519
885.9	10512
886.025	10519
886.15	10687
886.275	10519
886.4	10455
886.525	10447
886.65	10314
886.775	10333
886.9	10459
887.025	10493
887.149	10382
887.274	10265
887.399	10215
887.523	10154
887.648	10143
887.773	10150
887.897	10310
888.021	10230
888.146	10147
888.27	10318
888.395	10131
888.519	10177
888.643	10143
888.767	10215
888.891	10097
889.015	10013
889.139	10048
889.263	9953
889.387	10078
889.511	10101
889.635	10131
889.759	9934
889.883	9983
890.006	9949
890.13	10101
890.254	9922
890.377	9930
890.501	9884
890.624	9922
890.748	9922
890.871	9755
890.995	9774
891.118	9709
891.241	9759
891.364	9755
891.488	9854
891.611	9793
891.734	9751
891.857	9774
891.98	9808
892.103	9785
892.226	9713
892.349	9656
892.471	9568
892.594	9648
892.717	9637
892.839	9625
892.962	9564
893.085	9717
893.207	9572
893.33	9488
893.452	9488
893.575	9523
893.697	9492
893.819	9599
893.941	9542
894.064	9530
894.186	9443
894.308	9549
894.43	9587
894.552	9507
894.674	9458
894.796	9378
894.918	9367
895.04	9378
895.161	9386
895.283	9260
895.405	9260
895.526	9279
895.648	9313
895.769	9355
895.891	9245
896.012	9283
896.134	9173
896.255	9226
896.376	9085
896.498	9089
896.619	9157
896.74	9077
896.861	9077
896.982	9237
897.103	9336
897.224	9135
897.345	9020
897.466	9001
897.587	9051
897.708	9123
897.828	9081
897.949	8963
898.07	8887
898.19	8960
898.311	9005
898.431	8899
898.552	8952
898.672	9005
898.792	8944
898.913	8880
899.033	8834
899.153	8731
899.273	8670
899.393	8693
899.513	8773
899.633	8781
899.753	8689
899.873	8716
899.993	8697
900.113	8716
900.232	8682
900.352	8697
900.472	8610
900.591	8492
900.711	8629
900.83	8533
900.95	8606
901.069	8777
901.189	8552
901.308	8446
901.427	8366
901.546	8457
901.665	8427
901.784	8446
901.904	8396
902.023	8286
902.141	8240
902.26	8225
902.379	8267
902.498	8206
902.617	8256
902.735	8294
902.854	8298
902.973	8332
903.091	8138
903.21	8130
903.328	8161
903.446	8115
903.565	8103
903.683	8043
903.801	8035
903.919	8172
904.038	8134
904.156	8024
904.274	8138
904.392	8012
904.51	8119
904.627	8008
904.745	8126
904.863	8130
904.981	7917
905.098	7868
905.216	7887
905.334	7921
905.451	7894
905.569	7871
905.686	7955
905.803	7989
905.921	7776
906.038	7883
906.155	7807
906.272	7723
906.389	7750
906.506	7655
906.623	7662
906.74	7594
906.857	7582
906.974	7636
907.091	7696
907.208	7727
907.324	7639
907.441	7613
907.557	7525
907.674	7460
907.79	7415
907.907	7400
908.023	7499
908.139	7411
908.256	7308
908.372	7369
908.488	7358
908.604	7236
908.72	7266
908.836	7251
908.952	7282
909.068	7259
909.184	7270
909.3	7251
909.415	7285
909.531	7308
909.647	7168
909.762	7080
909.878	7126
909.993	7129
910.108	7137
910.224	7080
910.339	7084
910.454	7053
910.57	7080
910.685	7046
910.8	7145
910.915	7076
911.03	7012
911.145	6905
911.259	6913
911.374	6932
911.489	6825
911.604	6871
911.718	6688
911.833	6738
911.947	6650
912.062	6627
912.176	6703
912.291	6719
912.405	6696
912.519	6787
912.633	6806
912.748	6741
912.862	6665
912.976	6646
913.09	6506
913.204	6566
913.318	6696
913.431	6730
913.545	6692
913.659	6753
913.772	6719
913.886	6578
914	6555
914.113	6681
914.226	6654
914.34	6631
914.453	6517
914.566	6570
914.68	6604
914.793	6502
914.906	6429
915.019	6391
915.132	6384
915.245	6437
915.358	6498
915.47	6467
915.583	6426
915.696	6498
915.809	6597
915.921	6536
916.034	6448
916.146	6486
916.259	6414
916.371	6445
916.483	6399
916.595	6422
916.708	6479
916.82	6437
916.932	6399
917.044	6426
917.156	6437
917.268	6315
917.38	6372
917.491	6311
917.603	6399
917.715	6437
917.826	6422
917.938	6304
918.049	6258
918.161	6372
918.272	6369
918.384	6399
918.495	6334
918.606	6270
918.717	6243
918.828	6289
918.939	6281
919.05	6190
919.161	6258
919.272	6079
919.383	6167
919.494	6304
919.604	6433
919.715	6308
919.826	6251
919.936	6247
920.047	6315
920.157	6258
920.267	6433
920.378	6334
920.488	6357
920.598	6490
920.708	6528
920.818	6422
920.928	6502
921.038	6593
921.148	6608
921.258	6384
921.368	6319
921.477	6266
921.587	6194
921.697	6072
921.806	6194
921.916	6106
922.025	5893
922.134	5977
922.244	5878
922.353	5980
922.462	5821
922.571	5859
922.68	5710
922.789	5726
922.898	5771
923.007	5638
923.116	5680
923.224	5684
923.333	5676
923.442	5615
923.55	5570
923.659	5581
923.767	5608
923.876	5585
923.984	5611
924.092	5532
924.201	5600
924.309	5543
924.417	5543
924.525	5558
924.633	5512
924.741	6338
924.849	5376
924.956	5467
925.064	5368
925.172	5334
925.279	5299
925.387	5402
925.494	5330
925.602	5402
925.709	5398
925.816	5296
925.924	5372
926.031	5349
926.138	5322
926.245	5379
926.352	5246
926.459	5315
926.566	5299
926.673	5178
926.779	5181
926.886	5140
926.993	5003
927.099	5014
927.206	5014
927.312	4965
927.419	5003
927.525	4999
927.631	4995
927.737	4930
927.843	4850
927.95	4786
928.056	4824
928.162	4824
928.267	4843
928.373	5307
928.479	4835
928.585	4714
928.69	4828
928.796	4793
928.901	4649
929.007	4599
929.112	4607
929.218	4626
929.323	4664
929.428	4592
929.533	4714
929.638	4573
929.743	4550
929.848	4577
929.953	4599
930.058	4474
930.163	4337
930.267	4375
930.372	4447
930.477	4318
930.581	4519
930.685	4409
930.79	4314
930.894	4310
930.998	4249
931.103	4413
931.207	4093
931.311	4139
931.415	4120
931.519	3892
931.623	3972
