Data from glass_V78500241_477.txt Node
Date: Wed Sep 01 19:17:48 CST 2021
User: usil
Spectrometer: V785-0024
Trigger mode: 0
Integration Time (sec): 4.000000E-1
Scans to average: 1
Nonlinearity correction enabled: false
Boxcar width: 0
Storing dark spectrum: false
XAxis mode: Wavelengths
Number of Pixels in Spectrum: 1024
>>>>>Begin Spectral Data<<<<<
801.071	3732
801.214	3804
801.356	3713
801.499	3740
801.641	3740
801.783	3774
801.926	3846
802.068	3793
802.211	3857
802.353	3903
802.496	3903
802.638	3876
802.78	3911
802.923	3926
803.065	3937
803.208	3876
803.35	3911
803.492	3937
803.635	3880
803.777	3800
803.919	3907
804.061	4223
804.204	3994
804.346	3956
804.488	3979
804.63	4040
804.773	3979
804.915	4071
805.057	4177
805.199	4040
805.341	4131
805.483	4173
805.626	4082
805.768	4086
805.91	4223
806.052	4211
806.194	4238
806.336	4383
806.478	4291
806.62	4162
806.762	4147
806.904	4280
807.046	4341
807.188	4200
807.33	4185
807.472	4257
807.614	4204
807.756	4287
807.898	4207
808.04	4200
808.182	4272
808.324	4337
808.465	4386
808.607	4478
808.749	4470
808.891	4470
809.033	4577
809.174	4436
809.316	4306
809.458	4280
809.6	4128
809.741	4177
809.883	4124
810.025	4211
810.166	4181
810.308	4265
810.45	4265
810.591	4234
810.733	4299
810.875	4527
811.016	4824
811.158	5166
811.299	5269
811.441	5315
811.582	5090
811.724	4672
811.865	4474
812.007	4504
812.148	4428
812.29	4405
812.431	4428
812.573	4440
812.714	4371
812.855	4424
812.997	4383
813.138	4519
813.279	4436
813.421	4375
813.562	4405
813.703	4344
813.845	4360
813.986	4272
814.127	4246
814.268	4310
814.41	4322
814.551	4280
814.692	4341
814.833	4257
814.974	4303
815.115	4360
815.256	4272
815.397	4253
815.539	4284
815.68	4192
815.821	4261
815.962	4337
816.103	4268
816.244	4246
816.385	4268
816.526	4261
816.666	4219
816.807	4139
816.948	4162
817.089	4166
817.23	4185
817.371	4071
817.512	4071
817.653	4109
817.793	4055
817.934	4044
818.075	4150
818.216	4139
818.356	4086
818.497	4040
818.638	3896
818.778	3930
818.919	3915
819.06	3876
819.2	3899
819.341	3857
819.481	3819
819.622	3907
819.762	4036
819.903	3972
820.043	3915
820.184	3831
820.324	3846
820.465	3903
820.605	3915
820.746	3880
820.886	3759
821.026	3983
821.167	3911
821.307	4029
821.447	3991
821.588	3949
821.728	3945
821.868	3960
822.008	3884
822.149	3915
822.289	3953
822.429	3785
822.569	3804
822.709	3785
822.849	3694
822.99	3759
823.13	3740
823.27	3812
823.41	3743
823.55	3740
823.69	3743
823.83	3717
823.97	3682
824.11	3637
824.25	3584
824.389	3679
824.529	3690
824.669	3644
824.809	3720
824.949	3747
825.089	3755
825.228	3709
825.368	3599
825.508	3557
825.648	3599
825.787	3625
825.927	3641
826.067	3641
826.206	3663
826.346	3800
826.485	3842
826.625	3884
826.765	3979
826.904	3865
827.044	3580
827.183	3530
827.323	3443
827.462	3481
827.601	3416
827.741	3458
827.88	3485
828.02	3382
828.159	3454
828.298	3504
828.437	3557
828.577	3488
828.716	3599
828.855	3526
828.994	3367
829.134	3367
829.273	3397
829.412	3336
829.551	3355
829.69	3389
829.829	3447
829.968	3515
830.107	3469
830.246	3435
830.385	3393
830.524	3374
830.663	3294
830.802	3268
830.941	3211
831.08	3214
831.219	3291
831.357	3283
831.496	3393
831.635	3256
831.774	3218
831.913	3230
832.051	3165
832.19	3192
832.329	3195
832.467	3146
832.606	3119
832.744	3161
832.883	3184
833.022	3241
833.16	3264
833.299	3325
833.437	3374
833.576	3386
833.714	3409
833.852	3443
833.991	3500
834.129	3526
834.267	3473
834.406	3409
834.544	3420
834.682	3450
834.821	3431
834.959	3572
835.097	3458
835.235	3572
835.373	3492
835.511	3504
835.65	3469
835.788	3511
835.926	3378
836.064	3378
836.202	3405
836.34	3557
836.478	3625
836.615	3553
836.753	3584
836.891	3663
837.029	3652
837.167	3641
837.305	3587
837.443	3542
837.58	3557
837.718	3599
837.856	3576
837.993	3504
838.131	3622
838.269	3606
838.406	3614
838.544	3580
838.681	3469
838.819	3443
838.956	3401
839.094	3389
839.231	3466
839.369	3542
839.506	3755
839.643	3652
839.781	3473
839.918	3485
840.055	3542
840.193	3553
840.33	3561
840.467	3557
840.604	3663
840.742	3823
840.879	3530
841.016	3580
841.153	3580
841.29	3800
841.427	3717
841.564	3762
841.701	3740
841.838	3740
841.975	3720
842.112	3732
842.249	3652
842.385	3648
842.522	3842
842.659	3724
842.796	3679
842.933	3728
843.069	3694
843.206	3736
843.343	3785
843.479	3816
843.616	3797
843.752	3728
843.889	3694
844.025	3850
844.162	3701
844.298	3850
844.435	3785
844.571	3819
844.708	3903
844.844	4017
844.98	4013
845.117	3998
845.253	3930
845.389	3915
845.525	3975
845.661	3956
845.798	3945
845.934	4029
846.07	3937
846.206	4025
846.342	4109
846.478	4101
846.614	3964
846.75	3968
846.886	3930
847.022	4051
847.158	3960
847.294	4029
847.429	4021
847.565	4002
847.701	4234
847.837	3850
847.972	3907
848.108	3964
848.244	3983
848.379	3876
848.515	3835
848.65	3850
848.786	3876
848.921	3896
849.057	3899
849.192	3972
849.328	3903
849.463	3922
849.598	3899
849.734	3861
849.869	3869
850.004	3835
850.14	3846
850.275	3755
850.41	3785
850.545	3755
850.68	3789
850.815	3781
850.95	3778
851.085	3956
851.22	3903
851.355	3819
851.49	3789
851.625	3831
851.76	3797
851.895	3766
852.03	3774
852.165	3816
852.299	3835
852.434	3960
852.569	3854
852.703	3873
852.838	3972
852.973	4002
853.107	4029
853.242	3861
853.376	3819
853.511	3770
853.645	3827
853.78	3983
853.914	3873
854.048	3911
854.183	3876
854.317	3991
854.451	4071
854.585	3964
854.72	3987
854.854	4093
854.988	3949
855.122	4010
855.256	3949
855.39	4021
855.524	4139
855.658	4093
855.792	4135
855.926	4169
856.06	4181
856.194	4196
856.327	4150
856.461	4150
856.595	4169
856.729	4166
856.862	4306
856.996	4268
857.13	4314
857.263	4333
857.397	4360
857.53	4287
857.664	4356
857.797	4341
857.931	4386
858.064	4402
858.197	4478
858.331	4405
858.464	4409
858.597	4371
858.731	4440
858.864	4417
858.997	4470
859.13	4561
859.263	4550
859.396	4588
859.529	4531
859.662	4580
859.795	4508
859.928	4618
860.061	4702
860.194	4763
860.327	4611
860.46	4679
860.592	4740
860.725	4740
860.858	4771
860.99	4710
861.123	4679
861.256	4714
861.388	4828
861.521	5535
861.653	4744
861.786	4660
861.918	4797
862.05	4850
862.183	4885
862.315	4896
862.447	4923
862.58	4877
862.712	4847
862.844	4740
862.976	4881
863.108	4915
863.24	5185
863.372	4866
863.504	4938
863.636	4885
863.768	4961
863.9	4968
864.032	4923
864.164	4968
864.296	5048
864.428	5109
864.559	5117
864.691	5102
864.823	5140
864.954	5113
865.086	5128
865.217	5121
865.349	5166
865.48	5181
865.612	5178
865.743	5322
865.875	5239
866.006	5185
866.137	5246
866.269	5235
866.4	5269
866.531	5269
866.662	5208
866.793	5242
866.924	5273
867.055	5383
867.186	5322
867.317	5357
867.448	5280
867.579	5433
867.71	5429
867.841	5398
867.972	5440
868.103	5486
868.233	5516
868.364	5509
868.495	5524
868.625	5684
868.756	5828
868.886	5676
869.017	5760
869.147	5931
869.278	5897
869.408	5828
869.539	5874
869.669	5969
869.799	5958
869.929	5965
870.06	6041
870.19	6163
870.32	6163
870.45	6232
870.58	6357
870.71	6433
870.84	6422
870.97	6475
871.1	6475
871.23	6627
871.36	6703
871.489	6700
871.619	6757
871.749	6829
871.879	6856
872.008	6996
872.138	6996
872.267	7042
872.397	7023
872.526	7057
872.656	7168
872.785	7198
872.915	7422
873.044	7575
873.173	7597
873.303	7727
873.432	7738
873.561	7860
873.69	7917
873.819	7951
873.948	8142
874.077	8225
874.206	8328
874.335	8431
874.464	8712
874.593	8861
874.722	8971
874.851	9146
874.979	9268
875.108	9279
875.237	9401
875.365	9454
875.494	9637
875.623	9907
875.751	9819
875.88	10063
876.008	10162
876.136	10280
876.265	10428
876.393	10771
876.521	10752
876.65	10786
876.778	10911
876.906	10858
877.034	11037
877.162	11067
877.29	11239
877.418	11345
877.546	11379
877.674	11391
877.802	11486
877.93	11497
878.058	11608
878.185	11554
878.313	11680
878.441	11786
878.568	11718
878.696	11756
878.824	11851
878.951	11954
879.079	12015
879.206	12041
879.333	12076
879.461	11999
879.588	12095
879.715	12087
879.842	12296
879.97	12068
880.097	11904
880.224	11965
880.351	11931
880.478	11931
880.605	11863
880.732	11840
880.859	12049
880.986	11813
881.112	11908
881.239	11726
881.366	11676
881.493	11668
881.619	11509
881.746	11478
881.872	11615
881.999	11528
882.125	11417
882.252	11570
882.378	11482
882.505	11512
882.631	11368
882.757	11356
882.883	11322
883.01	11303
883.136	11231
883.262	11113
883.388	11128
883.514	11223
883.64	11170
883.766	11162
883.892	10934
884.018	10965
884.143	11181
884.269	11113
884.395	10908
884.52	10790
884.646	10759
884.772	10714
884.897	10748
885.023	10626
885.148	10748
885.274	10771
885.399	10740
885.524	10656
885.65	10512
885.775	10702
885.9	10573
886.025	10584
886.15	10516
886.275	10428
886.4	10402
886.525	10375
886.65	10363
886.775	10348
886.9	10466
887.025	10462
887.149	10413
887.274	10268
887.399	10234
887.523	10158
887.648	10135
887.773	10071
887.897	10162
888.021	10242
888.146	10128
888.27	10211
888.395	10246
888.519	10223
888.643	10162
888.767	10154
888.891	10051
889.015	10048
889.139	9998
889.263	9968
889.387	10090
889.511	10086
889.635	10063
889.759	9998
889.883	9975
890.006	10002
890.13	10055
890.254	9956
890.377	9968
890.501	9911
890.624	9823
890.748	9903
890.871	9778
890.995	9781
891.118	9793
891.241	9785
891.364	9800
891.488	9827
891.611	9698
891.734	9812
891.857	9785
891.98	9747
892.103	9770
892.226	9751
892.349	9671
892.471	9584
892.594	9656
892.717	9618
892.839	9675
892.962	9720
893.085	9679
893.207	9591
893.33	9534
893.452	9557
893.575	9648
893.697	9492
893.819	9576
893.941	9606
894.064	9591
894.186	9450
894.308	9378
894.43	9568
894.552	9557
894.674	9534
894.796	9374
894.918	9428
895.04	9344
895.161	9336
895.283	9386
895.405	9291
895.526	9283
895.648	9253
895.769	9272
895.891	9237
896.012	9294
896.134	9211
896.255	9199
896.376	9131
896.498	9218
896.619	9135
896.74	9074
896.861	9093
896.982	9279
897.103	9344
897.224	9230
897.345	9055
897.466	9051
897.587	8982
897.708	9077
897.828	9009
897.949	9005
898.07	8918
898.19	8880
898.311	8960
898.431	8921
898.552	8944
898.672	9020
898.792	8963
898.913	8967
899.033	8891
899.153	8746
899.273	8689
899.393	8686
899.513	8758
899.633	8788
899.753	8807
899.873	8655
899.993	8769
900.113	8724
900.232	8667
900.352	8610
900.472	8670
900.591	8549
900.711	8568
900.83	8549
900.95	8686
901.069	8655
901.189	8587
901.308	8423
901.427	8404
901.546	8469
901.665	8518
901.784	8518
901.904	8396
902.023	8324
902.141	8263
902.26	8206
902.379	8237
902.498	8263
902.617	8237
902.735	8358
902.854	8279
902.973	8206
903.091	8187
903.21	8123
903.328	8180
903.446	8134
903.565	8043
903.683	8168
903.801	8024
903.919	8100
904.038	8153
904.156	8012
904.274	8073
904.392	8027
904.51	8020
904.627	8027
904.745	8138
904.863	8123
904.981	7932
905.098	7932
905.216	7890
905.334	7856
905.451	7883
905.569	7883
905.686	7955
905.803	7982
905.921	7799
906.038	7864
906.155	7856
906.272	7719
906.389	7658
906.506	7594
906.623	7685
906.74	7575
906.857	7597
906.974	7548
907.091	7696
907.208	7731
907.324	7655
907.441	7514
907.557	7468
907.674	7430
907.79	7460
907.907	7426
908.023	7548
908.139	7457
908.256	7392
908.372	7369
908.488	7388
908.604	7240
908.72	7266
908.836	7320
908.952	7251
909.068	7206
909.184	7293
909.3	7316
909.415	7285
909.531	7297
909.647	7107
909.762	7160
909.878	7122
909.993	7175
910.108	7110
910.224	7103
910.339	7175
910.454	7122
910.57	7004
910.685	6924
910.8	7232
910.915	7126
911.03	7031
911.145	6863
911.259	6878
911.374	6871
911.489	6886
911.604	6787
911.718	6703
911.833	6738
911.947	6681
912.062	6608
912.176	6772
912.291	6802
912.405	6768
912.519	6852
912.633	6795
912.748	6753
912.862	6719
912.976	6589
913.09	6555
913.204	6563
913.318	6620
913.431	6696
913.545	6688
913.659	6764
913.772	6642
913.886	6570
914	6585
914.113	6639
914.226	6677
914.34	6662
914.453	6525
914.566	6631
914.68	6513
914.793	6540
914.906	6441
915.019	6426
915.132	6429
915.245	6372
915.358	6486
915.47	6464
915.583	6475
915.696	6441
915.809	6517
915.921	6582
916.034	6441
916.146	6403
916.259	6380
916.371	6441
916.483	6467
916.595	6410
916.708	6361
916.82	6460
916.932	6372
917.044	6380
917.156	6391
917.268	6323
917.38	6357
917.491	6361
917.603	6380
917.715	6464
917.826	6418
917.938	6331
918.049	6251
918.161	6384
918.272	6441
918.384	6502
918.495	6334
918.606	6281
918.717	6194
918.828	6243
918.939	6289
919.05	6270
919.161	6186
919.272	6110
919.383	6136
919.494	6327
919.604	6433
919.715	6346
919.826	6197
919.936	6323
920.047	6353
920.157	6251
920.267	6471
920.378	6361
920.488	6266
920.598	6445
920.708	6570
920.818	6509
920.928	6471
921.038	6635
921.148	6627
921.258	6391
921.368	6315
921.477	6235
921.587	6232
921.697	6136
921.806	6216
921.916	6019
922.025	6026
922.134	5965
922.244	5882
922.353	5958
922.462	5847
922.571	5813
922.68	5707
922.789	5691
922.898	5691
923.007	5703
923.116	5718
923.224	5672
923.333	5699
923.442	5585
923.55	5665
923.659	5600
923.767	5604
923.876	5554
923.984	5627
924.092	5505
924.201	5558
924.309	5547
924.417	5570
924.525	5520
924.633	5524
924.741	6277
924.849	5440
924.956	5482
925.064	5345
925.172	5353
925.279	5330
925.387	5376
925.494	5376
925.602	5448
925.709	5383
925.816	5277
925.924	5364
926.031	5372
926.138	5318
926.245	5303
926.352	5220
926.459	5288
926.566	5376
926.673	5250
926.779	5189
926.886	5124
926.993	5048
927.099	5079
927.206	4965
927.312	4953
927.419	5018
927.525	4987
927.631	4987
927.737	4835
927.843	4870
927.95	4812
928.056	4847
928.162	4805
928.267	4885
928.373	5265
928.479	4885
928.585	4675
928.69	4805
928.796	4790
928.901	4675
929.007	4573
929.112	4691
929.218	4630
929.323	4626
929.428	4569
929.533	4679
929.638	4558
929.743	4538
929.848	4569
929.953	4550
930.058	4443
930.163	4344
930.267	4352
930.372	4447
930.477	4344
930.581	4489
930.685	4329
930.79	4284
930.894	4280
930.998	4295
931.103	4405
931.207	4109
931.311	4150
931.415	4063
931.519	3941
931.623	3945
