Data from glass_V78500241_2582.txt Node
Date: Wed Sep 01 19:32:23 CST 2021
User: usil
Spectrometer: V785-0024
Trigger mode: 0
Integration Time (sec): 4.000000E-1
Scans to average: 1
Nonlinearity correction enabled: false
Boxcar width: 0
Storing dark spectrum: false
XAxis mode: Wavelengths
Number of Pixels in Spectrum: 1024
>>>>>Begin Spectral Data<<<<<
801.071	3740
801.214	3736
801.356	3682
801.499	3682
801.641	3759
801.783	3759
801.926	3823
802.068	3781
802.211	3816
802.353	3884
802.496	3816
802.638	3865
802.78	3880
802.923	3903
803.065	3884
803.208	3888
803.35	3899
803.492	3873
803.635	3876
803.777	3812
803.919	3884
804.061	4124
804.204	3911
804.346	3907
804.488	3956
804.63	4010
804.773	3991
804.915	4021
805.057	4109
805.199	4029
805.341	4063
805.483	4135
805.626	4154
805.768	4116
805.91	4192
806.052	4249
806.194	4173
806.336	4333
806.478	4139
806.62	4147
806.762	4158
806.904	4249
807.046	4337
807.188	4139
807.33	4177
807.472	4188
807.614	4166
807.756	4268
807.898	4173
808.04	4257
808.182	4242
808.324	4306
808.465	4386
808.607	4402
808.749	4440
808.891	4481
809.033	4459
809.174	4379
809.316	4234
809.458	4246
809.6	4158
809.741	4166
809.883	4112
810.025	4257
810.166	4188
810.308	4204
810.45	4188
810.591	4261
810.733	4276
810.875	4474
811.016	4771
811.158	5143
811.299	5299
811.441	5254
811.582	5090
811.724	4733
811.865	4462
812.007	4478
812.148	4432
812.29	4447
812.431	4405
812.573	4402
812.714	4375
812.855	4390
812.997	4428
813.138	4466
813.279	4360
813.421	4398
813.562	4371
813.703	4280
813.845	4306
813.986	4211
814.127	4204
814.268	4249
814.41	4276
814.551	4246
814.692	4306
814.833	4272
814.974	4280
815.115	4344
815.256	4253
815.397	4188
815.539	4276
815.68	4166
815.821	4200
815.962	4272
816.103	4299
816.244	4219
816.385	4211
816.526	4257
816.666	4185
816.807	4078
816.948	4162
817.089	4173
817.23	4128
817.371	4055
817.512	4055
817.653	4059
817.793	4040
817.934	4021
818.075	4082
818.216	4074
818.356	4112
818.497	3987
818.638	3888
818.778	3896
818.919	3865
819.06	3865
819.2	3926
819.341	3846
819.481	3812
819.622	3880
819.762	4029
819.903	3930
820.043	3869
820.184	3808
820.324	3793
820.465	3835
820.605	3850
820.746	3873
820.886	3808
821.026	3918
821.167	3945
821.307	3972
821.447	3956
821.588	3911
821.728	3975
821.868	3945
822.008	3892
822.149	3903
822.289	3926
822.429	3766
822.569	3751
822.709	3800
822.849	3682
822.99	3740
823.13	3781
823.27	3713
823.41	3720
823.55	3743
823.69	3675
823.83	3667
823.97	3675
824.11	3599
824.25	3576
824.389	3633
824.529	3652
824.669	3614
824.809	3713
824.949	3728
825.089	3690
825.228	3682
825.368	3580
825.508	3576
825.648	3549
825.787	3603
825.927	3625
826.067	3584
826.206	3656
826.346	3751
826.485	3831
826.625	3846
826.765	3987
826.904	3838
827.044	3622
827.183	3504
827.323	3435
827.462	3428
827.601	3431
827.741	3386
827.88	3454
828.02	3344
828.159	3405
828.298	3466
828.437	3469
828.577	3447
828.716	3599
828.855	3481
828.994	3431
829.134	3363
829.273	3329
829.412	3348
829.551	3348
829.69	3386
829.829	3443
829.968	3526
830.107	3466
830.246	3409
830.385	3374
830.524	3359
830.663	3283
830.802	3230
830.941	3169
831.08	3169
831.219	3283
831.357	3253
831.496	3428
831.635	3203
831.774	3146
831.913	3173
832.051	3116
832.19	3146
832.329	3226
832.467	3100
832.606	3119
832.744	3176
832.883	3176
833.022	3165
833.16	3237
833.299	3253
833.437	3348
833.576	3389
833.714	3401
833.852	3435
833.991	3435
834.129	3481
834.267	3428
834.406	3393
834.544	3401
834.682	3428
834.821	3428
834.959	3576
835.097	3401
835.235	3473
835.373	3431
835.511	3473
835.65	3466
835.788	3454
835.926	3409
836.064	3401
836.202	3405
836.34	3534
836.478	3568
836.615	3553
836.753	3584
836.891	3648
837.029	3572
837.167	3587
837.305	3572
837.443	3504
837.58	3481
837.718	3591
837.856	3534
837.993	3511
838.131	3599
838.269	3618
838.406	3561
838.544	3568
838.681	3462
838.819	3458
838.956	3378
839.094	3389
839.231	3435
839.369	3523
839.506	3698
839.643	3637
839.781	3488
839.918	3450
840.055	3507
840.193	3519
840.33	3526
840.467	3568
840.604	3595
840.742	3785
840.879	3504
841.016	3545
841.153	3587
841.29	3724
841.427	3679
841.564	3720
841.701	3759
841.838	3644
841.975	3637
842.112	3724
842.249	3641
842.385	3599
842.522	3816
842.659	3663
842.796	3625
842.933	3671
843.069	3675
843.206	3690
843.343	3808
843.479	3781
843.616	3804
843.752	3652
843.889	3671
844.025	3831
844.162	3690
844.298	3850
844.435	3804
844.571	3755
844.708	3876
844.844	3960
844.98	4010
845.117	4063
845.253	3903
845.389	3896
845.525	3941
845.661	3979
845.798	3918
845.934	4025
846.07	3922
846.206	4036
846.342	4112
846.478	4074
846.614	3918
846.75	3911
846.886	3907
847.022	4010
847.158	3949
847.294	4010
847.429	3987
847.565	3998
847.701	4219
847.837	3869
847.972	3861
848.108	3956
848.244	3945
848.379	3831
848.515	3800
848.65	3804
848.786	3827
848.921	3838
849.057	3937
849.192	3956
849.328	3937
849.463	3930
849.598	3838
849.734	3873
849.869	3808
850.004	3804
850.14	3823
850.275	3770
850.41	3728
850.545	3743
850.68	3774
850.815	3793
850.95	3759
851.085	3934
851.22	3842
851.355	3827
851.49	3800
851.625	3770
851.76	3770
851.895	3736
852.03	3690
852.165	3819
852.299	3838
852.434	3880
852.569	3865
852.703	3880
852.838	3956
852.973	4017
853.107	3987
853.242	3865
853.376	3831
853.511	3774
853.645	3842
853.78	3934
853.914	3892
854.048	3896
854.183	3888
854.317	3922
854.451	4071
854.585	3960
854.72	3934
854.854	4002
854.988	3953
855.122	3941
855.256	3896
855.39	4051
855.524	4120
855.658	4059
855.792	4101
855.926	4097
856.06	4177
856.194	4238
856.327	4109
856.461	4105
856.595	4124
856.729	4162
856.862	4249
856.996	4261
857.13	4272
857.263	4333
857.397	4337
857.53	4272
857.664	4379
857.797	4356
857.931	4394
858.064	4371
858.197	4436
858.331	4356
858.464	4394
858.597	4318
858.731	4379
858.864	4440
858.997	4462
859.13	4512
859.263	4554
859.396	4615
859.529	4523
859.662	4527
859.795	4554
859.928	4558
860.061	4698
860.194	4714
860.327	4668
860.46	4637
860.592	4729
860.725	4752
860.858	4782
860.99	4694
861.123	4656
861.256	4668
861.388	4744
861.521	5425
861.653	4706
861.786	4664
861.918	4748
862.05	4782
862.183	4809
862.315	4858
862.447	4923
862.58	4873
862.712	4763
862.844	4767
862.976	4847
863.108	4847
863.24	5185
863.372	4858
863.504	4873
863.636	4885
863.768	4965
863.9	4957
864.032	4923
864.164	4976
864.296	4991
864.428	5064
864.559	5086
864.691	5075
864.823	5121
864.954	5090
865.086	5109
865.217	5098
865.349	5132
865.48	5143
865.612	5185
865.743	5269
865.875	5204
866.006	5147
866.137	5193
866.269	5216
866.4	5223
866.531	5204
866.662	5235
866.793	5201
866.924	5280
867.055	5303
867.186	5311
867.317	5277
867.448	5288
867.579	5353
867.71	5364
867.841	5383
867.972	5452
868.103	5474
868.233	5493
868.364	5535
868.495	5539
868.625	5688
868.756	5771
868.886	5653
869.017	5748
869.147	5764
869.278	5901
869.408	5779
869.539	5798
869.669	5874
869.799	5908
869.929	5923
870.06	6022
870.19	6197
870.32	6178
870.45	6251
870.58	6327
870.71	6410
870.84	6460
870.97	6388
871.1	6395
871.23	6662
871.36	6654
871.489	6650
871.619	6692
871.749	6783
871.879	6856
872.008	6928
872.138	6993
872.267	6977
872.397	6954
872.526	7069
872.656	7084
872.785	7171
872.915	7373
873.044	7571
873.173	7559
873.303	7613
873.432	7750
873.561	7894
873.69	7814
873.819	7974
873.948	8199
874.077	8210
874.206	8320
874.335	8476
874.464	8613
874.593	8883
874.722	8979
874.851	9119
874.979	9154
875.108	9351
875.237	9359
875.365	9492
875.494	9656
875.623	9793
875.751	9842
875.88	10010
876.008	10105
876.136	10242
876.265	10504
876.393	10698
876.521	10706
876.65	10786
876.778	10843
876.906	10946
877.034	10984
877.162	11090
877.29	11136
877.418	11296
877.546	11341
877.674	11376
877.802	11493
877.93	11585
878.058	11509
878.185	11585
878.313	11688
878.441	11737
878.568	11592
878.696	11783
878.824	11764
878.951	11950
879.079	12007
879.206	12098
879.333	12072
879.461	11954
879.588	12030
879.715	12022
879.842	12209
879.97	11961
880.097	11851
880.224	11889
880.351	11961
880.478	11874
880.605	11840
880.732	11790
880.859	12041
880.986	11840
881.112	11752
881.239	11691
881.366	11688
881.493	11558
881.619	11486
881.746	11539
881.872	11604
881.999	11467
882.125	11501
882.252	11600
882.378	11600
882.505	11638
882.631	11326
882.757	11235
882.883	11250
883.01	11277
883.136	11185
883.262	11124
883.388	11121
883.514	11185
883.64	11250
883.766	11086
883.892	10987
884.018	10972
884.143	11151
884.269	11147
884.395	10889
884.52	10771
884.646	10797
884.772	10805
884.897	10645
885.023	10740
885.148	10679
885.274	10687
885.399	10733
885.524	10607
885.65	10626
885.775	10550
885.9	10504
886.025	10611
886.15	10599
886.275	10440
886.4	10341
886.525	10405
886.65	10356
886.775	10382
886.9	10459
887.025	10436
887.149	10352
887.274	10234
887.399	10204
887.523	10223
887.648	10169
887.773	10147
887.897	10188
888.021	10242
888.146	10105
888.27	10253
888.395	10223
888.519	10166
888.643	10101
888.767	10063
888.891	10044
889.015	10067
889.139	10036
889.263	9968
889.387	10013
889.511	10078
889.635	10055
889.759	9960
889.883	9968
890.006	9934
890.13	10055
890.254	9907
890.377	9941
890.501	9785
890.624	9895
890.748	9926
890.871	9724
890.995	9732
891.118	9701
891.241	9736
891.364	9751
891.488	9865
891.611	9720
891.734	9675
891.857	9751
891.98	9656
892.103	9728
892.226	9652
892.349	9603
892.471	9477
892.594	9599
892.717	9603
892.839	9625
892.962	9633
893.085	9557
893.207	9564
893.33	9507
893.452	9511
893.575	9637
893.697	9523
893.819	9538
893.941	9663
894.064	9652
894.186	9408
894.308	9389
894.43	9549
894.552	9625
894.674	9500
894.796	9355
894.918	9386
895.04	9386
895.161	9313
895.283	9355
895.405	9233
895.526	9298
895.648	9256
895.769	9199
895.891	9291
896.012	9253
896.134	9176
896.255	9138
896.376	9135
896.498	9081
896.619	9055
896.74	9051
896.861	9154
896.982	9298
897.103	9313
897.224	9097
897.345	9009
897.466	9047
897.587	9058
897.708	9104
897.828	9051
897.949	8944
898.07	8857
898.19	8929
898.311	9028
898.431	8887
898.552	8944
898.672	8990
898.792	8895
898.913	8899
899.033	8766
899.153	8792
899.273	8575
899.393	8781
899.513	8754
899.633	8716
899.753	8746
899.873	8640
899.993	8724
900.113	8708
900.232	8705
900.352	8629
900.472	8590
900.591	8556
900.711	8564
900.83	8587
900.95	8750
901.069	8670
901.189	8526
901.308	8446
901.427	8347
901.546	8389
901.665	8457
901.784	8503
901.904	8412
902.023	8351
902.141	8240
902.26	8218
902.379	8298
902.498	8259
902.617	8206
902.735	8286
902.854	8218
902.973	8275
903.091	8130
903.21	8138
903.328	8115
903.446	8161
903.565	8100
903.683	8145
903.801	8005
903.919	8092
904.038	8100
904.156	8050
904.274	8096
904.392	8012
904.51	8062
904.627	8107
904.745	8115
904.863	8073
904.981	7951
905.098	7902
905.216	7852
905.334	7868
905.451	7849
905.569	7894
905.686	7849
905.803	7879
905.921	7799
906.038	7879
906.155	7837
906.272	7750
906.389	7700
906.506	7632
906.623	7666
906.74	7655
906.857	7529
906.974	7540
907.091	7651
907.208	7670
907.324	7655
907.441	7540
907.557	7445
907.674	7419
907.79	7377
907.907	7316
908.023	7449
908.139	7392
908.256	7426
908.372	7377
908.488	7346
908.604	7339
908.72	7251
908.836	7282
908.952	7198
909.068	7247
909.184	7244
909.3	7221
909.415	7213
909.531	7270
909.647	7118
909.762	7118
909.878	7038
909.993	7141
910.108	7099
910.224	7099
910.339	7072
910.454	7034
910.57	6989
910.685	6924
910.8	7099
910.915	7141
911.03	7027
911.145	6867
911.259	6829
911.374	6890
911.489	6802
911.604	6772
911.718	6662
911.833	6684
911.947	6627
912.062	6589
912.176	6631
912.291	6753
912.405	6715
912.519	6844
912.633	6821
912.748	6684
912.862	6658
912.976	6616
913.09	6540
913.204	6616
913.318	6589
913.431	6658
913.545	6623
913.659	6688
913.772	6642
913.886	6547
914	6536
914.113	6639
914.226	6726
914.34	6578
914.453	6464
914.566	6616
914.68	6551
914.793	6486
914.906	6418
915.019	6346
915.132	6380
915.245	6388
915.358	6414
915.47	6433
915.583	6407
915.696	6494
915.809	6506
915.921	6479
916.034	6422
916.146	6346
916.259	6426
916.371	6471
916.483	6418
916.595	6407
916.708	6410
916.82	6391
916.932	6376
917.044	6372
917.156	6410
917.268	6304
917.38	6296
917.491	6300
917.603	6369
917.715	6376
917.826	6399
917.938	6308
918.049	6247
918.161	6308
918.272	6334
918.384	6422
918.495	6384
918.606	6277
918.717	6194
918.828	6201
918.939	6232
919.05	6197
919.161	6235
919.272	6152
919.383	6190
919.494	6251
919.604	6452
919.715	6266
919.826	6216
919.936	6277
920.047	6346
920.157	6311
920.267	6452
920.378	6327
920.488	6258
920.598	6433
920.708	6555
920.818	6433
920.928	6486
921.038	6627
921.148	6555
921.258	6292
921.368	6331
921.477	6171
921.587	6110
921.697	6072
921.806	6152
921.916	6041
922.025	5977
922.134	5885
922.244	5863
922.353	5923
922.462	5866
922.571	5817
922.68	5680
922.789	5688
922.898	5661
923.007	5661
923.116	5703
923.224	5646
923.333	5657
923.442	5638
923.55	5566
923.659	5577
923.767	5661
923.876	5577
923.984	5535
924.092	5425
924.201	5562
924.309	5551
924.417	5539
924.525	5471
924.633	5467
924.741	6285
924.849	5357
924.956	5471
925.064	5353
925.172	5307
925.279	5330
925.387	5376
925.494	5345
925.602	5425
925.709	5391
925.816	5311
925.924	5311
926.031	5360
926.138	5292
926.245	5265
926.352	5197
926.459	5265
926.566	5315
926.673	5239
926.779	5113
926.886	5041
926.993	4976
927.099	5029
927.206	4957
927.312	4965
927.419	4987
927.525	4953
927.631	4957
927.737	4885
927.843	4831
927.95	4740
928.056	4839
928.162	4816
928.267	4824
928.373	5212
928.479	4847
928.585	4615
928.69	4755
928.796	4801
928.901	4668
929.007	4622
929.112	4672
929.218	4592
929.323	4588
929.428	4527
929.533	4649
929.638	4497
929.743	4527
929.848	4558
929.953	4478
930.058	4417
930.163	4314
930.267	4325
930.372	4413
930.477	4257
930.581	4478
930.685	4344
930.79	4295
930.894	4291
930.998	4219
931.103	4344
931.207	4055
931.311	4059
931.415	4036
931.519	3918
931.623	3941
