Data from glass_V78500241_2185.txt Node
Date: Wed Sep 01 19:29:38 CST 2021
User: usil
Spectrometer: V785-0024
Trigger mode: 0
Integration Time (sec): 4.000000E-1
Scans to average: 1
Nonlinearity correction enabled: false
Boxcar width: 0
Storing dark spectrum: false
XAxis mode: Wavelengths
Number of Pixels in Spectrum: 1024
>>>>>Begin Spectral Data<<<<<
801.071	3751
801.214	3743
801.356	3648
801.499	3724
801.641	3713
801.783	3740
801.926	3808
802.068	3827
802.211	3797
802.353	3892
802.496	3812
802.638	3892
802.78	3892
802.923	3899
803.065	3880
803.208	3812
803.35	3884
803.492	3884
803.635	3896
803.777	3778
803.919	3926
804.061	4112
804.204	3987
804.346	3907
804.488	3903
804.63	4006
804.773	3994
804.915	4032
805.057	4112
805.199	4032
805.341	4097
805.483	4143
805.626	4128
805.768	4128
805.91	4177
806.052	4188
806.194	4219
806.336	4348
806.478	4230
806.62	4196
806.762	4192
806.904	4295
807.046	4344
807.188	4181
807.33	4177
807.472	4238
807.614	4166
807.756	4287
807.898	4188
808.04	4188
808.182	4284
808.324	4318
808.465	4333
808.607	4470
808.749	4424
808.891	4478
809.033	4546
809.174	4417
809.316	4280
809.458	4219
809.6	4154
809.741	4150
809.883	4112
810.025	4234
810.166	4200
810.308	4207
810.45	4234
810.591	4234
810.733	4261
810.875	4485
811.016	4839
811.158	5132
811.299	5242
811.441	5277
811.582	5098
811.724	4675
811.865	4493
812.007	4478
812.148	4440
812.29	4424
812.431	4394
812.573	4413
812.714	4386
812.855	4440
812.997	4383
813.138	4421
813.279	4417
813.421	4432
813.562	4356
813.703	4306
813.845	4325
813.986	4257
814.127	4196
814.268	4219
814.41	4291
814.551	4303
814.692	4325
814.833	4242
814.974	4367
815.115	4344
815.256	4265
815.397	4276
815.539	4276
815.68	4207
815.821	4242
815.962	4303
816.103	4291
816.244	4188
816.385	4204
816.526	4242
816.666	4230
816.807	4097
816.948	4135
817.089	4154
817.23	4109
817.371	4044
817.512	4063
817.653	4067
817.793	3983
817.934	4006
818.075	4105
818.216	4051
818.356	4048
818.497	3945
818.638	3907
818.778	3930
818.919	3842
819.06	3888
819.2	3915
819.341	3869
819.481	3838
819.622	3896
819.762	3994
819.903	3964
820.043	3846
820.184	3823
820.324	3808
820.465	3873
820.605	3869
820.746	3876
820.886	3759
821.026	3911
821.167	3960
821.307	3975
821.447	3941
821.588	3953
821.728	3983
821.868	3941
822.008	3873
822.149	3903
822.289	3937
822.429	3781
822.569	3713
822.709	3812
822.849	3701
822.99	3701
823.13	3755
823.27	3774
823.41	3743
823.55	3720
823.69	3732
823.83	3732
823.97	3694
824.11	3618
824.25	3549
824.389	3606
824.529	3641
824.669	3614
824.809	3682
824.949	3789
825.089	3701
825.228	3629
825.368	3648
825.508	3568
825.648	3603
825.787	3584
825.927	3576
826.067	3603
826.206	3629
826.346	3770
826.485	3838
826.625	3869
826.765	3941
826.904	3804
827.044	3610
827.183	3504
827.323	3447
827.462	3507
827.601	3428
827.741	3409
827.88	3428
828.02	3355
828.159	3439
828.298	3454
828.437	3492
828.577	3412
828.716	3591
828.855	3492
828.994	3393
829.134	3382
829.273	3378
829.412	3298
829.551	3344
829.69	3351
829.829	3382
829.968	3545
830.107	3409
830.246	3401
830.385	3386
830.524	3367
830.663	3313
830.802	3272
830.941	3180
831.08	3169
831.219	3249
831.357	3233
831.496	3340
831.635	3214
831.774	3207
831.913	3249
832.051	3127
832.19	3154
832.329	3207
832.467	3138
832.606	3116
832.744	3154
832.883	3176
833.022	3165
833.16	3272
833.299	3294
833.437	3348
833.576	3424
833.714	3435
833.852	3416
833.991	3454
834.129	3458
834.267	3409
834.406	3393
834.544	3420
834.682	3409
834.821	3420
834.959	3576
835.097	3443
835.235	3534
835.373	3511
835.511	3507
835.65	3485
835.788	3500
835.926	3344
836.064	3386
836.202	3412
836.34	3580
836.478	3625
836.615	3576
836.753	3584
836.891	3663
837.029	3606
837.167	3625
837.305	3523
837.443	3534
837.58	3473
837.718	3591
837.856	3580
837.993	3526
838.131	3561
838.269	3553
838.406	3519
838.544	3561
838.681	3435
838.819	3405
838.956	3317
839.094	3393
839.231	3469
839.369	3515
839.506	3724
839.643	3591
839.781	3481
839.918	3458
840.055	3526
840.193	3523
840.33	3492
840.467	3564
840.604	3587
840.742	3808
840.879	3542
841.016	3557
841.153	3564
841.29	3743
841.427	3724
841.564	3762
841.701	3736
841.838	3656
841.975	3679
842.112	3667
842.249	3671
842.385	3591
842.522	3785
842.659	3644
842.796	3671
842.933	3728
843.069	3698
843.206	3698
843.343	3812
843.479	3812
843.616	3838
843.752	3660
843.889	3724
844.025	3819
844.162	3701
844.298	3846
844.435	3747
844.571	3743
844.708	3838
844.844	3949
844.98	4013
845.117	3975
845.253	3911
845.389	3915
845.525	3926
845.661	3979
845.798	3888
845.934	3994
846.07	3937
846.206	3987
846.342	4109
846.478	4040
846.614	3953
846.75	3964
846.886	3922
847.022	4059
847.158	3994
847.294	3972
847.429	4032
847.565	3998
847.701	4230
847.837	3873
847.972	3865
848.108	3956
848.244	3972
848.379	3903
848.515	3804
848.65	3800
848.786	3838
848.921	3835
849.057	3918
849.192	3896
849.328	3899
849.463	3956
849.598	3876
849.734	3861
849.869	3808
850.004	3774
850.14	3819
850.275	3793
850.41	3736
850.545	3705
850.68	3781
850.815	3816
850.95	3766
851.085	3899
851.22	3850
851.355	3869
851.49	3766
851.625	3785
851.76	3789
851.895	3705
852.03	3709
852.165	3755
852.299	3880
852.434	3937
852.569	3846
852.703	3896
852.838	3907
852.973	3953
853.107	3960
853.242	3869
853.376	3819
853.511	3766
853.645	3816
853.78	3991
853.914	3846
854.048	3896
854.183	3884
854.317	3994
854.451	4055
854.585	3975
854.72	3907
854.854	3991
854.988	3964
855.122	4002
855.256	3941
855.39	3991
855.524	4067
855.658	4090
855.792	4147
855.926	4116
856.06	4211
856.194	4204
856.327	4135
856.461	4124
856.595	4124
856.729	4166
856.862	4272
856.996	4246
857.13	4280
857.263	4314
857.397	4379
857.53	4276
857.664	4379
857.797	4402
857.931	4383
858.064	4367
858.197	4447
858.331	4402
858.464	4375
858.597	4325
858.731	4417
858.864	4413
858.997	4436
859.13	4519
859.263	4516
859.396	4622
859.529	4519
859.662	4527
859.795	4508
859.928	4634
860.061	4706
860.194	4714
860.327	4656
860.46	4588
860.592	4725
860.725	4736
860.858	4778
860.99	4679
861.123	4634
861.256	4698
861.388	4778
861.521	5421
861.653	4698
861.786	4702
861.918	4717
862.05	4755
862.183	4824
862.315	4877
862.447	4972
862.58	4889
862.712	4782
862.844	4809
862.976	4850
863.108	4870
863.24	5174
863.372	4786
863.504	4862
863.636	4923
863.768	4987
863.9	4949
864.032	4892
864.164	4957
864.296	4984
864.428	5083
864.559	5075
864.691	5140
864.823	5083
864.954	5117
865.086	5162
865.217	5121
865.349	5143
865.48	5136
865.612	5174
865.743	5292
865.875	5216
866.006	5204
866.137	5239
866.269	5208
866.4	5239
866.531	5284
866.662	5223
866.793	5254
866.924	5334
867.055	5334
867.186	5318
867.317	5330
867.448	5341
867.579	5364
867.71	5341
867.841	5387
867.972	5467
868.103	5440
868.233	5471
868.364	5509
868.495	5532
868.625	5608
868.756	5813
868.886	5653
869.017	5737
869.147	5809
869.278	5809
869.408	5840
869.539	5809
869.669	5923
869.799	5889
869.929	5988
870.06	5969
870.19	6117
870.32	6171
870.45	6296
870.58	6350
870.71	6384
870.84	6433
870.97	6372
871.1	6429
871.23	6555
871.36	6711
871.489	6688
871.619	6711
871.749	6871
871.879	6901
872.008	6962
872.138	6962
872.267	6966
872.397	6939
872.526	6973
872.656	7118
872.785	7266
872.915	7407
873.044	7483
873.173	7552
873.303	7639
873.432	7700
873.561	7925
873.69	7887
873.819	8073
873.948	8191
874.077	8218
874.206	8393
874.335	8454
874.464	8617
874.593	8868
874.722	8899
874.851	9108
874.979	9249
875.108	9401
875.237	9431
875.365	9485
875.494	9610
875.623	9785
875.751	9713
875.88	10017
876.008	10124
876.136	10314
876.265	10478
876.393	10721
876.521	10702
876.65	10820
876.778	10911
876.906	10885
877.034	10976
877.162	11136
877.29	11064
877.418	11307
877.546	11425
877.674	11368
877.802	11459
877.93	11543
878.058	11509
878.185	11566
878.313	11661
878.441	11851
878.568	11611
878.696	11805
878.824	11805
878.951	11878
879.079	12038
879.206	12038
879.333	12095
879.461	12079
879.588	12091
879.715	12091
879.842	12258
879.97	12068
880.097	11874
880.224	11863
880.351	11882
880.478	11889
880.605	11878
880.732	11767
880.859	12030
880.986	11745
881.112	11828
881.239	11668
881.366	11729
881.493	11585
881.619	11467
881.746	11528
881.872	11554
881.999	11467
882.125	11512
882.252	11592
882.378	11490
882.505	11501
882.631	11391
882.757	11223
882.883	11250
883.01	11318
883.136	11121
883.262	11185
883.388	11094
883.514	11090
883.64	11159
883.766	11105
883.892	11064
884.018	10866
884.143	11113
884.269	11098
884.395	10801
884.52	10869
884.646	10740
884.772	10736
884.897	10645
885.023	10656
885.148	10672
885.274	10759
885.399	10755
885.524	10599
885.65	10584
885.775	10626
885.9	10489
886.025	10584
886.15	10538
886.275	10451
886.4	10386
886.525	10432
886.65	10367
886.775	10329
886.9	10428
887.025	10504
887.149	10333
887.274	10249
887.399	10173
887.523	10215
887.648	10086
887.773	10109
887.897	10242
888.021	10253
888.146	10021
888.27	10246
888.395	10200
888.519	10204
888.643	10143
888.767	10166
888.891	10112
889.015	10135
889.139	9975
889.263	10006
889.387	10025
889.511	10093
889.635	10112
889.759	9998
889.883	9934
890.006	10044
890.13	10048
890.254	9930
890.377	9956
890.501	9789
890.624	9861
890.748	9945
890.871	9762
890.995	9743
891.118	9690
891.241	9785
891.364	9736
891.488	9778
891.611	9667
891.734	9656
891.857	9808
891.98	9736
892.103	9816
892.226	9732
892.349	9720
892.471	9504
892.594	9576
892.717	9576
892.839	9580
892.962	9580
893.085	9629
893.207	9576
893.33	9526
893.452	9492
893.575	9603
893.697	9481
893.819	9622
893.941	9576
894.064	9603
894.186	9485
894.308	9435
894.43	9519
894.552	9530
894.674	9435
894.796	9401
894.918	9424
895.04	9287
895.161	9378
895.283	9310
895.405	9211
895.526	9313
895.648	9222
895.769	9249
895.891	9233
896.012	9306
896.134	9218
896.255	9180
896.376	9142
896.498	9165
896.619	9123
896.74	9123
896.861	9100
896.982	9260
897.103	9340
897.224	9165
897.345	9013
897.466	8982
897.587	8971
897.708	9066
897.828	8994
897.949	9001
898.07	8876
898.19	8914
898.311	8960
898.431	8861
898.552	8876
898.672	8963
898.792	8899
898.913	8876
899.033	8807
899.153	8773
899.273	8629
899.393	8727
899.513	8644
899.633	8743
899.753	8785
899.873	8667
899.993	8693
900.113	8632
900.232	8670
900.352	8693
900.472	8590
900.591	8560
900.711	8606
900.83	8495
900.95	8636
901.069	8693
901.189	8533
901.308	8488
901.427	8396
901.546	8431
901.665	8396
901.784	8522
901.904	8374
902.023	8347
902.141	8221
902.26	8218
902.379	8298
902.498	8210
902.617	8145
902.735	8343
902.854	8244
902.973	8229
903.091	7963
903.21	8138
903.328	8164
903.446	8107
903.565	8111
903.683	8046
903.801	8031
903.919	8088
904.038	8065
904.156	8081
904.274	8073
904.392	8046
904.51	8092
904.627	8008
904.745	8046
904.863	8016
904.981	7944
905.098	7890
905.216	7875
905.334	7887
905.451	7887
905.569	7860
905.686	7917
905.803	7932
905.921	7727
906.038	7898
906.155	7814
906.272	7738
906.389	7666
906.506	7628
906.623	7613
906.74	7578
906.857	7529
906.974	7552
907.091	7620
907.208	7704
907.324	7563
907.441	7586
907.557	7491
907.674	7388
907.79	7430
907.907	7491
908.023	7460
908.139	7426
908.256	7373
908.372	7384
908.488	7358
908.604	7225
908.72	7206
908.836	7259
908.952	7266
909.068	7316
909.184	7350
909.3	7232
909.415	7312
909.531	7285
909.647	7175
909.762	7137
909.878	7084
909.993	7156
910.108	7133
910.224	7095
910.339	7072
910.454	6981
910.57	7050
910.685	6932
910.8	7183
910.915	7137
911.03	6985
911.145	6897
911.259	6875
911.374	6916
911.489	6829
911.604	6779
911.718	6715
911.833	6719
911.947	6696
912.062	6555
912.176	6688
912.291	6681
912.405	6730
912.519	6818
912.633	6829
912.748	6715
912.862	6722
912.976	6616
913.09	6555
913.204	6620
913.318	6620
913.431	6627
913.545	6692
913.659	6684
913.772	6582
913.886	6551
914	6589
914.113	6612
914.226	6642
914.34	6601
914.453	6479
914.566	6585
914.68	6490
914.793	6486
914.906	6365
915.019	6380
915.132	6331
915.245	6414
915.358	6471
915.47	6418
915.583	6460
915.696	6490
915.809	6547
915.921	6532
916.034	6445
916.146	6426
916.259	6331
916.371	6513
916.483	6486
916.595	6372
916.708	6464
916.82	6410
916.932	6353
917.044	6403
917.156	6369
917.268	6262
917.38	6319
917.491	6247
917.603	6311
917.715	6365
917.826	6445
917.938	6296
918.049	6262
918.161	6319
918.272	6384
918.384	6422
918.495	6357
918.606	6243
918.717	6247
918.828	6292
918.939	6289
919.05	6190
919.161	6254
919.272	6121
919.383	6152
919.494	6232
919.604	6369
919.715	6224
919.826	6194
919.936	6243
920.047	6311
920.157	6235
920.267	6426
920.378	6376
920.488	6285
920.598	6437
920.708	6555
920.818	6509
920.928	6490
921.038	6566
921.148	6559
921.258	6292
921.368	6247
921.477	6224
921.587	6152
921.697	6041
921.806	6190
921.916	6041
922.025	5920
922.134	5908
922.244	5882
922.353	5908
922.462	5847
922.571	5821
922.68	5710
922.789	5676
922.898	5714
923.007	5638
923.116	5722
923.224	5665
923.333	5596
923.442	5524
923.55	5562
923.659	5600
923.767	5642
923.876	5516
923.984	5589
924.092	5474
924.201	5562
924.309	5532
924.417	5577
924.525	5490
924.633	5505
924.741	6239
924.849	5376
924.956	5490
925.064	5330
925.172	5292
925.279	5318
925.387	5322
925.494	5280
925.602	5414
925.709	5383
925.816	5239
925.924	5315
926.031	5372
926.138	5292
926.245	5318
926.352	5227
926.459	5318
926.566	5334
926.673	5208
926.779	5178
926.886	5159
926.993	5086
927.099	5018
927.206	5010
927.312	5014
927.419	4984
927.525	4919
927.631	4980
927.737	4873
927.843	4843
927.95	4782
928.056	4809
928.162	4805
928.267	4885
928.373	5341
928.479	4839
928.585	4664
928.69	4782
928.796	4809
928.901	4714
929.007	4630
929.112	4653
929.218	4637
929.323	4599
929.428	4596
929.533	4702
929.638	4523
929.743	4481
929.848	4558
929.953	4481
930.058	4394
930.163	4352
930.267	4299
930.372	4440
930.477	4310
930.581	4440
930.685	4341
930.79	4204
930.894	4253
930.998	4249
931.103	4383
931.207	4135
931.311	4074
931.415	4021
931.519	3949
931.623	3918
