Data from glass_V78500241_1427.txt Node
Date: Wed Sep 01 19:24:23 CST 2021
User: usil
Spectrometer: V785-0024
Trigger mode: 0
Integration Time (sec): 4.000000E-1
Scans to average: 1
Nonlinearity correction enabled: false
Boxcar width: 0
Storing dark spectrum: false
XAxis mode: Wavelengths
Number of Pixels in Spectrum: 1024
>>>>>Begin Spectral Data<<<<<
801.071	3743
801.214	3751
801.356	3663
801.499	3701
801.641	3804
801.783	3774
801.926	3857
802.068	3854
802.211	3857
802.353	3892
802.496	3842
802.638	3899
802.78	3892
802.923	3892
803.065	3926
803.208	3899
803.35	3896
803.492	3953
803.635	3911
803.777	3778
803.919	3903
804.061	4177
804.204	3953
804.346	3953
804.488	3892
804.63	4025
804.773	3964
804.915	4032
805.057	4097
805.199	4055
805.341	4082
805.483	4150
805.626	4124
805.768	4116
805.91	4200
806.052	4188
806.194	4215
806.336	4360
806.478	4249
806.62	4120
806.762	4185
806.904	4272
807.046	4303
807.188	4215
807.33	4223
807.472	4227
807.614	4185
807.756	4291
807.898	4223
808.04	4227
808.182	4253
808.324	4276
808.465	4379
808.607	4474
808.749	4485
808.891	4421
809.033	4500
809.174	4405
809.316	4253
809.458	4257
809.6	4124
809.741	4101
809.883	4154
810.025	4230
810.166	4215
810.308	4230
810.45	4276
810.591	4242
810.733	4299
810.875	4519
811.016	4850
811.158	5083
811.299	5292
811.441	5292
811.582	5109
811.724	4694
811.865	4447
812.007	4478
812.148	4443
812.29	4390
812.431	4417
812.573	4379
812.714	4371
812.855	4428
812.997	4466
813.138	4451
813.279	4398
813.421	4390
813.562	4402
813.703	4299
813.845	4363
813.986	4257
814.127	4211
814.268	4242
814.41	4318
814.551	4268
814.692	4291
814.833	4291
814.974	4337
815.115	4363
815.256	4230
815.397	4238
815.539	4257
815.68	4204
815.821	4188
815.962	4314
816.103	4291
816.244	4249
816.385	4234
816.526	4257
816.666	4196
816.807	4071
816.948	4162
817.089	4204
817.23	4101
817.371	4082
817.512	4036
817.653	4067
817.793	4029
817.934	4040
818.075	4090
818.216	4105
818.356	4078
818.497	4025
818.638	3937
818.778	3873
818.919	3873
819.06	3857
819.2	3896
819.341	3892
819.481	3865
819.622	3918
819.762	4048
819.903	3922
820.043	3873
820.184	3857
820.324	3896
820.465	3869
820.605	3842
820.746	3880
820.886	3823
821.026	3918
821.167	3888
821.307	3941
821.447	3979
821.588	3930
821.728	3956
821.868	3934
822.008	3873
822.149	3922
822.289	3915
822.429	3819
822.569	3751
822.709	3789
822.849	3641
822.99	3701
823.13	3743
823.27	3724
823.41	3686
823.55	3705
823.69	3743
823.83	3720
823.97	3660
824.11	3595
824.25	3591
824.389	3652
824.529	3686
824.669	3606
824.809	3698
824.949	3720
825.089	3720
825.228	3694
825.368	3580
825.508	3549
825.648	3572
825.787	3603
825.927	3622
826.067	3633
826.206	3701
826.346	3816
826.485	3831
826.625	3857
826.765	3926
826.904	3831
827.044	3610
827.183	3561
827.323	3428
827.462	3488
827.601	3420
827.741	3424
827.88	3454
828.02	3382
828.159	3488
828.298	3485
828.437	3549
828.577	3469
828.716	3595
828.855	3523
828.994	3363
829.134	3378
829.273	3374
829.412	3336
829.551	3363
829.69	3336
829.829	3443
829.968	3534
830.107	3462
830.246	3409
830.385	3348
830.524	3355
830.663	3306
830.802	3249
830.941	3222
831.08	3188
831.219	3256
831.357	3268
831.496	3409
831.635	3256
831.774	3207
831.913	3192
832.051	3131
832.19	3161
832.329	3199
832.467	3161
832.606	3127
832.744	3188
832.883	3161
833.022	3192
833.16	3253
833.299	3291
833.437	3351
833.576	3382
833.714	3420
833.852	3435
833.991	3450
834.129	3526
834.267	3469
834.406	3435
834.544	3443
834.682	3435
834.821	3420
834.959	3622
835.097	3454
835.235	3530
835.373	3515
835.511	3485
835.65	3462
835.788	3473
835.926	3374
836.064	3389
836.202	3435
836.34	3587
836.478	3618
836.615	3526
836.753	3618
836.891	3618
837.029	3599
837.167	3561
837.305	3542
837.443	3542
837.58	3504
837.718	3606
837.856	3580
837.993	3538
838.131	3599
838.269	3629
838.406	3564
838.544	3542
838.681	3511
838.819	3469
838.956	3424
839.094	3389
839.231	3462
839.369	3526
839.506	3736
839.643	3591
839.781	3488
839.918	3462
840.055	3504
840.193	3530
840.33	3557
840.467	3523
840.604	3625
840.742	3797
840.879	3584
841.016	3530
841.153	3633
841.29	3701
841.427	3720
841.564	3743
841.701	3747
841.838	3671
841.975	3694
842.112	3740
842.249	3618
842.385	3648
842.522	3831
842.659	3690
842.796	3679
842.933	3694
843.069	3701
843.206	3709
843.343	3804
843.479	3766
843.616	3857
843.752	3656
843.889	3679
844.025	3876
844.162	3732
844.298	3842
844.435	3827
844.571	3785
844.708	3949
844.844	3975
844.98	4048
845.117	3972
845.253	3911
845.389	3930
845.525	3994
845.661	3979
845.798	3918
845.934	3975
846.07	3960
846.206	4071
846.342	4105
846.478	4029
846.614	3941
846.75	3964
846.886	3922
847.022	4055
847.158	3983
847.294	4071
847.429	4032
847.565	3975
847.701	4276
847.837	3865
847.972	3869
848.108	3956
848.244	3972
848.379	3808
848.515	3812
848.65	3793
848.786	3861
848.921	3835
849.057	3937
849.192	3987
849.328	3903
849.463	3941
849.598	3869
849.734	3873
849.869	3850
850.004	3770
850.14	3835
850.275	3759
850.41	3751
850.545	3736
850.68	3770
850.815	3835
850.95	3800
851.085	3945
851.22	3884
851.355	3823
851.49	3789
851.625	3808
851.76	3778
851.895	3743
852.03	3709
852.165	3762
852.299	3873
852.434	3907
852.569	3896
852.703	3884
852.838	3915
852.973	3998
853.107	3991
853.242	3926
853.376	3865
853.511	3755
853.645	3838
853.78	3945
853.914	3876
854.048	3934
854.183	3884
854.317	3945
854.451	4078
854.585	3968
854.72	3945
854.854	4048
854.988	3907
855.122	3991
855.256	3896
855.39	3979
855.524	4101
855.658	4101
855.792	4116
855.926	4135
856.06	4158
856.194	4211
856.327	4150
856.461	4128
856.595	4158
856.729	4200
856.862	4261
856.996	4219
857.13	4249
857.263	4287
857.397	4333
857.53	4287
857.664	4329
857.797	4398
857.931	4405
858.064	4367
858.197	4462
858.331	4371
858.464	4379
858.597	4329
858.731	4459
858.864	4455
858.997	4451
859.13	4519
859.263	4512
859.396	4558
859.529	4535
859.662	4558
859.795	4527
859.928	4596
860.061	4694
860.194	4801
860.327	4641
860.46	4664
860.592	4714
860.725	4721
860.858	4752
860.99	4687
861.123	4710
861.256	4714
861.388	4740
861.521	5296
861.653	4717
861.786	4679
861.918	4721
862.05	4786
862.183	4824
862.315	4824
862.447	4915
862.58	4934
862.712	4801
862.844	4714
862.976	4843
863.108	4850
863.24	5174
863.372	4793
863.504	4870
863.636	4946
863.768	4934
863.9	4934
864.032	4927
864.164	4942
864.296	5064
864.428	5086
864.559	5079
864.691	5113
864.823	5117
864.954	5113
865.086	5159
865.217	5170
865.349	5113
865.48	5132
865.612	5216
865.743	5242
865.875	5231
866.006	5166
866.137	5265
866.269	5216
866.4	5315
866.531	5242
866.662	5239
866.793	5296
866.924	5307
867.055	5383
867.186	5349
867.317	5357
867.448	5254
867.579	5398
867.71	5349
867.841	5360
867.972	5509
868.103	5486
868.233	5501
868.364	5516
868.495	5570
868.625	5714
868.756	5786
868.886	5661
869.017	5726
869.147	5882
869.278	5847
869.408	5836
869.539	5859
869.669	5901
869.799	5946
869.929	5988
870.06	5980
870.19	6194
870.32	6186
870.45	6258
870.58	6311
870.71	6353
870.84	6486
870.97	6403
871.1	6433
871.23	6658
871.36	6730
871.489	6696
871.619	6730
871.749	6798
871.879	6882
872.008	7038
872.138	7008
872.267	7015
872.397	7000
872.526	7027
872.656	7088
872.785	7164
872.915	7392
873.044	7521
873.173	7563
873.303	7658
873.432	7719
873.561	7871
873.69	7830
873.819	8031
873.948	8187
874.077	8233
874.206	8358
874.335	8503
874.464	8636
874.593	8853
874.722	8910
874.851	9154
874.979	9211
875.108	9408
875.237	9397
875.365	9466
875.494	9675
875.623	9857
875.751	9800
875.88	10048
876.008	10082
876.136	10253
876.265	10531
876.393	10580
876.521	10767
876.65	10881
876.778	10850
876.906	10919
877.034	10980
877.162	11140
877.29	11136
877.418	11318
877.546	11433
877.674	11452
877.802	11493
877.93	11581
878.058	11551
878.185	11543
878.313	11672
878.441	11752
878.568	11585
878.696	11779
878.824	11847
878.951	11946
879.079	12003
879.206	12106
879.333	12121
879.461	12053
879.588	12129
879.715	12015
879.842	12304
879.97	12136
880.097	11942
880.224	11874
880.351	11813
880.478	11946
880.605	11840
880.732	11783
880.859	11980
880.986	11836
881.112	11851
881.239	11718
881.366	11649
881.493	11608
881.619	11558
881.746	11596
881.872	11501
881.999	11516
882.125	11478
882.252	11611
882.378	11532
882.505	11649
882.631	11299
882.757	11284
882.883	11250
883.01	11181
883.136	11189
883.262	11079
883.388	11113
883.514	11204
883.64	11170
883.766	11113
883.892	10984
884.018	11010
884.143	11067
884.269	11136
884.395	10816
884.52	10793
884.646	10752
884.772	10702
884.897	10607
885.023	10645
885.148	10691
885.274	10729
885.399	10584
885.524	10611
885.65	10565
885.775	10535
885.9	10531
886.025	10615
886.15	10599
886.275	10497
886.4	10436
886.525	10413
886.65	10371
886.775	10322
886.9	10512
887.025	10558
887.149	10367
887.274	10162
887.399	10177
887.523	10109
887.648	10215
887.773	10150
887.897	10219
888.021	10268
888.146	10143
888.27	10234
888.395	10284
888.519	10135
888.643	10207
888.767	10169
888.891	10051
889.015	10082
889.139	10059
889.263	10021
889.387	10124
889.511	10124
889.635	10017
889.759	9888
889.883	10002
890.006	9994
890.13	10147
890.254	9903
890.377	9941
890.501	9823
890.624	9884
890.748	9846
890.871	9759
890.995	9762
891.118	9785
891.241	9789
891.364	9724
891.488	9812
891.611	9762
891.734	9720
891.857	9740
891.98	9720
892.103	9793
892.226	9755
892.349	9633
892.471	9515
892.594	9606
892.717	9660
892.839	9519
892.962	9606
893.085	9663
893.207	9504
893.33	9485
893.452	9530
893.575	9610
893.697	9481
893.819	9660
893.941	9595
894.064	9591
894.186	9431
894.308	9348
894.43	9477
894.552	9572
894.674	9500
894.796	9321
894.918	9321
895.04	9336
895.161	9370
895.283	9344
895.405	9222
895.526	9287
895.648	9184
895.769	9275
895.891	9260
896.012	9287
896.134	9218
896.255	9150
896.376	9074
896.498	9131
896.619	9165
896.74	9070
896.861	9135
896.982	9260
897.103	9241
897.224	9150
897.345	9009
897.466	8986
897.587	9017
897.708	9135
897.828	9100
897.949	8902
898.07	8929
898.19	8914
898.311	8990
898.431	8899
898.552	9001
898.672	8921
898.792	9001
898.913	8902
899.033	8792
899.153	8693
899.273	8682
899.393	8788
899.513	8727
899.633	8701
899.753	8762
899.873	8720
899.993	8701
900.113	8663
900.232	8758
900.352	8659
900.472	8667
900.591	8564
900.711	8644
900.83	8587
900.95	8640
901.069	8727
901.189	8590
901.308	8400
901.427	8419
901.546	8484
901.665	8499
901.784	8473
901.904	8332
902.023	8336
902.141	8271
902.26	8191
902.379	8271
902.498	8206
902.617	8237
902.735	8301
902.854	8282
902.973	8294
903.091	8123
903.21	8164
903.328	8191
903.446	8187
903.565	8096
903.683	8115
903.801	8134
903.919	8123
904.038	8153
904.156	8012
904.274	8130
904.392	8058
904.51	8024
904.627	7997
904.745	8058
904.863	8073
904.981	7978
905.098	7913
905.216	7917
905.334	7955
905.451	7856
905.569	7902
905.686	7932
905.803	7986
905.921	7795
906.038	7875
906.155	7814
906.272	7753
906.389	7761
906.506	7609
906.623	7651
906.74	7586
906.857	7521
906.974	7601
907.091	7662
907.208	7704
907.324	7647
907.441	7556
907.557	7453
907.674	7468
907.79	7308
907.907	7438
908.023	7438
908.139	7483
908.256	7396
908.372	7335
908.488	7392
908.604	7285
908.72	7225
908.836	7301
908.952	7255
909.068	7346
909.184	7274
909.3	7282
909.415	7308
909.531	7324
909.647	7137
909.762	7103
909.878	7168
909.993	7126
910.108	7118
910.224	7061
910.339	7126
910.454	7080
910.57	6924
910.685	6947
910.8	7164
910.915	7118
911.03	7057
911.145	7000
911.259	6840
911.374	6890
911.489	6909
911.604	6798
911.718	6620
911.833	6688
911.947	6612
912.062	6646
912.176	6726
912.291	6646
912.405	6700
912.519	6844
912.633	6848
912.748	6738
912.862	6730
912.976	6601
913.09	6506
913.204	6700
913.318	6631
913.431	6700
913.545	6692
913.659	6719
913.772	6627
913.886	6585
914	6612
914.113	6612
914.226	6654
914.34	6589
914.453	6475
914.566	6650
914.68	6506
914.793	6570
914.906	6391
915.019	6414
915.132	6311
915.245	6407
915.358	6437
915.47	6441
915.583	6498
915.696	6540
915.809	6532
915.921	6521
916.034	6494
916.146	6426
916.259	6384
916.371	6456
916.483	6479
916.595	6418
916.708	6437
916.82	6410
916.932	6422
917.044	6376
917.156	6441
917.268	6331
917.38	6289
917.491	6285
917.603	6331
917.715	6429
917.826	6372
917.938	6361
918.049	6224
918.161	6338
918.272	6441
918.384	6426
918.495	6327
918.606	6270
918.717	6186
918.828	6190
918.939	6350
919.05	6213
919.161	6270
919.272	6148
919.383	6194
919.494	6273
919.604	6441
919.715	6308
919.826	6243
919.936	6281
920.047	6319
920.157	6327
920.267	6551
920.378	6350
920.488	6277
920.598	6506
920.708	6513
920.818	6452
920.928	6452
921.038	6578
921.148	6627
921.258	6350
921.368	6277
921.477	6262
921.587	6167
921.697	6064
921.806	6201
921.916	6045
922.025	5897
922.134	5889
922.244	5878
922.353	5965
922.462	5832
922.571	5802
922.68	5722
922.789	5638
922.898	5745
923.007	5657
923.116	5672
923.224	5699
923.333	5688
923.442	5611
923.55	5604
923.659	5558
923.767	5615
923.876	5505
923.984	5623
924.092	5501
924.201	5570
924.309	5528
924.417	5558
924.525	5516
924.633	5490
924.741	6098
924.849	5334
924.956	5486
925.064	5334
925.172	5330
925.279	5273
925.387	5360
925.494	5341
925.602	5436
925.709	5372
925.816	5254
925.924	5349
926.031	5383
926.138	5242
926.245	5337
926.352	5227
926.459	5322
926.566	5326
926.673	5193
926.779	5117
926.886	5090
926.993	4949
927.099	5006
927.206	4995
927.312	4980
927.419	5037
927.525	4957
927.631	5003
927.737	4896
927.843	4850
927.95	4752
928.056	4877
928.162	4774
928.267	4866
928.373	5239
928.479	4854
928.585	4634
928.69	4736
928.796	4774
928.901	4675
929.007	4611
929.112	4698
929.218	4698
929.323	4607
929.428	4558
929.533	4721
929.638	4508
929.743	4550
929.848	4573
929.953	4508
930.058	4493
930.163	4375
930.267	4299
930.372	4481
930.477	4329
930.581	4489
930.685	4405
930.79	4223
930.894	4325
930.998	4287
931.103	4356
931.207	4109
931.311	4105
931.415	4051
931.519	3960
931.623	3930
