Data from glass_V78500241_520.txt Node
Date: Wed Sep 01 19:18:06 CST 2021
User: usil
Spectrometer: V785-0024
Trigger mode: 0
Integration Time (sec): 4.000000E-1
Scans to average: 1
Nonlinearity correction enabled: false
Boxcar width: 0
Storing dark spectrum: false
XAxis mode: Wavelengths
Number of Pixels in Spectrum: 1024
>>>>>Begin Spectral Data<<<<<
801.071	3720
801.214	3740
801.356	3709
801.499	3728
801.641	3736
801.783	3762
801.926	3911
802.068	3819
802.211	3857
802.353	3903
802.496	3899
802.638	3884
802.78	3934
802.923	3960
803.065	3903
803.208	3869
803.35	3915
803.492	3911
803.635	3956
803.777	3857
803.919	3918
804.061	4128
804.204	3983
804.346	3926
804.488	3930
804.63	4071
804.773	3979
804.915	4036
805.057	4223
805.199	4017
805.341	4082
805.483	4162
805.626	4090
805.768	4112
805.91	4177
806.052	4227
806.194	4230
806.336	4386
806.478	4268
806.62	4219
806.762	4196
806.904	4242
807.046	4333
807.188	4215
807.33	4227
807.472	4192
807.614	4166
807.756	4253
807.898	4249
808.04	4246
808.182	4310
808.324	4276
808.465	4413
808.607	4447
808.749	4440
808.891	4466
809.033	4504
809.174	4459
809.316	4280
809.458	4249
809.6	4166
809.741	4116
809.883	4131
810.025	4249
810.166	4188
810.308	4219
810.45	4276
810.591	4230
810.733	4303
810.875	4577
811.016	4835
811.158	5132
811.299	5261
811.441	5250
811.582	5079
811.724	4736
811.865	4497
812.007	4459
812.148	4474
812.29	4409
812.431	4413
812.573	4413
812.714	4352
812.855	4424
812.997	4432
813.138	4451
813.279	4402
813.421	4398
813.562	4398
813.703	4337
813.845	4341
813.986	4310
814.127	4242
814.268	4230
814.41	4249
814.551	4238
814.692	4344
814.833	4306
814.974	4341
815.115	4363
815.256	4299
815.397	4272
815.539	4230
815.68	4219
815.821	4219
815.962	4322
816.103	4306
816.244	4265
816.385	4238
816.526	4227
816.666	4166
816.807	4135
816.948	4173
817.089	4196
817.23	4082
817.371	4071
817.512	4078
817.653	4112
817.793	4029
817.934	4048
818.075	4116
818.216	4120
818.356	4067
818.497	4040
818.638	3915
818.778	3956
818.919	3880
819.06	3880
819.2	3918
819.341	3876
819.481	3846
819.622	3972
819.762	4082
819.903	3960
820.043	3892
820.184	3835
820.324	3808
820.465	3930
820.605	3865
820.746	3899
820.886	3804
821.026	3968
821.167	3964
821.307	3979
821.447	3998
821.588	3937
821.728	3960
821.868	3911
822.008	3892
822.149	3934
822.289	3934
822.429	3838
822.569	3812
822.709	3793
822.849	3724
822.99	3720
823.13	3781
823.27	3766
823.41	3713
823.55	3732
823.69	3736
823.83	3732
823.97	3705
824.11	3648
824.25	3599
824.389	3663
824.529	3694
824.669	3660
824.809	3736
824.949	3781
825.089	3713
825.228	3751
825.368	3584
825.508	3576
825.648	3580
825.787	3622
825.927	3625
826.067	3633
826.206	3663
826.346	3785
826.485	3854
826.625	3873
826.765	3930
826.904	3876
827.044	3637
827.183	3523
827.323	3466
827.462	3492
827.601	3450
827.741	3439
827.88	3450
828.02	3435
828.159	3485
828.298	3488
828.437	3545
828.577	3488
828.716	3633
828.855	3504
828.994	3401
829.134	3386
829.273	3412
829.412	3386
829.551	3363
829.69	3378
829.829	3389
829.968	3534
830.107	3473
830.246	3473
830.385	3389
830.524	3351
830.663	3302
830.802	3298
830.941	3260
831.08	3230
831.219	3302
831.357	3253
831.496	3439
831.635	3237
831.774	3195
831.913	3237
832.051	3146
832.19	3157
832.329	3199
832.467	3135
832.606	3127
832.744	3157
832.883	3184
833.022	3192
833.16	3260
833.299	3298
833.437	3348
833.576	3355
833.714	3431
833.852	3428
833.991	3443
834.129	3469
834.267	3458
834.406	3397
834.544	3439
834.682	3450
834.821	3447
834.959	3599
835.097	3496
835.235	3542
835.373	3507
835.511	3515
835.65	3447
835.788	3504
835.926	3424
836.064	3428
836.202	3439
836.34	3568
836.478	3599
836.615	3530
836.753	3648
836.891	3660
837.029	3652
837.167	3622
837.305	3580
837.443	3564
837.58	3519
837.718	3637
837.856	3580
837.993	3564
838.131	3603
838.269	3587
838.406	3618
838.544	3591
838.681	3458
838.819	3454
838.956	3348
839.094	3443
839.231	3443
839.369	3504
839.506	3770
839.643	3618
839.781	3519
839.918	3492
840.055	3561
840.193	3542
840.33	3538
840.467	3572
840.604	3610
840.742	3804
840.879	3572
841.016	3530
841.153	3606
841.29	3797
841.427	3660
841.564	3755
841.701	3755
841.838	3686
841.975	3671
842.112	3747
842.249	3656
842.385	3679
842.522	3831
842.659	3736
842.796	3705
842.933	3660
843.069	3720
843.206	3709
843.343	3816
843.479	3800
843.616	3823
843.752	3667
843.889	3682
844.025	3899
844.162	3732
844.298	3861
844.435	3819
844.571	3797
844.708	3915
844.844	4032
844.98	4021
845.117	3994
845.253	3880
845.389	3911
845.525	3998
845.661	4006
845.798	3991
845.934	4063
846.07	3941
846.206	4067
846.342	4135
846.478	4055
846.614	3975
846.75	3987
846.886	3922
847.022	4055
847.158	3998
847.294	3979
847.429	4044
847.565	4006
847.701	4261
847.837	3880
847.972	3869
848.108	3987
848.244	3968
848.379	3888
848.515	3793
848.65	3804
848.786	3857
848.921	3892
849.057	3968
849.192	3949
849.328	3899
849.463	3926
849.598	3888
849.734	3876
849.869	3835
850.004	3797
850.14	3854
850.275	3717
850.41	3762
850.545	3766
850.68	3804
850.815	3819
850.95	3797
851.085	3953
851.22	3884
851.355	3846
851.49	3778
851.625	3804
851.76	3778
851.895	3728
852.03	3724
852.165	3770
852.299	3876
852.434	3922
852.569	3888
852.703	3888
852.838	3934
852.973	3991
853.107	4029
853.242	3899
853.376	3873
853.511	3740
853.645	3842
853.78	3998
853.914	3873
854.048	3903
854.183	3903
854.317	3964
854.451	4086
854.585	4002
854.72	3918
854.854	4078
854.988	3998
855.122	3994
855.256	3922
855.39	4029
855.524	4135
855.658	4074
855.792	4090
855.926	4131
856.06	4215
856.194	4230
856.327	4150
856.461	4139
856.595	4128
856.729	4196
856.862	4242
856.996	4261
857.13	4280
857.263	4348
857.397	4375
857.53	4295
857.664	4341
857.797	4409
857.931	4398
858.064	4344
858.197	4432
858.331	4390
858.464	4383
858.597	4367
858.731	4455
858.864	4451
858.997	4481
859.13	4485
859.263	4577
859.396	4592
859.529	4542
859.662	4535
859.795	4485
859.928	4634
860.061	4717
860.194	4748
860.327	4626
860.46	4637
860.592	4733
860.725	4744
860.858	4774
860.99	4702
861.123	4706
861.256	4698
861.388	4740
861.521	5512
861.653	4687
861.786	4748
861.918	4782
862.05	4797
862.183	4881
862.315	4850
862.447	4968
862.58	4854
862.712	4782
862.844	4744
862.976	4881
863.108	4904
863.24	5197
863.372	4862
863.504	4930
863.636	4904
863.768	4972
863.9	4972
864.032	4919
864.164	4980
864.296	5041
864.428	5083
864.559	5132
864.691	5117
864.823	5132
864.954	5102
865.086	5162
865.217	5117
865.349	5052
865.48	5170
865.612	5189
865.743	5318
865.875	5235
866.006	5193
866.137	5204
866.269	5242
866.4	5231
866.531	5288
866.662	5223
866.793	5265
866.924	5292
867.055	5398
867.186	5341
867.317	5330
867.448	5376
867.579	5330
867.71	5387
867.841	5406
867.972	5421
868.103	5478
868.233	5486
868.364	5543
868.495	5611
868.625	5672
868.756	5771
868.886	5684
869.017	5710
869.147	5828
869.278	5874
869.408	5828
869.539	5844
869.669	5908
869.799	5912
869.929	5999
870.06	6026
870.19	6136
870.32	6239
870.45	6232
870.58	6342
870.71	6452
870.84	6429
870.97	6426
871.1	6475
871.23	6654
871.36	6696
871.489	6646
871.619	6707
871.749	6783
871.879	6863
872.008	7053
872.138	6993
872.267	7050
872.397	7015
872.526	7080
872.656	7038
872.785	7217
872.915	7373
873.044	7525
873.173	7491
873.303	7666
873.432	7811
873.561	7894
873.69	7917
873.819	8031
873.948	8221
874.077	8252
874.206	8355
874.335	8434
874.464	8648
874.593	8857
874.722	8956
874.851	9165
874.979	9203
875.108	9344
875.237	9389
875.365	9515
875.494	9606
875.623	9827
875.751	9937
875.88	9968
876.008	10131
876.136	10318
876.265	10538
876.393	10622
876.521	10714
876.65	10816
876.778	10881
876.906	10900
877.034	11025
877.162	11086
877.29	11162
877.418	11303
877.546	11395
877.674	11474
877.802	11596
877.93	11528
878.058	11596
878.185	11512
878.313	11703
878.441	11752
878.568	11653
878.696	11805
878.824	11771
878.951	11942
879.079	12003
879.206	12228
879.333	11996
879.461	11969
879.588	12072
879.715	12060
879.842	12232
879.97	12041
880.097	11973
880.224	11866
880.351	11904
880.478	11923
880.605	11882
880.732	11813
880.859	11977
880.986	11805
881.112	11836
881.239	11722
881.366	11630
881.493	11634
881.619	11562
881.746	11577
881.872	11554
881.999	11493
882.125	11505
882.252	11539
882.378	11566
882.505	11539
882.631	11406
882.757	11318
882.883	11395
883.01	11303
883.136	11212
883.262	11105
883.388	11113
883.514	11216
883.64	11124
883.766	11079
883.892	11060
884.018	11018
884.143	11083
884.269	11162
884.395	10809
884.52	10820
884.646	10828
884.772	10641
884.897	10615
885.023	10637
885.148	10736
885.274	10752
885.399	10710
885.524	10660
885.65	10573
885.775	10664
885.9	10573
886.025	10558
886.15	10550
886.275	10459
886.4	10360
886.525	10405
886.65	10424
886.775	10322
886.9	10447
887.025	10558
887.149	10371
887.274	10268
887.399	10177
887.523	10158
887.648	10188
887.773	10101
887.897	10150
888.021	10287
888.146	10246
888.27	10299
888.395	10299
888.519	10234
888.643	10181
888.767	10207
888.891	10131
889.015	10021
889.139	10032
889.263	9998
889.387	10021
889.511	10154
889.635	10105
889.759	9979
889.883	10010
890.006	10021
890.13	10109
890.254	9934
890.377	9945
890.501	9907
890.624	9956
890.748	9937
890.871	9793
890.995	9724
891.118	9751
891.241	9827
891.364	9743
891.488	9854
891.611	9827
891.734	9800
891.857	9743
891.98	9774
892.103	9770
892.226	9709
892.349	9633
892.471	9519
892.594	9564
892.717	9599
892.839	9534
892.962	9698
893.085	9591
893.207	9591
893.33	9500
893.452	9568
893.575	9686
893.697	9496
893.819	9591
893.941	9618
894.064	9564
894.186	9454
894.308	9420
894.43	9496
894.552	9625
894.674	9504
894.796	9401
894.918	9382
895.04	9351
895.161	9454
895.283	9367
895.405	9294
895.526	9264
895.648	9237
895.769	9211
895.891	9287
896.012	9325
896.134	9226
896.255	9161
896.376	9108
896.498	9131
896.619	9074
896.74	9020
896.861	9112
896.982	9222
897.103	9310
897.224	9169
897.345	9001
897.466	9013
897.587	9017
897.708	9089
897.828	9077
897.949	8986
898.07	8842
898.19	8842
898.311	9108
898.431	8906
898.552	8937
898.672	8975
898.792	8971
898.913	8899
899.033	8845
899.153	8731
899.273	8678
899.393	8762
899.513	8712
899.633	8750
899.753	8724
899.873	8697
899.993	8766
900.113	8758
900.232	8644
900.352	8674
900.472	8568
900.591	8552
900.711	8621
900.83	8571
900.95	8727
901.069	8705
901.189	8610
901.308	8476
901.427	8438
901.546	8419
901.665	8446
901.784	8526
901.904	8358
902.023	8400
902.141	8240
902.26	8229
902.379	8301
902.498	8271
902.617	8202
902.735	8313
902.854	8279
902.973	8305
903.091	8161
903.21	8145
903.328	8206
903.446	8195
903.565	8054
903.683	8119
903.801	8020
903.919	8134
904.038	8096
904.156	8058
904.274	8103
904.392	8088
904.51	8027
904.627	8088
904.745	8035
904.863	8081
904.981	7955
905.098	7868
905.216	7902
905.334	7959
905.451	7951
905.569	7871
905.686	7951
905.803	7936
905.921	7765
906.038	7830
906.155	7788
906.272	7772
906.389	7765
906.506	7662
906.623	7693
906.74	7700
906.857	7521
906.974	7597
907.091	7685
907.208	7757
907.324	7655
907.441	7563
907.557	7434
907.674	7419
907.79	7407
907.907	7415
908.023	7468
908.139	7449
908.256	7415
908.372	7362
908.488	7388
908.604	7270
908.72	7247
908.836	7327
908.952	7278
909.068	7274
909.184	7289
909.3	7247
909.415	7297
909.531	7278
909.647	7110
909.762	7118
909.878	7080
909.993	7149
910.108	7149
910.224	7103
910.339	7145
910.454	7072
910.57	7038
910.685	6973
910.8	7114
910.915	7137
911.03	7069
911.145	6882
911.259	6852
911.374	6909
911.489	6798
911.604	6779
911.718	6753
911.833	6669
911.947	6654
912.062	6616
912.176	6688
912.291	6753
912.405	6707
912.519	6871
912.633	6840
912.748	6719
912.862	6673
912.976	6688
913.09	6525
913.204	6540
913.318	6616
913.431	6627
913.545	6684
913.659	6730
913.772	6734
913.886	6642
914	6604
914.113	6631
914.226	6650
914.34	6650
914.453	6521
914.566	6616
914.68	6551
914.793	6547
914.906	6464
915.019	6437
915.132	6372
915.245	6448
915.358	6467
915.47	6426
915.583	6528
915.696	6502
915.809	6502
915.921	6555
916.034	6418
916.146	6464
916.259	6372
916.371	6528
916.483	6460
916.595	6426
916.708	6460
916.82	6418
916.932	6357
917.044	6426
917.156	6433
917.268	6331
917.38	6331
917.491	6365
917.603	6399
917.715	6445
917.826	6410
917.938	6323
918.049	6289
918.161	6380
918.272	6441
918.384	6391
918.495	6350
918.606	6228
918.717	6213
918.828	6285
918.939	6285
919.05	6152
919.161	6266
919.272	6155
919.383	6159
919.494	6258
919.604	6437
919.715	6311
919.826	6247
919.936	6270
920.047	6357
920.157	6281
920.267	6441
920.378	6353
920.488	6315
920.598	6471
920.708	6555
920.818	6467
920.928	6498
921.038	6642
921.148	6646
921.258	6388
921.368	6304
921.477	6232
921.587	6186
921.697	6117
921.806	6186
921.916	6068
922.025	6007
922.134	5901
922.244	5885
922.353	5950
922.462	5920
922.571	5840
922.68	5714
922.789	5714
922.898	5714
923.007	5627
923.116	5707
923.224	5638
923.333	5665
923.442	5627
923.55	5543
923.659	5596
923.767	5627
923.876	5539
923.984	5592
924.092	5509
924.201	5566
924.309	5570
924.417	5562
924.525	5425
924.633	5467
924.741	6296
924.849	5337
924.956	5482
925.064	5402
925.172	5341
925.279	5322
925.387	5410
925.494	5383
925.602	5440
925.709	5425
925.816	5265
925.924	5307
926.031	5357
926.138	5307
926.245	5330
926.352	5212
926.459	5360
926.566	5303
926.673	5235
926.779	5162
926.886	5128
926.993	4991
927.099	5022
927.206	4946
927.312	5003
927.419	5033
927.525	5018
927.631	4965
927.737	4881
927.843	4866
927.95	4797
928.056	4831
928.162	4820
928.267	4824
928.373	5269
928.479	4889
928.585	4675
928.69	4721
928.796	4786
928.901	4668
929.007	4603
929.112	4687
929.218	4702
929.323	4649
929.428	4554
929.533	4744
929.638	4542
929.743	4588
929.848	4554
929.953	4516
930.058	4455
930.163	4352
930.267	4337
930.372	4402
930.477	4268
930.581	4497
930.685	4478
930.79	4242
930.894	4280
930.998	4306
931.103	4367
931.207	4105
931.311	4044
931.415	4017
931.519	3968
931.623	3949
