Data from glass_V78500241_1426.txt Node
Date: Wed Sep 01 19:24:23 CST 2021
User: usil
Spectrometer: V785-0024
Trigger mode: 0
Integration Time (sec): 4.000000E-1
Scans to average: 1
Nonlinearity correction enabled: false
Boxcar width: 0
Storing dark spectrum: false
XAxis mode: Wavelengths
Number of Pixels in Spectrum: 1024
>>>>>Begin Spectral Data<<<<<
801.071	3747
801.214	3766
801.356	3682
801.499	3736
801.641	3747
801.783	3781
801.926	3850
802.068	3842
802.211	3854
802.353	3903
802.496	3827
802.638	3903
802.78	3857
802.923	3911
803.065	3880
803.208	3857
803.35	3842
803.492	3892
803.635	3934
803.777	3808
803.919	3873
804.061	4169
804.204	3941
804.346	3975
804.488	3926
804.63	4078
804.773	4025
804.915	4044
805.057	4135
805.199	4071
805.341	4086
805.483	4128
805.626	4124
805.768	4124
805.91	4166
806.052	4276
806.194	4185
806.336	4375
806.478	4215
806.62	4238
806.762	4166
806.904	4265
807.046	4344
807.188	4192
807.33	4200
807.472	4234
807.614	4166
807.756	4265
807.898	4219
808.04	4230
808.182	4310
808.324	4352
808.465	4390
808.607	4443
808.749	4428
808.891	4443
809.033	4493
809.174	4367
809.316	4257
809.458	4276
809.6	4181
809.741	4143
809.883	4139
810.025	4185
810.166	4234
810.308	4207
810.45	4234
810.591	4238
810.733	4295
810.875	4531
811.016	4820
811.158	5121
811.299	5299
811.441	5288
811.582	5102
811.724	4679
811.865	4481
812.007	4447
812.148	4478
812.29	4421
812.431	4413
812.573	4462
812.714	4379
812.855	4371
812.997	4394
813.138	4493
813.279	4405
813.421	4386
813.562	4363
813.703	4421
813.845	4371
813.986	4246
814.127	4204
814.268	4253
814.41	4306
814.551	4261
814.692	4371
814.833	4310
814.974	4249
815.115	4337
815.256	4234
815.397	4215
815.539	4280
815.68	4192
815.821	4211
815.962	4314
816.103	4253
816.244	4265
816.385	4219
816.526	4268
816.666	4188
816.807	4074
816.948	4166
817.089	4154
817.23	4063
817.371	4051
817.512	4017
817.653	4082
817.793	4063
817.934	4044
818.075	4086
818.216	4093
818.356	4090
818.497	3994
818.638	3903
818.778	3953
818.919	3880
819.06	3861
819.2	3915
819.341	3876
819.481	3823
819.622	3888
819.762	4002
819.903	3941
820.043	3884
820.184	3846
820.324	3850
820.465	3876
820.605	3861
820.746	3884
820.886	3762
821.026	3896
821.167	3945
821.307	4002
821.447	3979
821.588	3987
821.728	3941
821.868	3930
822.008	3880
822.149	3937
822.289	3907
822.429	3766
822.569	3740
822.709	3793
822.849	3690
822.99	3709
823.13	3755
823.27	3785
823.41	3690
823.55	3713
823.69	3713
823.83	3732
823.97	3679
824.11	3580
824.25	3564
824.389	3671
824.529	3660
824.669	3622
824.809	3698
824.949	3812
825.089	3720
825.228	3671
825.368	3584
825.508	3561
825.648	3545
825.787	3660
825.927	3656
826.067	3633
826.206	3633
826.346	3804
826.485	3842
826.625	3884
826.765	4002
826.904	3812
827.044	3618
827.183	3549
827.323	3462
827.462	3481
827.601	3477
827.741	3439
827.88	3431
828.02	3355
828.159	3412
828.298	3466
828.437	3515
828.577	3485
828.716	3584
828.855	3485
828.994	3435
829.134	3355
829.273	3412
829.412	3378
829.551	3378
829.69	3378
829.829	3431
829.968	3515
830.107	3420
830.246	3477
830.385	3393
830.524	3340
830.663	3306
830.802	3237
830.941	3237
831.08	3226
831.219	3287
831.357	3291
831.496	3393
831.635	3291
831.774	3199
831.913	3180
832.051	3123
832.19	3138
832.329	3195
832.467	3150
832.606	3089
832.744	3165
832.883	3165
833.022	3203
833.16	3264
833.299	3321
833.437	3340
833.576	3359
833.714	3409
833.852	3477
833.991	3420
834.129	3481
834.267	3431
834.406	3389
834.544	3401
834.682	3462
834.821	3420
834.959	3545
835.097	3450
835.235	3530
835.373	3492
835.511	3515
835.65	3496
835.788	3504
835.926	3412
836.064	3405
836.202	3393
836.34	3584
836.478	3629
836.615	3545
836.753	3595
836.891	3652
837.029	3545
837.167	3549
837.305	3542
837.443	3545
837.58	3469
837.718	3610
837.856	3538
837.993	3545
838.131	3622
838.269	3614
838.406	3587
838.544	3576
838.681	3492
838.819	3443
838.956	3351
839.094	3416
839.231	3439
839.369	3526
839.506	3713
839.643	3641
839.781	3511
839.918	3466
840.055	3526
840.193	3519
840.33	3511
840.467	3511
840.604	3572
840.742	3793
840.879	3568
841.016	3576
841.153	3591
841.29	3747
841.427	3728
841.564	3740
841.701	3751
841.838	3743
841.975	3656
842.112	3675
842.249	3641
842.385	3663
842.522	3804
842.659	3701
842.796	3679
842.933	3686
843.069	3682
843.206	3762
843.343	3789
843.479	3781
843.616	3842
843.752	3663
843.889	3717
844.025	3857
844.162	3736
844.298	3854
844.435	3797
844.571	3781
844.708	3888
844.844	3991
844.98	4051
845.117	4036
845.253	3960
845.389	3918
845.525	3983
845.661	3987
845.798	3899
845.934	3987
846.07	3960
846.206	4063
846.342	4109
846.478	4044
846.614	3994
846.75	3953
846.886	3911
847.022	4063
847.158	3991
847.294	4032
847.429	4006
847.565	4025
847.701	4238
847.837	3922
847.972	3869
848.108	3968
848.244	3953
848.379	3915
848.515	3797
848.65	3838
848.786	3831
848.921	3816
849.057	3892
849.192	3956
849.328	3869
849.463	3945
849.598	3831
849.734	3854
849.869	3831
850.004	3762
850.14	3816
850.275	3797
850.41	3728
850.545	3785
850.68	3816
850.815	3789
850.95	3793
851.085	3922
851.22	3873
851.355	3838
851.49	3800
851.625	3819
851.76	3838
851.895	3743
852.03	3736
852.165	3785
852.299	3823
852.434	3922
852.569	3816
852.703	3854
852.838	3903
852.973	3972
853.107	4010
853.242	3888
853.376	3857
853.511	3759
853.645	3835
853.78	3926
853.914	3899
854.048	3899
854.183	3907
854.317	3987
854.451	4063
854.585	3937
854.72	3964
854.854	4010
854.988	3915
855.122	4013
855.256	3907
855.39	4029
855.524	4120
855.658	4128
855.792	4116
855.926	4074
856.06	4166
856.194	4227
856.327	4124
856.461	4116
856.595	4169
856.729	4150
856.862	4265
856.996	4249
857.13	4310
857.263	4299
857.397	4371
857.53	4261
857.664	4333
857.797	4360
857.931	4383
858.064	4405
858.197	4451
858.331	4398
858.464	4379
858.597	4352
858.731	4455
858.864	4470
858.997	4440
859.13	4554
859.263	4542
859.396	4607
859.529	4546
859.662	4558
859.795	4519
859.928	4615
860.061	4706
860.194	4710
860.327	4691
860.46	4615
860.592	4721
860.725	4782
860.858	4793
860.99	4683
861.123	4694
861.256	4714
861.388	4809
861.521	5299
861.653	4748
861.786	4744
861.918	4740
862.05	4793
862.183	4908
862.315	4866
862.447	4946
862.58	4873
862.712	4805
862.844	4790
862.976	4831
863.108	4873
863.24	5201
863.372	4835
863.504	4885
863.636	4896
863.768	4987
863.9	4980
864.032	4930
864.164	4965
864.296	5022
864.428	5102
864.559	5113
864.691	5105
864.823	5105
864.954	5109
865.086	5166
865.217	5102
865.349	5132
865.48	5193
865.612	5174
865.743	5292
865.875	5197
866.006	5223
866.137	5250
866.269	5273
866.4	5292
866.531	5258
866.662	5223
866.793	5330
866.924	5303
867.055	5349
867.186	5337
867.317	5315
867.448	5269
867.579	5345
867.71	5360
867.841	5383
867.972	5509
868.103	5455
868.233	5516
868.364	5501
868.495	5551
868.625	5649
868.756	5794
868.886	5608
869.017	5726
869.147	5851
869.278	5836
869.408	5813
869.539	5851
869.669	5935
869.799	5901
869.929	5977
870.06	5999
870.19	6175
870.32	6167
870.45	6251
870.58	6429
870.71	6380
870.84	6448
870.97	6422
871.1	6441
871.23	6620
871.36	6707
871.489	6700
871.619	6776
871.749	6787
871.879	6882
872.008	6996
872.138	7027
872.267	7061
872.397	7023
872.526	7057
872.656	7171
872.785	7149
872.915	7426
873.044	7529
873.173	7491
873.303	7628
873.432	7715
873.561	7871
873.69	7913
873.819	7982
873.948	8149
874.077	8229
874.206	8347
874.335	8461
874.464	8644
874.593	8883
874.722	8895
874.851	9188
874.979	9260
875.108	9355
875.237	9420
875.365	9530
875.494	9622
875.623	9766
875.751	9823
875.88	9994
876.008	10131
876.136	10257
876.265	10580
876.393	10694
876.521	10698
876.65	10850
876.778	10858
876.906	10881
877.034	11029
877.162	11048
877.29	11140
877.418	11318
877.546	11311
877.674	11532
877.802	11497
877.93	11573
878.058	11596
878.185	11467
878.313	11691
878.441	11710
878.568	11535
878.696	11802
878.824	11809
878.951	11958
879.079	12003
879.206	12098
879.333	12026
879.461	11946
879.588	12117
879.715	12079
879.842	12175
879.97	12026
880.097	11843
880.224	11885
880.351	11878
880.478	11840
880.605	11904
880.732	11882
880.859	11984
880.986	11783
881.112	11851
881.239	11828
881.366	11619
881.493	11733
881.619	11611
881.746	11562
881.872	11558
881.999	11558
882.125	11490
882.252	11440
882.378	11467
882.505	11585
882.631	11379
882.757	11292
882.883	11315
883.01	11235
883.136	11212
883.262	11094
883.388	11117
883.514	11254
883.64	11162
883.766	11159
883.892	11010
884.018	11056
884.143	11174
884.269	11105
884.395	10866
884.52	10786
884.646	10774
884.772	10653
884.897	10653
885.023	10725
885.148	10675
885.274	10828
885.399	10679
885.524	10626
885.65	10535
885.775	10577
885.9	10497
886.025	10577
886.15	10611
886.275	10504
886.4	10447
886.525	10413
886.65	10337
886.775	10367
886.9	10447
887.025	10546
887.149	10303
887.274	10200
887.399	10249
887.523	10192
887.648	10181
887.773	10169
887.897	10215
888.021	10204
888.146	10177
888.27	10196
888.395	10280
888.519	10177
888.643	10166
888.767	10177
888.891	10071
889.015	10025
889.139	10021
889.263	9998
889.387	9983
889.511	10074
889.635	10010
889.759	9873
889.883	10044
890.006	9960
890.13	10128
890.254	10006
890.377	9956
890.501	9865
890.624	9819
890.748	9926
890.871	9774
890.995	9831
891.118	9751
891.241	9827
891.364	9717
891.488	9850
891.611	9675
891.734	9755
891.857	9804
891.98	9816
892.103	9762
892.226	9762
892.349	9644
892.471	9500
892.594	9648
892.717	9671
892.839	9629
892.962	9553
893.085	9625
893.207	9591
893.33	9507
893.452	9641
893.575	9576
893.697	9408
893.819	9622
893.941	9595
894.064	9667
894.186	9504
894.308	9397
894.43	9481
894.552	9584
894.674	9538
894.796	9382
894.918	9374
895.04	9351
895.161	9382
895.283	9294
895.405	9241
895.526	9241
895.648	9237
895.769	9336
895.891	9230
896.012	9370
896.134	9176
896.255	9066
896.376	9135
896.498	9142
896.619	9199
896.74	9089
896.861	9138
896.982	9260
897.103	9340
897.224	9154
897.345	9131
897.466	9009
897.587	9070
897.708	9135
897.828	9039
897.949	8921
898.07	8861
898.19	8941
898.311	9051
898.431	8952
898.552	8899
898.672	9013
898.792	8948
898.913	8883
899.033	8823
899.153	8788
899.273	8648
899.393	8708
899.513	8830
899.633	8758
899.753	8773
899.873	8686
899.993	8727
900.113	8655
900.232	8663
900.352	8644
900.472	8621
900.591	8598
900.711	8579
900.83	8549
900.95	8636
901.069	8648
901.189	8579
901.308	8370
901.427	8442
901.546	8434
901.665	8480
901.784	8469
901.904	8381
902.023	8290
902.141	8244
902.26	8199
902.379	8267
902.498	8248
902.617	8229
902.735	8286
902.854	8317
902.973	8271
903.091	8096
903.21	8172
903.328	8134
903.446	8176
903.565	8092
903.683	8092
903.801	8043
903.919	8115
904.038	8161
904.156	8024
904.274	8111
904.392	8031
904.51	8043
904.627	8069
904.745	8100
904.863	8100
904.981	7879
905.098	7887
905.216	7860
905.334	7879
905.451	7928
905.569	7951
905.686	7959
905.803	7909
905.921	7784
906.038	7890
906.155	7776
906.272	7746
906.389	7746
906.506	7655
906.623	7643
906.74	7643
906.857	7559
906.974	7540
907.091	7662
907.208	7723
907.324	7639
907.441	7620
907.557	7396
907.674	7521
907.79	7460
907.907	7438
908.023	7392
908.139	7403
908.256	7339
908.372	7381
908.488	7384
908.604	7255
908.72	7255
908.836	7209
908.952	7270
909.068	7198
909.184	7308
909.3	7293
909.415	7270
909.531	7263
909.647	7061
909.762	7084
909.878	7076
909.993	7095
910.108	7065
910.224	7110
910.339	7095
910.454	7000
910.57	7012
910.685	7000
910.8	7190
910.915	7149
911.03	7012
911.145	6920
911.259	6837
911.374	6897
911.489	6844
911.604	6787
911.718	6749
911.833	6681
911.947	6654
912.062	6658
912.176	6662
912.291	6703
912.405	6681
912.519	6795
912.633	6833
912.748	6692
912.862	6726
912.976	6597
913.09	6544
913.204	6635
913.318	6646
913.431	6677
913.545	6669
913.659	6711
913.772	6582
913.886	6604
914	6593
914.113	6662
914.226	6700
914.34	6582
914.453	6479
914.566	6566
914.68	6555
914.793	6509
914.906	6410
915.019	6410
915.132	6429
915.245	6426
915.358	6403
915.47	6418
915.583	6464
915.696	6460
915.809	6544
915.921	6566
916.034	6452
916.146	6376
916.259	6399
916.371	6483
916.483	6388
916.595	6399
916.708	6437
916.82	6384
916.932	6338
917.044	6388
917.156	6422
917.268	6346
917.38	6331
917.491	6361
917.603	6289
917.715	6357
917.826	6437
917.938	6315
918.049	6262
918.161	6350
918.272	6464
918.384	6426
918.495	6289
918.606	6342
918.717	6197
918.828	6311
918.939	6323
919.05	6194
919.161	6178
919.272	6129
919.383	6106
919.494	6251
919.604	6403
919.715	6285
919.826	6235
919.936	6254
920.047	6395
920.157	6273
920.267	6399
920.378	6262
920.488	6285
920.598	6445
920.708	6498
920.818	6456
920.928	6498
921.038	6620
921.148	6597
921.258	6319
921.368	6296
921.477	6213
921.587	6171
921.697	6049
921.806	6117
921.916	6079
922.025	5935
922.134	5889
922.244	5889
922.353	5984
922.462	5832
922.571	5790
922.68	5714
922.789	5695
922.898	5722
923.007	5642
923.116	5726
923.224	5665
923.333	5627
923.442	5566
923.55	5543
923.659	5581
923.767	5657
923.876	5562
923.984	5562
924.092	5478
924.201	5570
924.309	5554
924.417	5581
924.525	5482
924.633	5509
924.741	6167
924.849	5345
924.956	5509
925.064	5383
925.172	5296
925.279	5315
925.387	5383
925.494	5330
925.602	5482
925.709	5383
925.816	5242
925.924	5292
926.031	5311
926.138	5246
926.245	5376
926.352	5235
926.459	5322
926.566	5337
926.673	5223
926.779	5121
926.886	5109
926.993	5022
927.099	5041
927.206	4980
927.312	4934
927.419	5060
927.525	5010
927.631	4949
927.737	4987
927.843	4858
927.95	4755
928.056	4831
928.162	4843
928.267	4843
928.373	5235
928.479	4816
928.585	4626
928.69	4797
928.796	4771
928.901	4744
929.007	4584
929.112	4683
929.218	4607
929.323	4584
929.428	4535
929.533	4664
929.638	4531
929.743	4558
929.848	4535
929.953	4527
930.058	4424
930.163	4272
930.267	4367
930.372	4424
930.477	4265
930.581	4424
930.685	4367
930.79	4257
930.894	4246
930.998	4227
931.103	4367
931.207	4128
931.311	4051
931.415	4059
931.519	3903
931.623	3949
