Data from glass_V78500241_1810.txt Node
Date: Wed Sep 01 19:27:02 CST 2021
User: usil
Spectrometer: V785-0024
Trigger mode: 0
Integration Time (sec): 4.000000E-1
Scans to average: 1
Nonlinearity correction enabled: false
Boxcar width: 0
Storing dark spectrum: false
XAxis mode: Wavelengths
Number of Pixels in Spectrum: 1024
>>>>>Begin Spectral Data<<<<<
801.071	3770
801.214	3755
801.356	3694
801.499	3740
801.641	3759
801.783	3766
801.926	3850
802.068	3857
802.211	3838
802.353	3899
802.496	3842
802.638	3892
802.78	3915
802.923	3892
803.065	3918
803.208	3854
803.35	3850
803.492	3873
803.635	3918
803.777	3808
803.919	3918
804.061	4143
804.204	3949
804.346	3930
804.488	3934
804.63	4044
804.773	3991
804.915	4017
805.057	4147
805.199	4048
805.341	4086
805.483	4154
805.626	4112
805.768	4105
805.91	4253
806.052	4219
806.194	4215
806.336	4314
806.478	4166
806.62	4192
806.762	4227
806.904	4242
807.046	4314
807.188	4230
807.33	4169
807.472	4204
807.614	4192
807.756	4287
807.898	4204
808.04	4207
808.182	4318
808.324	4341
808.465	4383
808.607	4451
808.749	4470
808.891	4447
809.033	4508
809.174	4360
809.316	4246
809.458	4261
809.6	4188
809.741	4147
809.883	4135
810.025	4200
810.166	4249
810.308	4207
810.45	4234
810.591	4246
810.733	4265
810.875	4516
811.016	4809
811.158	5170
811.299	5261
811.441	5269
811.582	5098
811.724	4698
811.865	4421
812.007	4451
812.148	4432
812.29	4409
812.431	4398
812.573	4443
812.714	4360
812.855	4436
812.997	4432
813.138	4478
813.279	4436
813.421	4360
813.562	4360
813.703	4325
813.845	4280
813.986	4272
814.127	4173
814.268	4265
814.41	4280
814.551	4287
814.692	4253
814.833	4227
814.974	4284
815.115	4379
815.256	4257
815.397	4234
815.539	4238
815.68	4188
815.821	4227
815.962	4242
816.103	4272
816.244	4268
816.385	4227
816.526	4299
816.666	4234
816.807	4101
816.948	4188
817.089	4192
817.23	4105
817.371	4036
817.512	4051
817.653	4082
817.793	4040
817.934	4017
818.075	4086
818.216	4067
818.356	4059
818.497	3979
818.638	3888
818.778	3960
818.919	3911
819.06	3884
819.2	3861
819.341	3827
819.481	3793
819.622	3945
819.762	3994
819.903	3994
820.043	3857
820.184	3816
820.324	3812
820.465	3865
820.605	3873
820.746	3831
820.886	3804
821.026	3907
821.167	3941
821.307	3964
821.447	4025
821.588	3964
821.728	3903
821.868	3941
822.008	3819
822.149	3915
822.289	3903
822.429	3774
822.569	3728
822.709	3812
822.849	3671
822.99	3709
823.13	3732
823.27	3804
823.41	3770
823.55	3732
823.69	3720
823.83	3766
823.97	3675
824.11	3576
824.25	3587
824.389	3595
824.529	3641
824.669	3625
824.809	3724
824.949	3755
825.089	3686
825.228	3709
825.368	3572
825.508	3534
825.648	3606
825.787	3572
825.927	3656
826.067	3671
826.206	3641
826.346	3762
826.485	3808
826.625	3869
826.765	3994
826.904	3835
827.044	3584
827.183	3542
827.323	3389
827.462	3488
827.601	3435
827.741	3428
827.88	3435
828.02	3355
828.159	3416
828.298	3462
828.437	3507
828.577	3466
828.716	3580
828.855	3481
828.994	3420
829.134	3332
829.273	3420
829.412	3367
829.551	3321
829.69	3355
829.829	3416
829.968	3504
830.107	3458
830.246	3481
830.385	3374
830.524	3351
830.663	3283
830.802	3237
830.941	3249
831.08	3173
831.219	3275
831.357	3241
831.496	3409
831.635	3211
831.774	3150
831.913	3222
832.051	3116
832.19	3157
832.329	3207
832.467	3108
832.606	3066
832.744	3161
832.883	3165
833.022	3207
833.16	3264
833.299	3275
833.437	3344
833.576	3340
833.714	3397
833.852	3431
833.991	3450
834.129	3462
834.267	3431
834.406	3412
834.544	3454
834.682	3443
834.821	3405
834.959	3576
835.097	3409
835.235	3542
835.373	3507
835.511	3488
835.65	3450
835.788	3420
835.926	3363
836.064	3355
836.202	3409
836.34	3568
836.478	3595
836.615	3568
836.753	3561
836.891	3652
837.029	3641
837.167	3561
837.305	3568
837.443	3542
837.58	3473
837.718	3637
837.856	3538
837.993	3564
838.131	3603
838.269	3576
838.406	3606
838.544	3587
838.681	3466
838.819	3447
838.956	3401
839.094	3397
839.231	3443
839.369	3473
839.506	3751
839.643	3667
839.781	3477
839.918	3473
840.055	3519
840.193	3523
840.33	3549
840.467	3511
840.604	3595
840.742	3808
840.879	3553
841.016	3538
841.153	3595
841.29	3770
841.427	3701
841.564	3724
841.701	3759
841.838	3694
841.975	3686
842.112	3701
842.249	3644
842.385	3587
842.522	3812
842.659	3679
842.796	3648
842.933	3743
843.069	3698
843.206	3732
843.343	3800
843.479	3770
843.616	3838
843.752	3686
843.889	3713
844.025	3842
844.162	3694
844.298	3823
844.435	3800
844.571	3774
844.708	3903
844.844	3972
844.98	4013
845.117	4006
845.253	3922
845.389	3903
845.525	3937
845.661	3934
845.798	3964
845.934	3979
846.07	3926
846.206	4010
846.342	4139
846.478	4036
846.614	3975
846.75	3915
846.886	3934
847.022	4067
847.158	3987
847.294	3994
847.429	4017
847.565	4055
847.701	4223
847.837	3888
847.972	3899
848.108	3945
848.244	3983
848.379	3861
848.515	3835
848.65	3800
848.786	3873
848.921	3857
849.057	3918
849.192	3926
849.328	3922
849.463	3960
849.598	3865
849.734	3873
849.869	3850
850.004	3743
850.14	3819
850.275	3785
850.41	3751
850.545	3747
850.68	3778
850.815	3804
850.95	3812
851.085	3911
851.22	3911
851.355	3831
851.49	3785
851.625	3797
851.76	3816
851.895	3740
852.03	3774
852.165	3819
852.299	3873
852.434	3903
852.569	3880
852.703	3842
852.838	3934
852.973	3994
853.107	4044
853.242	3888
853.376	3846
853.511	3724
853.645	3827
853.78	3964
853.914	3937
854.048	3956
854.183	3842
854.317	3930
854.451	4078
854.585	3964
854.72	3994
854.854	4067
854.988	3945
855.122	4010
855.256	3945
855.39	4036
855.524	4112
855.658	4078
855.792	4097
855.926	4124
856.06	4185
856.194	4185
856.327	4124
856.461	4124
856.595	4093
856.729	4158
856.862	4280
856.996	4230
857.13	4284
857.263	4306
857.397	4333
857.53	4284
857.664	4337
857.797	4375
857.931	4451
858.064	4424
858.197	4497
858.331	4413
858.464	4360
858.597	4306
858.731	4432
858.864	4413
858.997	4413
859.13	4489
859.263	4584
859.396	4550
859.529	4500
859.662	4538
859.795	4497
859.928	4626
860.061	4733
860.194	4729
860.327	4637
860.46	4592
860.592	4714
860.725	4812
860.858	4729
860.99	4622
861.123	4683
861.256	4717
861.388	4744
861.521	5459
861.653	4691
861.786	4691
861.918	4744
862.05	4752
862.183	4828
862.315	4812
862.447	4927
862.58	4828
862.712	4774
862.844	4778
862.976	4900
863.108	4870
863.24	5273
863.372	4824
863.504	4919
863.636	4908
863.768	4923
863.9	4995
864.032	4942
864.164	4968
864.296	5022
864.428	5060
864.559	5067
864.691	5094
864.823	5090
864.954	5067
865.086	5121
865.217	5124
865.349	5060
865.48	5132
865.612	5193
865.743	5303
865.875	5220
866.006	5204
866.137	5250
866.269	5258
866.4	5250
866.531	5277
866.662	5269
866.793	5246
866.924	5246
867.055	5334
867.186	5334
867.317	5299
867.448	5299
867.579	5330
867.71	5383
867.841	5421
867.972	5471
868.103	5486
868.233	5482
868.364	5509
868.495	5535
868.625	5646
868.756	5790
868.886	5710
869.017	5718
869.147	5874
869.278	5893
869.408	5851
869.539	5855
869.669	5904
869.799	5969
869.929	5954
870.06	6030
870.19	6235
870.32	6190
870.45	6289
870.58	6327
870.71	6441
870.84	6502
870.97	6414
871.1	6509
871.23	6582
871.36	6688
871.489	6688
871.619	6719
871.749	6798
871.879	6837
872.008	6962
872.138	6993
872.267	6962
872.397	6947
872.526	7012
872.656	7057
872.785	7103
872.915	7396
873.044	7548
873.173	7571
873.303	7651
873.432	7776
873.561	7940
873.69	7883
873.819	8073
873.948	8229
874.077	8202
874.206	8317
874.335	8461
874.464	8613
874.593	8902
874.722	8883
874.851	9074
874.979	9256
875.108	9420
875.237	9447
875.365	9553
875.494	9694
875.623	9857
875.751	9869
875.88	10074
876.008	10204
876.136	10268
876.265	10550
876.393	10717
876.521	10725
876.65	10744
876.778	10927
876.906	10900
877.034	10972
877.162	11109
877.29	11170
877.418	11315
877.546	11326
877.674	11471
877.802	11360
877.93	11512
878.058	11535
878.185	11566
878.313	11688
878.441	11733
878.568	11665
878.696	11764
878.824	11885
878.951	11969
879.079	11984
879.206	12190
879.333	12003
879.461	11939
879.588	12072
879.715	12102
879.842	12201
879.97	12064
880.097	11840
880.224	11855
880.351	11923
880.478	11942
880.605	11920
880.732	11805
880.859	12011
880.986	11756
881.112	11878
881.239	11798
881.366	11581
881.493	11634
881.619	11505
881.746	11573
881.872	11589
881.999	11440
882.125	11467
882.252	11532
882.378	11471
882.505	11562
882.631	11391
882.757	11341
882.883	11349
883.01	11216
883.136	11204
883.262	11037
883.388	11102
883.514	11098
883.64	11174
883.766	11067
883.892	10961
884.018	10987
884.143	10976
884.269	11003
884.395	10850
884.52	10721
884.646	10797
884.772	10675
884.897	10694
885.023	10729
885.148	10740
885.274	10656
885.399	10683
885.524	10561
885.65	10611
885.775	10573
885.9	10615
886.025	10611
886.15	10531
886.275	10451
886.4	10455
886.525	10459
886.65	10402
886.775	10367
886.9	10443
887.025	10489
887.149	10356
887.274	10257
887.399	10306
887.523	10135
887.648	10124
887.773	10109
887.897	10230
888.021	10219
888.146	10169
888.27	10200
888.395	10227
888.519	10181
888.643	10211
888.767	10207
888.891	10010
889.015	9987
889.139	10017
889.263	9972
889.387	10067
889.511	10067
889.635	10147
889.759	10032
889.883	9964
890.006	9968
890.13	10101
890.254	9880
890.377	10013
890.501	9781
890.624	9781
890.748	9892
890.871	9808
890.995	9759
891.118	9675
891.241	9766
891.364	9732
891.488	9835
891.611	9682
891.734	9812
891.857	9728
891.98	9705
892.103	9743
892.226	9755
892.349	9679
892.471	9500
892.594	9618
892.717	9660
892.839	9606
892.962	9568
893.085	9595
893.207	9523
893.33	9534
893.452	9515
893.575	9633
893.697	9507
893.819	9591
893.941	9629
894.064	9584
894.186	9405
894.308	9443
894.43	9629
894.552	9504
894.674	9473
894.796	9401
894.918	9447
895.04	9287
895.161	9359
895.283	9340
895.405	9268
895.526	9237
895.648	9180
895.769	9253
895.891	9237
896.012	9249
896.134	9199
896.255	9199
896.376	9180
896.498	9150
896.619	9100
896.74	9085
896.861	8990
896.982	9241
897.103	9302
897.224	9150
897.345	9116
897.466	8994
897.587	9062
897.708	9081
897.828	9043
897.949	8941
898.07	8796
898.19	8857
898.311	9055
898.431	8876
898.552	8902
898.672	9013
898.792	8895
898.913	8868
899.033	8762
899.153	8750
899.273	8682
899.393	8678
899.513	8735
899.633	8743
899.753	8785
899.873	8712
899.993	8746
900.113	8762
900.232	8716
900.352	8606
900.472	8659
900.591	8579
900.711	8575
900.83	8560
900.95	8640
901.069	8716
901.189	8575
901.308	8423
901.427	8317
901.546	8408
901.665	8377
901.784	8450
901.904	8358
902.023	8355
902.141	8191
902.26	8229
902.379	8275
902.498	8214
902.617	8240
902.735	8282
902.854	8313
902.973	8240
903.091	8172
903.21	8142
903.328	8111
903.446	8126
903.565	8081
903.683	8073
903.801	8062
903.919	8153
904.038	8145
904.156	7989
904.274	8046
904.392	8008
904.51	8020
904.627	8035
904.745	8126
904.863	8111
904.981	7830
905.098	7856
905.216	7894
905.334	7875
905.451	7925
905.569	7871
905.686	7932
905.803	7936
905.921	7814
906.038	7898
906.155	7807
906.272	7734
906.389	7719
906.506	7605
906.623	7590
906.74	7590
906.857	7529
906.974	7537
907.091	7677
907.208	7731
907.324	7620
907.441	7567
907.557	7422
907.674	7434
907.79	7381
907.907	7411
908.023	7457
908.139	7422
908.256	7396
908.372	7369
908.488	7365
908.604	7266
908.72	7244
908.836	7312
908.952	7293
909.068	7228
909.184	7259
909.3	7259
909.415	7282
909.531	7278
909.647	7118
909.762	7084
909.878	7099
909.993	7183
910.108	7137
910.224	7141
910.339	7137
910.454	7053
910.57	6970
910.685	6977
910.8	7118
910.915	7088
911.03	7057
911.145	6890
911.259	6901
911.374	6916
911.489	6798
911.604	6848
911.718	6719
911.833	6719
911.947	6665
912.062	6639
912.176	6760
912.291	6711
912.405	6722
912.519	6798
912.633	6734
912.748	6703
912.862	6681
912.976	6620
913.09	6532
913.204	6620
913.318	6654
913.431	6673
913.545	6703
913.659	6692
913.772	6608
913.886	6593
914	6551
914.113	6585
914.226	6597
914.34	6578
914.453	6467
914.566	6612
914.68	6513
914.793	6555
914.906	6448
915.019	6395
915.132	6369
915.245	6380
915.358	6403
915.47	6460
915.583	6464
915.696	6464
915.809	6456
915.921	6570
916.034	6414
916.146	6376
916.259	6338
916.371	6502
916.483	6445
916.595	6452
916.708	6437
916.82	6471
916.932	6403
917.044	6369
917.156	6426
917.268	6369
917.38	6346
917.491	6327
917.603	6353
917.715	6441
917.826	6437
917.938	6334
918.049	6281
918.161	6308
918.272	6414
918.384	6426
918.495	6361
918.606	6251
918.717	6178
918.828	6262
918.939	6300
919.05	6144
919.161	6194
919.272	6106
919.383	6155
919.494	6239
919.604	6410
919.715	6251
919.826	6216
919.936	6251
920.047	6308
920.157	6262
920.267	6445
920.378	6266
920.488	6220
920.598	6464
920.708	6540
920.818	6452
920.928	6483
921.038	6582
921.148	6597
921.258	6331
921.368	6311
921.477	6201
921.587	6186
921.697	6136
921.806	6140
921.916	6121
922.025	5973
922.134	5946
922.244	5878
922.353	5882
922.462	5832
922.571	5790
922.68	5714
922.789	5668
922.898	5680
923.007	5630
923.116	5653
923.224	5672
923.333	5665
923.442	5581
923.55	5585
923.659	5573
923.767	5608
923.876	5615
923.984	5642
924.092	5573
924.201	5581
924.309	5520
924.417	5547
924.525	5493
924.633	5478
924.741	6311
924.849	5429
924.956	5543
925.064	5364
925.172	5292
925.279	5284
925.387	5372
925.494	5322
925.602	5402
925.709	5345
925.816	5227
925.924	5292
926.031	5284
926.138	5273
926.245	5284
926.352	5231
926.459	5315
926.566	5322
926.673	5197
926.779	5147
926.886	5090
926.993	5048
927.099	5029
927.206	5018
927.312	4930
927.419	5014
927.525	4984
927.631	4934
927.737	4904
927.843	4824
927.95	4786
928.056	4786
928.162	4862
928.267	4839
928.373	5368
928.479	4896
928.585	4656
928.69	4752
928.796	4736
928.901	4672
929.007	4584
929.112	4698
929.218	4672
929.323	4603
929.428	4550
929.533	4615
929.638	4531
929.743	4512
929.848	4558
929.953	4478
930.058	4398
930.163	4314
930.267	4310
930.372	4462
930.477	4303
930.581	4424
930.685	4341
930.79	4253
930.894	4291
930.998	4219
931.103	4394
931.207	4078
931.311	4093
931.415	4071
931.519	3911
931.623	3945
