Data from glass_V78500241_387.txt Node
Date: Wed Sep 01 19:17:10 CST 2021
User: usil
Spectrometer: V785-0024
Trigger mode: 0
Integration Time (sec): 4.000000E-1
Scans to average: 1
Nonlinearity correction enabled: false
Boxcar width: 0
Storing dark spectrum: false
XAxis mode: Wavelengths
Number of Pixels in Spectrum: 1024
>>>>>Begin Spectral Data<<<<<
801.071	3732
801.214	3781
801.356	3751
801.499	3705
801.641	3762
801.783	3789
801.926	3838
802.068	3838
802.211	3911
802.353	3922
802.496	3865
802.638	3880
802.78	3915
802.923	3945
803.065	3876
803.208	3884
803.35	3892
803.492	3949
803.635	3918
803.777	3823
803.919	3918
804.061	4109
804.204	4010
804.346	3930
804.488	3865
804.63	4044
804.773	4002
804.915	4021
805.057	4162
805.199	4044
805.341	4124
805.483	4131
805.626	4173
805.768	4116
805.91	4200
806.052	4272
806.194	4200
806.336	4405
806.478	4253
806.62	4169
806.762	4204
806.904	4287
807.046	4360
807.188	4230
807.33	4207
807.472	4261
807.614	4211
807.756	4257
807.898	4227
808.04	4234
808.182	4291
808.324	4329
808.465	4379
808.607	4489
808.749	4459
808.891	4443
809.033	4546
809.174	4371
809.316	4303
809.458	4238
809.6	4143
809.741	4192
809.883	4177
810.025	4234
810.166	4230
810.308	4253
810.45	4238
810.591	4246
810.733	4333
810.875	4489
811.016	4797
811.158	5151
811.299	5277
811.441	5273
811.582	5060
811.724	4679
811.865	4447
812.007	4523
812.148	4466
812.29	4417
812.431	4409
812.573	4459
812.714	4417
812.855	4390
812.997	4462
813.138	4504
813.279	4417
813.421	4398
813.562	4402
813.703	4337
813.845	4383
813.986	4280
814.127	4280
814.268	4265
814.41	4337
814.551	4303
814.692	4299
814.833	4276
814.974	4322
815.115	4352
815.256	4295
815.397	4230
815.539	4268
815.68	4196
815.821	4257
815.962	4325
816.103	4299
816.244	4219
816.385	4215
816.526	4299
816.666	4246
816.807	4128
816.948	4162
817.089	4207
817.23	4120
817.371	4055
817.512	4029
817.653	4116
817.793	4025
817.934	4048
818.075	4101
818.216	4093
818.356	4097
818.497	3998
818.638	3876
818.778	3941
818.919	3876
819.06	3903
819.2	3941
819.341	3915
819.481	3846
819.622	3911
819.762	4048
819.903	3960
820.043	3884
820.184	3816
820.324	3922
820.465	3892
820.605	3899
820.746	3884
820.886	3819
821.026	3941
821.167	3930
821.307	4032
821.447	3964
821.588	3979
821.728	3968
821.868	3972
822.008	3896
822.149	3956
822.289	3934
822.429	3762
822.569	3732
822.709	3827
822.849	3720
822.99	3694
823.13	3770
823.27	3766
823.41	3755
823.55	3762
823.69	3713
823.83	3755
823.97	3682
824.11	3584
824.25	3629
824.389	3641
824.529	3675
824.669	3644
824.809	3705
824.949	3778
825.089	3724
825.228	3698
825.368	3591
825.508	3545
825.648	3603
825.787	3644
825.927	3679
826.067	3652
826.206	3652
826.346	3797
826.485	3838
826.625	3892
826.765	3968
826.904	3854
827.044	3603
827.183	3542
827.323	3466
827.462	3542
827.601	3466
827.741	3420
827.88	3515
828.02	3382
828.159	3500
828.298	3462
828.437	3534
828.577	3485
828.716	3625
828.855	3488
828.994	3409
829.134	3439
829.273	3409
829.412	3397
829.551	3367
829.69	3386
829.829	3420
829.968	3526
830.107	3458
830.246	3500
830.385	3378
830.524	3355
830.663	3325
830.802	3302
830.941	3184
831.08	3226
831.219	3249
831.357	3256
831.496	3420
831.635	3256
831.774	3184
831.913	3230
832.051	3135
832.19	3142
832.329	3222
832.467	3165
832.606	3131
832.744	3199
832.883	3195
833.022	3207
833.16	3241
833.299	3302
833.437	3317
833.576	3340
833.714	3424
833.852	3473
833.991	3450
834.129	3488
834.267	3443
834.406	3397
834.544	3428
834.682	3447
834.821	3420
834.959	3561
835.097	3409
835.235	3549
835.373	3526
835.511	3511
835.65	3458
835.788	3523
835.926	3416
836.064	3420
836.202	3416
836.34	3595
836.478	3606
836.615	3557
836.753	3614
836.891	3652
837.029	3591
837.167	3610
837.305	3599
837.443	3523
837.58	3511
837.718	3591
837.856	3587
837.993	3534
838.131	3591
838.269	3610
838.406	3595
838.544	3580
838.681	3458
838.819	3519
838.956	3370
839.094	3397
839.231	3496
839.369	3561
839.506	3759
839.643	3641
839.781	3530
839.918	3507
840.055	3545
840.193	3526
840.33	3545
840.467	3561
840.604	3618
840.742	3835
840.879	3568
841.016	3599
841.153	3622
841.29	3774
841.427	3762
841.564	3732
841.701	3755
841.838	3747
841.975	3740
842.112	3755
842.249	3660
842.385	3686
842.522	3819
842.659	3709
842.796	3724
842.933	3759
843.069	3724
843.206	3728
843.343	3838
843.479	3812
843.616	3876
843.752	3694
843.889	3694
844.025	3869
844.162	3759
844.298	3854
844.435	3812
844.571	3797
844.708	3956
844.844	4032
844.98	4006
845.117	4017
845.253	3899
845.389	3941
845.525	3983
845.661	3945
845.798	3934
845.934	3998
846.07	3964
846.206	4055
846.342	4135
846.478	4059
846.614	4029
846.75	3949
846.886	3937
847.022	4010
847.158	4029
847.294	3983
847.429	4036
847.565	3991
847.701	4306
847.837	3888
847.972	3842
848.108	4021
848.244	3983
848.379	3899
848.515	3831
848.65	3808
848.786	3842
848.921	3865
849.057	3937
849.192	3960
849.328	3922
849.463	3922
849.598	3896
849.734	3869
849.869	3819
850.004	3781
850.14	3865
850.275	3819
850.41	3755
850.545	3797
850.68	3793
850.815	3842
850.95	3789
851.085	3964
851.22	3926
851.355	3835
851.49	3804
851.625	3781
851.76	3800
851.895	3751
852.03	3724
852.165	3831
852.299	3876
852.434	3915
852.569	3838
852.703	3918
852.838	3956
852.973	3975
853.107	4036
853.242	3907
853.376	3941
853.511	3793
853.645	3873
853.78	3991
853.914	3876
854.048	3915
854.183	3884
854.317	3930
854.451	4063
854.585	3949
854.72	3975
854.854	4051
854.988	3915
855.122	3983
855.256	3926
855.39	4032
855.524	4131
855.658	4082
855.792	4158
855.926	4181
856.06	4223
856.194	4230
856.327	4169
856.461	4109
856.595	4238
856.729	4219
856.862	4291
856.996	4272
857.13	4344
857.263	4341
857.397	4375
857.53	4280
857.664	4386
857.797	4390
857.931	4402
858.064	4417
858.197	4466
858.331	4394
858.464	4383
858.597	4318
858.731	4443
858.864	4470
858.997	4459
859.13	4512
859.263	4512
859.396	4580
859.529	4558
859.662	4550
859.795	4561
859.928	4615
860.061	4706
860.194	4752
860.327	4660
860.46	4630
860.592	4736
860.725	4782
860.858	4778
860.99	4710
861.123	4706
861.256	4679
861.388	4782
861.521	5353
861.653	4725
861.786	4679
861.918	4706
862.05	4805
862.183	4809
862.315	4896
862.447	4961
862.58	4919
862.712	4824
862.844	4782
862.976	4896
863.108	4870
863.24	5265
863.372	4843
863.504	4923
863.636	4908
863.768	5006
863.9	4946
864.032	4919
864.164	4953
864.296	5071
864.428	5083
864.559	5132
864.691	5079
864.823	5121
864.954	5140
865.086	5117
865.217	5143
865.349	5128
865.48	5136
865.612	5223
865.743	5341
865.875	5189
866.006	5208
866.137	5258
866.269	5242
866.4	5220
866.531	5258
866.662	5254
866.793	5265
866.924	5307
867.055	5280
867.186	5303
867.317	5311
867.448	5299
867.579	5364
867.71	5334
867.841	5421
867.972	5474
868.103	5482
868.233	5532
868.364	5512
868.495	5573
868.625	5676
868.756	5771
868.886	5703
869.017	5726
869.147	5878
869.278	5916
869.408	5882
869.539	5836
869.669	5912
869.799	5954
869.929	6003
870.06	6045
870.19	6190
870.32	6220
870.45	6289
870.58	6361
870.71	6407
870.84	6471
870.97	6433
871.1	6494
871.23	6692
871.36	6738
871.489	6658
871.619	6700
871.749	6863
871.879	6875
872.008	7008
872.138	6886
872.267	6977
872.397	6886
872.526	7004
872.656	7152
872.785	7289
872.915	7403
873.044	7525
873.173	7575
873.303	7693
873.432	7719
873.561	7894
873.69	7936
873.819	8016
873.948	8142
874.077	8336
874.206	8317
874.335	8438
874.464	8674
874.593	8876
874.722	8952
874.851	9123
874.979	9218
875.108	9359
875.237	9378
875.365	9610
875.494	9637
875.623	9888
875.751	9850
875.88	10040
876.008	10124
876.136	10306
876.265	10436
876.393	10641
876.521	10717
876.65	10828
876.778	10786
876.906	10900
877.034	10911
877.162	11204
877.29	11105
877.418	11353
877.546	11360
877.674	11398
877.802	11505
877.93	11570
878.058	11547
878.185	11505
878.313	11722
878.441	11775
878.568	11703
878.696	11741
878.824	11878
878.951	12053
879.079	11996
879.206	12095
879.333	12114
879.461	12007
879.588	12186
879.715	12098
879.842	12216
879.97	12167
880.097	11840
880.224	11878
880.351	11859
880.478	11908
880.605	11863
880.732	11798
880.859	12015
880.986	11843
881.112	11897
881.239	11695
881.366	11691
881.493	11615
881.619	11596
881.746	11630
881.872	11573
881.999	11471
882.125	11444
882.252	11482
882.378	11493
882.505	11558
882.631	11406
882.757	11246
882.883	11330
883.01	11280
883.136	11284
883.262	11155
883.388	11090
883.514	11292
883.64	11227
883.766	11124
883.892	10999
884.018	10927
884.143	10953
884.269	11033
884.395	10900
884.52	10771
884.646	10793
884.772	10740
884.897	10710
885.023	10717
885.148	10755
885.274	10824
885.399	10679
885.524	10561
885.65	10558
885.775	10580
885.9	10573
886.025	10603
886.15	10592
886.275	10424
886.4	10405
886.525	10432
886.65	10409
886.775	10443
886.9	10413
887.025	10573
887.149	10341
887.274	10280
887.399	10242
887.523	10173
887.648	10196
887.773	10063
887.897	10284
888.021	10265
888.146	10162
888.27	10192
888.395	10234
888.519	10150
888.643	10139
888.767	10188
888.891	10059
889.015	10109
889.139	10078
889.263	10032
889.387	10059
889.511	10150
889.635	10101
889.759	9964
889.883	9972
890.006	10048
890.13	10116
890.254	9907
890.377	9861
890.501	9857
890.624	9838
890.748	9888
890.871	9781
890.995	9736
891.118	9682
891.241	9785
891.364	9789
891.488	9903
891.611	9698
891.734	9720
891.857	9797
891.98	9675
892.103	9686
892.226	9679
892.349	9610
892.471	9523
892.594	9644
892.717	9690
892.839	9610
892.962	9637
893.085	9652
893.207	9591
893.33	9511
893.452	9469
893.575	9625
893.697	9523
893.819	9637
893.941	9603
894.064	9629
894.186	9435
894.308	9431
894.43	9549
894.552	9542
894.674	9526
894.796	9431
894.918	9416
895.04	9408
895.161	9401
895.283	9389
895.405	9325
895.526	9306
895.648	9306
895.769	9237
895.891	9291
896.012	9294
896.134	9211
896.255	9245
896.376	9127
896.498	9207
896.619	9180
896.74	9074
896.861	9093
896.982	9245
897.103	9283
897.224	9165
897.345	9062
897.466	9013
897.587	9085
897.708	9138
897.828	9028
897.949	8914
898.07	8887
898.19	8918
898.311	8994
898.431	8971
898.552	8937
898.672	8994
898.792	8948
898.913	8925
899.033	8815
899.153	8823
899.273	8739
899.393	8712
899.513	8777
899.633	8777
899.753	8800
899.873	8705
899.993	8731
900.113	8705
900.232	8708
900.352	8716
900.472	8613
900.591	8507
900.711	8625
900.83	8526
900.95	8655
901.069	8659
901.189	8655
901.308	8446
901.427	8351
901.546	8423
901.665	8465
901.784	8480
901.904	8385
902.023	8294
902.141	8187
902.26	8225
902.379	8282
902.498	8259
902.617	8221
902.735	8339
902.854	8328
902.973	8313
903.091	8103
903.21	8100
903.328	8130
903.446	8119
903.565	8119
903.683	8107
903.801	8096
903.919	8149
904.038	8111
904.156	8001
904.274	8069
904.392	8058
904.51	8024
904.627	8012
904.745	8073
904.863	8092
904.981	7887
905.098	7841
905.216	7902
905.334	7894
905.451	7887
905.569	7875
905.686	7982
905.803	7913
905.921	7746
906.038	7902
906.155	7849
906.272	7788
906.389	7731
906.506	7693
906.623	7693
906.74	7563
906.857	7548
906.974	7563
907.091	7719
907.208	7757
907.324	7613
907.441	7601
907.557	7434
907.674	7384
907.79	7396
907.907	7369
908.023	7476
908.139	7445
908.256	7377
908.372	7400
908.488	7331
908.604	7316
908.72	7236
908.836	7289
908.952	7274
909.068	7289
909.184	7343
909.3	7209
909.415	7289
909.531	7308
909.647	7084
909.762	7065
909.878	7137
909.993	7080
910.108	7088
910.224	7126
910.339	7141
910.454	7034
910.57	7034
910.685	7042
910.8	7190
910.915	7179
911.03	6989
911.145	6928
911.259	6886
911.374	6924
911.489	6916
911.604	6871
911.718	6684
911.833	6798
911.947	6726
912.062	6616
912.176	6757
912.291	6711
912.405	6707
912.519	6840
912.633	6909
912.748	6726
912.862	6669
912.976	6616
913.09	6540
913.204	6620
913.318	6665
913.431	6684
913.545	6642
913.659	6745
913.772	6639
913.886	6544
914	6513
914.113	6642
914.226	6646
914.34	6593
914.453	6555
914.566	6601
914.68	6490
914.793	6521
914.906	6441
915.019	6437
915.132	6353
915.245	6407
915.358	6467
915.47	6513
915.583	6429
915.696	6517
915.809	6547
915.921	6555
916.034	6388
916.146	6448
916.259	6429
916.371	6486
916.483	6467
916.595	6380
916.708	6380
916.82	6410
916.932	6369
917.044	6391
917.156	6338
917.268	6346
917.38	6346
917.491	6361
917.603	6357
917.715	6426
917.826	6437
917.938	6372
918.049	6277
918.161	6308
918.272	6471
918.384	6464
918.495	6369
918.606	6266
918.717	6281
918.828	6258
918.939	6289
919.05	6190
919.161	6285
919.272	6152
919.383	6190
919.494	6327
919.604	6479
919.715	6346
919.826	6235
919.936	6277
920.047	6323
920.157	6277
920.267	6422
920.378	6350
920.488	6289
920.598	6467
920.708	6582
920.818	6475
920.928	6448
921.038	6623
921.148	6604
921.258	6342
921.368	6247
921.477	6235
921.587	6171
921.697	6076
921.806	6186
921.916	6098
922.025	5961
922.134	5984
922.244	5874
922.353	5969
922.462	5897
922.571	5802
922.68	5710
922.789	5688
922.898	5726
923.007	5634
923.116	5775
923.224	5691
923.333	5642
923.442	5604
923.55	5573
923.659	5570
923.767	5676
923.876	5592
923.984	5596
924.092	5543
924.201	5608
924.309	5642
924.417	5551
924.525	5463
924.633	5547
924.741	6300
924.849	5372
924.956	5501
925.064	5364
925.172	5326
925.279	5318
925.387	5376
925.494	5360
925.602	5436
925.709	5444
925.816	5250
925.924	5299
926.031	5376
926.138	5345
926.245	5349
926.352	5284
926.459	5357
926.566	5311
926.673	5273
926.779	5201
926.886	5155
926.993	5071
927.099	5014
927.206	4999
927.312	5025
927.419	4995
927.525	5045
927.631	4987
927.737	4889
927.843	4881
927.95	4850
928.056	4828
928.162	4839
928.267	4858
928.373	5246
928.479	4812
928.585	4698
928.69	4797
928.796	4797
928.901	4679
929.007	4592
929.112	4675
929.218	4626
929.323	4615
929.428	4630
929.533	4664
929.638	4538
929.743	4561
929.848	4558
929.953	4519
930.058	4489
930.163	4303
930.267	4348
930.372	4428
930.477	4329
930.581	4474
930.685	4375
930.79	4257
930.894	4272
930.998	4249
931.103	4390
931.207	4147
931.311	4128
931.415	4036
931.519	3926
931.623	3964
