Data from glass_V78500241_393.txt Node
Date: Wed Sep 01 19:17:13 CST 2021
User: usil
Spectrometer: V785-0024
Trigger mode: 0
Integration Time (sec): 4.000000E-1
Scans to average: 1
Nonlinearity correction enabled: false
Boxcar width: 0
Storing dark spectrum: false
XAxis mode: Wavelengths
Number of Pixels in Spectrum: 1024
>>>>>Begin Spectral Data<<<<<
801.071	3755
801.214	3793
801.356	3743
801.499	3762
801.641	3736
801.783	3774
801.926	3846
802.068	3831
802.211	3876
802.353	3888
802.496	3861
802.638	3880
802.78	3934
802.923	3937
803.065	3937
803.208	3854
803.35	3907
803.492	3937
803.635	3934
803.777	3789
803.919	3911
804.061	4188
804.204	4029
804.346	3953
804.488	3930
804.63	4074
804.773	4006
804.915	4067
805.057	4166
805.199	4048
805.341	4139
805.483	4135
805.626	4185
805.768	4101
805.91	4215
806.052	4223
806.194	4219
806.336	4341
806.478	4265
806.62	4166
806.762	4219
806.904	4276
807.046	4402
807.188	4291
807.33	4185
807.472	4207
807.614	4211
807.756	4268
807.898	4242
808.04	4242
808.182	4356
808.324	4375
808.465	4375
808.607	4447
808.749	4459
808.891	4497
809.033	4500
809.174	4348
809.316	4284
809.458	4257
809.6	4105
809.741	4173
809.883	4147
810.025	4204
810.166	4211
810.308	4196
810.45	4238
810.591	4284
810.733	4287
810.875	4580
811.016	4805
811.158	5181
811.299	5223
811.441	5307
811.582	5033
811.724	4675
811.865	4424
812.007	4504
812.148	4440
812.29	4409
812.431	4432
812.573	4424
812.714	4390
812.855	4447
812.997	4451
813.138	4500
813.279	4466
813.421	4405
813.562	4409
813.703	4341
813.845	4363
813.986	4284
814.127	4204
814.268	4265
814.41	4314
814.551	4295
814.692	4337
814.833	4268
814.974	4363
815.115	4383
815.256	4272
815.397	4265
815.539	4242
815.68	4173
815.821	4249
815.962	4337
816.103	4306
816.244	4246
816.385	4246
816.526	4306
816.666	4272
816.807	4093
816.948	4192
817.089	4177
817.23	4131
817.371	4071
817.512	4105
817.653	4071
817.793	4029
817.934	4055
818.075	4105
818.216	4059
818.356	4063
818.497	4006
818.638	3934
818.778	3964
818.919	3918
819.06	3846
819.2	3941
819.341	3876
819.481	3846
819.622	3915
819.762	4040
819.903	3945
820.043	3835
820.184	3812
820.324	3838
820.465	3945
820.605	3888
820.746	3918
820.886	3819
821.026	3975
821.167	3918
821.307	3972
821.447	3987
821.588	3968
821.728	4010
821.868	3930
822.008	3873
822.149	3903
822.289	3926
822.429	3808
822.569	3819
822.709	3816
822.849	3713
822.99	3736
823.13	3770
823.27	3793
823.41	3740
823.55	3713
823.69	3747
823.83	3740
823.97	3682
824.11	3629
824.25	3637
824.389	3641
824.529	3701
824.669	3618
824.809	3770
824.949	3736
825.089	3724
825.228	3743
825.368	3587
825.508	3557
825.648	3591
825.787	3629
825.927	3610
826.067	3652
826.206	3663
826.346	3793
826.485	3819
826.625	3869
826.765	3956
826.904	3835
827.044	3625
827.183	3526
827.323	3435
827.462	3549
827.601	3435
827.741	3412
827.88	3485
828.02	3374
828.159	3416
828.298	3523
828.437	3557
828.577	3473
828.716	3633
828.855	3538
828.994	3435
829.134	3332
829.273	3389
829.412	3389
829.551	3397
829.69	3359
829.829	3428
829.968	3515
830.107	3481
830.246	3424
830.385	3374
830.524	3370
830.663	3321
830.802	3233
830.941	3161
831.08	3218
831.219	3279
831.357	3275
831.496	3389
831.635	3275
831.774	3188
831.913	3241
832.051	3123
832.19	3207
832.329	3218
832.467	3123
832.606	3142
832.744	3173
832.883	3214
833.022	3226
833.16	3260
833.299	3344
833.437	3397
833.576	3386
833.714	3374
833.852	3424
833.991	3481
834.129	3492
834.267	3462
834.406	3405
834.544	3443
834.682	3431
834.821	3386
834.959	3580
835.097	3428
835.235	3511
835.373	3496
835.511	3507
835.65	3454
835.788	3507
835.926	3420
836.064	3405
836.202	3382
836.34	3599
836.478	3660
836.615	3587
836.753	3618
836.891	3610
837.029	3648
837.167	3580
837.305	3641
837.443	3564
837.58	3534
837.718	3629
837.856	3603
837.993	3587
838.131	3622
838.269	3595
838.406	3595
838.544	3591
838.681	3466
838.819	3466
838.956	3428
839.094	3431
839.231	3435
839.369	3534
839.506	3713
839.643	3686
839.781	3462
839.918	3500
840.055	3526
840.193	3530
840.33	3530
840.467	3587
840.604	3625
840.742	3812
840.879	3542
841.016	3618
841.153	3633
841.29	3789
841.427	3751
841.564	3800
841.701	3759
841.838	3667
841.975	3740
842.112	3728
842.249	3660
842.385	3637
842.522	3854
842.659	3747
842.796	3698
842.933	3705
843.069	3743
843.206	3686
843.343	3819
843.479	3778
843.616	3808
843.752	3713
843.889	3698
844.025	3846
844.162	3713
844.298	3850
844.435	3797
844.571	3831
844.708	3903
844.844	4032
844.98	4006
845.117	4055
845.253	3918
845.389	3915
845.525	3975
845.661	3941
845.798	3922
845.934	4040
846.07	3953
846.206	4082
846.342	4154
846.478	4040
846.614	3972
846.75	3918
846.886	3915
847.022	4067
847.158	4002
847.294	4006
847.429	4036
847.565	3945
847.701	4238
847.837	3861
847.972	3892
848.108	4040
848.244	3987
848.379	3869
848.515	3819
848.65	3804
848.786	3861
848.921	3857
849.057	3941
849.192	3975
849.328	3937
849.463	3934
849.598	3937
849.734	3876
849.869	3869
850.004	3800
850.14	3812
850.275	3793
850.41	3740
850.545	3781
850.68	3793
850.815	3797
850.95	3797
851.085	3960
851.22	3861
851.355	3892
851.49	3800
851.625	3812
851.76	3808
851.895	3762
852.03	3732
852.165	3816
852.299	3865
852.434	3937
852.569	3915
852.703	3911
852.838	3937
852.973	4013
853.107	3991
853.242	3918
853.376	3846
853.511	3770
853.645	3835
853.78	3983
853.914	3896
854.048	3960
854.183	3926
854.317	3937
854.451	4032
854.585	3930
854.72	3991
854.854	4067
854.988	3949
855.122	3987
855.256	3922
855.39	4059
855.524	4112
855.658	4097
855.792	4120
855.926	4147
856.06	4204
856.194	4238
856.327	4158
856.461	4139
856.595	4154
856.729	4192
856.862	4348
856.996	4291
857.13	4299
857.263	4329
857.397	4329
857.53	4314
857.664	4367
857.797	4409
857.931	4447
858.064	4424
858.197	4523
858.331	4409
858.464	4398
858.597	4360
858.731	4447
858.864	4481
858.997	4500
859.13	4531
859.263	4500
859.396	4561
859.529	4542
859.662	4558
859.795	4580
859.928	4626
860.061	4717
860.194	4733
860.327	4687
860.46	4656
860.592	4767
860.725	4774
860.858	4793
860.99	4637
861.123	4710
861.256	4717
861.388	4755
861.521	5421
861.653	4710
861.786	4694
861.918	4767
862.05	4831
862.183	4801
862.315	4885
862.447	4949
862.58	4892
862.712	4866
862.844	4733
862.976	4881
863.108	4831
863.24	5299
863.372	4843
863.504	4915
863.636	4885
863.768	4999
863.9	4976
864.032	4923
864.164	4953
864.296	5014
864.428	5083
864.559	5067
864.691	5113
864.823	5136
864.954	5140
865.086	5162
865.217	5060
865.349	5124
865.48	5201
865.612	5181
865.743	5288
865.875	5235
866.006	5197
866.137	5250
866.269	5231
866.4	5216
866.531	5239
866.662	5227
866.793	5258
866.924	5322
867.055	5318
867.186	5391
867.317	5345
867.448	5364
867.579	5345
867.71	5417
867.841	5379
867.972	5467
868.103	5478
868.233	5482
868.364	5535
868.495	5520
868.625	5642
868.756	5832
868.886	5642
869.017	5726
869.147	5870
869.278	5859
869.408	5809
869.539	5817
869.669	5851
869.799	5942
869.929	5958
870.06	6034
870.19	6224
870.32	6205
870.45	6273
870.58	6369
870.71	6403
870.84	6403
870.97	6445
871.1	6426
871.23	6616
871.36	6730
871.489	6658
871.619	6783
871.749	6833
871.879	6871
872.008	7031
872.138	6954
872.267	6973
872.397	6996
872.526	7038
872.656	7126
872.785	7171
872.915	7407
873.044	7529
873.173	7636
873.303	7620
873.432	7750
873.561	7906
873.69	7993
873.819	8031
873.948	8130
874.077	8263
874.206	8351
874.335	8473
874.464	8701
874.593	8883
874.722	8929
874.851	9161
874.979	9298
875.108	9382
875.237	9397
875.365	9504
875.494	9580
875.623	9800
875.751	9774
875.88	10093
876.008	10143
876.136	10280
876.265	10577
876.393	10694
876.521	10702
876.65	10801
876.778	10881
876.906	10972
877.034	11056
877.162	11090
877.29	11159
877.418	11273
877.546	11360
877.674	11417
877.802	11433
877.93	11596
878.058	11539
878.185	11619
878.313	11634
878.441	11745
878.568	11638
878.696	11786
878.824	11851
878.951	11984
879.079	11996
879.206	12140
879.333	12045
879.461	12106
879.588	12091
879.715	12053
879.842	12216
879.97	12026
880.097	11805
880.224	11843
880.351	11904
880.478	11939
880.605	11741
880.732	11847
880.859	12083
880.986	11863
881.112	11946
881.239	11722
881.366	11680
881.493	11623
881.619	11604
881.746	11634
881.872	11573
881.999	11596
882.125	11512
882.252	11570
882.378	11524
882.505	11543
882.631	11398
882.757	11337
882.883	11265
883.01	11307
883.136	11193
883.262	11140
883.388	11083
883.514	11204
883.64	11231
883.766	11094
883.892	10938
884.018	10972
884.143	11117
884.269	11147
884.395	10812
884.52	10786
884.646	10839
884.772	10653
884.897	10694
885.023	10744
885.148	10736
885.274	10763
885.399	10714
885.524	10626
885.65	10660
885.775	10599
885.9	10618
886.025	10653
886.15	10565
886.275	10417
886.4	10375
886.525	10421
886.65	10382
886.775	10402
886.9	10508
887.025	10634
887.149	10287
887.274	10261
887.399	10253
887.523	10169
887.648	10166
887.773	10097
887.897	10280
888.021	10265
888.146	10150
888.27	10215
888.395	10234
888.519	10162
888.643	10150
888.767	10207
888.891	10105
889.015	9911
889.139	10150
889.263	9949
889.387	10090
889.511	10147
889.635	10135
889.759	9960
889.883	10010
890.006	10036
890.13	10139
890.254	10040
890.377	9975
890.501	9819
890.624	9941
890.748	9911
890.871	9793
890.995	9740
891.118	9629
891.241	9766
891.364	9732
891.488	9797
891.611	9724
891.734	9762
891.857	9713
891.98	9717
892.103	9770
892.226	9743
892.349	9675
892.471	9534
892.594	9580
892.717	9606
892.839	9614
892.962	9633
893.085	9690
893.207	9610
893.33	9584
893.452	9488
893.575	9595
893.697	9599
893.819	9663
893.941	9618
894.064	9656
894.186	9466
894.308	9393
894.43	9561
894.552	9652
894.674	9603
894.796	9405
894.918	9378
895.04	9355
895.161	9351
895.283	9359
895.405	9211
895.526	9325
895.648	9188
895.769	9230
895.891	9272
896.012	9298
896.134	9218
896.255	9142
896.376	9062
896.498	9237
896.619	9131
896.74	9077
896.861	9108
896.982	9306
897.103	9313
897.224	9150
897.345	9108
897.466	9017
897.587	9001
897.708	9119
897.828	9058
897.949	8960
898.07	8902
898.19	8887
898.311	9039
898.431	8910
898.552	8963
898.672	9039
898.792	8960
898.913	8948
899.033	8807
899.153	8800
899.273	8571
899.393	8716
899.513	8804
899.633	8750
899.753	8754
899.873	8682
899.993	8807
900.113	8712
900.232	8705
900.352	8689
900.472	8617
900.591	8560
900.711	8564
900.83	8484
900.95	8678
901.069	8674
901.189	8571
901.308	8442
901.427	8377
901.546	8480
901.665	8461
901.784	8530
901.904	8336
902.023	8377
902.141	8202
902.26	8233
902.379	8256
902.498	8248
902.617	8225
902.735	8259
902.854	8298
902.973	8347
903.091	8058
903.21	8111
903.328	8149
903.446	8111
903.565	8084
903.683	8134
903.801	8062
903.919	8123
904.038	8191
904.156	8092
904.274	8103
904.392	8050
904.51	8100
904.627	8027
904.745	8130
904.863	8142
904.981	7925
905.098	7826
905.216	7917
905.334	7902
905.451	7925
905.569	7955
905.686	7959
905.803	7970
905.921	7852
906.038	7849
906.155	7837
906.272	7708
906.389	7757
906.506	7662
906.623	7620
906.74	7639
906.857	7559
906.974	7537
907.091	7677
907.208	7700
907.324	7674
907.441	7613
907.557	7468
907.674	7453
907.79	7384
907.907	7381
908.023	7438
908.139	7388
908.256	7400
908.372	7346
908.488	7358
908.604	7263
908.72	7228
908.836	7339
908.952	7255
909.068	7213
909.184	7301
909.3	7297
909.415	7324
909.531	7308
909.647	7190
909.762	7141
909.878	7137
909.993	7129
910.108	7103
910.224	7091
910.339	7114
910.454	7019
910.57	7012
910.685	6943
910.8	7198
910.915	7145
911.03	6977
911.145	6913
911.259	6886
911.374	6837
911.489	6901
911.604	6772
911.718	6738
911.833	6772
911.947	6620
912.062	6623
912.176	6700
912.291	6692
912.405	6684
912.519	6783
912.633	6859
912.748	6722
912.862	6749
912.976	6646
913.09	6486
913.204	6593
913.318	6574
913.431	6658
913.545	6719
913.659	6688
913.772	6662
913.886	6612
914	6589
914.113	6681
914.226	6620
914.34	6589
914.453	6509
914.566	6601
914.68	6460
914.793	6566
914.906	6388
915.019	6429
915.132	6357
915.245	6388
915.358	6418
915.47	6494
915.583	6460
915.696	6509
915.809	6582
915.921	6544
916.034	6429
916.146	6456
916.259	6380
916.371	6502
916.483	6448
916.595	6388
916.708	6467
916.82	6422
916.932	6346
917.044	6388
917.156	6441
917.268	6323
917.38	6365
917.491	6273
917.603	6342
917.715	6414
917.826	6422
917.938	6315
918.049	6319
918.161	6350
918.272	6437
918.384	6414
918.495	6350
918.606	6319
918.717	6224
918.828	6266
918.939	6273
919.05	6247
919.161	6224
919.272	6155
919.383	6148
919.494	6311
919.604	6391
919.715	6308
919.826	6266
919.936	6308
920.047	6350
920.157	6285
920.267	6433
920.378	6258
920.488	6266
920.598	6467
920.708	6585
920.818	6502
920.928	6475
921.038	6635
921.148	6566
921.258	6369
921.368	6334
921.477	6228
921.587	6254
921.697	6155
921.806	6209
921.916	6049
922.025	5961
922.134	5977
922.244	5912
922.353	5958
922.462	5935
922.571	5855
922.68	5703
922.789	5672
922.898	5680
923.007	5688
923.116	5710
923.224	5630
923.333	5714
923.442	5596
923.55	5653
923.659	5619
923.767	5684
923.876	5570
923.984	5581
924.092	5512
924.201	5577
924.309	5554
924.417	5562
924.525	5490
924.633	5558
924.741	6254
924.849	5357
924.956	5493
925.064	5318
925.172	5311
925.279	5269
925.387	5357
925.494	5318
925.602	5410
925.709	5425
925.816	5273
925.924	5353
926.031	5387
926.138	5284
926.245	5334
926.352	5280
926.459	5307
926.566	5341
926.673	5242
926.779	5166
926.886	5166
926.993	5075
927.099	5018
927.206	4961
927.312	4965
927.419	4995
927.525	4991
927.631	5006
927.737	4938
927.843	4896
927.95	4771
928.056	4759
928.162	4843
928.267	4866
928.373	5284
928.479	4908
928.585	4694
928.69	4740
928.796	4778
928.901	4736
929.007	4607
929.112	4630
929.218	4660
929.323	4645
929.428	4580
929.533	4683
929.638	4523
929.743	4558
929.848	4546
929.953	4538
930.058	4447
930.163	4318
930.267	4367
930.372	4478
930.477	4306
930.581	4519
930.685	4394
930.79	4242
930.894	4268
930.998	4291
931.103	4402
931.207	4131
931.311	4128
931.415	4063
931.519	3918
931.623	3979
