Data from glass_V78500241_1732.txt Node
Date: Wed Sep 01 19:26:30 CST 2021
User: usil
Spectrometer: V785-0024
Trigger mode: 0
Integration Time (sec): 4.000000E-1
Scans to average: 1
Nonlinearity correction enabled: false
Boxcar width: 0
Storing dark spectrum: false
XAxis mode: Wavelengths
Number of Pixels in Spectrum: 1024
>>>>>Begin Spectral Data<<<<<
801.071	3770
801.214	3755
801.356	3675
801.499	3747
801.641	3724
801.783	3770
801.926	3857
802.068	3842
802.211	3857
802.353	3857
802.496	3850
802.638	3911
802.78	3918
802.923	3918
803.065	3888
803.208	3888
803.35	3861
803.492	3934
803.635	3949
803.777	3823
803.919	3922
804.061	4188
804.204	3941
804.346	3945
804.488	3934
804.63	3975
804.773	3960
804.915	4021
805.057	4124
805.199	4010
805.341	4082
805.483	4120
805.626	4135
805.768	4090
805.91	4253
806.052	4242
806.194	4211
806.336	4352
806.478	4211
806.62	4219
806.762	4230
806.904	4227
807.046	4341
807.188	4204
807.33	4181
807.472	4211
807.614	4177
807.756	4261
807.898	4200
808.04	4223
808.182	4284
808.324	4318
808.465	4379
808.607	4459
808.749	4459
808.891	4440
809.033	4489
809.174	4447
809.316	4246
809.458	4230
809.6	4181
809.741	4120
809.883	4131
810.025	4181
810.166	4215
810.308	4272
810.45	4215
810.591	4238
810.733	4272
810.875	4561
811.016	4843
811.158	5083
811.299	5273
811.441	5284
811.582	5079
811.724	4710
811.865	4478
812.007	4489
812.148	4421
812.29	4409
812.431	4379
812.573	4390
812.714	4375
812.855	4432
812.997	4413
813.138	4516
813.279	4432
813.421	4386
813.562	4325
813.703	4295
813.845	4352
813.986	4207
814.127	4215
814.268	4211
814.41	4284
814.551	4257
814.692	4329
814.833	4261
814.974	4291
815.115	4295
815.256	4234
815.397	4185
815.539	4310
815.68	4215
815.821	4200
815.962	4322
816.103	4265
816.244	4188
816.385	4196
816.526	4265
816.666	4230
816.807	4139
816.948	4139
817.089	4207
817.23	4093
817.371	4082
817.512	4051
817.653	4105
817.793	4021
817.934	4078
818.075	4071
818.216	4071
818.356	4048
818.497	4051
818.638	3903
818.778	3915
818.919	3888
819.06	3884
819.2	3937
819.341	3869
819.481	3873
819.622	3876
819.762	3994
819.903	3964
820.043	3846
820.184	3835
820.324	3789
820.465	3888
820.605	3903
820.746	3854
820.886	3823
821.026	3930
821.167	3911
821.307	3998
821.447	3991
821.588	3922
821.728	3956
821.868	3911
822.008	3911
822.149	3892
822.289	3926
822.429	3797
822.569	3774
822.709	3827
822.849	3720
822.99	3728
823.13	3793
823.27	3789
823.41	3724
823.55	3728
823.69	3698
823.83	3770
823.97	3690
824.11	3599
824.25	3629
824.389	3644
824.529	3644
824.669	3633
824.809	3705
824.949	3728
825.089	3705
825.228	3709
825.368	3584
825.508	3564
825.648	3568
825.787	3606
825.927	3622
826.067	3667
826.206	3667
826.346	3762
826.485	3850
826.625	3873
826.765	3945
826.904	3831
827.044	3606
827.183	3526
827.323	3420
827.462	3481
827.601	3428
827.741	3450
827.88	3420
828.02	3386
828.159	3428
828.298	3477
828.437	3492
828.577	3458
828.716	3584
828.855	3496
828.994	3405
829.134	3340
829.273	3393
829.412	3325
829.551	3340
829.69	3367
829.829	3401
829.968	3526
830.107	3416
830.246	3424
830.385	3374
830.524	3344
830.663	3275
830.802	3249
830.941	3165
831.08	3207
831.219	3272
831.357	3256
831.496	3409
831.635	3199
831.774	3233
831.913	3203
832.051	3154
832.19	3184
832.329	3214
832.467	3104
832.606	3112
832.744	3135
832.883	3211
833.022	3207
833.16	3214
833.299	3275
833.437	3306
833.576	3363
833.714	3374
833.852	3405
833.991	3435
834.129	3473
834.267	3405
834.406	3405
834.544	3428
834.682	3424
834.821	3424
834.959	3553
835.097	3412
835.235	3477
835.373	3496
835.511	3485
835.65	3473
835.788	3477
835.926	3428
836.064	3382
836.202	3458
836.34	3534
836.478	3595
836.615	3511
836.753	3568
836.891	3652
837.029	3587
837.167	3538
837.305	3542
837.443	3538
837.58	3515
837.718	3637
837.856	3568
837.993	3507
838.131	3614
838.269	3595
838.406	3618
838.544	3584
838.681	3458
838.819	3466
838.956	3348
839.094	3378
839.231	3466
839.369	3523
839.506	3705
839.643	3641
839.781	3477
839.918	3439
840.055	3538
840.193	3538
840.33	3500
840.467	3572
840.604	3614
840.742	3835
840.879	3545
841.016	3564
841.153	3618
841.29	3770
841.427	3751
841.564	3724
841.701	3759
841.838	3713
841.975	3622
842.112	3728
842.249	3641
842.385	3633
842.522	3823
842.659	3705
842.796	3694
842.933	3724
843.069	3682
843.206	3724
843.343	3823
843.479	3797
843.616	3823
843.752	3660
843.889	3686
844.025	3838
844.162	3724
844.298	3850
844.435	3774
844.571	3797
844.708	3896
844.844	3991
844.98	4010
845.117	4002
845.253	3899
845.389	3903
845.525	3937
845.661	3899
845.798	3937
845.934	4029
846.07	3941
846.206	4021
846.342	4139
846.478	4086
846.614	3968
846.75	3934
846.886	3953
847.022	4055
847.158	3964
847.294	3991
847.429	4040
847.565	3956
847.701	4238
847.837	3869
847.972	3857
848.108	3968
848.244	3964
848.379	3823
848.515	3793
848.65	3835
848.786	3823
848.921	3873
849.057	3922
849.192	3926
849.328	3903
849.463	3964
849.598	3842
849.734	3888
849.869	3823
850.004	3789
850.14	3793
850.275	3793
850.41	3717
850.545	3774
850.68	3781
850.815	3812
850.95	3793
851.085	3907
851.22	3876
851.355	3808
851.49	3751
851.625	3793
851.76	3812
851.895	3751
852.03	3709
852.165	3823
852.299	3880
852.434	3915
852.569	3861
852.703	3911
852.838	3949
852.973	4006
853.107	3968
853.242	3876
853.376	3846
853.511	3701
853.645	3827
853.78	3991
853.914	3934
854.048	3888
854.183	3884
854.317	3975
854.451	4040
854.585	3953
854.72	3915
854.854	4025
854.988	3926
855.122	4013
855.256	3896
855.39	3983
855.524	4109
855.658	4112
855.792	4036
855.926	4166
856.06	4124
856.194	4215
856.327	4139
856.461	4086
856.595	4135
856.729	4166
856.862	4287
856.996	4223
857.13	4249
857.263	4299
857.397	4375
857.53	4276
857.664	4344
857.797	4371
857.931	4428
858.064	4383
858.197	4489
858.331	4443
858.464	4360
858.597	4379
858.731	4459
858.864	4428
858.997	4455
859.13	4497
859.263	4565
859.396	4561
859.529	4523
859.662	4508
859.795	4504
859.928	4588
860.061	4672
860.194	4729
860.327	4675
860.46	4668
860.592	4710
860.725	4771
860.858	4782
860.99	4634
861.123	4668
861.256	4683
861.388	4748
861.521	5414
861.653	4664
861.786	4740
861.918	4710
862.05	4797
862.183	4824
862.315	4877
862.447	4900
862.58	4831
862.712	4797
862.844	4721
862.976	4858
863.108	4831
863.24	5246
863.372	4843
863.504	4858
863.636	4839
863.768	4934
863.9	4900
864.032	4946
864.164	4919
864.296	5037
864.428	5121
864.559	5128
864.691	5117
864.823	5170
864.954	5155
865.086	5113
865.217	5102
865.349	5124
865.48	5113
865.612	5227
865.743	5315
865.875	5197
866.006	5166
866.137	5231
866.269	5250
866.4	5265
866.531	5201
866.662	5242
866.793	5250
866.924	5273
867.055	5357
867.186	5311
867.317	5307
867.448	5288
867.579	5402
867.71	5341
867.841	5383
867.972	5478
868.103	5516
868.233	5474
868.364	5528
868.495	5558
868.625	5684
868.756	5817
868.886	5668
869.017	5714
869.147	5832
869.278	5889
869.408	5824
869.539	5874
869.669	5958
869.799	5904
869.929	5992
870.06	6045
870.19	6159
870.32	6178
870.45	6251
870.58	6334
870.71	6327
870.84	6418
870.97	6395
871.1	6391
871.23	6662
871.36	6707
871.489	6673
871.619	6677
871.749	6798
871.879	6871
872.008	6970
872.138	6973
872.267	6985
872.397	7015
872.526	7019
872.656	7076
872.785	7202
872.915	7365
873.044	7506
873.173	7510
873.303	7643
873.432	7727
873.561	7864
873.69	7837
873.819	7978
873.948	8115
874.077	8267
874.206	8389
874.335	8476
874.464	8663
874.593	8891
874.722	8891
874.851	9112
874.979	9214
875.108	9344
875.237	9466
875.365	9530
875.494	9652
875.623	9835
875.751	9827
875.88	10074
876.008	10166
876.136	10310
876.265	10523
876.393	10672
876.521	10691
876.65	10820
876.778	10812
876.906	10862
877.034	10965
877.162	11094
877.29	11170
877.418	11258
877.546	11372
877.674	11383
877.802	11452
877.93	11524
878.058	11539
878.185	11653
878.313	11608
878.441	11684
878.568	11642
878.696	11843
878.824	11813
878.951	11935
879.079	11992
879.206	12125
879.333	12057
879.461	12053
879.588	12011
879.715	12163
879.842	12224
879.97	12030
880.097	11809
880.224	11901
880.351	11863
880.478	11874
880.605	11847
880.732	11855
880.859	11950
880.986	11813
881.112	11942
881.239	11783
881.366	11691
881.493	11551
881.619	11493
881.746	11535
881.872	11558
881.999	11486
882.125	11444
882.252	11585
882.378	11554
882.505	11554
882.631	11402
882.757	11250
882.883	11307
883.01	11189
883.136	11239
883.262	11113
883.388	11098
883.514	11155
883.64	11132
883.766	11174
883.892	11067
884.018	11006
884.143	11045
884.269	11102
884.395	10839
884.52	10782
884.646	10748
884.772	10694
884.897	10596
885.023	10668
885.148	10683
885.274	10797
885.399	10698
885.524	10679
885.65	10546
885.775	10611
885.9	10607
886.025	10577
886.15	10554
886.275	10413
886.4	10394
886.525	10485
886.65	10382
886.775	10318
886.9	10424
887.025	10489
887.149	10360
887.274	10257
887.399	10200
887.523	10154
887.648	10166
887.773	10116
887.897	10253
888.021	10284
888.146	10078
888.27	10257
888.395	10211
888.519	10188
888.643	10150
888.767	10219
888.891	10090
889.015	9979
889.139	10078
889.263	10013
889.387	10078
889.511	10143
889.635	10071
889.759	10032
889.883	10017
890.006	10017
890.13	10090
890.254	10074
890.377	10002
890.501	9846
890.624	9838
890.748	9915
890.871	9823
890.995	9675
891.118	9747
891.241	9663
891.364	9865
891.488	9812
891.611	9789
891.734	9819
891.857	9755
891.98	9675
892.103	9770
892.226	9751
892.349	9614
892.471	9553
892.594	9561
892.717	9576
892.839	9564
892.962	9641
893.085	9644
893.207	9622
893.33	9549
893.452	9523
893.575	9610
893.697	9511
893.819	9580
893.941	9637
894.064	9663
894.186	9450
894.308	9401
894.43	9526
894.552	9549
894.674	9458
894.796	9405
894.918	9367
895.04	9348
895.161	9363
895.283	9348
895.405	9192
895.526	9253
895.648	9237
895.769	9268
895.891	9283
896.012	9203
896.134	9192
896.255	9146
896.376	9131
896.498	9104
896.619	9108
896.74	9074
896.861	9100
896.982	9302
897.103	9386
897.224	9150
897.345	9089
897.466	9055
897.587	9039
897.708	9051
897.828	8975
897.949	8948
898.07	8876
898.19	8895
898.311	9017
898.431	8899
898.552	8937
898.672	9005
898.792	8994
898.913	8902
899.033	8811
899.153	8727
899.273	8716
899.393	8727
899.513	8754
899.633	8739
899.753	8712
899.873	8758
899.993	8785
900.113	8682
900.232	8766
900.352	8648
900.472	8571
900.591	8583
900.711	8617
900.83	8541
900.95	8655
901.069	8743
901.189	8606
901.308	8473
901.427	8343
901.546	8412
901.665	8511
901.784	8404
901.904	8351
902.023	8298
902.141	8290
902.26	8256
902.379	8279
902.498	8221
902.617	8183
902.735	8336
902.854	8294
902.973	8244
903.091	8172
903.21	8138
903.328	8176
903.446	8191
903.565	8069
903.683	8092
903.801	8065
903.919	8126
904.038	8134
904.156	7997
904.274	8084
904.392	8031
904.51	8027
904.627	8111
904.745	8031
904.863	8111
904.981	7963
905.098	7845
905.216	7879
905.334	7890
905.451	7906
905.569	7868
905.686	7921
905.803	7890
905.921	7788
906.038	7868
906.155	7715
906.272	7757
906.389	7738
906.506	7639
906.623	7601
906.74	7620
906.857	7597
906.974	7544
907.091	7681
907.208	7700
907.324	7628
907.441	7529
907.557	7422
907.674	7430
907.79	7407
907.907	7438
908.023	7468
908.139	7483
908.256	7358
908.372	7350
908.488	7381
908.604	7244
908.72	7221
908.836	7217
908.952	7270
909.068	7247
909.184	7350
909.3	7274
909.415	7236
909.531	7282
909.647	7149
909.762	7175
909.878	7099
909.993	7061
910.108	7072
910.224	7072
910.339	7107
910.454	7034
910.57	7061
910.685	6981
910.8	7152
910.915	7122
911.03	7042
911.145	6837
911.259	6844
911.374	6867
911.489	6890
911.604	6814
911.718	6722
911.833	6821
911.947	6601
912.062	6559
912.176	6703
912.291	6677
912.405	6688
912.519	6814
912.633	6772
912.748	6722
912.862	6730
912.976	6627
913.09	6498
913.204	6604
913.318	6623
913.431	6658
913.545	6711
913.659	6684
913.772	6677
913.886	6593
914	6589
914.113	6665
914.226	6601
914.34	6536
914.453	6574
914.566	6597
914.68	6502
914.793	6494
914.906	6433
915.019	6429
915.132	6410
915.245	6422
915.358	6456
915.47	6456
915.583	6479
915.696	6464
915.809	6566
915.921	6551
916.034	6456
916.146	6380
916.259	6399
916.371	6414
916.483	6403
916.595	6357
916.708	6429
916.82	6395
916.932	6353
917.044	6384
917.156	6403
917.268	6300
917.38	6296
917.491	6353
917.603	6369
917.715	6376
917.826	6456
917.938	6292
918.049	6262
918.161	6369
918.272	6460
918.384	6437
918.495	6289
918.606	6304
918.717	6216
918.828	6258
918.939	6292
919.05	6197
919.161	6247
919.272	6087
919.383	6163
919.494	6315
919.604	6437
919.715	6262
919.826	6281
919.936	6292
920.047	6334
920.157	6262
920.267	6429
920.378	6315
920.488	6304
920.598	6433
920.708	6593
920.818	6464
920.928	6429
921.038	6601
921.148	6532
921.258	6350
921.368	6315
921.477	6232
921.587	6175
921.697	6091
921.806	6190
921.916	6144
922.025	5923
922.134	5901
922.244	5904
922.353	5969
922.462	5855
922.571	5813
922.68	5699
922.789	5642
922.898	5703
923.007	5653
923.116	5710
923.224	5676
923.333	5642
923.442	5547
923.55	5570
923.659	5596
923.767	5642
923.876	5566
923.984	5589
924.092	5497
924.201	5573
924.309	5547
924.417	5524
924.525	5505
924.633	5490
924.741	6262
924.849	5383
924.956	5509
925.064	5406
925.172	5307
925.279	5277
925.387	5364
925.494	5341
925.602	5368
925.709	5372
925.816	5258
925.924	5303
926.031	5318
926.138	5326
926.245	5341
926.352	5223
926.459	5368
926.566	5288
926.673	5162
926.779	5151
926.886	5147
926.993	5037
927.099	4980
927.206	5018
927.312	4957
927.419	5041
927.525	5041
927.631	4991
927.737	4881
927.843	4889
927.95	4797
928.056	4870
928.162	4801
928.267	4881
928.373	5265
928.479	4828
928.585	4729
928.69	4729
928.796	4736
928.901	4694
929.007	4603
929.112	4626
929.218	4637
929.323	4615
929.428	4542
929.533	4683
929.638	4508
929.743	4512
929.848	4538
929.953	4523
930.058	4451
930.163	4280
930.267	4386
930.372	4443
930.477	4310
930.581	4508
930.685	4375
930.79	4204
930.894	4234
930.998	4253
931.103	4443
931.207	4154
931.311	4074
931.415	4002
931.519	3930
931.623	3915
