Data from glass_V78500241_1364.txt Node
Date: Wed Sep 01 19:23:57 CST 2021
User: usil
Spectrometer: V785-0024
Trigger mode: 0
Integration Time (sec): 4.000000E-1
Scans to average: 1
Nonlinearity correction enabled: false
Boxcar width: 0
Storing dark spectrum: false
XAxis mode: Wavelengths
Number of Pixels in Spectrum: 1024
>>>>>Begin Spectral Data<<<<<
801.071	3709
801.214	3720
801.356	3671
801.499	3751
801.641	3785
801.783	3793
801.926	3888
802.068	3869
802.211	3869
802.353	3918
802.496	3823
802.638	3865
802.78	3915
802.923	3911
803.065	3884
803.208	3873
803.35	3869
803.492	3941
803.635	3884
803.777	3831
803.919	3888
804.061	4150
804.204	4029
804.346	3953
804.488	3922
804.63	4051
804.773	3941
804.915	4002
805.057	4150
805.199	4017
805.341	4120
805.483	4150
805.626	4131
805.768	4078
805.91	4162
806.052	4200
806.194	4211
806.336	4394
806.478	4238
806.62	4223
806.762	4223
806.904	4276
807.046	4337
807.188	4192
807.33	4116
807.472	4249
807.614	4200
807.756	4257
807.898	4227
808.04	4261
808.182	4227
808.324	4348
808.465	4398
808.607	4451
808.749	4474
808.891	4432
809.033	4485
809.174	4432
809.316	4265
809.458	4223
809.6	4147
809.741	4150
809.883	4139
810.025	4238
810.166	4204
810.308	4207
810.45	4295
810.591	4253
810.733	4295
810.875	4474
811.016	4786
811.158	5151
811.299	5273
811.441	5269
811.582	5071
811.724	4683
811.865	4474
812.007	4443
812.148	4459
812.29	4405
812.431	4413
812.573	4405
812.714	4363
812.855	4409
812.997	4390
813.138	4428
813.279	4390
813.421	4352
813.562	4398
813.703	4352
813.845	4337
813.986	4253
814.127	4204
814.268	4238
814.41	4280
814.551	4261
814.692	4352
814.833	4291
814.974	4303
815.115	4375
815.256	4242
815.397	4253
815.539	4280
815.68	4196
815.821	4200
815.962	4280
816.103	4284
816.244	4276
816.385	4227
816.526	4306
816.666	4227
816.807	4101
816.948	4227
817.089	4219
817.23	4082
817.371	4063
817.512	4071
817.653	4063
817.793	4067
817.934	4032
818.075	4044
818.216	4078
818.356	4135
818.497	3975
818.638	3884
818.778	3888
818.919	3903
819.06	3880
819.2	3903
819.341	3854
819.481	3876
819.622	3892
819.762	3994
819.903	3949
820.043	3812
820.184	3854
820.324	3812
820.465	3903
820.605	3861
820.746	3838
820.886	3797
821.026	3941
821.167	3937
821.307	3994
821.447	3945
821.588	3926
821.728	3922
821.868	3953
822.008	3857
822.149	3896
822.289	3922
822.429	3804
822.569	3797
822.709	3789
822.849	3682
822.99	3751
823.13	3797
823.27	3793
823.41	3682
823.55	3766
823.69	3720
823.83	3762
823.97	3656
824.11	3641
824.25	3606
824.389	3648
824.529	3675
824.669	3648
824.809	3690
824.949	3751
825.089	3755
825.228	3682
825.368	3595
825.508	3553
825.648	3553
825.787	3564
825.927	3663
826.067	3606
826.206	3671
826.346	3774
826.485	3869
826.625	3861
826.765	3960
826.904	3846
827.044	3606
827.183	3523
827.323	3431
827.462	3450
827.601	3428
827.741	3454
827.88	3469
828.02	3393
828.159	3481
828.298	3511
828.437	3542
828.577	3515
828.716	3614
828.855	3500
828.994	3386
829.134	3401
829.273	3386
829.412	3340
829.551	3351
829.69	3397
829.829	3424
829.968	3538
830.107	3469
830.246	3424
830.385	3386
830.524	3344
830.663	3317
830.802	3226
830.941	3214
831.08	3199
831.219	3283
831.357	3241
831.496	3405
831.635	3222
831.774	3199
831.913	3192
832.051	3108
832.19	3146
832.329	3176
832.467	3127
832.606	3089
832.744	3184
832.883	3192
833.022	3184
833.16	3241
833.299	3291
833.437	3329
833.576	3401
833.714	3420
833.852	3450
833.991	3439
834.129	3466
834.267	3443
834.406	3431
834.544	3443
834.682	3420
834.821	3401
834.959	3553
835.097	3420
835.235	3553
835.373	3443
835.511	3511
835.65	3462
835.788	3473
835.926	3389
836.064	3382
836.202	3401
836.34	3553
836.478	3625
836.615	3496
836.753	3633
836.891	3625
837.029	3606
837.167	3603
837.305	3622
837.443	3564
837.58	3500
837.718	3606
837.856	3576
837.993	3545
838.131	3625
838.269	3595
838.406	3610
838.544	3542
838.681	3450
838.819	3458
838.956	3378
839.094	3416
839.231	3485
839.369	3534
839.506	3717
839.643	3637
839.781	3477
839.918	3504
840.055	3515
840.193	3519
840.33	3519
840.467	3542
840.604	3606
840.742	3831
840.879	3507
841.016	3572
841.153	3622
841.29	3812
841.427	3709
841.564	3698
841.701	3724
841.838	3701
841.975	3682
842.112	3747
842.249	3648
842.385	3679
842.522	3819
842.659	3713
842.796	3690
842.933	3717
843.069	3709
843.206	3724
843.343	3816
843.479	3789
843.616	3823
843.752	3637
843.889	3709
844.025	3838
844.162	3720
844.298	3808
844.435	3797
844.571	3812
844.708	3888
844.844	3983
844.98	4032
845.117	3975
845.253	3956
845.389	3956
845.525	3956
845.661	3930
845.798	3949
845.934	4078
846.07	3941
846.206	4074
846.342	4143
846.478	4055
846.614	3994
846.75	3945
846.886	3934
847.022	4063
847.158	3960
847.294	3949
847.429	4051
847.565	3987
847.701	4303
847.837	3899
847.972	3876
848.108	3945
848.244	3991
848.379	3835
848.515	3857
848.65	3797
848.786	3838
848.921	3846
849.057	3903
849.192	3956
849.328	3907
849.463	3911
849.598	3918
849.734	3892
849.869	3835
850.004	3804
850.14	3827
850.275	3785
850.41	3743
850.545	3793
850.68	3755
850.815	3838
850.95	3819
851.085	3972
851.22	3846
851.355	3816
851.49	3789
851.625	3797
851.76	3785
851.895	3743
852.03	3720
852.165	3789
852.299	3819
852.434	3915
852.569	3850
852.703	3888
852.838	3918
852.973	4006
853.107	4010
853.242	3911
853.376	3861
853.511	3816
853.645	3842
853.78	3979
853.914	3884
854.048	3926
854.183	3873
854.317	3964
854.451	4051
854.585	3960
854.72	3926
854.854	4051
854.988	3945
855.122	4006
855.256	3937
855.39	4040
855.524	4101
855.658	4143
855.792	4074
855.926	4162
856.06	4154
856.194	4227
856.327	4154
856.461	4143
856.595	4166
856.729	4166
856.862	4303
856.996	4257
857.13	4306
857.263	4303
857.397	4383
857.53	4303
857.664	4352
857.797	4398
857.931	4424
858.064	4409
858.197	4462
858.331	4440
858.464	4398
858.597	4329
858.731	4462
858.864	4451
858.997	4466
859.13	4554
859.263	4546
859.396	4584
859.529	4504
859.662	4561
859.795	4504
859.928	4596
860.061	4679
860.194	4771
860.327	4649
860.46	4649
860.592	4698
860.725	4778
860.858	4782
860.99	4668
861.123	4698
861.256	4714
861.388	4717
861.521	5425
861.653	4740
861.786	4782
861.918	4774
862.05	4755
862.183	4877
862.315	4839
862.447	4930
862.58	4889
862.712	4805
862.844	4755
862.976	4911
863.108	4831
863.24	5159
863.372	4824
863.504	4915
863.636	4915
863.768	4938
863.9	4915
864.032	4877
864.164	4999
864.296	5010
864.428	5124
864.559	5079
864.691	5132
864.823	5159
864.954	5098
865.086	5143
865.217	5124
865.349	5083
865.48	5181
865.612	5208
865.743	5307
865.875	5193
866.006	5201
866.137	5235
866.269	5280
866.4	5239
866.531	5246
866.662	5216
866.793	5250
866.924	5277
867.055	5311
867.186	5357
867.317	5334
867.448	5280
867.579	5322
867.71	5414
867.841	5398
867.972	5459
868.103	5433
868.233	5429
868.364	5490
868.495	5570
868.625	5638
868.756	5802
868.886	5634
869.017	5714
869.147	5851
869.278	5889
869.408	5821
869.539	5760
869.669	5946
869.799	5946
869.929	5950
870.06	6022
870.19	6152
870.32	6167
870.45	6235
870.58	6289
870.71	6429
870.84	6456
870.97	6426
871.1	6506
871.23	6620
871.36	6631
871.489	6696
871.619	6776
871.749	6753
871.879	6901
872.008	6951
872.138	6920
872.267	6985
872.397	6985
872.526	7046
872.656	7099
872.785	7190
872.915	7354
873.044	7540
873.173	7525
873.303	7636
873.432	7708
873.561	7864
873.69	7849
873.819	8024
873.948	8149
874.077	8202
874.206	8343
874.335	8461
874.464	8602
874.593	8845
874.722	8895
874.851	9100
874.979	9226
875.108	9332
875.237	9378
875.365	9412
875.494	9705
875.623	9899
875.751	9873
875.88	9991
876.008	10139
876.136	10272
876.265	10580
876.393	10725
876.521	10801
876.65	10812
876.778	10858
876.906	10869
877.034	11025
877.162	11189
877.29	11227
877.418	11303
877.546	11379
877.674	11448
877.802	11471
877.93	11486
878.058	11558
878.185	11558
878.313	11596
878.441	11775
878.568	11691
878.696	11771
878.824	11863
878.951	11950
879.079	11958
879.206	12079
879.333	12087
879.461	11973
879.588	12083
879.715	12133
879.842	12152
879.97	12129
880.097	11908
880.224	11920
880.351	11828
880.478	11897
880.605	11923
880.732	11889
880.859	11927
880.986	11863
881.112	11889
881.239	11672
881.366	11558
881.493	11665
881.619	11539
881.746	11512
881.872	11455
881.999	11543
882.125	11490
882.252	11562
882.378	11573
882.505	11539
882.631	11387
882.757	11311
882.883	11330
883.01	11216
883.136	11227
883.262	11147
883.388	11048
883.514	11212
883.64	11132
883.766	11090
883.892	11064
884.018	10972
884.143	11102
884.269	11056
884.395	10824
884.52	10771
884.646	10702
884.772	10679
884.897	10653
885.023	10721
885.148	10767
885.274	10721
885.399	10702
885.524	10656
885.65	10504
885.775	10641
885.9	10615
886.025	10645
886.15	10519
886.275	10447
886.4	10367
886.525	10440
886.65	10329
886.775	10371
886.9	10455
887.025	10561
887.149	10371
887.274	10261
887.399	10230
887.523	10219
887.648	10173
887.773	10059
887.897	10238
888.021	10234
888.146	10101
888.27	10265
888.395	10246
888.519	10185
888.643	10147
888.767	10238
888.891	10059
889.015	9975
889.139	10036
889.263	10013
889.387	9987
889.511	10112
889.635	10025
889.759	9983
889.883	10002
890.006	10002
890.13	10128
890.254	9987
890.377	9960
890.501	9861
890.624	9838
890.748	9956
890.871	9846
890.995	9694
891.118	9713
891.241	9705
891.364	9709
891.488	9876
891.611	9759
891.734	9724
891.857	9778
891.98	9717
892.103	9709
892.226	9812
892.349	9629
892.471	9500
892.594	9614
892.717	9671
892.839	9637
892.962	9564
893.085	9618
893.207	9572
893.33	9473
893.452	9576
893.575	9637
893.697	9553
893.819	9534
893.941	9690
894.064	9576
894.186	9420
894.308	9401
894.43	9568
894.552	9599
894.674	9572
894.796	9397
894.918	9329
895.04	9332
895.161	9389
895.283	9351
895.405	9207
895.526	9207
895.648	9256
895.769	9195
895.891	9313
896.012	9302
896.134	9207
896.255	9192
896.376	9154
896.498	9150
896.619	9150
896.74	9127
896.861	9020
896.982	9211
897.103	9287
897.224	9150
897.345	9036
897.466	9001
897.587	9077
897.708	9104
897.828	9020
897.949	8952
898.07	8921
898.19	8941
898.311	8948
898.431	8937
898.552	8937
898.672	9009
898.792	8925
898.913	8937
899.033	8773
899.153	8762
899.273	8678
899.393	8705
899.513	8697
899.633	8708
899.753	8750
899.873	8686
899.993	8769
900.113	8720
900.232	8693
900.352	8705
900.472	8644
900.591	8484
900.711	8606
900.83	8587
900.95	8648
901.069	8686
901.189	8594
901.308	8438
901.427	8400
901.546	8427
901.665	8499
901.784	8499
901.904	8408
902.023	8351
902.141	8252
902.26	8225
902.379	8313
902.498	8267
902.617	8248
902.735	8343
902.854	8225
902.973	8256
903.091	8168
903.21	8172
903.328	8183
903.446	8214
903.565	8096
903.683	8115
903.801	8043
903.919	8096
904.038	8130
904.156	8077
904.274	8126
904.392	8062
904.51	8035
904.627	8065
904.745	8126
904.863	8058
904.981	7868
905.098	7856
905.216	7875
905.334	7902
905.451	7967
905.569	7830
905.686	7883
905.803	7947
905.921	7769
906.038	7913
906.155	7841
906.272	7731
906.389	7719
906.506	7658
906.623	7575
906.74	7578
906.857	7540
906.974	7586
907.091	7636
907.208	7769
907.324	7590
907.441	7590
907.557	7483
907.674	7407
907.79	7400
907.907	7468
908.023	7445
908.139	7514
908.256	7422
908.372	7320
908.488	7407
908.604	7263
908.72	7255
908.836	7266
908.952	7266
909.068	7308
909.184	7247
909.3	7251
909.415	7266
909.531	7236
909.647	7122
909.762	7126
909.878	7164
909.993	7141
910.108	7103
910.224	7122
910.339	7145
910.454	7038
910.57	6993
910.685	7015
910.8	7107
910.915	7141
911.03	7023
911.145	6894
911.259	6856
911.374	6844
911.489	6863
911.604	6787
911.718	6753
911.833	6684
911.947	6700
912.062	6650
912.176	6738
912.291	6692
912.405	6722
912.519	6825
912.633	6840
912.748	6715
912.862	6665
912.976	6612
913.09	6536
913.204	6612
913.318	6642
913.431	6715
913.545	6681
913.659	6711
913.772	6612
913.886	6601
914	6528
914.113	6681
914.226	6662
914.34	6612
914.453	6479
914.566	6593
914.68	6467
914.793	6483
914.906	6418
915.019	6395
915.132	6384
915.245	6460
915.358	6525
915.47	6509
915.583	6445
915.696	6509
915.809	6601
915.921	6521
916.034	6414
916.146	6433
916.259	6350
916.371	6452
916.483	6513
916.595	6410
916.708	6407
916.82	6399
916.932	6361
917.044	6437
917.156	6418
917.268	6365
917.38	6391
917.491	6331
917.603	6342
917.715	6418
917.826	6376
917.938	6285
918.049	6266
918.161	6331
918.272	6407
918.384	6479
918.495	6357
918.606	6289
918.717	6220
918.828	6251
918.939	6281
919.05	6258
919.161	6182
919.272	6076
919.383	6144
919.494	6262
919.604	6380
919.715	6277
919.826	6201
919.936	6296
920.047	6342
920.157	6281
920.267	6437
920.378	6304
920.488	6273
920.598	6509
920.708	6585
920.818	6517
920.928	6502
921.038	6601
921.148	6597
921.258	6353
921.368	6243
921.477	6220
921.587	6175
921.697	6079
921.806	6194
921.916	6095
922.025	5859
922.134	5969
922.244	5889
922.353	5988
922.462	5866
922.571	5794
922.68	5737
922.789	5668
922.898	5699
923.007	5585
923.116	5699
923.224	5657
923.333	5668
923.442	5611
923.55	5592
923.659	5551
923.767	5615
923.876	5554
923.984	5604
924.092	5570
924.201	5585
924.309	5543
924.417	5592
924.525	5478
924.633	5520
924.741	6258
924.849	5383
924.956	5520
925.064	5372
925.172	5299
925.279	5326
925.387	5299
925.494	5364
925.602	5391
925.709	5398
925.816	5299
925.924	5326
926.031	5353
926.138	5280
926.245	5345
926.352	5197
926.459	5360
926.566	5341
926.673	5269
926.779	5147
926.886	5143
926.993	5006
927.099	4999
927.206	4934
927.312	4938
927.419	5048
927.525	4968
927.631	4991
927.737	4881
927.843	4885
927.95	4793
928.056	4850
928.162	4850
928.267	4847
928.373	5379
928.479	4820
928.585	4660
928.69	4736
928.796	4771
928.901	4664
929.007	4599
929.112	4710
929.218	4691
929.323	4611
929.428	4550
929.533	4668
929.638	4523
929.743	4569
929.848	4565
929.953	4489
930.058	4409
930.163	4371
930.267	4356
930.372	4424
930.477	4276
930.581	4489
930.685	4325
930.79	4272
930.894	4291
930.998	4318
931.103	4402
931.207	4135
931.311	4071
931.415	4074
931.519	3930
931.623	3953
