Data from glass_V78500241_929.txt Node
Date: Wed Sep 01 19:20:56 CST 2021
User: usil
Spectrometer: V785-0024
Trigger mode: 0
Integration Time (sec): 4.000000E-1
Scans to average: 1
Nonlinearity correction enabled: false
Boxcar width: 0
Storing dark spectrum: false
XAxis mode: Wavelengths
Number of Pixels in Spectrum: 1024
>>>>>Begin Spectral Data<<<<<
801.071	3770
801.214	3740
801.356	3743
801.499	3690
801.641	3762
801.783	3842
801.926	3884
802.068	3838
802.211	3892
802.353	3896
802.496	3873
802.638	3892
802.78	3918
802.923	3907
803.065	3922
803.208	3838
803.35	3926
803.492	3922
803.635	3888
803.777	3781
803.919	3892
804.061	4181
804.204	3972
804.346	3930
804.488	3907
804.63	4025
804.773	3941
804.915	4036
805.057	4128
805.199	4055
805.341	4097
805.483	4135
805.626	4173
805.768	4147
805.91	4230
806.052	4230
806.194	4211
806.336	4379
806.478	4242
806.62	4188
806.762	4188
806.904	4242
807.046	4306
807.188	4253
807.33	4192
807.472	4299
807.614	4173
807.756	4249
807.898	4215
808.04	4253
808.182	4295
808.324	4303
808.465	4356
808.607	4459
808.749	4443
808.891	4493
809.033	4519
809.174	4379
809.316	4280
809.458	4249
809.6	4147
809.741	4150
809.883	4154
810.025	4238
810.166	4204
810.308	4242
810.45	4234
810.591	4211
810.733	4295
810.875	4497
811.016	4866
811.158	5128
811.299	5311
811.441	5311
811.582	5075
811.724	4672
811.865	4527
812.007	4462
812.148	4447
812.29	4466
812.431	4440
812.573	4424
812.714	4402
812.855	4394
812.997	4417
813.138	4497
813.279	4390
813.421	4375
813.562	4409
813.703	4356
813.845	4314
813.986	4291
814.127	4246
814.268	4246
814.41	4306
814.551	4268
814.692	4375
814.833	4284
814.974	4303
815.115	4322
815.256	4215
815.397	4211
815.539	4211
815.68	4204
815.821	4234
815.962	4314
816.103	4306
816.244	4284
816.385	4242
816.526	4284
816.666	4261
816.807	4090
816.948	4150
817.089	4150
817.23	4101
817.371	4078
817.512	4048
817.653	4074
817.793	4013
817.934	4040
818.075	4082
818.216	4105
818.356	4078
818.497	3994
818.638	3911
818.778	3918
818.919	3880
819.06	3876
819.2	3941
819.341	3888
819.481	3823
819.622	3896
819.762	3975
819.903	3934
820.043	3903
820.184	3838
820.324	3831
820.465	3873
820.605	3873
820.746	3869
820.886	3823
821.026	3888
821.167	3869
821.307	4010
821.447	4017
821.588	3964
821.728	3968
821.868	3949
822.008	3918
822.149	3915
822.289	3869
822.429	3804
822.569	3755
822.709	3838
822.849	3736
822.99	3713
823.13	3766
823.27	3800
823.41	3728
823.55	3755
823.69	3713
823.83	3747
823.97	3641
824.11	3587
824.25	3610
824.389	3648
824.529	3648
824.669	3622
824.809	3717
824.949	3690
825.089	3759
825.228	3720
825.368	3572
825.508	3603
825.648	3595
825.787	3660
825.927	3686
826.067	3644
826.206	3652
826.346	3861
826.485	3854
826.625	3876
826.765	3960
826.904	3838
827.044	3644
827.183	3519
827.323	3416
827.462	3534
827.601	3466
827.741	3458
827.88	3431
828.02	3397
828.159	3485
828.298	3492
828.437	3530
828.577	3492
828.716	3625
828.855	3504
828.994	3412
829.134	3344
829.273	3409
829.412	3428
829.551	3367
829.69	3370
829.829	3454
829.968	3473
830.107	3447
830.246	3450
830.385	3424
830.524	3344
830.663	3313
830.802	3222
830.941	3241
831.08	3218
831.219	3268
831.357	3279
831.496	3439
831.635	3260
831.774	3207
831.913	3260
832.051	3142
832.19	3157
832.329	3218
832.467	3161
832.606	3077
832.744	3195
832.883	3218
833.022	3203
833.16	3302
833.299	3291
833.437	3355
833.576	3412
833.714	3397
833.852	3473
833.991	3458
834.129	3515
834.267	3469
834.406	3405
834.544	3416
834.682	3443
834.821	3458
834.959	3572
835.097	3409
835.235	3542
835.373	3507
835.511	3511
835.65	3477
835.788	3473
835.926	3412
836.064	3389
836.202	3393
836.34	3625
836.478	3682
836.615	3549
836.753	3618
836.891	3682
837.029	3614
837.167	3610
837.305	3553
837.443	3557
837.58	3496
837.718	3587
837.856	3564
837.993	3568
838.131	3591
838.269	3584
838.406	3584
838.544	3587
838.681	3477
838.819	3447
838.956	3412
839.094	3355
839.231	3469
839.369	3526
839.506	3736
839.643	3591
839.781	3488
839.918	3488
840.055	3545
840.193	3538
840.33	3542
840.467	3584
840.604	3633
840.742	3789
840.879	3545
841.016	3549
841.153	3622
841.29	3762
841.427	3724
841.564	3724
841.701	3740
841.838	3701
841.975	3732
842.112	3724
842.249	3625
842.385	3599
842.522	3846
842.659	3667
842.796	3660
842.933	3705
843.069	3679
843.206	3713
843.343	3793
843.479	3827
843.616	3816
843.752	3690
843.889	3679
844.025	3888
844.162	3759
844.298	3846
844.435	3770
844.571	3808
844.708	3930
844.844	4029
844.98	3998
845.117	4002
845.253	3911
845.389	3922
845.525	3975
845.661	3994
845.798	3930
845.934	4025
846.07	3964
846.206	4105
846.342	4120
846.478	4082
846.614	3975
846.75	3907
846.886	3937
847.022	4086
847.158	4013
847.294	3960
847.429	4029
847.565	4055
847.701	4284
847.837	3907
847.972	3869
848.108	3964
848.244	3994
848.379	3911
848.515	3819
848.65	3876
848.786	3854
848.921	3934
849.057	3911
849.192	3934
849.328	3880
849.463	3983
849.598	3854
849.734	3850
849.869	3831
850.004	3831
850.14	3808
850.275	3823
850.41	3732
850.545	3762
850.68	3778
850.815	3816
850.95	3785
851.085	3975
851.22	3865
851.355	3835
851.49	3804
851.625	3778
851.76	3797
851.895	3755
852.03	3728
852.165	3800
852.299	3835
852.434	3896
852.569	3880
852.703	3854
852.838	3953
852.973	4013
853.107	3998
853.242	3907
853.376	3888
853.511	3793
853.645	3857
853.78	3983
853.914	3888
854.048	3873
854.183	3934
854.317	3968
854.451	4055
854.585	3964
854.72	3926
854.854	4055
854.988	3896
855.122	4017
855.256	3956
855.39	4036
855.524	4116
855.658	4116
855.792	4139
855.926	4139
856.06	4211
856.194	4162
856.327	4158
856.461	4112
856.595	4158
856.729	4204
856.862	4234
856.996	4261
857.13	4268
857.263	4322
857.397	4443
857.53	4276
857.664	4375
857.797	4375
857.931	4432
858.064	4383
858.197	4470
858.331	4447
858.464	4371
858.597	4348
858.731	4428
858.864	4489
858.997	4512
859.13	4527
859.263	4519
859.396	4596
859.529	4512
859.662	4573
859.795	4569
859.928	4618
860.061	4736
860.194	4744
860.327	4634
860.46	4645
860.592	4816
860.725	4748
860.858	4763
860.99	4687
861.123	4687
861.256	4714
861.388	4790
861.521	5551
861.653	4767
861.786	4675
861.918	4740
862.05	4767
862.183	4854
862.315	4877
862.447	4911
862.58	4919
862.712	4763
862.844	4755
862.976	4934
863.108	4862
863.24	5140
863.372	4835
863.504	4946
863.636	4889
863.768	5037
863.9	4961
864.032	4980
864.164	4942
864.296	5022
864.428	5094
864.559	5094
864.691	5098
864.823	5140
864.954	5136
865.086	5124
865.217	5079
865.349	5143
865.48	5181
865.612	5227
865.743	5326
865.875	5242
866.006	5147
866.137	5204
866.269	5231
866.4	5231
866.531	5280
866.662	5235
866.793	5280
866.924	5292
867.055	5398
867.186	5364
867.317	5311
867.448	5337
867.579	5368
867.71	5433
867.841	5417
867.972	5459
868.103	5486
868.233	5516
868.364	5528
868.495	5566
868.625	5668
868.756	5798
868.886	5672
869.017	5752
869.147	5840
869.278	5863
869.408	5767
869.539	5821
869.669	5958
869.799	5958
869.929	5965
870.06	6003
870.19	6209
870.32	6235
870.45	6353
870.58	6327
870.71	6426
870.84	6395
870.97	6483
871.1	6456
871.23	6627
871.36	6738
871.489	6711
871.619	6779
871.749	6810
871.879	6856
872.008	7027
872.138	7012
872.267	7015
872.397	7000
872.526	7061
872.656	7061
872.785	7270
872.915	7381
873.044	7472
873.173	7563
873.303	7651
873.432	7731
873.561	7898
873.69	7963
873.819	8088
873.948	8138
874.077	8225
874.206	8385
874.335	8503
874.464	8648
874.593	8845
874.722	8948
874.851	9142
874.979	9306
875.108	9401
875.237	9370
875.365	9477
875.494	9603
875.623	9865
875.751	9915
875.88	10006
876.008	10181
876.136	10367
876.265	10542
876.393	10702
876.521	10698
876.65	10847
876.778	10900
876.906	10850
877.034	10995
877.162	11102
877.29	11189
877.418	11387
877.546	11440
877.674	11417
877.802	11455
877.93	11505
878.058	11539
878.185	11581
878.313	11668
878.441	11760
878.568	11714
878.696	11821
878.824	11863
878.951	11992
879.079	12057
879.206	12083
879.333	12053
879.461	12041
879.588	12038
879.715	12117
879.842	12117
879.97	12091
880.097	11927
880.224	11923
880.351	11878
880.478	11946
880.605	11866
880.732	11866
880.859	12091
880.986	11813
881.112	11866
881.239	11707
881.366	11573
881.493	11619
881.619	11547
881.746	11551
881.872	11497
881.999	11524
882.125	11455
882.252	11592
882.378	11509
882.505	11551
882.631	11277
882.757	11273
882.883	11265
883.01	11273
883.136	11124
883.262	11124
883.388	11140
883.514	11181
883.64	11147
883.766	11128
883.892	11037
884.018	11018
884.143	11041
884.269	11128
884.395	10809
884.52	10767
884.646	10710
884.772	10687
884.897	10736
885.023	10740
885.148	10809
885.274	10782
885.399	10790
885.524	10535
885.65	10649
885.775	10622
885.9	10607
886.025	10607
886.15	10569
886.275	10519
886.4	10386
886.525	10424
886.65	10417
886.775	10363
886.9	10428
887.025	10550
887.149	10337
887.274	10318
887.399	10192
887.523	10173
887.648	10150
887.773	10120
887.897	10230
888.021	10150
888.146	10162
888.27	10230
888.395	10242
888.519	10135
888.643	10147
888.767	10181
888.891	10116
889.015	10006
889.139	10105
889.263	10021
889.387	10093
889.511	10204
889.635	10086
889.759	9964
889.883	9968
890.006	10006
890.13	10207
890.254	9998
890.377	9960
890.501	9953
890.624	9854
890.748	9873
890.871	9846
890.995	9831
891.118	9720
891.241	9759
891.364	9663
891.488	9846
891.611	9751
891.734	9759
891.857	9800
891.98	9755
892.103	9823
892.226	9724
892.349	9709
892.471	9500
892.594	9610
892.717	9648
892.839	9584
892.962	9599
893.085	9618
893.207	9526
893.33	9481
893.452	9492
893.575	9526
893.697	9557
893.819	9641
893.941	9755
894.064	9587
894.186	9443
894.308	9443
894.43	9538
894.552	9542
894.674	9564
894.796	9367
894.918	9382
895.04	9477
895.161	9351
895.283	9348
895.405	9230
895.526	9298
895.648	9226
895.769	9245
895.891	9272
896.012	9310
896.134	9195
896.255	9233
896.376	9119
896.498	9131
896.619	9146
896.74	9097
896.861	9070
896.982	9317
897.103	9344
897.224	9131
897.345	9085
897.466	9036
897.587	8975
897.708	9131
897.828	9020
897.949	8979
898.07	8883
898.19	8929
898.311	9085
898.431	8902
898.552	8975
898.672	8952
898.792	8990
898.913	8952
899.033	8807
899.153	8781
899.273	8712
899.393	8708
899.513	8686
899.633	8731
899.753	8781
899.873	8708
899.993	8758
900.113	8712
900.232	8701
900.352	8644
900.472	8606
900.591	8564
900.711	8602
900.83	8587
900.95	8655
901.069	8701
901.189	8556
901.308	8495
901.427	8385
901.546	8450
901.665	8492
901.784	8446
901.904	8400
902.023	8355
902.141	8229
902.26	8305
902.379	8290
902.498	8214
902.617	8202
902.735	8328
902.854	8301
902.973	8229
903.091	8111
903.21	8187
903.328	8157
903.446	8142
903.565	8081
903.683	8100
903.801	8077
903.919	8130
904.038	8069
904.156	8035
904.274	8123
904.392	8069
904.51	7993
904.627	8027
904.745	8081
904.863	8096
904.981	7959
905.098	7883
905.216	7868
905.334	7940
905.451	7921
905.569	7913
905.686	7921
905.803	7974
905.921	7776
906.038	7860
906.155	7784
906.272	7674
906.389	7731
906.506	7685
906.623	7590
906.74	7677
906.857	7510
906.974	7639
907.091	7605
907.208	7731
907.324	7712
907.441	7559
907.557	7426
907.674	7457
907.79	7419
907.907	7373
908.023	7434
908.139	7400
908.256	7346
908.372	7388
908.488	7324
908.604	7270
908.72	7221
908.836	7278
908.952	7209
909.068	7228
909.184	7324
909.3	7278
909.415	7278
909.531	7247
909.647	7156
909.762	7149
909.878	7118
909.993	7099
910.108	7110
910.224	7065
910.339	7126
910.454	7046
910.57	7015
910.685	6973
910.8	7126
910.915	7160
911.03	7023
911.145	6875
911.259	6856
911.374	6875
911.489	6837
911.604	6810
911.718	6806
911.833	6726
911.947	6662
912.062	6589
912.176	6692
912.291	6779
912.405	6673
912.519	6852
912.633	6833
912.748	6753
912.862	6669
912.976	6555
913.09	6547
913.204	6646
913.318	6669
913.431	6707
913.545	6684
913.659	6760
913.772	6604
913.886	6528
914	6627
914.113	6662
914.226	6669
914.34	6646
914.453	6483
914.566	6517
914.68	6566
914.793	6506
914.906	6471
915.019	6410
915.132	6365
915.245	6452
915.358	6464
915.47	6407
915.583	6456
915.696	6502
915.809	6475
915.921	6620
916.034	6399
916.146	6365
916.259	6407
916.371	6502
916.483	6464
916.595	6376
916.708	6433
916.82	6483
916.932	6365
917.044	6365
917.156	6365
917.268	6323
917.38	6308
917.491	6388
917.603	6357
917.715	6433
917.826	6399
917.938	6296
918.049	6319
918.161	6372
918.272	6433
918.384	6437
918.495	6384
918.606	6300
918.717	6163
918.828	6331
918.939	6323
919.05	6262
919.161	6289
919.272	6155
919.383	6125
919.494	6334
919.604	6410
919.715	6273
919.826	6270
919.936	6254
920.047	6376
920.157	6285
920.267	6479
920.378	6372
920.488	6285
920.598	6410
920.708	6555
920.818	6498
920.928	6498
921.038	6593
921.148	6616
921.258	6365
921.368	6300
921.477	6243
921.587	6178
921.697	6083
921.806	6194
921.916	6098
922.025	5977
922.134	5942
922.244	5950
922.353	5988
922.462	5840
922.571	5828
922.68	5741
922.789	5665
922.898	5748
923.007	5653
923.116	5714
923.224	5703
923.333	5695
923.442	5570
923.55	5573
923.659	5634
923.767	5653
923.876	5596
923.984	5554
924.092	5516
924.201	5543
924.309	5577
924.417	5570
924.525	5493
924.633	5493
924.741	6136
924.849	5376
924.956	5444
925.064	5345
925.172	5311
925.279	5296
925.387	5383
925.494	5341
925.602	5440
925.709	5425
925.816	5288
925.924	5315
926.031	5372
926.138	5299
926.245	5326
926.352	5284
926.459	5326
926.566	5334
926.673	5231
926.779	5170
926.886	5136
926.993	4999
927.099	5006
927.206	5010
927.312	4991
927.419	5037
927.525	4972
927.631	5018
927.737	4923
927.843	4831
927.95	4782
928.056	4850
928.162	4797
928.267	4858
928.373	5368
928.479	4858
928.585	4744
928.69	4801
928.796	4774
928.901	4706
929.007	4645
929.112	4706
929.218	4641
929.323	4592
929.428	4588
929.533	4675
929.638	4519
929.743	4573
929.848	4527
929.953	4508
930.058	4459
930.163	4329
930.267	4329
930.372	4443
930.477	4310
930.581	4497
930.685	4386
930.79	4253
930.894	4291
930.998	4325
931.103	4405
931.207	4139
931.311	4082
931.415	4082
931.519	3899
931.623	3922
