Data from glass_V78500241_608.txt Node
Date: Wed Sep 01 19:18:42 CST 2021
User: usil
Spectrometer: V785-0024
Trigger mode: 0
Integration Time (sec): 4.000000E-1
Scans to average: 1
Nonlinearity correction enabled: false
Boxcar width: 0
Storing dark spectrum: false
XAxis mode: Wavelengths
Number of Pixels in Spectrum: 1024
>>>>>Begin Spectral Data<<<<<
801.071	3743
801.214	3720
801.356	3720
801.499	3770
801.641	3755
801.783	3778
801.926	3907
802.068	3808
802.211	3884
802.353	3915
802.496	3857
802.638	3918
802.78	3911
802.923	3918
803.065	3949
803.208	3865
803.35	3918
803.492	3934
803.635	3918
803.777	3808
803.919	3930
804.061	4196
804.204	3956
804.346	3964
804.488	3956
804.63	4063
804.773	4006
804.915	4021
805.057	4150
805.199	4032
805.341	4097
805.483	4139
805.626	4147
805.768	4109
805.91	4173
806.052	4242
806.194	4227
806.336	4383
806.478	4200
806.62	4204
806.762	4192
806.904	4261
807.046	4356
807.188	4169
807.33	4158
807.472	4242
807.614	4207
807.756	4261
807.898	4230
808.04	4196
808.182	4333
808.324	4371
808.465	4367
808.607	4474
808.749	4436
808.891	4485
809.033	4523
809.174	4417
809.316	4261
809.458	4306
809.6	4166
809.741	4177
809.883	4143
810.025	4261
810.166	4234
810.308	4204
810.45	4253
810.591	4291
810.733	4329
810.875	4493
811.016	4805
811.158	5178
811.299	5296
811.441	5292
811.582	5105
811.724	4679
811.865	4470
812.007	4481
812.148	4432
812.29	4409
812.431	4432
812.573	4394
812.714	4424
812.855	4394
812.997	4356
813.138	4466
813.279	4470
813.421	4398
813.562	4375
813.703	4371
813.845	4352
813.986	4272
814.127	4207
814.268	4272
814.41	4268
814.551	4261
814.692	4333
814.833	4314
814.974	4337
815.115	4371
815.256	4257
815.397	4230
815.539	4246
815.68	4234
815.821	4230
815.962	4325
816.103	4284
816.244	4280
816.385	4215
816.526	4329
816.666	4192
816.807	4101
816.948	4219
817.089	4173
817.23	4116
817.371	4029
817.512	4051
817.653	4067
817.793	4029
817.934	4040
818.075	4135
818.216	4082
818.356	4105
818.497	3983
818.638	3953
818.778	3945
818.919	3896
819.06	3888
819.2	3949
819.341	3896
819.481	3831
819.622	3915
819.762	4044
819.903	3968
820.043	3869
820.184	3808
820.324	3846
820.465	3892
820.605	3873
820.746	3835
820.886	3827
821.026	3975
821.167	3907
821.307	4025
821.447	3998
821.588	3987
821.728	3915
821.868	3964
822.008	3888
822.149	3934
822.289	3915
822.429	3812
822.569	3785
822.709	3808
822.849	3705
822.99	3686
823.13	3789
823.27	3812
823.41	3736
823.55	3781
823.69	3747
823.83	3755
823.97	3675
824.11	3652
824.25	3603
824.389	3648
824.529	3694
824.669	3637
824.809	3717
824.949	3778
825.089	3755
825.228	3755
825.368	3629
825.508	3568
825.648	3587
825.787	3614
825.927	3667
826.067	3656
826.206	3679
826.346	3808
826.485	3816
826.625	3861
826.765	3991
826.904	3892
827.044	3663
827.183	3534
827.323	3477
827.462	3523
827.601	3431
827.741	3447
827.88	3450
828.02	3412
828.159	3431
828.298	3492
828.437	3568
828.577	3462
828.716	3644
828.855	3504
828.994	3378
829.134	3378
829.273	3405
829.412	3412
829.551	3370
829.69	3401
829.829	3447
829.968	3534
830.107	3409
830.246	3447
830.385	3409
830.524	3351
830.663	3310
830.802	3256
830.941	3184
831.08	3214
831.219	3260
831.357	3272
831.496	3409
831.635	3253
831.774	3207
831.913	3211
832.051	3123
832.19	3154
832.329	3256
832.467	3135
832.606	3123
832.744	3226
832.883	3211
833.022	3195
833.16	3298
833.299	3313
833.437	3359
833.576	3374
833.714	3397
833.852	3443
833.991	3473
834.129	3492
834.267	3454
834.406	3420
834.544	3447
834.682	3409
834.821	3393
834.959	3614
835.097	3439
835.235	3496
835.373	3496
835.511	3500
835.65	3454
835.788	3500
835.926	3393
836.064	3405
836.202	3420
836.34	3595
836.478	3591
836.615	3561
836.753	3603
836.891	3667
837.029	3625
837.167	3572
837.305	3545
837.443	3538
837.58	3492
837.718	3606
837.856	3595
837.993	3549
838.131	3622
838.269	3644
838.406	3610
838.544	3584
838.681	3447
838.819	3485
838.956	3374
839.094	3401
839.231	3454
839.369	3553
839.506	3705
839.643	3637
839.781	3523
839.918	3488
840.055	3542
840.193	3561
840.33	3500
840.467	3542
840.604	3610
840.742	3808
840.879	3580
841.016	3580
841.153	3622
841.29	3797
841.427	3747
841.564	3709
841.701	3774
841.838	3732
841.975	3675
842.112	3709
842.249	3603
842.385	3610
842.522	3823
842.659	3701
842.796	3644
842.933	3747
843.069	3747
843.206	3701
843.343	3854
843.479	3732
843.616	3816
843.752	3709
843.889	3690
844.025	3861
844.162	3686
844.298	3899
844.435	3770
844.571	3789
844.708	3934
844.844	3991
844.98	4036
845.117	4059
845.253	3979
845.389	3964
845.525	3953
845.661	3979
845.798	3937
845.934	3983
846.07	3983
846.206	4044
846.342	4124
846.478	4029
846.614	3960
846.75	3937
846.886	3911
847.022	4093
847.158	3994
847.294	4021
847.429	4063
847.565	3983
847.701	4261
847.837	3941
847.972	3785
848.108	3991
848.244	4002
848.379	3934
848.515	3793
848.65	3838
848.786	3846
848.921	3892
849.057	3934
849.192	3945
849.328	3899
849.463	3934
849.598	3899
849.734	3903
849.869	3819
850.004	3804
850.14	3785
850.275	3797
850.41	3743
850.545	3778
850.68	3827
850.815	3835
850.95	3774
851.085	3945
851.22	3850
851.355	3816
851.49	3812
851.625	3823
851.76	3774
851.895	3755
852.03	3713
852.165	3823
852.299	3876
852.434	3918
852.569	3838
852.703	3869
852.838	3979
852.973	4013
853.107	4044
853.242	3915
853.376	3873
853.511	3762
853.645	3797
853.78	4010
853.914	3907
854.048	3915
854.183	3857
854.317	3960
854.451	4074
854.585	3937
854.72	3930
854.854	4086
854.988	3911
855.122	3956
855.256	3960
855.39	4013
855.524	4093
855.658	4101
855.792	4166
855.926	4143
856.06	4196
856.194	4238
856.327	4154
856.461	4109
856.595	4150
856.729	4223
856.862	4257
856.996	4284
857.13	4341
857.263	4383
857.397	4314
857.53	4287
857.664	4348
857.797	4371
857.931	4413
858.064	4447
858.197	4432
858.331	4413
858.464	4405
858.597	4360
858.731	4462
858.864	4455
858.997	4504
859.13	4519
859.263	4573
859.396	4573
859.529	4546
859.662	4584
859.795	4508
859.928	4580
860.061	4691
860.194	4778
860.327	4698
860.46	4672
860.592	4687
860.725	4797
860.858	4771
860.99	4706
861.123	4698
861.256	4717
861.388	4786
861.521	5395
861.653	4740
861.786	4714
861.918	4774
862.05	4828
862.183	4854
862.315	4889
862.447	4953
862.58	4862
862.712	4801
862.844	4759
862.976	4835
863.108	4847
863.24	5178
863.372	4847
863.504	4900
863.636	4881
863.768	4965
863.9	4957
864.032	4908
864.164	4949
864.296	4995
864.428	5083
864.559	5140
864.691	5136
864.823	5143
864.954	5181
865.086	5166
865.217	5132
865.349	5102
865.48	5185
865.612	5269
865.743	5303
865.875	5197
866.006	5189
866.137	5239
866.269	5201
866.4	5269
866.531	5246
866.662	5254
866.793	5303
866.924	5273
867.055	5318
867.186	5364
867.317	5326
867.448	5326
867.579	5364
867.71	5376
867.841	5398
867.972	5440
868.103	5448
868.233	5512
868.364	5554
868.495	5539
868.625	5611
868.756	5794
868.886	5695
869.017	5745
869.147	5821
869.278	5874
869.408	5824
869.539	5821
869.669	5916
869.799	5844
869.929	5961
870.06	5961
870.19	6209
870.32	6213
870.45	6273
870.58	6380
870.71	6441
870.84	6445
870.97	6426
871.1	6479
871.23	6623
871.36	6738
871.489	6692
871.619	6707
871.749	6848
871.879	6875
872.008	6993
872.138	6996
872.267	6966
872.397	7015
872.526	7088
872.656	7118
872.785	7247
872.915	7411
873.044	7616
873.173	7586
873.303	7651
873.432	7795
873.561	7928
873.69	7913
873.819	8016
873.948	8218
874.077	8286
874.206	8355
874.335	8450
874.464	8678
874.593	8899
874.722	8971
874.851	9123
874.979	9233
875.108	9359
875.237	9393
875.365	9496
875.494	9610
875.623	9785
875.751	9854
875.88	10013
876.008	10204
876.136	10265
876.265	10474
876.393	10664
876.521	10706
876.65	10809
876.778	10953
876.906	10930
877.034	10968
877.162	11128
877.29	11166
877.418	11280
877.546	11349
877.674	11478
877.802	11482
877.93	11509
878.058	11600
878.185	11539
878.313	11642
878.441	11783
878.568	11630
878.696	11805
878.824	11866
878.951	11965
879.079	11980
879.206	12201
879.333	12091
879.461	11996
879.588	12117
879.715	12106
879.842	12273
879.97	12087
880.097	11942
880.224	11939
880.351	11897
880.478	11912
880.605	11855
880.732	11840
880.859	12057
880.986	11878
881.112	11859
881.239	11688
881.366	11604
881.493	11615
881.619	11604
881.746	11589
881.872	11543
881.999	11463
882.125	11520
882.252	11634
882.378	11486
882.505	11596
882.631	11372
882.757	11273
882.883	11204
883.01	11307
883.136	11239
883.262	11155
883.388	11033
883.514	11162
883.64	11174
883.766	11014
883.892	10987
884.018	11018
884.143	11117
884.269	11185
884.395	10847
884.52	10801
884.646	10862
884.772	10736
884.897	10702
885.023	10691
885.148	10748
885.274	10809
885.399	10641
885.524	10611
885.65	10603
885.775	10497
885.9	10546
886.025	10596
886.15	10577
886.275	10535
886.4	10333
886.525	10402
886.65	10428
886.775	10356
886.9	10462
887.025	10561
887.149	10436
887.274	10280
887.399	10227
887.523	10253
887.648	10169
887.773	10139
887.897	10230
888.021	10303
888.146	10188
888.27	10238
888.395	10310
888.519	10101
888.643	10158
888.767	10177
888.891	10200
889.015	10055
889.139	10116
889.263	10067
889.387	10051
889.511	10143
889.635	10185
889.759	9949
889.883	9994
890.006	9987
890.13	10078
890.254	9884
890.377	9979
890.501	9888
890.624	9869
890.748	9922
890.871	9732
890.995	9728
891.118	9736
891.241	9778
891.364	9774
891.488	9850
891.611	9705
891.734	9781
891.857	9755
891.98	9732
892.103	9823
892.226	9816
892.349	9694
892.471	9542
892.594	9584
892.717	9622
892.839	9614
892.962	9587
893.085	9690
893.207	9629
893.33	9462
893.452	9557
893.575	9606
893.697	9462
893.819	9561
893.941	9644
894.064	9686
894.186	9515
894.308	9386
894.43	9538
894.552	9580
894.674	9557
894.796	9416
894.918	9351
895.04	9382
895.161	9351
895.283	9332
895.405	9233
895.526	9306
895.648	9249
895.769	9272
895.891	9203
896.012	9317
896.134	9279
896.255	9245
896.376	9176
896.498	9253
896.619	9150
896.74	9161
896.861	9104
896.982	9260
897.103	9287
897.224	9157
897.345	9100
897.466	8948
897.587	9017
897.708	9157
897.828	9104
897.949	8960
898.07	8849
898.19	8960
898.311	9028
898.431	8887
898.552	8982
898.672	8956
898.792	8971
898.913	8891
899.033	8762
899.153	8743
899.273	8712
899.393	8693
899.513	8773
899.633	8716
899.753	8853
899.873	8674
899.993	8735
900.113	8716
900.232	8773
900.352	8644
900.472	8564
900.591	8590
900.711	8617
900.83	8503
900.95	8686
901.069	8716
901.189	8587
901.308	8427
901.427	8446
901.546	8457
901.665	8446
901.784	8480
901.904	8393
902.023	8317
902.141	8275
902.26	8210
902.379	8404
902.498	8252
902.617	8237
902.735	8309
902.854	8328
902.973	8301
903.091	8123
903.21	8149
903.328	8183
903.446	8195
903.565	8058
903.683	8111
903.801	8069
903.919	8149
904.038	8111
904.156	8035
904.274	8111
904.392	8062
904.51	8024
904.627	8065
904.745	8054
904.863	8134
904.981	7936
905.098	7868
905.216	7883
905.334	7921
905.451	7951
905.569	7875
905.686	7921
905.803	7936
905.921	7761
906.038	7890
906.155	7769
906.272	7700
906.389	7700
906.506	7700
906.623	7624
906.74	7563
906.857	7563
906.974	7609
907.091	7700
907.208	7689
907.324	7658
907.441	7559
907.557	7468
907.674	7491
907.79	7346
907.907	7411
908.023	7521
908.139	7419
908.256	7396
908.372	7369
908.488	7354
908.604	7213
908.72	7266
908.836	7293
908.952	7225
909.068	7202
909.184	7293
909.3	7278
909.415	7282
909.531	7301
909.647	7057
909.762	7149
909.878	7084
909.993	7122
910.108	7145
910.224	7088
910.339	7099
910.454	7080
910.57	7004
910.685	6916
910.8	7160
910.915	7209
911.03	7038
911.145	6909
911.259	6909
911.374	6913
911.489	6814
911.604	6783
911.718	6688
911.833	6779
911.947	6639
912.062	6589
912.176	6715
912.291	6700
912.405	6635
912.519	6798
912.633	6837
912.748	6703
912.862	6696
912.976	6631
913.09	6563
913.204	6608
913.318	6631
913.431	6681
913.545	6688
913.659	6764
913.772	6669
913.886	6601
914	6570
914.113	6631
914.226	6627
914.34	6589
914.453	6475
914.566	6585
914.68	6604
914.793	6585
914.906	6410
915.019	6426
915.132	6369
915.245	6422
915.358	6486
915.47	6422
915.583	6407
915.696	6540
915.809	6536
915.921	6555
916.034	6433
916.146	6410
916.259	6418
916.371	6532
916.483	6471
916.595	6395
916.708	6456
916.82	6395
916.932	6376
917.044	6429
917.156	6407
917.268	6239
917.38	6361
917.491	6391
917.603	6372
917.715	6433
917.826	6448
917.938	6331
918.049	6289
918.161	6327
918.272	6448
918.384	6452
918.495	6338
918.606	6262
918.717	6190
918.828	6205
918.939	6235
919.05	6205
919.161	6296
919.272	6133
919.383	6144
919.494	6331
919.604	6456
919.715	6281
919.826	6194
919.936	6266
920.047	6311
920.157	6258
920.267	6509
920.378	6342
920.488	6319
920.598	6460
920.708	6570
920.818	6525
920.928	6525
921.038	6650
921.148	6608
921.258	6342
921.368	6285
921.477	6216
921.587	6171
921.697	6057
921.806	6201
921.916	6083
922.025	5969
922.134	5874
922.244	5916
922.353	5980
922.462	5904
922.571	5813
922.68	5756
922.789	5646
922.898	5745
923.007	5672
923.116	5710
923.224	5661
923.333	5691
923.442	5573
923.55	5585
923.659	5630
923.767	5619
923.876	5547
923.984	5627
924.092	5509
924.201	5573
924.309	5554
924.417	5558
924.525	5478
924.633	5493
924.741	6311
924.849	5353
924.956	5459
925.064	5387
925.172	5334
925.279	5318
925.387	5341
925.494	5349
925.602	5436
925.709	5376
925.816	5265
925.924	5357
926.031	5337
926.138	5307
926.245	5368
926.352	5235
926.459	5322
926.566	5330
926.673	5212
926.779	5162
926.886	5128
926.993	5102
927.099	4999
927.206	4968
927.312	4976
927.419	5037
927.525	5018
927.631	4999
927.737	4900
927.843	4870
927.95	4755
928.056	4835
928.162	4850
928.267	4828
928.373	5277
928.479	4828
928.585	4698
928.69	4767
928.796	4755
928.901	4694
929.007	4607
929.112	4702
929.218	4656
929.323	4668
929.428	4596
929.533	4668
929.638	4538
929.743	4523
929.848	4596
929.953	4447
930.058	4500
930.163	4306
930.267	4363
930.372	4428
930.477	4337
930.581	4451
930.685	4390
930.79	4291
930.894	4295
930.998	4261
931.103	4440
931.207	4181
931.311	4162
931.415	4017
931.519	3934
931.623	3979
