Data from glass_V78500241_582.txt Node
Date: Wed Sep 01 19:18:32 CST 2021
User: usil
Spectrometer: V785-0024
Trigger mode: 0
Integration Time (sec): 4.000000E-1
Scans to average: 1
Nonlinearity correction enabled: false
Boxcar width: 0
Storing dark spectrum: false
XAxis mode: Wavelengths
Number of Pixels in Spectrum: 1024
>>>>>Begin Spectral Data<<<<<
801.071	3762
801.214	3804
801.356	3701
801.499	3774
801.641	3732
801.783	3774
801.926	3865
802.068	3865
802.211	3854
802.353	3915
802.496	3869
802.638	3926
802.78	3930
802.923	3964
803.065	3930
803.208	3873
803.35	3876
803.492	3907
803.635	3880
803.777	3838
803.919	3896
804.061	4196
804.204	3972
804.346	3972
804.488	3968
804.63	4025
804.773	4002
804.915	4010
805.057	4143
805.199	4044
805.341	4120
805.483	4139
805.626	4139
805.768	4109
805.91	4242
806.052	4227
806.194	4219
806.336	4409
806.478	4223
806.62	4246
806.762	4200
806.904	4234
807.046	4356
807.188	4223
807.33	4173
807.472	4242
807.614	4215
807.756	4253
807.898	4242
808.04	4257
808.182	4284
808.324	4333
808.465	4375
808.607	4466
808.749	4459
808.891	4474
809.033	4474
809.174	4409
809.316	4306
809.458	4253
809.6	4173
809.741	4154
809.883	4166
810.025	4211
810.166	4223
810.308	4246
810.45	4272
810.591	4280
810.733	4314
810.875	4508
811.016	4831
811.158	5140
811.299	5296
811.441	5296
811.582	5102
811.724	4687
811.865	4542
812.007	4485
812.148	4462
812.29	4417
812.431	4455
812.573	4417
812.714	4386
812.855	4386
812.997	4478
813.138	4523
813.279	4402
813.421	4402
813.562	4386
813.703	4337
813.845	4348
813.986	4280
814.127	4227
814.268	4310
814.41	4310
814.551	4265
814.692	4360
814.833	4276
814.974	4303
815.115	4344
815.256	4246
815.397	4322
815.539	4299
815.68	4162
815.821	4253
815.962	4242
816.103	4322
816.244	4249
816.385	4242
816.526	4284
816.666	4242
816.807	4131
816.948	4162
817.089	4196
817.23	4154
817.371	4002
817.512	4059
817.653	4105
817.793	4059
817.934	4032
818.075	4082
818.216	4109
818.356	4105
818.497	3991
818.638	3838
818.778	3941
818.919	3899
819.06	3869
819.2	3922
819.341	3873
819.481	3865
819.622	3979
819.762	4017
819.903	3941
820.043	3892
820.184	3838
820.324	3823
820.465	3876
820.605	3884
820.746	3838
820.886	3876
821.026	3960
821.167	3949
821.307	4002
821.447	4006
821.588	4002
821.728	3968
821.868	3945
822.008	3880
822.149	3918
822.289	3937
822.429	3800
822.569	3816
822.709	3808
822.849	3675
822.99	3755
823.13	3789
823.27	3838
823.41	3778
823.55	3759
823.69	3743
823.83	3709
823.97	3641
824.11	3606
824.25	3633
824.389	3637
824.529	3656
824.669	3625
824.809	3728
824.949	3709
825.089	3766
825.228	3728
825.368	3561
825.508	3515
825.648	3618
825.787	3637
825.927	3644
826.067	3667
826.206	3656
826.346	3797
826.485	3854
826.625	3930
826.765	3934
826.904	3873
827.044	3625
827.183	3534
827.323	3469
827.462	3523
827.601	3481
827.741	3454
827.88	3458
828.02	3424
828.159	3443
828.298	3488
828.437	3549
828.577	3492
828.716	3599
828.855	3538
828.994	3405
829.134	3389
829.273	3420
829.412	3363
829.551	3355
829.69	3367
829.829	3488
829.968	3526
830.107	3492
830.246	3481
830.385	3420
830.524	3348
830.663	3325
830.802	3287
830.941	3199
831.08	3218
831.219	3287
831.357	3275
831.496	3389
831.635	3256
831.774	3207
831.913	3207
832.051	3131
832.19	3180
832.329	3237
832.467	3173
832.606	3154
832.744	3214
832.883	3233
833.022	3211
833.16	3287
833.299	3317
833.437	3344
833.576	3382
833.714	3378
833.852	3454
833.991	3447
834.129	3469
834.267	3462
834.406	3405
834.544	3443
834.682	3443
834.821	3439
834.959	3553
835.097	3450
835.235	3519
835.373	3496
835.511	3515
835.65	3488
835.788	3485
835.926	3416
836.064	3386
836.202	3431
836.34	3568
836.478	3663
836.615	3576
836.753	3622
836.891	3644
837.029	3633
837.167	3576
837.305	3618
837.443	3538
837.58	3530
837.718	3580
837.856	3515
837.993	3564
838.131	3641
838.269	3633
838.406	3603
838.544	3564
838.681	3454
838.819	3462
838.956	3382
839.094	3412
839.231	3454
839.369	3549
839.506	3740
839.643	3580
839.781	3504
839.918	3477
840.055	3572
840.193	3504
840.33	3542
840.467	3545
840.604	3618
840.742	3819
840.879	3538
841.016	3568
841.153	3606
841.29	3766
841.427	3724
841.564	3759
841.701	3762
841.838	3679
841.975	3709
842.112	3732
842.249	3660
842.385	3663
842.522	3835
842.659	3728
842.796	3701
842.933	3701
843.069	3675
843.206	3732
843.343	3827
843.479	3751
843.616	3854
843.752	3705
843.889	3709
844.025	3865
844.162	3736
844.298	3846
844.435	3789
844.571	3759
844.708	3949
844.844	3991
844.98	4074
845.117	4029
845.253	3896
845.389	3922
845.525	4032
845.661	3949
845.798	3930
845.934	3979
846.07	3941
846.206	4082
846.342	4120
846.478	4044
846.614	3949
846.75	3937
846.886	3945
847.022	4048
847.158	3998
847.294	3994
847.429	4063
847.565	4013
847.701	4211
847.837	3922
847.972	3918
848.108	3937
848.244	3968
848.379	3865
848.515	3831
848.65	3785
848.786	3880
848.921	3861
849.057	3983
849.192	3934
849.328	3922
849.463	3979
849.598	3899
849.734	3884
849.869	3880
850.004	3827
850.14	3827
850.275	3827
850.41	3751
850.545	3812
850.68	3759
850.815	3785
850.95	3819
851.085	3937
851.22	3861
851.355	3842
851.49	3785
851.625	3827
851.76	3797
851.895	3743
852.03	3743
852.165	3793
852.299	3869
852.434	3937
852.569	3854
852.703	3922
852.838	3991
852.973	4002
853.107	4036
853.242	3945
853.376	3846
853.511	3774
853.645	3846
853.78	3949
853.914	3922
854.048	3903
854.183	3876
854.317	3968
854.451	4101
854.585	3968
854.72	3945
854.854	4029
854.988	3964
855.122	4063
855.256	3922
855.39	4013
855.524	4124
855.658	4105
855.792	4082
855.926	4150
856.06	4177
856.194	4200
856.327	4139
856.461	4105
856.595	4128
856.729	4181
856.862	4287
856.996	4257
857.13	4310
857.263	4333
857.397	4375
857.53	4291
857.664	4310
857.797	4409
857.931	4443
858.064	4432
858.197	4462
858.331	4409
858.464	4398
858.597	4379
858.731	4447
858.864	4485
858.997	4489
859.13	4538
859.263	4565
859.396	4615
859.529	4523
859.662	4538
859.795	4504
859.928	4599
860.061	4702
860.194	4755
860.327	4603
860.46	4637
860.592	4744
860.725	4767
860.858	4736
860.99	4706
861.123	4675
861.256	4744
861.388	4778
861.521	5368
861.653	4748
861.786	4706
861.918	4725
862.05	4805
862.183	4843
862.315	4911
862.447	4923
862.58	4877
862.712	4843
862.844	4831
862.976	4877
863.108	4885
863.24	5162
863.372	4858
863.504	4892
863.636	4904
863.768	4999
863.9	4957
864.032	4961
864.164	4995
864.296	5052
864.428	5083
864.559	5079
864.691	5178
864.823	5155
864.954	5102
865.086	5128
865.217	5159
865.349	5109
865.48	5178
865.612	5227
865.743	5265
865.875	5220
866.006	5193
866.137	5258
866.269	5250
866.4	5235
866.531	5273
866.662	5212
866.793	5273
866.924	5330
867.055	5398
867.186	5372
867.317	5326
867.448	5391
867.579	5410
867.71	5398
867.841	5444
867.972	5459
868.103	5440
868.233	5505
868.364	5516
868.495	5596
868.625	5646
868.756	5790
868.886	5661
869.017	5718
869.147	5863
869.278	5889
869.408	5805
869.539	5851
869.669	5916
869.799	5908
869.929	5977
870.06	6038
870.19	6232
870.32	6167
870.45	6262
870.58	6384
870.71	6410
870.84	6483
870.97	6506
871.1	6445
871.23	6646
871.36	6745
871.489	6696
871.619	6795
871.749	6821
871.879	6890
872.008	7053
872.138	7012
872.267	7008
872.397	6993
872.526	7031
872.656	7118
872.785	7278
872.915	7362
873.044	7563
873.173	7521
873.303	7647
873.432	7753
873.561	7849
873.69	7894
873.819	8027
873.948	8157
874.077	8298
874.206	8385
874.335	8473
874.464	8648
874.593	8891
874.722	8941
874.851	9169
874.979	9279
875.108	9408
875.237	9473
875.365	9462
875.494	9603
875.623	9835
875.751	9907
875.88	10025
876.008	10139
876.136	10234
876.265	10554
876.393	10771
876.521	10771
876.65	10736
876.778	10885
876.906	10896
877.034	11052
877.162	11041
877.29	11147
877.418	11307
877.546	11402
877.674	11406
877.802	11528
877.93	11608
878.058	11596
878.185	11539
878.313	11619
878.441	11737
878.568	11657
878.696	11745
878.824	11866
878.951	12030
879.079	11961
879.206	12152
879.333	12030
879.461	11996
879.588	12038
879.715	12072
879.842	12235
879.97	12121
880.097	11977
880.224	11882
880.351	11855
880.478	11893
880.605	11760
880.732	11870
880.859	12019
880.986	11790
881.112	11855
881.239	11718
881.366	11710
881.493	11649
881.619	11532
881.746	11604
881.872	11490
881.999	11528
882.125	11516
882.252	11646
882.378	11512
882.505	11608
882.631	11505
882.757	11326
882.883	11349
883.01	11322
883.136	11265
883.262	11193
883.388	11105
883.514	11143
883.64	11220
883.766	11113
883.892	11029
884.018	11022
884.143	11064
884.269	11018
884.395	10881
884.52	10736
884.646	10793
884.772	10774
884.897	10679
885.023	10679
885.148	10778
885.274	10793
885.399	10710
885.524	10607
885.65	10622
885.775	10634
885.9	10596
886.025	10611
886.15	10580
886.275	10432
886.4	10394
886.525	10421
886.65	10325
886.775	10421
886.9	10459
887.025	10569
887.149	10333
887.274	10227
887.399	10177
887.523	10200
887.648	10196
887.773	10116
887.897	10291
888.021	10261
888.146	10173
888.27	10223
888.395	10268
888.519	10147
888.643	10223
888.767	10188
888.891	9979
889.015	10078
889.139	10120
889.263	10040
889.387	10006
889.511	10185
889.635	10105
889.759	9941
889.883	10002
890.006	10063
890.13	10055
890.254	10071
890.377	9934
890.501	9873
890.624	9838
890.748	9835
890.871	9869
890.995	9728
891.118	9690
891.241	9797
891.364	9755
891.488	9857
891.611	9759
891.734	9762
891.857	9766
891.98	9770
892.103	9762
892.226	9686
892.349	9667
892.471	9511
892.594	9580
892.717	9660
892.839	9587
892.962	9622
893.085	9701
893.207	9610
893.33	9530
893.452	9568
893.575	9549
893.697	9515
893.819	9629
893.941	9656
894.064	9648
894.186	9443
894.308	9435
894.43	9599
894.552	9606
894.674	9477
894.796	9401
894.918	9344
895.04	9424
895.161	9374
895.283	9344
895.405	9283
895.526	9291
895.648	9256
895.769	9222
895.891	9264
896.012	9340
896.134	9203
896.255	9161
896.376	9146
896.498	9142
896.619	9169
896.74	9001
896.861	9085
896.982	9230
897.103	9287
897.224	9131
897.345	9039
897.466	8986
897.587	9051
897.708	9123
897.828	9032
897.949	8948
898.07	8868
898.19	8952
898.311	9081
898.431	8941
898.552	8956
898.672	9009
898.792	8994
898.913	8975
899.033	8819
899.153	8697
899.273	8701
899.393	8785
899.513	8773
899.633	8739
899.753	8678
899.873	8655
899.993	8800
900.113	8663
900.232	8712
900.352	8663
900.472	8606
900.591	8583
900.711	8571
900.83	8552
900.95	8663
901.069	8708
901.189	8606
901.308	8442
901.427	8423
901.546	8473
901.665	8454
901.784	8503
901.904	8370
902.023	8343
902.141	8301
902.26	8237
902.379	8294
902.498	8252
902.617	8221
902.735	8313
902.854	8210
902.973	8221
903.091	8168
903.21	8157
903.328	8164
903.446	8111
903.565	8145
903.683	8096
903.801	8157
903.919	8126
904.038	8134
904.156	8005
904.274	8142
904.392	8058
904.51	8107
904.627	8073
904.745	8142
904.863	8138
904.981	7944
905.098	7917
905.216	7875
905.334	7944
905.451	7902
905.569	7925
905.686	7917
905.803	7928
905.921	7769
906.038	7860
906.155	7788
906.272	7727
906.389	7719
906.506	7712
906.623	7601
906.74	7597
906.857	7578
906.974	7586
907.091	7685
907.208	7803
907.324	7643
907.441	7639
907.557	7521
907.674	7499
907.79	7339
907.907	7430
908.023	7453
908.139	7407
908.256	7373
908.372	7343
908.488	7403
908.604	7327
908.72	7171
908.836	7270
908.952	7244
909.068	7198
909.184	7297
909.3	7183
909.415	7312
909.531	7339
909.647	7110
909.762	7050
909.878	7122
909.993	7175
910.108	7038
910.224	7065
910.339	7149
910.454	7015
910.57	7019
910.685	7000
910.8	7217
910.915	7137
911.03	7038
911.145	6894
911.259	6909
911.374	6920
911.489	6829
911.604	6810
911.718	6684
911.833	6814
911.947	6650
912.062	6585
912.176	6688
912.291	6730
912.405	6703
912.519	6818
912.633	6821
912.748	6734
912.862	6696
912.976	6612
913.09	6563
913.204	6623
913.318	6570
913.431	6730
913.545	6658
913.659	6711
913.772	6673
913.886	6631
914	6551
914.113	6540
914.226	6627
914.34	6623
914.453	6490
914.566	6627
914.68	6494
914.793	6540
914.906	6414
915.019	6429
915.132	6426
915.245	6467
915.358	6433
915.47	6445
915.583	6448
915.696	6509
915.809	6502
915.921	6566
916.034	6445
916.146	6422
916.259	6372
916.371	6467
916.483	6490
916.595	6403
916.708	6433
916.82	6369
916.932	6422
917.044	6429
917.156	6334
917.268	6296
917.38	6372
917.491	6323
917.603	6361
917.715	6448
917.826	6388
917.938	6273
918.049	6273
918.161	6384
918.272	6426
918.384	6410
918.495	6327
918.606	6292
918.717	6273
918.828	6201
918.939	6304
919.05	6190
919.161	6247
919.272	6102
919.383	6163
919.494	6323
919.604	6426
919.715	6277
919.826	6251
919.936	6254
920.047	6357
920.157	6258
920.267	6399
920.378	6353
920.488	6308
920.598	6498
920.708	6521
920.818	6502
920.928	6483
921.038	6642
921.148	6631
921.258	6365
921.368	6300
921.477	6205
921.587	6175
921.697	6068
921.806	6285
921.916	6057
922.025	6007
922.134	5920
922.244	5828
922.353	5935
922.462	5885
922.571	5813
922.68	5741
922.789	5680
922.898	5695
923.007	5653
923.116	5707
923.224	5665
923.333	5688
923.442	5592
923.55	5596
923.659	5619
923.767	5680
923.876	5566
923.984	5695
924.092	5474
924.201	5589
924.309	5539
924.417	5562
924.525	5482
924.633	5497
924.741	6292
924.849	5318
924.956	5505
925.064	5368
925.172	5357
925.279	5326
925.387	5379
925.494	5364
925.602	5448
925.709	5349
925.816	5261
925.924	5372
926.031	5391
926.138	5292
926.245	5337
926.352	5250
926.459	5360
926.566	5345
926.673	5220
926.779	5174
926.886	5079
926.993	5075
927.099	5003
927.206	4976
927.312	4930
927.419	5041
927.525	4953
927.631	4995
927.737	4919
927.843	4862
927.95	4801
928.056	4820
928.162	4809
928.267	4896
928.373	5258
928.479	4870
928.585	4664
928.69	4752
928.796	4736
928.901	4672
929.007	4611
929.112	4740
929.218	4653
929.323	4615
929.428	4573
929.533	4645
929.638	4493
929.743	4573
929.848	4607
929.953	4554
930.058	4451
930.163	4360
930.267	4337
930.372	4451
930.477	4284
930.581	4485
930.685	4360
930.79	4287
930.894	4341
930.998	4253
931.103	4375
931.207	4128
931.311	4090
931.415	4013
931.519	3918
931.623	4017
