Data from glass_V78500241_2734.txt Node
Date: Wed Sep 01 19:33:27 CST 2021
User: usil
Spectrometer: V785-0024
Trigger mode: 0
Integration Time (sec): 4.000000E-1
Scans to average: 1
Nonlinearity correction enabled: false
Boxcar width: 0
Storing dark spectrum: false
XAxis mode: Wavelengths
Number of Pixels in Spectrum: 1024
>>>>>Begin Spectral Data<<<<<
801.071	3709
801.214	3720
801.356	3694
801.499	3717
801.641	3736
801.783	3743
801.926	3835
802.068	3800
802.211	3831
802.353	3876
802.496	3869
802.638	3892
802.78	3903
802.923	3922
803.065	3880
803.208	3823
803.35	3850
803.492	3880
803.635	3903
803.777	3789
803.919	3934
804.061	4143
804.204	3979
804.346	3926
804.488	3865
804.63	4055
804.773	3937
804.915	3979
805.057	4101
805.199	4029
805.341	4086
805.483	4135
805.626	4105
805.768	4105
805.91	4173
806.052	4177
806.194	4188
806.336	4295
806.478	4192
806.62	4147
806.762	4196
806.904	4272
807.046	4333
807.188	4211
807.33	4131
807.472	4207
807.614	4162
807.756	4257
807.898	4185
808.04	4253
808.182	4272
808.324	4329
808.465	4352
808.607	4459
808.749	4424
808.891	4421
809.033	4489
809.174	4409
809.316	4257
809.458	4265
809.6	4109
809.741	4131
809.883	4135
810.025	4192
810.166	4207
810.308	4169
810.45	4211
810.591	4173
810.733	4318
810.875	4493
811.016	4835
811.158	5090
811.299	5250
811.441	5315
811.582	5010
811.724	4694
811.865	4413
812.007	4409
812.148	4424
812.29	4432
812.431	4402
812.573	4367
812.714	4341
812.855	4383
812.997	4394
813.138	4413
813.279	4405
813.421	4386
813.562	4363
813.703	4299
813.845	4303
813.986	4242
814.127	4185
814.268	4272
814.41	4284
814.551	4215
814.692	4322
814.833	4249
814.974	4238
815.115	4341
815.256	4215
815.397	4188
815.539	4207
815.68	4211
815.821	4204
815.962	4268
816.103	4318
816.244	4223
816.385	4219
816.526	4219
816.666	4185
816.807	4074
816.948	4173
817.089	4135
817.23	4086
817.371	4051
817.512	4048
817.653	4067
817.793	4032
817.934	4044
818.075	4101
818.216	4059
818.356	4067
818.497	3979
818.638	3918
818.778	3880
818.919	3903
819.06	3835
819.2	3903
819.341	3842
819.481	3838
819.622	3918
819.762	3983
819.903	3953
820.043	3804
820.184	3770
820.324	3759
820.465	3831
820.605	3816
820.746	3835
820.886	3755
821.026	3941
821.167	3937
821.307	3926
821.447	3975
821.588	3945
821.728	3911
821.868	3903
822.008	3823
822.149	3896
822.289	3922
822.429	3759
822.569	3766
822.709	3774
822.849	3629
822.99	3709
823.13	3713
823.27	3747
823.41	3705
823.55	3766
823.69	3641
823.83	3740
823.97	3656
824.11	3584
824.25	3580
824.389	3580
824.529	3637
824.669	3584
824.809	3717
824.949	3751
825.089	3728
825.228	3679
825.368	3538
825.508	3545
825.648	3561
825.787	3595
825.927	3667
826.067	3580
826.206	3656
826.346	3751
826.485	3827
826.625	3835
826.765	3922
826.904	3789
827.044	3618
827.183	3523
827.323	3397
827.462	3492
827.601	3428
827.741	3420
827.88	3431
828.02	3321
828.159	3405
828.298	3458
828.437	3477
828.577	3477
828.716	3557
828.855	3496
828.994	3370
829.134	3370
829.273	3355
829.412	3351
829.551	3351
829.69	3344
829.829	3378
829.968	3477
830.107	3428
830.246	3469
830.385	3401
830.524	3298
830.663	3306
830.802	3268
830.941	3161
831.08	3207
831.219	3268
831.357	3230
831.496	3378
831.635	3222
831.774	3173
831.913	3218
832.051	3108
832.19	3135
832.329	3173
832.467	3062
832.606	3116
832.744	3150
832.883	3184
833.022	3184
833.16	3214
833.299	3294
833.437	3317
833.576	3310
833.714	3374
833.852	3435
833.991	3363
834.129	3458
834.267	3416
834.406	3386
834.544	3393
834.682	3401
834.821	3382
834.959	3545
835.097	3420
835.235	3507
835.373	3469
835.511	3469
835.65	3454
835.788	3435
835.926	3351
836.064	3359
836.202	3382
836.34	3557
836.478	3587
836.615	3511
836.753	3595
836.891	3652
837.029	3584
837.167	3584
837.305	3538
837.443	3504
837.58	3492
837.718	3572
837.856	3580
837.993	3534
838.131	3648
838.269	3553
838.406	3591
838.544	3568
838.681	3424
838.819	3454
838.956	3370
839.094	3370
839.231	3435
839.369	3507
839.506	3698
839.643	3606
839.781	3496
839.918	3466
840.055	3485
840.193	3511
840.33	3530
840.467	3549
840.604	3622
840.742	3827
840.879	3507
841.016	3561
841.153	3603
841.29	3736
841.427	3686
841.564	3701
841.701	3724
841.838	3720
841.975	3671
842.112	3690
842.249	3618
842.385	3610
842.522	3823
842.659	3686
842.796	3622
842.933	3709
843.069	3698
843.206	3671
843.343	3808
843.479	3770
843.616	3842
843.752	3637
843.889	3660
844.025	3835
844.162	3686
844.298	3812
844.435	3770
844.571	3812
844.708	3880
844.844	3983
844.98	3994
845.117	4032
845.253	3873
845.389	3926
845.525	3896
845.661	3941
845.798	3892
845.934	3964
846.07	3922
846.206	3994
846.342	4101
846.478	4017
846.614	3956
846.75	3922
846.886	3884
847.022	4067
847.158	3937
847.294	3987
847.429	4025
847.565	3998
847.701	4249
847.837	3915
847.972	3861
848.108	3964
848.244	3930
848.379	3816
848.515	3808
848.65	3800
848.786	3812
848.921	3831
849.057	3899
849.192	3949
849.328	3888
849.463	3907
849.598	3884
849.734	3838
849.869	3835
850.004	3785
850.14	3778
850.275	3778
850.41	3720
850.545	3713
850.68	3778
850.815	3819
850.95	3747
851.085	3911
851.22	3827
851.355	3793
851.49	3747
851.625	3797
851.76	3793
851.895	3709
852.03	3736
852.165	3766
852.299	3850
852.434	3827
852.569	3854
852.703	3911
852.838	3926
852.973	3945
853.107	3972
853.242	3873
853.376	3827
853.511	3759
853.645	3865
853.78	3945
853.914	3857
854.048	3903
854.183	3831
854.317	3903
854.451	4074
854.585	3930
854.72	3937
854.854	4017
854.988	3896
855.122	3972
855.256	3926
855.39	4040
855.524	4109
855.658	4071
855.792	4109
855.926	4101
856.06	4185
856.194	4158
856.327	4097
856.461	4154
856.595	4063
856.729	4154
856.862	4284
856.996	4230
857.13	4287
857.263	4333
857.397	4386
857.53	4318
857.664	4329
857.797	4451
857.931	4344
858.064	4371
858.197	4432
858.331	4367
858.464	4394
858.597	4333
858.731	4459
858.864	4466
858.997	4424
859.13	4531
859.263	4512
859.396	4558
859.529	4516
859.662	4455
859.795	4481
859.928	4573
860.061	4702
860.194	4679
860.327	4626
860.46	4656
860.592	4725
860.725	4733
860.858	4710
860.99	4656
861.123	4675
861.256	4672
861.388	4763
861.521	5280
861.653	4679
861.786	4691
861.918	4717
862.05	4805
862.183	4839
862.315	4828
862.447	4934
862.58	4934
862.712	4771
862.844	4774
862.976	4873
863.108	4858
863.24	5208
863.372	4809
863.504	4858
863.636	4866
863.768	4934
863.9	4968
864.032	4873
864.164	4930
864.296	5006
864.428	5075
864.559	5147
864.691	5109
864.823	5071
864.954	5147
865.086	5132
865.217	5121
865.349	5083
865.48	5128
865.612	5193
865.743	5273
865.875	5216
866.006	5166
866.137	5212
866.269	5208
866.4	5273
866.531	5189
866.662	5208
866.793	5269
866.924	5269
867.055	5372
867.186	5299
867.317	5307
867.448	5269
867.579	5398
867.71	5322
867.841	5357
867.972	5455
868.103	5448
868.233	5493
868.364	5474
868.495	5486
868.625	5649
868.756	5794
868.886	5638
869.017	5722
869.147	5840
869.278	5863
869.408	5764
869.539	5783
869.669	5885
869.799	5939
869.929	5939
870.06	5988
870.19	6182
870.32	6163
870.45	6258
870.58	6365
870.71	6399
870.84	6490
870.97	6410
871.1	6456
871.23	6574
871.36	6669
871.489	6620
871.619	6741
871.749	6783
871.879	6791
872.008	6951
872.138	6916
872.267	6958
872.397	6920
872.526	6962
872.656	7031
872.785	7133
872.915	7373
873.044	7540
873.173	7620
873.303	7620
873.432	7662
873.561	7887
873.69	7830
873.819	7989
873.948	8134
874.077	8214
874.206	8358
874.335	8442
874.464	8621
874.593	8826
874.722	8849
874.851	9119
874.979	9157
875.108	9450
875.237	9416
875.365	9481
875.494	9606
875.623	9838
875.751	9819
875.88	9987
876.008	10082
876.136	10219
876.265	10516
876.393	10645
876.521	10759
876.65	10805
876.778	10881
876.906	10900
877.034	10987
877.162	11136
877.29	11041
877.418	11269
877.546	11322
877.674	11379
877.802	11421
877.93	11509
878.058	11554
878.185	11570
878.313	11680
878.441	11699
878.568	11619
878.696	11805
878.824	11828
878.951	11965
879.079	11984
879.206	12019
879.333	12053
879.461	12007
879.588	12083
879.715	12110
879.842	12216
879.97	12057
880.097	11821
880.224	11813
880.351	11821
880.478	11885
880.605	11771
880.732	11805
880.859	11992
880.986	11710
881.112	11813
881.239	11665
881.366	11684
881.493	11592
881.619	11551
881.746	11585
881.872	11528
881.999	11478
882.125	11429
882.252	11558
882.378	11524
882.505	11509
882.631	11368
882.757	11318
882.883	11303
883.01	11147
883.136	11178
883.262	11071
883.388	11056
883.514	11170
883.64	11090
883.766	11143
883.892	10984
884.018	10991
884.143	11071
884.269	11052
884.395	10850
884.52	10767
884.646	10782
884.772	10717
884.897	10698
885.023	10706
885.148	10694
885.274	10706
885.399	10759
885.524	10618
885.65	10565
885.775	10645
885.9	10485
886.025	10607
886.15	10512
886.275	10489
886.4	10348
886.525	10390
886.65	10314
886.775	10314
886.9	10402
887.025	10516
887.149	10356
887.274	10223
887.399	10200
887.523	10181
887.648	10097
887.773	10071
887.897	10242
888.021	10192
888.146	10135
888.27	10181
888.395	10173
888.519	10215
888.643	10166
888.767	10257
888.891	10059
889.015	9968
889.139	9968
889.263	9994
889.387	10093
889.511	10048
889.635	10124
889.759	9930
889.883	9979
890.006	9987
890.13	10002
890.254	9972
890.377	9960
890.501	9762
890.624	9895
890.748	9892
890.871	9778
890.995	9698
891.118	9717
891.241	9789
891.364	9736
891.488	9740
891.611	9641
891.734	9797
891.857	9762
891.98	9774
892.103	9701
892.226	9751
892.349	9663
892.471	9469
892.594	9663
892.717	9603
892.839	9564
892.962	9587
893.085	9633
893.207	9572
893.33	9443
893.452	9557
893.575	9610
893.697	9481
893.819	9576
893.941	9545
894.064	9557
894.186	9447
894.308	9344
894.43	9523
894.552	9477
894.674	9507
894.796	9370
894.918	9401
895.04	9214
895.161	9264
895.283	9374
895.405	9218
895.526	9203
895.648	9260
895.769	9226
895.891	9222
896.012	9264
896.134	9195
896.255	9146
896.376	9131
896.498	9135
896.619	9024
896.74	9112
896.861	9055
896.982	9241
897.103	9321
897.224	9123
897.345	9017
897.466	8941
897.587	8998
897.708	9017
897.828	9017
897.949	8979
898.07	8842
898.19	8883
898.311	9036
898.431	8834
898.552	8960
898.672	8971
898.792	8967
898.913	8948
899.033	8785
899.153	8670
899.273	8705
899.393	8705
899.513	8750
899.633	8678
899.753	8739
899.873	8735
899.993	8731
900.113	8667
900.232	8716
900.352	8625
900.472	8560
900.591	8552
900.711	8568
900.83	8514
900.95	8644
901.069	8663
901.189	8526
901.308	8415
901.427	8351
901.546	8450
901.665	8488
901.784	8469
901.904	8370
902.023	8381
902.141	8267
902.26	8157
902.379	8294
902.498	8229
902.617	8195
902.735	8240
902.854	8290
902.973	8275
903.091	8130
903.21	8142
903.328	8275
903.446	8138
903.565	8012
903.683	8092
903.801	8005
903.919	8096
904.038	8100
904.156	8016
904.274	8043
904.392	8020
904.51	8115
904.627	8008
904.745	8092
904.863	8050
904.981	7906
905.098	7887
905.216	7890
905.334	7849
905.451	7902
905.569	7871
905.686	7890
905.803	7894
905.921	7784
906.038	7830
906.155	7803
906.272	7677
906.389	7700
906.506	7696
906.623	7658
906.74	7540
906.857	7521
906.974	7578
907.091	7677
907.208	7704
907.324	7571
907.441	7567
907.557	7460
907.674	7472
907.79	7388
907.907	7373
908.023	7434
908.139	7426
908.256	7354
908.372	7365
908.488	7365
908.604	7251
908.72	7236
908.836	7247
908.952	7255
909.068	7278
909.184	7350
909.3	7259
909.415	7285
909.531	7297
909.647	7110
909.762	7065
909.878	7057
909.993	7103
910.108	7099
910.224	7103
910.339	7061
910.454	6970
910.57	7012
910.685	6916
910.8	7183
910.915	7050
911.03	6916
911.145	6867
911.259	6848
911.374	6833
911.489	6867
911.604	6791
911.718	6662
911.833	6726
911.947	6620
912.062	6566
912.176	6700
912.291	6677
912.405	6696
912.519	6852
912.633	6787
912.748	6726
912.862	6658
912.976	6627
913.09	6513
913.204	6623
913.318	6601
913.431	6639
913.545	6669
913.659	6738
913.772	6684
913.886	6585
914	6479
914.113	6601
914.226	6601
914.34	6593
914.453	6525
914.566	6578
914.68	6490
914.793	6540
914.906	6426
915.019	6391
915.132	6292
915.245	6403
915.358	6433
915.47	6429
915.583	6414
915.696	6475
915.809	6528
915.921	6513
916.034	6456
916.146	6357
916.259	6327
916.371	6464
916.483	6414
916.595	6380
916.708	6365
916.82	6372
916.932	6395
917.044	6407
917.156	6319
917.268	6277
917.38	6281
917.491	6285
917.603	6372
917.715	6334
917.826	6311
917.938	6285
918.049	6197
918.161	6251
918.272	6407
918.384	6361
918.495	6353
918.606	6300
918.717	6251
918.828	6228
918.939	6292
919.05	6247
919.161	6194
919.272	6114
919.383	6121
919.494	6292
919.604	6376
919.715	6247
919.826	6277
919.936	6224
920.047	6346
920.157	6292
920.267	6414
920.378	6285
920.488	6258
920.598	6410
920.708	6536
920.818	6441
920.928	6490
921.038	6585
921.148	6585
921.258	6338
921.368	6258
921.477	6140
921.587	6163
921.697	6034
921.806	6205
921.916	6076
922.025	5988
922.134	5908
922.244	5893
922.353	5992
922.462	5824
922.571	5775
922.68	5691
922.789	5703
922.898	5691
923.007	5649
923.116	5752
923.224	5672
923.333	5649
923.442	5611
923.55	5554
923.659	5562
923.767	5638
923.876	5535
923.984	5604
924.092	5486
924.201	5551
924.309	5478
924.417	5528
924.525	5532
924.633	5482
924.741	6216
924.849	5330
924.956	5425
925.064	5311
925.172	5322
925.279	5269
925.387	5357
925.494	5330
925.602	5376
925.709	5410
925.816	5254
925.924	5277
926.031	5326
926.138	5284
926.245	5269
926.352	5181
926.459	5280
926.566	5311
926.673	5223
926.779	5136
926.886	5109
926.993	5071
927.099	4957
927.206	4976
927.312	4949
927.419	5018
927.525	4957
927.631	4957
927.737	4881
927.843	4873
927.95	4774
928.056	4805
928.162	4805
928.267	4881
928.373	5288
928.479	4816
928.585	4664
928.69	4763
928.796	4771
928.901	4664
929.007	4546
929.112	4649
929.218	4599
929.323	4573
929.428	4523
929.533	4641
929.638	4481
929.743	4554
929.848	4558
929.953	4481
930.058	4440
930.163	4284
930.267	4367
930.372	4443
930.477	4276
930.581	4443
930.685	4337
930.79	4242
930.894	4192
930.998	4261
931.103	4386
931.207	4101
931.311	4032
931.415	3998
931.519	3907
931.623	3922
