Data from glass_V78500241_1556.txt Node
Date: Wed Sep 01 19:25:17 CST 2021
User: usil
Spectrometer: V785-0024
Trigger mode: 0
Integration Time (sec): 4.000000E-1
Scans to average: 1
Nonlinearity correction enabled: false
Boxcar width: 0
Storing dark spectrum: false
XAxis mode: Wavelengths
Number of Pixels in Spectrum: 1024
>>>>>Begin Spectral Data<<<<<
801.071	3732
801.214	3762
801.356	3694
801.499	3751
801.641	3736
801.783	3759
801.926	3892
802.068	3770
802.211	3873
802.353	3907
802.496	3884
802.638	3892
802.78	3922
802.923	3850
803.065	3892
803.208	3861
803.35	3857
803.492	3876
803.635	3915
803.777	3804
803.919	3915
804.061	4181
804.204	4006
804.346	3918
804.488	3922
804.63	4040
804.773	3991
804.915	4040
805.057	4147
805.199	4044
805.341	4124
805.483	4166
805.626	4128
805.768	4124
805.91	4234
806.052	4253
806.194	4238
806.336	4356
806.478	4192
806.62	4147
806.762	4177
806.904	4268
807.046	4356
807.188	4173
807.33	4181
807.472	4196
807.614	4215
807.756	4253
807.898	4246
808.04	4219
808.182	4272
808.324	4310
808.465	4344
808.607	4440
808.749	4402
808.891	4428
809.033	4519
809.174	4386
809.316	4257
809.458	4223
809.6	4154
809.741	4109
809.883	4162
810.025	4211
810.166	4204
810.308	4253
810.45	4238
810.591	4272
810.733	4291
810.875	4531
811.016	4820
811.158	5121
811.299	5269
811.441	5265
811.582	5079
811.724	4687
811.865	4478
812.007	4459
812.148	4436
812.29	4428
812.431	4375
812.573	4436
812.714	4402
812.855	4398
812.997	4447
813.138	4470
813.279	4421
813.421	4371
813.562	4405
813.703	4314
813.845	4398
813.986	4287
814.127	4261
814.268	4284
814.41	4261
814.551	4253
814.692	4287
814.833	4253
814.974	4306
815.115	4287
815.256	4265
815.397	4223
815.539	4268
815.68	4223
815.821	4215
815.962	4318
816.103	4314
816.244	4238
816.385	4246
816.526	4329
816.666	4185
816.807	4131
816.948	4158
817.089	4169
817.23	4120
817.371	4032
817.512	4036
817.653	4059
817.793	3979
817.934	4017
818.075	4078
818.216	4101
818.356	4120
818.497	4006
818.638	3930
818.778	3907
818.919	3918
819.06	3880
819.2	3934
819.341	3812
819.481	3850
819.622	3911
819.762	3998
819.903	3960
820.043	3888
820.184	3812
820.324	3842
820.465	3903
820.605	3873
820.746	3861
820.886	3804
821.026	3907
821.167	3876
821.307	3998
821.447	3956
821.588	3926
821.728	3930
821.868	3926
822.008	3873
822.149	3930
822.289	3964
822.429	3812
822.569	3740
822.709	3816
822.849	3713
822.99	3686
823.13	3740
823.27	3797
823.41	3705
823.55	3717
823.69	3705
823.83	3743
823.97	3675
824.11	3599
824.25	3584
824.389	3663
824.529	3667
824.669	3603
824.809	3728
824.949	3781
825.089	3713
825.228	3679
825.368	3614
825.508	3572
825.648	3603
825.787	3629
825.927	3622
826.067	3622
826.206	3679
826.346	3774
826.485	3823
826.625	3873
826.765	3941
826.904	3854
827.044	3637
827.183	3523
827.323	3447
827.462	3481
827.601	3428
827.741	3386
827.88	3431
828.02	3363
828.159	3374
828.298	3485
828.437	3515
828.577	3500
828.716	3633
828.855	3454
828.994	3401
829.134	3393
829.273	3374
829.412	3359
829.551	3401
829.69	3344
829.829	3389
829.968	3515
830.107	3409
830.246	3405
830.385	3386
830.524	3374
830.663	3287
830.802	3279
830.941	3207
831.08	3165
831.219	3245
831.357	3268
831.496	3401
831.635	3214
831.774	3176
831.913	3211
832.051	3157
832.19	3161
832.329	3180
832.467	3161
832.606	3116
832.744	3157
832.883	3218
833.022	3233
833.16	3275
833.299	3340
833.437	3374
833.576	3397
833.714	3393
833.852	3439
833.991	3466
834.129	3485
834.267	3466
834.406	3428
834.544	3412
834.682	3420
834.821	3393
834.959	3557
835.097	3428
835.235	3488
835.373	3492
835.511	3485
835.65	3462
835.788	3500
835.926	3386
836.064	3374
836.202	3409
836.34	3568
836.478	3584
836.615	3526
836.753	3606
836.891	3679
837.029	3625
837.167	3549
837.305	3580
837.443	3572
837.58	3515
837.718	3610
837.856	3587
837.993	3549
838.131	3580
838.269	3606
838.406	3618
838.544	3553
838.681	3466
838.819	3450
838.956	3382
839.094	3431
839.231	3466
839.369	3492
839.506	3720
839.643	3610
839.781	3492
839.918	3458
840.055	3523
840.193	3530
840.33	3496
840.467	3561
840.604	3629
840.742	3778
840.879	3564
841.016	3568
841.153	3614
841.29	3781
841.427	3740
841.564	3736
841.701	3766
841.838	3690
841.975	3679
842.112	3694
842.249	3625
842.385	3660
842.522	3850
842.659	3686
842.796	3671
842.933	3698
843.069	3724
843.206	3705
843.343	3785
843.479	3835
843.616	3823
843.752	3656
843.889	3679
844.025	3835
844.162	3705
844.298	3812
844.435	3789
844.571	3793
844.708	3899
844.844	3979
844.98	3998
845.117	3987
845.253	3945
845.389	3922
845.525	3960
845.661	3953
845.798	3922
845.934	4013
846.07	3953
846.206	4059
846.342	4135
846.478	4063
846.614	3983
846.75	3918
846.886	3907
847.022	4051
847.158	3991
847.294	3979
847.429	4071
847.565	4032
847.701	4249
847.837	3846
847.972	3873
848.108	4013
848.244	3979
848.379	3816
848.515	3827
848.65	3808
848.786	3857
848.921	3854
849.057	3949
849.192	3922
849.328	3876
849.463	3934
849.598	3918
849.734	3846
849.869	3812
850.004	3781
850.14	3835
850.275	3766
850.41	3747
850.545	3713
850.68	3781
850.815	3812
850.95	3812
851.085	3869
851.22	3812
851.355	3823
851.49	3755
851.625	3823
851.76	3774
851.895	3705
852.03	3736
852.165	3823
852.299	3850
852.434	3899
852.569	3854
852.703	3907
852.838	3949
852.973	4017
853.107	3964
853.242	3884
853.376	3865
853.511	3766
853.645	3793
853.78	3979
853.914	3869
854.048	3892
854.183	3876
854.317	3953
854.451	4036
854.585	3964
854.72	3884
854.854	3987
854.988	3934
855.122	4006
855.256	3922
855.39	3998
855.524	4074
855.658	4082
855.792	4135
855.926	4109
856.06	4177
856.194	4230
856.327	4135
856.461	4135
856.595	4166
856.729	4158
856.862	4303
856.996	4215
857.13	4314
857.263	4322
857.397	4371
857.53	4314
857.664	4360
857.797	4413
857.931	4432
858.064	4394
858.197	4432
858.331	4440
858.464	4390
858.597	4272
858.731	4497
858.864	4455
858.997	4436
859.13	4565
859.263	4527
859.396	4531
859.529	4497
859.662	4531
859.795	4535
859.928	4596
860.061	4691
860.194	4736
860.327	4649
860.46	4622
860.592	4755
860.725	4755
860.858	4767
860.99	4683
861.123	4675
861.256	4687
861.388	4790
861.521	5520
861.653	4736
861.786	4740
861.918	4729
862.05	4771
862.183	4892
862.315	4892
862.447	4946
862.58	4850
862.712	4786
862.844	4748
862.976	4858
863.108	4843
863.24	5299
863.372	4850
863.504	4892
863.636	4889
863.768	4946
863.9	4957
864.032	4984
864.164	4900
864.296	5029
864.428	5090
864.559	5151
864.691	5105
864.823	5113
864.954	5105
865.086	5098
865.217	5147
865.349	5117
865.48	5147
865.612	5197
865.743	5299
865.875	5170
866.006	5170
866.137	5204
866.269	5239
866.4	5227
866.531	5235
866.662	5216
866.793	5258
866.924	5337
867.055	5341
867.186	5284
867.317	5341
867.448	5368
867.579	5383
867.71	5376
867.841	5395
867.972	5417
868.103	5444
868.233	5467
868.364	5474
868.495	5589
868.625	5646
868.756	5764
868.886	5646
869.017	5729
869.147	5844
869.278	5851
869.408	5817
869.539	5897
869.669	5923
869.799	5958
869.929	5988
870.06	5996
870.19	6091
870.32	6235
870.45	6254
870.58	6296
870.71	6410
870.84	6513
870.97	6448
871.1	6437
871.23	6623
871.36	6669
871.489	6665
871.619	6768
871.749	6783
871.879	6844
872.008	6954
872.138	6932
872.267	7034
872.397	6996
872.526	7053
872.656	7091
872.785	7217
872.915	7441
873.044	7453
873.173	7556
873.303	7658
873.432	7693
873.561	7856
873.69	7959
873.819	8035
873.948	8202
874.077	8233
874.206	8313
874.335	8415
874.464	8689
874.593	8906
874.722	8883
874.851	9104
874.979	9249
875.108	9378
875.237	9481
875.365	9374
875.494	9675
875.623	9854
875.751	9793
875.88	9915
876.008	10192
876.136	10200
876.265	10451
876.393	10725
876.521	10763
876.65	10831
876.778	10919
876.906	10934
877.034	10976
877.162	11109
877.29	11174
877.418	11288
877.546	11395
877.674	11395
877.802	11516
877.93	11516
878.058	11596
878.185	11520
878.313	11649
878.441	11703
878.568	11615
878.696	11821
878.824	11836
878.951	11973
879.079	11954
879.206	12148
879.333	12038
879.461	11931
879.588	12136
879.715	11999
879.842	12239
879.97	12057
880.097	11859
880.224	11920
880.351	11889
880.478	11878
880.605	11942
880.732	11779
880.859	12026
880.986	11866
881.112	11901
881.239	11684
881.366	11623
881.493	11699
881.619	11551
881.746	11551
881.872	11604
881.999	11509
882.125	11547
882.252	11554
882.378	11501
882.505	11573
882.631	11395
882.757	11337
882.883	11356
883.01	11261
883.136	11220
883.262	11117
883.388	11132
883.514	11136
883.64	11140
883.766	11102
883.892	11075
884.018	10999
884.143	11086
884.269	11185
884.395	10831
884.52	10752
884.646	10839
884.772	10748
884.897	10645
885.023	10603
885.148	10653
885.274	10706
885.399	10729
885.524	10588
885.65	10596
885.775	10558
885.9	10531
886.025	10641
886.15	10558
886.275	10485
886.4	10318
886.525	10409
886.65	10424
886.775	10413
886.9	10504
887.025	10558
887.149	10344
887.274	10215
887.399	10169
887.523	10124
887.648	10147
887.773	10173
887.897	10185
888.021	10234
888.146	10135
888.27	10181
888.395	10284
888.519	10150
888.643	10188
888.767	10196
888.891	10090
889.015	10032
889.139	10067
889.263	10032
889.387	10128
889.511	10143
889.635	10029
889.759	9975
889.883	9979
890.006	10006
890.13	10071
890.254	9869
890.377	9922
890.501	9899
890.624	9873
890.748	9915
890.871	9785
890.995	9781
891.118	9713
891.241	9789
891.364	9762
891.488	9816
891.611	9701
891.734	9762
891.857	9808
891.98	9728
892.103	9675
892.226	9701
892.349	9667
892.471	9473
892.594	9584
892.717	9606
892.839	9564
892.962	9641
893.085	9698
893.207	9576
893.33	9454
893.452	9572
893.575	9625
893.697	9603
893.819	9644
893.941	9633
894.064	9568
894.186	9473
894.308	9435
894.43	9504
894.552	9561
894.674	9557
894.796	9382
894.918	9428
895.04	9233
895.161	9389
895.283	9321
895.405	9218
895.526	9249
895.648	9249
895.769	9294
895.891	9199
896.012	9253
896.134	9249
896.255	9214
896.376	9184
896.498	9142
896.619	9184
896.74	9043
896.861	9077
896.982	9336
897.103	9302
897.224	9146
897.345	9077
897.466	8986
897.587	9055
897.708	9097
897.828	8963
897.949	8963
898.07	8800
898.19	8971
898.311	9093
898.431	8933
898.552	8918
898.672	8994
898.792	8925
898.913	8925
899.033	8743
899.153	8716
899.273	8701
899.393	8697
899.513	8739
899.633	8777
899.753	8781
899.873	8640
899.993	8731
900.113	8670
900.232	8724
900.352	8697
900.472	8598
900.591	8511
900.711	8571
900.83	8450
900.95	8636
901.069	8720
901.189	8648
901.308	8446
901.427	8412
901.546	8423
901.665	8461
901.784	8469
901.904	8415
902.023	8309
902.141	8161
902.26	8237
902.379	8225
902.498	8210
902.617	8263
902.735	8324
902.854	8256
902.973	8221
903.091	8115
903.21	8161
903.328	8153
903.446	8092
903.565	8046
903.683	8100
903.801	8065
903.919	8126
904.038	8100
904.156	7986
904.274	8046
904.392	8016
904.51	7974
904.627	8020
904.745	8050
904.863	8073
904.981	7898
905.098	7921
905.216	7883
905.334	7875
905.451	7902
905.569	7864
905.686	7917
905.803	7986
905.921	7822
906.038	7871
906.155	7841
906.272	7677
906.389	7693
906.506	7696
906.623	7643
906.74	7670
906.857	7563
906.974	7597
907.091	7662
907.208	7769
907.324	7658
907.441	7681
907.557	7419
907.674	7449
907.79	7445
907.907	7396
908.023	7419
908.139	7373
908.256	7411
908.372	7396
908.488	7358
908.604	7293
908.72	7305
908.836	7251
908.952	7247
909.068	7263
909.184	7274
909.3	7308
909.415	7305
909.531	7285
909.647	7118
909.762	7110
909.878	7042
909.993	7114
910.108	7065
910.224	7057
910.339	7129
910.454	7008
910.57	7046
910.685	6985
910.8	7103
910.915	7034
911.03	7019
911.145	6833
911.259	6859
911.374	6916
911.489	6795
911.604	6825
911.718	6730
911.833	6760
911.947	6589
912.062	6616
912.176	6642
912.291	6753
912.405	6719
912.519	6806
912.633	6818
912.748	6760
912.862	6707
912.976	6585
913.09	6532
913.204	6623
913.318	6627
913.431	6658
913.545	6707
913.659	6711
913.772	6662
913.886	6604
914	6528
914.113	6677
914.226	6696
914.34	6627
914.453	6498
914.566	6608
914.68	6517
914.793	6509
914.906	6399
915.019	6422
915.132	6410
915.245	6384
915.358	6464
915.47	6456
915.583	6384
915.696	6448
915.809	6570
915.921	6483
916.034	6437
916.146	6426
916.259	6414
916.371	6502
916.483	6433
916.595	6395
916.708	6410
916.82	6403
916.932	6357
917.044	6403
917.156	6422
917.268	6285
917.38	6338
917.491	6350
917.603	6311
917.715	6391
917.826	6441
917.938	6353
918.049	6209
918.161	6380
918.272	6445
918.384	6509
918.495	6350
918.606	6289
918.717	6224
918.828	6273
918.939	6273
919.05	6213
919.161	6285
919.272	6106
919.383	6083
919.494	6281
919.604	6414
919.715	6243
919.826	6213
919.936	6205
920.047	6308
920.157	6292
920.267	6426
920.378	6319
920.488	6281
920.598	6391
920.708	6525
920.818	6452
920.928	6471
921.038	6585
921.148	6585
921.258	6369
921.368	6239
921.477	6178
921.587	6175
921.697	6098
921.806	6159
921.916	6117
922.025	5939
922.134	5893
922.244	5885
922.353	5965
922.462	5870
922.571	5779
922.68	5707
922.789	5676
922.898	5786
923.007	5611
923.116	5619
923.224	5672
923.333	5627
923.442	5611
923.55	5535
923.659	5570
923.767	5577
923.876	5532
923.984	5630
924.092	5474
924.201	5551
924.309	5570
924.417	5592
924.525	5512
924.633	5482
924.741	6140
924.849	5429
924.956	5433
925.064	5292
925.172	5296
925.279	5326
925.387	5372
925.494	5357
925.602	5421
925.709	5421
925.816	5254
925.924	5364
926.031	5376
926.138	5223
926.245	5376
926.352	5242
926.459	5318
926.566	5311
926.673	5212
926.779	5162
926.886	5117
926.993	5090
927.099	5037
927.206	4942
927.312	4961
927.419	4980
927.525	4984
927.631	5003
927.737	4881
927.843	4866
927.95	4778
928.056	4774
928.162	4831
928.267	4854
928.373	5391
928.479	4923
928.585	4691
928.69	4790
928.796	4793
928.901	4710
929.007	4607
929.112	4702
929.218	4653
929.323	4645
929.428	4588
929.533	4653
929.638	4550
929.743	4569
929.848	4535
929.953	4535
930.058	4440
930.163	4306
930.267	4363
930.372	4447
930.477	4253
930.581	4466
930.685	4367
930.79	4265
930.894	4284
930.998	4268
931.103	4394
931.207	4101
931.311	4109
931.415	4002
931.519	3922
931.623	3975
