Data from glass_V78500241_885.txt Node
Date: Wed Sep 01 19:20:38 CST 2021
User: usil
Spectrometer: V785-0024
Trigger mode: 0
Integration Time (sec): 4.000000E-1
Scans to average: 1
Nonlinearity correction enabled: false
Boxcar width: 0
Storing dark spectrum: false
XAxis mode: Wavelengths
Number of Pixels in Spectrum: 1024
>>>>>Begin Spectral Data<<<<<
801.071	3743
801.214	3778
801.356	3717
801.499	3755
801.641	3736
801.783	3827
801.926	3838
802.068	3797
802.211	3892
802.353	3846
802.496	3892
802.638	3880
802.78	3884
802.923	3911
803.065	3888
803.208	3873
803.35	3876
803.492	3945
803.635	3899
803.777	3854
803.919	3892
804.061	4166
804.204	3960
804.346	3972
804.488	3903
804.63	4063
804.773	3918
804.915	4013
805.057	4135
805.199	4029
805.341	4101
805.483	4166
805.626	4112
805.768	4135
805.91	4230
806.052	4246
806.194	4215
806.336	4371
806.478	4196
806.62	4124
806.762	4234
806.904	4223
807.046	4329
807.188	4238
807.33	4188
807.472	4257
807.614	4215
807.756	4207
807.898	4223
808.04	4223
808.182	4318
808.324	4348
808.465	4409
808.607	4424
808.749	4428
808.891	4512
809.033	4584
809.174	4428
809.316	4268
809.458	4265
809.6	4158
809.741	4135
809.883	4150
810.025	4200
810.166	4207
810.308	4196
810.45	4276
810.591	4230
810.733	4333
810.875	4573
811.016	4854
811.158	5143
811.299	5292
811.441	5261
811.582	5071
811.724	4714
811.865	4489
812.007	4443
812.148	4413
812.29	4436
812.431	4451
812.573	4417
812.714	4367
812.855	4443
812.997	4447
813.138	4459
813.279	4428
813.421	4440
813.562	4360
813.703	4386
813.845	4356
813.986	4257
814.127	4200
814.268	4268
814.41	4303
814.551	4257
814.692	4344
814.833	4257
814.974	4314
815.115	4348
815.256	4253
815.397	4246
815.539	4230
815.68	4185
815.821	4227
815.962	4287
816.103	4295
816.244	4299
816.385	4238
816.526	4303
816.666	4204
816.807	4116
816.948	4207
817.089	4177
817.23	4097
817.371	4051
817.512	4063
817.653	4101
817.793	4040
817.934	4040
818.075	4078
818.216	4105
818.356	4082
818.497	4002
818.638	3926
818.778	3899
818.919	3892
819.06	3857
819.2	3930
819.341	3876
819.481	3831
819.622	3899
819.762	4025
819.903	3968
820.043	3880
820.184	3842
820.324	3865
820.465	3884
820.605	3880
820.746	3857
820.886	3835
821.026	3949
821.167	3926
821.307	3964
821.447	4040
821.588	3987
821.728	3972
821.868	3922
822.008	3846
822.149	3892
822.289	3918
822.429	3778
822.569	3827
822.709	3846
822.849	3701
822.99	3736
823.13	3778
823.27	3808
823.41	3720
823.55	3747
823.69	3720
823.83	3736
823.97	3637
824.11	3675
824.25	3614
824.389	3660
824.529	3701
824.669	3656
824.809	3736
824.949	3762
825.089	3732
825.228	3724
825.368	3610
825.508	3557
825.648	3587
825.787	3599
825.927	3614
826.067	3660
826.206	3667
826.346	3812
826.485	3835
826.625	3896
826.765	3953
826.904	3827
827.044	3614
827.183	3511
827.323	3416
827.462	3473
827.601	3454
827.741	3428
827.88	3469
828.02	3397
828.159	3454
828.298	3485
828.437	3549
828.577	3462
828.716	3633
828.855	3500
828.994	3393
829.134	3378
829.273	3405
829.412	3359
829.551	3325
829.69	3389
829.829	3450
829.968	3542
830.107	3481
830.246	3488
830.385	3344
830.524	3351
830.663	3294
830.802	3272
830.941	3222
831.08	3233
831.219	3272
831.357	3253
831.496	3439
831.635	3241
831.774	3176
831.913	3192
832.051	3169
832.19	3131
832.329	3218
832.467	3135
832.606	3127
832.744	3173
832.883	3173
833.022	3165
833.16	3291
833.299	3302
833.437	3348
833.576	3370
833.714	3428
833.852	3412
833.991	3458
834.129	3424
834.267	3416
834.406	3401
834.544	3454
834.682	3431
834.821	3386
834.959	3549
835.097	3447
835.235	3542
835.373	3545
835.511	3492
835.65	3485
835.788	3511
835.926	3412
836.064	3374
836.202	3424
836.34	3595
836.478	3587
836.615	3557
836.753	3641
836.891	3625
837.029	3648
837.167	3606
837.305	3568
837.443	3553
837.58	3496
837.718	3633
837.856	3523
837.993	3488
838.131	3595
838.269	3603
838.406	3534
838.544	3576
838.681	3466
838.819	3473
838.956	3397
839.094	3405
839.231	3416
839.369	3561
839.506	3732
839.643	3637
839.781	3538
839.918	3477
840.055	3534
840.193	3538
840.33	3538
840.467	3561
840.604	3606
840.742	3854
840.879	3572
841.016	3587
841.153	3610
841.29	3751
841.427	3751
841.564	3759
841.701	3740
841.838	3679
841.975	3679
842.112	3755
842.249	3610
842.385	3648
842.522	3846
842.659	3728
842.796	3675
842.933	3698
843.069	3694
843.206	3724
843.343	3812
843.479	3770
843.616	3823
843.752	3698
843.889	3736
844.025	3869
844.162	3743
844.298	3888
844.435	3774
844.571	3808
844.708	3937
844.844	3949
844.98	4032
845.117	4086
845.253	3918
845.389	3907
845.525	3964
845.661	3956
845.798	3930
845.934	4036
846.07	3915
846.206	4086
846.342	4147
846.478	4040
846.614	3983
846.75	3949
846.886	3937
847.022	4040
847.158	4010
847.294	3994
847.429	4051
847.565	4017
847.701	4295
847.837	3937
847.972	3903
848.108	4017
848.244	3991
848.379	3884
848.515	3812
848.65	3838
848.786	3873
848.921	3880
849.057	3964
849.192	3987
849.328	3911
849.463	3911
849.598	3911
849.734	3857
849.869	3857
850.004	3808
850.14	3842
850.275	3785
850.41	3762
850.545	3755
850.68	3785
850.815	3835
850.95	3842
851.085	3922
851.22	3846
851.355	3835
851.49	3846
851.625	3793
851.76	3850
851.895	3759
852.03	3755
852.165	3793
852.299	3850
852.434	3915
852.569	3854
852.703	3945
852.838	3915
852.973	4040
853.107	3991
853.242	3899
853.376	3892
853.511	3766
853.645	3873
853.78	4025
853.914	3896
854.048	3880
854.183	3896
854.317	3949
854.451	4101
854.585	3972
854.72	3956
854.854	4074
854.988	3968
855.122	3964
855.256	3922
855.39	4029
855.524	4116
855.658	4082
855.792	4120
855.926	4162
856.06	4173
856.194	4265
856.327	4116
856.461	4147
856.595	4204
856.729	4173
856.862	4295
856.996	4242
857.13	4314
857.263	4318
857.397	4363
857.53	4310
857.664	4371
857.797	4363
857.931	4436
858.064	4402
858.197	4451
858.331	4390
858.464	4375
858.597	4394
858.731	4447
858.864	4436
858.997	4500
859.13	4527
859.263	4558
859.396	4611
859.529	4550
859.662	4554
859.795	4531
859.928	4630
860.061	4710
860.194	4812
860.327	4679
860.46	4630
860.592	4736
860.725	4786
860.858	4824
860.99	4672
861.123	4717
861.256	4691
861.388	4771
861.521	5535
861.653	4744
861.786	4740
861.918	4725
862.05	4820
862.183	4839
862.315	4889
862.447	4908
862.58	4934
862.712	4835
862.844	4786
862.976	4930
863.108	4862
863.24	5193
863.372	4812
863.504	4923
863.636	4828
863.768	4980
863.9	5029
864.032	4938
864.164	4953
864.296	5052
864.428	5086
864.559	5090
864.691	5136
864.823	5090
864.954	5178
865.086	5117
865.217	5174
865.349	5132
865.48	5208
865.612	5189
865.743	5326
865.875	5265
866.006	5189
866.137	5273
866.269	5216
866.4	5269
866.531	5292
866.662	5246
866.793	5269
866.924	5273
867.055	5353
867.186	5326
867.317	5341
867.448	5303
867.579	5402
867.71	5357
867.841	5414
867.972	5471
868.103	5471
868.233	5501
868.364	5532
868.495	5562
868.625	5680
868.756	5764
868.886	5745
869.017	5722
869.147	5840
869.278	5901
869.408	5805
869.539	5878
869.669	5901
869.799	5965
869.929	5973
870.06	6034
870.19	6243
870.32	6190
870.45	6289
870.58	6361
870.71	6467
870.84	6448
870.97	6452
871.1	6437
871.23	6665
871.36	6700
871.489	6696
871.619	6779
871.749	6825
871.879	6871
872.008	6989
872.138	6966
872.267	7019
872.397	6985
872.526	7057
872.656	7091
872.785	7202
872.915	7358
873.044	7567
873.173	7578
873.303	7639
873.432	7761
873.561	7883
873.69	7947
873.819	8020
873.948	8199
874.077	8202
874.206	8351
874.335	8396
874.464	8648
874.593	8994
874.722	8937
874.851	9165
874.979	9264
875.108	9363
875.237	9424
875.365	9492
875.494	9671
875.623	9831
875.751	9846
875.88	10002
876.008	10131
876.136	10268
876.265	10504
876.393	10672
876.521	10710
876.65	10831
876.778	10831
876.906	10930
877.034	11010
877.162	11025
877.29	11155
877.418	11223
877.546	11288
877.674	11402
877.802	11463
877.93	11608
878.058	11608
878.185	11554
878.313	11672
878.441	11710
878.568	11691
878.696	11870
878.824	11764
878.951	11889
879.079	12015
879.206	12140
879.333	12030
879.461	12057
879.588	12125
879.715	12114
879.842	12213
879.97	12045
880.097	11893
880.224	11832
880.351	11813
880.478	11847
880.605	11904
880.732	11794
880.859	11973
880.986	11874
881.112	11840
881.239	11779
881.366	11630
881.493	11733
881.619	11558
881.746	11600
881.872	11577
881.999	11490
882.125	11364
882.252	11634
882.378	11455
882.505	11608
882.631	11334
882.757	11311
882.883	11334
883.01	11261
883.136	11086
883.262	11052
883.388	11098
883.514	11174
883.64	11151
883.766	11136
883.892	10999
884.018	11056
884.143	11105
884.269	11079
884.395	10881
884.52	10771
884.646	10816
884.772	10622
884.897	10733
885.023	10664
885.148	10767
885.274	10763
885.399	10702
885.524	10607
885.65	10592
885.775	10683
885.9	10569
886.025	10634
886.15	10596
886.275	10462
886.4	10386
886.525	10417
886.65	10417
886.775	10276
886.9	10417
887.025	10565
887.149	10394
887.274	10268
887.399	10227
887.523	10253
887.648	10139
887.773	10135
887.897	10325
888.021	10265
888.146	10101
888.27	10261
888.395	10196
888.519	10166
888.643	10196
888.767	10230
888.891	10109
889.015	9975
889.139	10078
889.263	10025
889.387	10097
889.511	10071
889.635	10078
889.759	9907
889.883	9960
890.006	10055
890.13	10128
890.254	10010
890.377	9972
890.501	9816
890.624	9930
890.748	9895
890.871	9800
890.995	9717
891.118	9720
891.241	9728
891.364	9720
891.488	9838
891.611	9709
891.734	9713
891.857	9698
891.98	9656
892.103	9736
892.226	9713
892.349	9698
892.471	9549
892.594	9641
892.717	9561
892.839	9644
892.962	9637
893.085	9675
893.207	9629
893.33	9534
893.452	9564
893.575	9580
893.697	9511
893.819	9701
893.941	9679
894.064	9568
894.186	9500
894.308	9431
894.43	9534
894.552	9622
894.674	9584
894.796	9359
894.918	9374
895.04	9298
895.161	9424
895.283	9370
895.405	9367
895.526	9199
895.648	9222
895.769	9272
895.891	9264
896.012	9294
896.134	9218
896.255	9165
896.376	9047
896.498	9165
896.619	9089
896.74	9081
896.861	9066
896.982	9275
897.103	9310
897.224	9169
897.345	9028
897.466	9028
897.587	9108
897.708	9036
897.828	9089
897.949	8925
898.07	8872
898.19	8872
898.311	8975
898.431	8891
898.552	8868
898.672	8956
898.792	8982
898.913	8891
899.033	8785
899.153	8754
899.273	8689
899.393	8735
899.513	8731
899.633	8701
899.753	8739
899.873	8720
899.993	8731
900.113	8716
900.232	8754
900.352	8693
900.472	8663
900.591	8545
900.711	8636
900.83	8522
900.95	8655
901.069	8659
901.189	8552
901.308	8511
901.427	8408
901.546	8473
901.665	8427
901.784	8446
901.904	8362
902.023	8343
902.141	8210
902.26	8221
902.379	8248
902.498	8233
902.617	8134
902.735	8248
902.854	8298
902.973	8332
903.091	8119
903.21	8153
903.328	8115
903.446	8107
903.565	8103
903.683	8134
903.801	8035
903.919	8103
904.038	8100
904.156	8020
904.274	8088
904.392	8069
904.51	8016
904.627	8054
904.745	8084
904.863	7993
904.981	7951
905.098	7902
905.216	7879
905.334	7898
905.451	7921
905.569	7906
905.686	7883
905.803	7932
905.921	7792
906.038	7887
906.155	7837
906.272	7761
906.389	7746
906.506	7681
906.623	7647
906.74	7537
906.857	7544
906.974	7601
907.091	7750
907.208	7734
907.324	7616
907.441	7578
907.557	7426
907.674	7403
907.79	7460
907.907	7396
908.023	7411
908.139	7434
908.256	7392
908.372	7358
908.488	7415
908.604	7244
908.72	7274
908.836	7331
908.952	7209
909.068	7236
909.184	7346
909.3	7301
909.415	7236
909.531	7278
909.647	7034
909.762	7152
909.878	7099
909.993	7152
910.108	7137
910.224	7091
910.339	7084
910.454	7034
910.57	7008
910.685	6977
910.8	7164
910.915	7168
911.03	7031
911.145	6943
911.259	6913
911.374	6886
911.489	6867
911.604	6825
911.718	6776
911.833	6764
911.947	6688
912.062	6639
912.176	6741
912.291	6768
912.405	6734
912.519	6783
912.633	6821
912.748	6700
912.862	6722
912.976	6620
913.09	6574
913.204	6612
913.318	6612
913.431	6673
913.545	6635
913.659	6760
913.772	6692
913.886	6585
914	6566
914.113	6662
914.226	6646
914.34	6654
914.453	6513
914.566	6608
914.68	6551
914.793	6589
914.906	6460
915.019	6353
915.132	6414
915.245	6380
915.358	6422
915.47	6422
915.583	6448
915.696	6479
915.809	6536
915.921	6578
916.034	6350
916.146	6399
916.259	6407
916.371	6513
916.483	6414
916.595	6357
916.708	6448
916.82	6429
916.932	6391
917.044	6369
917.156	6410
917.268	6300
917.38	6361
917.491	6353
917.603	6361
917.715	6410
917.826	6418
917.938	6323
918.049	6277
918.161	6353
918.272	6403
918.384	6433
918.495	6365
918.606	6285
918.717	6243
918.828	6296
918.939	6289
919.05	6247
919.161	6308
919.272	6121
919.383	6224
919.494	6323
919.604	6445
919.715	6292
919.826	6220
919.936	6228
920.047	6281
920.157	6304
920.267	6471
920.378	6342
920.488	6254
920.598	6471
920.708	6528
920.818	6544
920.928	6551
921.038	6623
921.148	6604
921.258	6391
921.368	6296
921.477	6224
921.587	6190
921.697	6136
921.806	6182
921.916	6129
922.025	6007
922.134	5942
922.244	5912
922.353	5942
922.462	5847
922.571	5790
922.68	5676
922.789	5680
922.898	5718
923.007	5657
923.116	5699
923.224	5646
923.333	5668
923.442	5623
923.55	5592
923.659	5570
923.767	5684
923.876	5532
923.984	5551
924.092	5478
924.201	5570
924.309	5570
924.417	5585
924.525	5509
924.633	5535
924.741	6152
924.849	5360
924.956	5459
925.064	5376
925.172	5353
925.279	5299
925.387	5372
925.494	5391
925.602	5425
925.709	5406
925.816	5341
925.924	5261
926.031	5395
926.138	5311
926.245	5357
926.352	5258
926.459	5330
926.566	5322
926.673	5250
926.779	5143
926.886	5124
926.993	5029
927.099	5037
927.206	4930
927.312	4972
927.419	5056
927.525	4976
927.631	5022
927.737	4927
927.843	4915
927.95	4831
928.056	4843
928.162	4881
928.267	4847
928.373	5391
928.479	4923
928.585	4664
928.69	4767
928.796	4733
928.901	4717
929.007	4634
929.112	4683
929.218	4649
929.323	4599
929.428	4542
929.533	4672
929.638	4592
929.743	4523
929.848	4527
929.953	4577
930.058	4405
930.163	4341
930.267	4356
930.372	4504
930.477	4291
930.581	4455
930.685	4363
930.79	4287
930.894	4337
930.998	4284
931.103	4367
931.207	4147
931.311	4116
931.415	4002
931.519	3915
931.623	3926
