Data from glass_V78500241_1513.txt Node
Date: Wed Sep 01 19:24:59 CST 2021
User: usil
Spectrometer: V785-0024
Trigger mode: 0
Integration Time (sec): 4.000000E-1
Scans to average: 1
Nonlinearity correction enabled: false
Boxcar width: 0
Storing dark spectrum: false
XAxis mode: Wavelengths
Number of Pixels in Spectrum: 1024
>>>>>Begin Spectral Data<<<<<
801.071	3724
801.214	3713
801.356	3717
801.499	3743
801.641	3701
801.783	3812
801.926	3804
802.068	3857
802.211	3831
802.353	3911
802.496	3835
802.638	3911
802.78	3930
802.923	3945
803.065	3869
803.208	3873
803.35	3861
803.492	3934
803.635	3915
803.777	3812
803.919	3918
804.061	4162
804.204	3922
804.346	3937
804.488	3892
804.63	4055
804.773	4013
804.915	4013
805.057	4128
805.199	4025
805.341	4090
805.483	4135
805.626	4112
805.768	4112
805.91	4223
806.052	4265
806.194	4219
806.336	4341
806.478	4227
806.62	4173
806.762	4257
806.904	4272
807.046	4360
807.188	4211
807.33	4181
807.472	4230
807.614	4166
807.756	4238
807.898	4227
808.04	4219
808.182	4306
808.324	4306
808.465	4337
808.607	4421
808.749	4436
808.891	4500
809.033	4474
809.174	4390
809.316	4287
809.458	4207
809.6	4139
809.741	4181
809.883	4158
810.025	4200
810.166	4215
810.308	4204
810.45	4284
810.591	4265
810.733	4322
810.875	4516
811.016	4870
811.158	5090
811.299	5269
811.441	5269
811.582	5056
811.724	4725
811.865	4451
812.007	4474
812.148	4383
812.29	4421
812.431	4390
812.573	4409
812.714	4390
812.855	4390
812.997	4375
813.138	4474
813.279	4383
813.421	4413
813.562	4367
813.703	4337
813.845	4367
813.986	4242
814.127	4211
814.268	4253
814.41	4303
814.551	4249
814.692	4329
814.833	4303
814.974	4341
815.115	4303
815.256	4242
815.397	4227
815.539	4215
815.68	4200
815.821	4196
815.962	4306
816.103	4310
816.244	4227
816.385	4249
816.526	4295
816.666	4185
816.807	4131
816.948	4158
817.089	4204
817.23	4120
817.371	4032
817.512	4071
817.653	4105
817.793	4017
817.934	4082
818.075	4131
818.216	4093
818.356	4162
818.497	3994
818.638	3903
818.778	3896
818.919	3892
819.06	3888
819.2	3953
819.341	3869
819.481	3819
819.622	3911
819.762	4029
819.903	3964
820.043	3892
820.184	3808
820.324	3812
820.465	3873
820.605	3869
820.746	3888
820.886	3785
821.026	3956
821.167	3911
821.307	3991
821.447	3968
821.588	3949
821.728	3907
821.868	3964
822.008	3846
822.149	3960
822.289	3873
822.429	3778
822.569	3762
822.709	3812
822.849	3690
822.99	3785
823.13	3778
823.27	3774
823.41	3663
823.55	3732
823.69	3713
823.83	3747
823.97	3671
824.11	3618
824.25	3625
824.389	3648
824.529	3698
824.669	3652
824.809	3633
824.949	3743
825.089	3740
825.228	3686
825.368	3618
825.508	3603
825.648	3587
825.787	3595
825.927	3637
826.067	3622
826.206	3671
826.346	3797
826.485	3850
826.625	3831
826.765	3941
826.904	3804
827.044	3622
827.183	3496
827.323	3466
827.462	3519
827.601	3393
827.741	3412
827.88	3435
828.02	3370
828.159	3424
828.298	3500
828.437	3545
828.577	3500
828.716	3637
828.855	3526
828.994	3367
829.134	3386
829.273	3359
829.412	3332
829.551	3310
829.69	3374
829.829	3428
829.968	3561
830.107	3412
830.246	3435
830.385	3389
830.524	3370
830.663	3340
830.802	3233
830.941	3214
831.08	3150
831.219	3245
831.357	3222
831.496	3378
831.635	3233
831.774	3165
831.913	3222
832.051	3161
832.19	3138
832.329	3195
832.467	3112
832.606	3089
832.744	3154
832.883	3192
833.022	3184
833.16	3241
833.299	3268
833.437	3351
833.576	3355
833.714	3382
833.852	3431
833.991	3488
834.129	3454
834.267	3462
834.406	3389
834.544	3466
834.682	3416
834.821	3397
834.959	3576
835.097	3363
835.235	3557
835.373	3473
835.511	3519
835.65	3454
835.788	3492
835.926	3359
836.064	3389
836.202	3397
836.34	3530
836.478	3618
836.615	3542
836.753	3580
836.891	3633
837.029	3606
837.167	3545
837.305	3580
837.443	3580
837.58	3492
837.718	3591
837.856	3568
837.993	3587
838.131	3591
838.269	3614
838.406	3587
838.544	3576
838.681	3481
838.819	3481
838.956	3378
839.094	3412
839.231	3420
839.369	3511
839.506	3766
839.643	3622
839.781	3492
839.918	3439
840.055	3496
840.193	3523
840.33	3515
840.467	3572
840.604	3599
840.742	3808
840.879	3507
841.016	3557
841.153	3580
841.29	3736
841.427	3743
841.564	3713
841.701	3720
841.838	3732
841.975	3705
842.112	3709
842.249	3660
842.385	3625
842.522	3835
842.659	3701
842.796	3652
842.933	3724
843.069	3675
843.206	3732
843.343	3808
843.479	3781
843.616	3831
843.752	3686
843.889	3679
844.025	3854
844.162	3759
844.298	3846
844.435	3804
844.571	3800
844.708	3934
844.844	3941
844.98	4044
845.117	4017
845.253	3930
845.389	3918
845.525	3949
845.661	3991
845.798	3922
845.934	4002
846.07	3956
846.206	4071
846.342	4154
846.478	4048
846.614	3968
846.75	3956
846.886	3915
847.022	4044
847.158	3979
847.294	4025
847.429	4010
847.565	4013
847.701	4253
847.837	3930
847.972	3888
848.108	3945
848.244	3964
848.379	3842
848.515	3819
848.65	3808
848.786	3819
848.921	3899
849.057	3918
849.192	3975
849.328	3918
849.463	3896
849.598	3850
849.734	3873
849.869	3831
850.004	3770
850.14	3819
850.275	3732
850.41	3736
850.545	3736
850.68	3774
850.815	3789
850.95	3804
851.085	3903
851.22	3911
851.355	3819
851.49	3751
851.625	3789
851.76	3812
851.895	3698
852.03	3736
852.165	3755
852.299	3888
852.434	3907
852.569	3903
852.703	3892
852.838	3960
852.973	3998
853.107	3987
853.242	3888
853.376	3835
853.511	3770
853.645	3842
853.78	3964
853.914	3907
854.048	3899
854.183	3922
854.317	3922
854.451	4063
854.585	3949
854.72	3945
854.854	4063
854.988	3930
855.122	3991
855.256	3937
855.39	4055
855.524	4135
855.658	4040
855.792	4086
855.926	4150
856.06	4185
856.194	4196
856.327	4139
856.461	4147
856.595	4139
856.729	4143
856.862	4223
856.996	4265
857.13	4287
857.263	4318
857.397	4375
857.53	4295
857.664	4303
857.797	4390
857.931	4409
858.064	4386
858.197	4424
858.331	4421
858.464	4394
858.597	4329
858.731	4383
858.864	4474
858.997	4428
859.13	4519
859.263	4516
859.396	4577
859.529	4531
859.662	4546
859.795	4554
859.928	4584
860.061	4694
860.194	4763
860.327	4649
860.46	4611
860.592	4771
860.725	4748
860.858	4786
860.99	4660
861.123	4687
861.256	4725
861.388	4748
861.521	5440
861.653	4710
861.786	4691
861.918	4725
862.05	4782
862.183	4812
862.315	4885
862.447	4980
862.58	4923
862.712	4839
862.844	4740
862.976	4835
863.108	4900
863.24	5265
863.372	4866
863.504	4930
863.636	4866
863.768	4923
863.9	5006
864.032	4968
864.164	4930
864.296	5014
864.428	5060
864.559	5109
864.691	5102
864.823	5151
864.954	5113
865.086	5136
865.217	5132
865.349	5121
865.48	5113
865.612	5197
865.743	5261
865.875	5212
866.006	5201
866.137	5258
866.269	5315
866.4	5227
866.531	5280
866.662	5201
866.793	5246
866.924	5311
867.055	5357
867.186	5379
867.317	5307
867.448	5303
867.579	5330
867.71	5391
867.841	5421
867.972	5493
868.103	5440
868.233	5497
868.364	5474
868.495	5535
868.625	5668
868.756	5745
868.886	5695
869.017	5718
869.147	5844
869.278	5855
869.408	5783
869.539	5847
869.669	5901
869.799	5916
869.929	5969
870.06	5992
870.19	6194
870.32	6175
870.45	6311
870.58	6338
870.71	6414
870.84	6502
870.97	6361
871.1	6445
871.23	6620
871.36	6726
871.489	6612
871.619	6734
871.749	6806
871.879	6890
872.008	6966
872.138	6935
872.267	6958
872.397	6993
872.526	7042
872.656	7072
872.785	7282
872.915	7362
873.044	7518
873.173	7510
873.303	7639
873.432	7769
873.561	7795
873.69	7875
873.819	8039
873.948	8187
874.077	8263
874.206	8309
874.335	8503
874.464	8655
874.593	8861
874.722	8948
874.851	9142
874.979	9256
875.108	9412
875.237	9454
875.365	9492
875.494	9625
875.623	9838
875.751	9861
875.88	10040
876.008	10029
876.136	10314
876.265	10523
876.393	10736
876.521	10702
876.65	10915
876.778	10923
876.906	10949
877.034	10987
877.162	11083
877.29	11128
877.418	11235
877.546	11429
877.674	11471
877.802	11497
877.93	11516
878.058	11512
878.185	11520
878.313	11676
878.441	11752
878.568	11619
878.696	11798
878.824	11847
878.951	11901
879.079	12045
879.206	12060
879.333	12053
879.461	11984
879.588	12140
879.715	12110
879.842	12209
879.97	12022
880.097	11882
880.224	11870
880.351	11897
880.478	11901
880.605	11870
880.732	11771
880.859	11942
880.986	11794
881.112	11817
881.239	11718
881.366	11592
881.493	11657
881.619	11448
881.746	11539
881.872	11486
881.999	11592
882.125	11509
882.252	11528
882.378	11433
882.505	11680
882.631	11425
882.757	11318
882.883	11273
883.01	11265
883.136	11128
883.262	11155
883.388	11124
883.514	11269
883.64	11109
883.766	11151
883.892	11041
884.018	10999
884.143	10949
884.269	11090
884.395	10767
884.52	10729
884.646	10717
884.772	10664
884.897	10714
885.023	10664
885.148	10725
885.274	10755
885.399	10736
885.524	10683
885.65	10615
885.775	10512
885.9	10653
886.025	10603
886.15	10630
886.275	10440
886.4	10329
886.525	10352
886.65	10382
886.775	10344
886.9	10485
887.025	10542
887.149	10344
887.274	10265
887.399	10215
887.523	10158
887.648	10124
887.773	10166
887.897	10303
888.021	10200
888.146	10071
888.27	10147
888.395	10215
888.519	10215
888.643	10135
888.767	10188
888.891	10169
889.015	10040
889.139	10071
889.263	9956
889.387	10131
889.511	10082
889.635	10086
889.759	9915
889.883	9888
890.006	10021
890.13	10109
890.254	9953
890.377	10025
890.501	9823
890.624	9895
890.748	9895
890.871	9797
890.995	9713
891.118	9728
891.241	9812
891.364	9740
891.488	9732
891.611	9808
891.734	9770
891.857	9797
891.98	9698
892.103	9728
892.226	9785
892.349	9652
892.471	9504
892.594	9622
892.717	9603
892.839	9603
892.962	9625
893.085	9622
893.207	9561
893.33	9568
893.452	9526
893.575	9595
893.697	9492
893.819	9671
893.941	9629
894.064	9641
894.186	9454
894.308	9367
894.43	9526
894.552	9549
894.674	9511
894.796	9272
894.918	9374
895.04	9344
895.161	9389
895.283	9306
895.405	9268
895.526	9253
895.648	9291
895.769	9188
895.891	9260
896.012	9329
896.134	9192
896.255	9150
896.376	9085
896.498	9123
896.619	9104
896.74	9085
896.861	9116
896.982	9313
897.103	9317
897.224	9150
897.345	9036
897.466	9028
897.587	9028
897.708	9131
897.828	9039
897.949	8921
898.07	8807
898.19	8887
898.311	8986
898.431	8918
898.552	8948
898.672	8975
898.792	8952
898.913	8948
899.033	8883
899.153	8712
899.273	8697
899.393	8716
899.513	8720
899.633	8727
899.753	8754
899.873	8678
899.993	8754
900.113	8693
900.232	8629
900.352	8674
900.472	8556
900.591	8560
900.711	8552
900.83	8568
900.95	8651
901.069	8644
901.189	8606
901.308	8438
901.427	8385
901.546	8412
901.665	8442
901.784	8541
901.904	8358
902.023	8290
902.141	8176
902.26	8210
902.379	8298
902.498	8244
902.617	8244
902.735	8328
902.854	8263
902.973	8279
903.091	8157
903.21	8157
903.328	8221
903.446	8107
903.565	8111
903.683	8126
903.801	8123
903.919	8149
904.038	8187
904.156	8077
904.274	8012
904.392	8119
904.51	8046
904.627	8039
904.745	8123
904.863	8062
904.981	7894
905.098	7849
905.216	7883
905.334	7875
905.451	7894
905.569	7890
905.686	7879
905.803	7928
905.921	7792
906.038	7868
906.155	7734
906.272	7776
906.389	7757
906.506	7613
906.623	7613
906.74	7559
906.857	7567
906.974	7590
907.091	7662
907.208	7655
907.324	7628
907.441	7556
907.557	7445
907.674	7487
907.79	7400
907.907	7358
908.023	7411
908.139	7373
908.256	7403
908.372	7369
908.488	7289
908.604	7266
908.72	7236
908.836	7251
908.952	7213
909.068	7266
909.184	7270
909.3	7244
909.415	7289
909.531	7320
909.647	7175
909.762	7160
909.878	7088
909.993	7156
910.108	7133
910.224	7095
910.339	7095
910.454	7042
910.57	6973
910.685	6935
910.8	7168
910.915	7095
911.03	7061
911.145	6890
911.259	6886
911.374	6932
911.489	6833
911.604	6818
911.718	6662
911.833	6646
911.947	6623
912.062	6631
912.176	6722
912.291	6677
912.405	6738
912.519	6859
912.633	6798
912.748	6741
912.862	6616
912.976	6578
913.09	6540
913.204	6631
913.318	6627
913.431	6681
913.545	6677
913.659	6745
913.772	6700
913.886	6627
914	6589
914.113	6608
914.226	6635
914.34	6559
914.453	6483
914.566	6623
914.68	6536
914.793	6536
914.906	6391
915.019	6479
915.132	6395
915.245	6403
915.358	6506
915.47	6445
915.583	6395
915.696	6422
915.809	6547
915.921	6578
916.034	6471
916.146	6395
916.259	6395
916.371	6498
916.483	6483
916.595	6388
916.708	6429
916.82	6403
916.932	6357
917.044	6422
917.156	6353
917.268	6304
917.38	6342
917.491	6342
917.603	6388
917.715	6410
917.826	6369
917.938	6285
918.049	6258
918.161	6384
918.272	6433
918.384	6410
918.495	6346
918.606	6243
918.717	6254
918.828	6304
918.939	6220
919.05	6197
919.161	6247
919.272	6114
919.383	6125
919.494	6315
919.604	6418
919.715	6266
919.826	6178
919.936	6251
920.047	6372
920.157	6270
920.267	6433
920.378	6331
920.488	6270
920.598	6448
920.708	6528
920.818	6490
920.928	6498
921.038	6635
921.148	6639
921.258	6327
921.368	6262
921.477	6228
921.587	6182
921.697	6091
921.806	6216
921.916	6068
922.025	5946
922.134	5912
922.244	5920
922.353	5916
922.462	5855
922.571	5783
922.68	5733
922.789	5638
922.898	5726
923.007	5646
923.116	5707
923.224	5699
923.333	5684
923.442	5623
923.55	5615
923.659	5558
923.767	5577
923.876	5554
923.984	5661
924.092	5474
924.201	5570
924.309	5551
924.417	5547
924.525	5497
924.633	5501
924.741	6098
924.849	5414
924.956	5482
925.064	5387
925.172	5330
925.279	5277
925.387	5334
925.494	5326
925.602	5406
925.709	5402
925.816	5277
925.924	5303
926.031	5288
926.138	5299
926.245	5250
926.352	5201
926.459	5341
926.566	5303
926.673	5189
926.779	5159
926.886	5132
926.993	5060
927.099	4991
927.206	4987
927.312	4976
927.419	5003
927.525	5022
927.631	4987
927.737	4911
927.843	4877
927.95	4759
928.056	4831
928.162	4782
928.267	4839
928.373	5254
928.479	4870
928.585	4656
928.69	4755
928.796	4778
928.901	4691
929.007	4607
929.112	4683
929.218	4626
929.323	4649
929.428	4535
929.533	4679
929.638	4470
929.743	4561
929.848	4561
929.953	4527
930.058	4424
930.163	4367
930.267	4314
930.372	4451
930.477	4322
930.581	4451
930.685	4360
930.79	4272
930.894	4295
930.998	4257
931.103	4375
931.207	4120
931.311	4082
931.415	4051
931.519	3945
931.623	3968
