Data from glass_V78500241_338.txt Node
Date: Wed Sep 01 19:16:50 CST 2021
User: usil
Spectrometer: V785-0024
Trigger mode: 0
Integration Time (sec): 4.000000E-1
Scans to average: 1
Nonlinearity correction enabled: false
Boxcar width: 0
Storing dark spectrum: false
XAxis mode: Wavelengths
Number of Pixels in Spectrum: 1024
>>>>>Begin Spectral Data<<<<<
801.071	3770
801.214	3759
801.356	3724
801.499	3751
801.641	3732
801.783	3766
801.926	3880
802.068	3850
802.211	3873
802.353	3899
802.496	3850
802.638	3865
802.78	3918
802.923	3930
803.065	3934
803.208	3880
803.35	3846
803.492	3892
803.635	3956
803.777	3819
803.919	3911
804.061	4181
804.204	3960
804.346	3960
804.488	3968
804.63	4013
804.773	4002
804.915	4059
805.057	4150
805.199	4059
805.341	4109
805.483	4158
805.626	4120
805.768	4116
805.91	4215
806.052	4246
806.194	4230
806.336	4333
806.478	4253
806.62	4158
806.762	4227
806.904	4265
807.046	4367
807.188	4249
807.33	4169
807.472	4284
807.614	4177
807.756	4284
807.898	4287
808.04	4280
808.182	4261
808.324	4333
808.465	4367
808.607	4542
808.749	4436
808.891	4497
809.033	4512
809.174	4428
809.316	4284
809.458	4261
809.6	4101
809.741	4169
809.883	4166
810.025	4196
810.166	4207
810.308	4185
810.45	4207
810.591	4242
810.733	4306
810.875	4489
811.016	4824
811.158	5121
811.299	5235
811.441	5261
811.582	5067
811.724	4683
811.865	4497
812.007	4481
812.148	4402
812.29	4481
812.431	4451
812.573	4371
812.714	4341
812.855	4447
812.997	4466
813.138	4527
813.279	4421
813.421	4409
813.562	4402
813.703	4356
813.845	4363
813.986	4272
814.127	4227
814.268	4227
814.41	4265
814.551	4280
814.692	4314
814.833	4306
814.974	4360
815.115	4360
815.256	4272
815.397	4230
815.539	4234
815.68	4227
815.821	4227
815.962	4348
816.103	4295
816.244	4249
816.385	4295
816.526	4284
816.666	4238
816.807	4101
816.948	4181
817.089	4204
817.23	4173
817.371	4090
817.512	4013
817.653	4071
817.793	4044
817.934	4059
818.075	4177
818.216	4116
818.356	4109
818.497	3998
818.638	3911
818.778	3937
818.919	3934
819.06	3861
819.2	3930
819.341	3915
819.481	3880
819.622	3922
819.762	4006
819.903	3953
820.043	3896
820.184	3816
820.324	3873
820.465	3899
820.605	3888
820.746	3842
820.886	3804
821.026	3953
821.167	3911
821.307	3934
821.447	3983
821.588	3956
821.728	3991
821.868	3945
822.008	3918
822.149	3915
822.289	3949
822.429	3774
822.569	3774
822.709	3774
822.849	3724
822.99	3720
823.13	3762
823.27	3762
823.41	3724
823.55	3736
823.69	3720
823.83	3747
823.97	3701
824.11	3614
824.25	3610
824.389	3667
824.529	3701
824.669	3637
824.809	3774
824.949	3804
825.089	3766
825.228	3694
825.368	3610
825.508	3561
825.648	3595
825.787	3637
825.927	3656
826.067	3652
826.206	3667
826.346	3789
826.485	3842
826.625	3869
826.765	3994
826.904	3823
827.044	3637
827.183	3576
827.323	3469
827.462	3504
827.601	3447
827.741	3462
827.88	3447
828.02	3355
828.159	3443
828.298	3477
828.437	3549
828.577	3477
828.716	3587
828.855	3545
828.994	3393
829.134	3374
829.273	3428
829.412	3401
829.551	3287
829.69	3378
829.829	3450
829.968	3545
830.107	3450
830.246	3443
830.385	3397
830.524	3355
830.663	3332
830.802	3291
830.941	3199
831.08	3188
831.219	3245
831.357	3245
831.496	3420
831.635	3256
831.774	3218
831.913	3176
832.051	3169
832.19	3199
832.329	3214
832.467	3123
832.606	3089
832.744	3161
832.883	3173
833.022	3195
833.16	3237
833.299	3321
833.437	3348
833.576	3382
833.714	3424
833.852	3477
833.991	3454
834.129	3462
834.267	3447
834.406	3454
834.544	3397
834.682	3454
834.821	3405
834.959	3610
835.097	3454
835.235	3545
835.373	3534
835.511	3523
835.65	3462
835.788	3485
835.926	3401
836.064	3409
836.202	3409
836.34	3553
836.478	3606
836.615	3553
836.753	3652
836.891	3644
837.029	3603
837.167	3625
837.305	3568
837.443	3530
837.58	3542
837.718	3633
837.856	3584
837.993	3572
838.131	3614
838.269	3553
838.406	3576
838.544	3599
838.681	3466
838.819	3515
838.956	3416
839.094	3363
839.231	3473
839.369	3545
839.506	3736
839.643	3671
839.781	3492
839.918	3435
840.055	3534
840.193	3553
840.33	3553
840.467	3564
840.604	3648
840.742	3774
840.879	3572
841.016	3576
841.153	3599
841.29	3812
841.427	3740
841.564	3743
841.701	3743
841.838	3732
841.975	3671
842.112	3747
842.249	3637
842.385	3633
842.522	3850
842.659	3736
842.796	3667
842.933	3671
843.069	3709
843.206	3705
843.343	3861
843.479	3831
843.616	3816
843.752	3686
843.889	3667
844.025	3865
844.162	3747
844.298	3869
844.435	3797
844.571	3785
844.708	3899
844.844	3994
844.98	4013
845.117	4002
845.253	3991
845.389	3915
845.525	4029
845.661	3975
845.798	3918
845.934	4006
846.07	3949
846.206	4071
846.342	4135
846.478	4082
846.614	3983
846.75	3975
846.886	3922
847.022	4051
847.158	3972
847.294	4032
847.429	4025
847.565	4002
847.701	4207
847.837	3888
847.972	3831
848.108	3998
848.244	4002
848.379	3888
848.515	3846
848.65	3838
848.786	3850
848.921	3888
849.057	3945
849.192	3960
849.328	3922
849.463	3911
849.598	3922
849.734	3911
849.869	3857
850.004	3827
850.14	3854
850.275	3800
850.41	3766
850.545	3781
850.68	3785
850.815	3816
850.95	3816
851.085	3949
851.22	3857
851.355	3873
851.49	3842
851.625	3808
851.76	3812
851.895	3770
852.03	3743
852.165	3804
852.299	3865
852.434	3903
852.569	3838
852.703	3896
852.838	3956
852.973	3975
853.107	4040
853.242	3899
853.376	3869
853.511	3774
853.645	3876
853.78	3975
853.914	3903
854.048	3888
854.183	3854
854.317	3968
854.451	4074
854.585	3949
854.72	3979
854.854	4086
854.988	3979
855.122	3972
855.256	3941
855.39	4036
855.524	4124
855.658	4112
855.792	4093
855.926	4185
856.06	4139
856.194	4181
856.327	4135
856.461	4139
856.595	4166
856.729	4169
856.862	4276
856.996	4268
857.13	4318
857.263	4363
857.397	4386
857.53	4333
857.664	4348
857.797	4379
857.931	4409
858.064	4417
858.197	4459
858.331	4424
858.464	4348
858.597	4356
858.731	4470
858.864	4443
858.997	4440
859.13	4519
859.263	4569
859.396	4611
859.529	4508
859.662	4519
859.795	4516
859.928	4592
860.061	4733
860.194	4782
860.327	4664
860.46	4664
860.592	4725
860.725	4759
860.858	4786
860.99	4664
861.123	4736
861.256	4702
861.388	4797
861.521	5429
861.653	4771
861.786	4702
861.918	4748
862.05	4786
862.183	4839
862.315	4877
862.447	4927
862.58	4915
862.712	4816
862.844	4793
862.976	4862
863.108	4847
863.24	5288
863.372	4835
863.504	4938
863.636	4930
863.768	4930
863.9	4957
864.032	4915
864.164	4938
864.296	5075
864.428	5117
864.559	5162
864.691	5136
864.823	5102
864.954	5140
865.086	5094
865.217	5117
865.349	5151
865.48	5185
865.612	5197
865.743	5311
865.875	5147
866.006	5246
866.137	5280
866.269	5258
866.4	5254
866.531	5261
866.662	5223
866.793	5303
866.924	5292
867.055	5345
867.186	5337
867.317	5345
867.448	5299
867.579	5391
867.71	5395
867.841	5421
867.972	5398
868.103	5482
868.233	5478
868.364	5490
868.495	5551
868.625	5638
868.756	5817
868.886	5741
869.017	5737
869.147	5882
869.278	5859
869.408	5813
869.539	5885
869.669	5920
869.799	5882
869.929	5999
870.06	5999
870.19	6178
870.32	6175
870.45	6258
870.58	6399
870.71	6429
870.84	6540
870.97	6445
871.1	6433
871.23	6677
871.36	6692
871.489	6696
871.619	6741
871.749	6806
871.879	6829
872.008	7050
872.138	7015
872.267	6985
872.397	7065
872.526	7034
872.656	7091
872.785	7213
872.915	7331
873.044	7510
873.173	7601
873.303	7734
873.432	7723
873.561	7898
873.69	7902
873.819	8016
873.948	8111
874.077	8225
874.206	8446
874.335	8457
874.464	8644
874.593	8925
874.722	8902
874.851	9097
874.979	9241
875.108	9359
875.237	9488
875.365	9515
875.494	9629
875.623	9857
875.751	9781
875.88	9983
876.008	10124
876.136	10322
876.265	10500
876.393	10755
876.521	10694
876.65	10736
876.778	10987
876.906	10919
877.034	10930
877.162	11094
877.29	11117
877.418	11269
877.546	11349
877.674	11471
877.802	11463
877.93	11589
878.058	11512
878.185	11604
878.313	11649
878.441	11794
878.568	11581
878.696	11779
878.824	11923
878.951	11901
879.079	12019
879.206	12167
879.333	12167
879.461	12030
879.588	12034
879.715	12011
879.842	12243
879.97	12068
880.097	11916
880.224	11923
880.351	11878
880.478	11851
880.605	11840
880.732	11771
880.859	12034
880.986	11821
881.112	11961
881.239	11783
881.366	11688
881.493	11668
881.619	11493
881.746	11528
881.872	11512
881.999	11474
882.125	11459
882.252	11562
882.378	11509
882.505	11585
882.631	11429
882.757	11337
882.883	11288
883.01	11284
883.136	11261
883.262	11155
883.388	11109
883.514	11166
883.64	11216
883.766	11113
883.892	11029
884.018	10991
884.143	11117
884.269	11155
884.395	10896
884.52	10866
884.646	10801
884.772	10736
884.897	10641
885.023	10714
885.148	10748
885.274	10801
885.399	10687
885.524	10618
885.65	10531
885.775	10561
885.9	10607
886.025	10500
886.15	10538
886.275	10474
886.4	10417
886.525	10421
886.65	10341
886.775	10333
886.9	10489
887.025	10478
887.149	10341
887.274	10242
887.399	10249
887.523	10185
887.648	10162
887.773	10207
887.897	10234
888.021	10207
888.146	10192
888.27	10204
888.395	10265
888.519	10272
888.643	10276
888.767	10185
888.891	10063
889.015	10055
889.139	10112
889.263	10036
889.387	10173
889.511	10215
889.635	10002
889.759	10013
889.883	9949
890.006	10006
890.13	10154
890.254	10010
890.377	9945
890.501	9755
890.624	9884
890.748	9922
890.871	9759
890.995	9762
891.118	9751
891.241	9759
891.364	9762
891.488	9797
891.611	9720
891.734	9762
891.857	9766
891.98	9682
892.103	9808
892.226	9755
892.349	9679
892.471	9504
892.594	9545
892.717	9610
892.839	9660
892.962	9660
893.085	9736
893.207	9564
893.33	9572
893.452	9519
893.575	9549
893.697	9564
893.819	9622
893.941	9686
894.064	9603
894.186	9462
894.308	9420
894.43	9549
894.552	9641
894.674	9568
894.796	9405
894.918	9355
895.04	9492
895.161	9447
895.283	9370
895.405	9245
895.526	9283
895.648	9233
895.769	9245
895.891	9256
896.012	9268
896.134	9241
896.255	9135
896.376	9195
896.498	9138
896.619	9066
896.74	9089
896.861	9093
896.982	9306
897.103	9348
897.224	9245
897.345	9093
897.466	9009
897.587	9005
897.708	9108
897.828	8982
897.949	8914
898.07	8883
898.19	8895
898.311	8971
898.431	8857
898.552	8967
898.672	8956
898.792	8990
898.913	8906
899.033	8868
899.153	8720
899.273	8682
899.393	8746
899.513	8735
899.633	8769
899.753	8720
899.873	8727
899.993	8716
900.113	8746
900.232	8659
900.352	8686
900.472	8564
900.591	8602
900.711	8659
900.83	8514
900.95	8648
901.069	8773
901.189	8545
901.308	8434
901.427	8457
901.546	8476
901.665	8492
901.784	8514
901.904	8328
902.023	8377
902.141	8275
902.26	8157
902.379	8240
902.498	8282
902.617	8279
902.735	8305
902.854	8286
902.973	8290
903.091	8157
903.21	8157
903.328	8157
903.446	8157
903.565	8073
903.683	8123
903.801	8069
903.919	8115
904.038	8153
904.156	7989
904.274	8100
904.392	7955
904.51	8012
904.627	8065
904.745	8084
904.863	8157
904.981	7906
905.098	7913
905.216	7906
905.334	7909
905.451	7921
905.569	7894
905.686	8031
905.803	7967
905.921	7746
906.038	7917
906.155	7780
906.272	7658
906.389	7719
906.506	7556
906.623	7616
906.74	7677
906.857	7537
906.974	7647
907.091	7677
907.208	7746
907.324	7662
907.441	7597
907.557	7502
907.674	7480
907.79	7373
907.907	7400
908.023	7476
908.139	7472
908.256	7403
908.372	7365
908.488	7343
908.604	7308
908.72	7209
908.836	7228
908.952	7293
909.068	7324
909.184	7339
909.3	7251
909.415	7362
909.531	7305
909.647	7076
909.762	7095
909.878	7114
909.993	7194
910.108	7118
910.224	7149
910.339	7057
910.454	7042
910.57	7004
910.685	6932
910.8	7194
910.915	7129
911.03	6996
911.145	6924
911.259	6920
911.374	7008
911.489	6829
911.604	6837
911.718	6715
911.833	6787
911.947	6684
912.062	6616
912.176	6692
912.291	6700
912.405	6745
912.519	6871
912.633	6909
912.748	6760
912.862	6738
912.976	6627
913.09	6536
913.204	6673
913.318	6574
913.431	6635
913.545	6707
913.659	6700
913.772	6604
913.886	6578
914	6563
914.113	6673
914.226	6620
914.34	6623
914.453	6532
914.566	6612
914.68	6528
914.793	6506
914.906	6407
915.019	6388
915.132	6414
915.245	6441
915.358	6464
915.47	6426
915.583	6498
915.696	6475
915.809	6513
915.921	6585
916.034	6403
916.146	6395
916.259	6426
916.371	6490
916.483	6426
916.595	6403
916.708	6422
916.82	6399
916.932	6365
917.044	6460
917.156	6429
917.268	6338
917.38	6391
917.491	6311
917.603	6346
917.715	6403
917.826	6414
917.938	6296
918.049	6251
918.161	6365
918.272	6429
918.384	6479
918.495	6350
918.606	6266
918.717	6235
918.828	6289
918.939	6346
919.05	6266
919.161	6289
919.272	6106
919.383	6190
919.494	6308
919.604	6456
919.715	6304
919.826	6194
919.936	6247
920.047	6369
920.157	6315
920.267	6494
920.378	6311
920.488	6304
920.598	6456
920.708	6566
920.818	6486
920.928	6506
921.038	6604
921.148	6601
921.258	6357
921.368	6285
921.477	6228
921.587	6152
921.697	6102
921.806	6182
921.916	6076
922.025	5923
922.134	5927
922.244	5882
922.353	5996
922.462	5897
922.571	5844
922.68	5741
922.789	5691
922.898	5703
923.007	5661
923.116	5710
923.224	5684
923.333	5653
923.442	5581
923.55	5657
923.659	5573
923.767	5619
923.876	5520
923.984	5623
924.092	5535
924.201	5596
924.309	5543
924.417	5532
924.525	5452
924.633	5497
924.741	6258
924.849	5398
924.956	5486
925.064	5368
925.172	5311
925.279	5357
925.387	5391
925.494	5353
925.602	5429
925.709	5349
925.816	5273
925.924	5322
926.031	5341
926.138	5334
926.245	5368
926.352	5258
926.459	5379
926.566	5383
926.673	5155
926.779	5193
926.886	5136
926.993	5064
927.099	4980
927.206	4968
927.312	4995
927.419	5018
927.525	5033
927.631	5003
927.737	4896
927.843	4892
927.95	4801
928.056	4790
928.162	4862
928.267	4885
928.373	5330
928.479	4892
928.585	4702
928.69	4736
928.796	4759
928.901	4748
929.007	4637
929.112	4653
929.218	4637
929.323	4603
929.428	4565
929.533	4679
929.638	4554
929.743	4561
929.848	4599
929.953	4504
930.058	4440
930.163	4318
930.267	4367
930.372	4500
930.477	4337
930.581	4500
930.685	4432
930.79	4291
930.894	4341
930.998	4223
931.103	4398
931.207	4147
931.311	4116
931.415	4044
931.519	3888
931.623	3953
