Data from glass_V78500241_1198.txt Node
Date: Wed Sep 01 19:22:48 CST 2021
User: usil
Spectrometer: V785-0024
Trigger mode: 0
Integration Time (sec): 4.000000E-1
Scans to average: 1
Nonlinearity correction enabled: false
Boxcar width: 0
Storing dark spectrum: false
XAxis mode: Wavelengths
Number of Pixels in Spectrum: 1024
>>>>>Begin Spectral Data<<<<<
801.071	3789
801.214	3793
801.356	3728
801.499	3759
801.641	3747
801.783	3778
801.926	3823
802.068	3831
802.211	3884
802.353	3934
802.496	3850
802.638	3869
802.78	3922
802.923	3964
803.065	3915
803.208	3926
803.35	3850
803.492	3896
803.635	3892
803.777	3759
803.919	3930
804.061	4181
804.204	3972
804.346	3979
804.488	3964
804.63	4040
804.773	3960
804.915	4063
805.057	4181
805.199	4055
805.341	4109
805.483	4128
805.626	4147
805.768	4124
805.91	4238
806.052	4207
806.194	4200
806.336	4363
806.478	4230
806.62	4128
806.762	4177
806.904	4284
807.046	4284
807.188	4211
807.33	4242
807.472	4272
807.614	4207
807.756	4310
807.898	4234
808.04	4223
808.182	4253
808.324	4348
808.465	4390
808.607	4390
808.749	4481
808.891	4474
809.033	4500
809.174	4424
809.316	4261
809.458	4242
809.6	4116
809.741	4109
809.883	4150
810.025	4177
810.166	4215
810.308	4257
810.45	4257
810.591	4188
810.733	4299
810.875	4474
811.016	4873
811.158	5090
811.299	5326
811.441	5254
811.582	5064
811.724	4733
811.865	4489
812.007	4519
812.148	4432
812.29	4417
812.431	4398
812.573	4394
812.714	4402
812.855	4341
812.997	4428
813.138	4535
813.279	4394
813.421	4360
813.562	4394
813.703	4352
813.845	4341
813.986	4280
814.127	4219
814.268	4257
814.41	4276
814.551	4227
814.692	4341
814.833	4344
814.974	4265
815.115	4386
815.256	4246
815.397	4261
815.539	4238
815.68	4185
815.821	4227
815.962	4329
816.103	4284
816.244	4234
816.385	4265
816.526	4261
816.666	4238
816.807	4101
816.948	4177
817.089	4207
817.23	4112
817.371	4051
817.512	4055
817.653	4067
817.793	4032
817.934	4055
818.075	4105
818.216	4143
818.356	4071
818.497	3994
818.638	3918
818.778	3911
818.919	3892
819.06	3873
819.2	3930
819.341	3873
819.481	3797
819.622	3937
819.762	4010
819.903	3968
820.043	3899
820.184	3823
820.324	3827
820.465	3880
820.605	3869
820.746	3884
820.886	3816
821.026	3934
821.167	3926
821.307	4021
821.447	3998
821.588	3979
821.728	3987
821.868	3945
822.008	3831
822.149	3907
822.289	3915
822.429	3827
822.569	3789
822.709	3759
822.849	3720
822.99	3770
823.13	3793
823.27	3823
823.41	3709
823.55	3732
823.69	3751
823.83	3789
823.97	3675
824.11	3637
824.25	3603
824.389	3641
824.529	3667
824.669	3652
824.809	3736
824.949	3778
825.089	3755
825.228	3724
825.368	3629
825.508	3587
825.648	3595
825.787	3629
825.927	3675
826.067	3606
826.206	3663
826.346	3800
826.485	3831
826.625	3869
826.765	3979
826.904	3873
827.044	3584
827.183	3526
827.323	3428
827.462	3454
827.601	3466
827.741	3466
827.88	3405
828.02	3382
828.159	3450
828.298	3511
828.437	3496
828.577	3504
828.716	3618
828.855	3485
828.994	3420
829.134	3382
829.273	3401
829.412	3351
829.551	3298
829.69	3378
829.829	3447
829.968	3488
830.107	3450
830.246	3443
830.385	3351
830.524	3374
830.663	3279
830.802	3237
830.941	3214
831.08	3176
831.219	3283
831.357	3233
831.496	3397
831.635	3214
831.774	3188
831.913	3214
832.051	3123
832.19	3154
832.329	3233
832.467	3150
832.606	3112
832.744	3138
832.883	3188
833.022	3218
833.16	3233
833.299	3351
833.437	3344
833.576	3370
833.714	3374
833.852	3424
833.991	3424
834.129	3443
834.267	3454
834.406	3374
834.544	3431
834.682	3386
834.821	3416
834.959	3576
835.097	3458
835.235	3526
835.373	3530
835.511	3488
835.65	3454
835.788	3469
835.926	3420
836.064	3435
836.202	3409
836.34	3599
836.478	3614
836.615	3515
836.753	3641
836.891	3629
837.029	3625
837.167	3587
837.305	3629
837.443	3523
837.58	3511
837.718	3614
837.856	3564
837.993	3557
838.131	3625
838.269	3606
838.406	3610
838.544	3572
838.681	3500
838.819	3485
838.956	3374
839.094	3409
839.231	3443
839.369	3466
839.506	3720
839.643	3625
839.781	3477
839.918	3424
840.055	3523
840.193	3534
840.33	3538
840.467	3568
840.604	3599
840.742	3816
840.879	3572
841.016	3481
841.153	3610
841.29	3747
841.427	3740
841.564	3755
841.701	3759
841.838	3709
841.975	3705
842.112	3720
842.249	3641
842.385	3656
842.522	3846
842.659	3682
842.796	3701
842.933	3743
843.069	3698
843.206	3736
843.343	3854
843.479	3823
843.616	3819
843.752	3694
843.889	3705
844.025	3861
844.162	3682
844.298	3911
844.435	3759
844.571	3762
844.708	3903
844.844	3994
844.98	4010
845.117	3994
845.253	3953
845.389	3953
845.525	3975
845.661	4021
845.798	3972
845.934	4044
846.07	3945
846.206	4074
846.342	4124
846.478	4078
846.614	3941
846.75	3861
846.886	3907
847.022	4032
847.158	3953
847.294	4051
847.429	3994
847.565	3979
847.701	4230
847.837	3888
847.972	3873
848.108	3949
848.244	3979
848.379	3869
848.515	3827
848.65	3846
848.786	3861
848.921	3857
849.057	3953
849.192	3953
849.328	3956
849.463	3926
849.598	3915
849.734	3880
849.869	3819
850.004	3781
850.14	3857
850.275	3823
850.41	3728
850.545	3759
850.68	3789
850.815	3789
850.95	3793
851.085	3945
851.22	3922
851.355	3850
851.49	3812
851.625	3785
851.76	3789
851.895	3743
852.03	3762
852.165	3835
852.299	3865
852.434	3899
852.569	3854
852.703	3869
852.838	3941
852.973	4002
853.107	4021
853.242	3896
853.376	3873
853.511	3781
853.645	3827
853.78	3922
853.914	3907
854.048	3934
854.183	3930
854.317	3964
854.451	4051
854.585	3983
854.72	3956
854.854	4067
854.988	3964
855.122	4040
855.256	3888
855.39	4044
855.524	4154
855.658	4082
855.792	4109
855.926	4173
856.06	4219
856.194	4207
856.327	4135
856.461	4162
856.595	4169
856.729	4162
856.862	4268
856.996	4299
857.13	4276
857.263	4360
857.397	4421
857.53	4318
857.664	4356
857.797	4436
857.931	4424
858.064	4352
858.197	4481
858.331	4417
858.464	4383
858.597	4375
858.731	4459
858.864	4485
858.997	4493
859.13	4519
859.263	4538
859.396	4554
859.529	4538
859.662	4554
859.795	4519
859.928	4611
860.061	4714
860.194	4736
860.327	4706
860.46	4679
860.592	4725
860.725	4759
860.858	4812
860.99	4771
861.123	4698
861.256	4664
861.388	4790
861.521	5353
861.653	4729
861.786	4687
861.918	4767
862.05	4820
862.183	4820
862.315	4870
862.447	4984
862.58	4900
862.712	4843
862.844	4774
862.976	4870
863.108	4847
863.24	5197
863.372	4847
863.504	4896
863.636	4934
863.768	4987
863.9	4972
864.032	4911
864.164	4930
864.296	5025
864.428	5075
864.559	5113
864.691	5083
864.823	5105
864.954	5090
865.086	5159
865.217	5121
865.349	5098
865.48	5143
865.612	5204
865.743	5277
865.875	5204
866.006	5189
866.137	5246
866.269	5315
866.4	5258
866.531	5258
866.662	5235
866.793	5284
866.924	5318
867.055	5357
867.186	5364
867.317	5303
867.448	5364
867.579	5395
867.71	5364
867.841	5341
867.972	5410
868.103	5463
868.233	5524
868.364	5497
868.495	5471
868.625	5668
868.756	5733
868.886	5726
869.017	5695
869.147	5859
869.278	5878
869.408	5844
869.539	5855
869.669	5920
869.799	5927
869.929	5977
870.06	6038
870.19	6224
870.32	6205
870.45	6277
870.58	6399
870.71	6429
870.84	6479
870.97	6407
871.1	6456
871.23	6597
871.36	6646
871.489	6696
871.619	6711
871.749	6791
871.879	6871
872.008	6996
872.138	6951
872.267	6932
872.397	7023
872.526	7000
872.656	7084
872.785	7164
872.915	7350
873.044	7521
873.173	7540
873.303	7662
873.432	7776
873.561	7890
873.69	7879
873.819	8012
873.948	8221
874.077	8267
874.206	8317
874.335	8469
874.464	8644
874.593	8891
874.722	8960
874.851	9077
874.979	9226
875.108	9405
875.237	9389
875.365	9500
875.494	9625
875.623	9827
875.751	9762
875.88	9937
876.008	10166
876.136	10272
876.265	10451
876.393	10706
876.521	10740
876.65	10854
876.778	10938
876.906	10919
877.034	11067
877.162	11132
877.29	11132
877.418	11284
877.546	11474
877.674	11520
877.802	11463
877.93	11539
878.058	11570
878.185	11592
878.313	11657
878.441	11638
878.568	11642
878.696	11859
878.824	11866
878.951	11973
879.079	12011
879.206	12159
879.333	12087
879.461	12011
879.588	12041
879.715	12102
879.842	12247
879.97	12030
880.097	11889
880.224	11904
880.351	11847
880.478	11897
880.605	11870
880.732	11847
880.859	12007
880.986	11809
881.112	11904
881.239	11733
881.366	11596
881.493	11573
881.619	11581
881.746	11604
881.872	11501
881.999	11596
882.125	11452
882.252	11577
882.378	11512
882.505	11486
882.631	11512
882.757	11330
882.883	11296
883.01	11299
883.136	11170
883.262	11155
883.388	11178
883.514	11216
883.64	11166
883.766	11037
883.892	11075
884.018	10991
884.143	11071
884.269	11151
884.395	10900
884.52	10774
884.646	10774
884.772	10698
884.897	10706
885.023	10763
885.148	10645
885.274	10740
885.399	10694
885.524	10649
885.65	10573
885.775	10588
885.9	10470
886.025	10596
886.15	10523
886.275	10409
886.4	10333
886.525	10337
886.65	10451
886.775	10390
886.9	10558
887.025	10577
887.149	10352
887.274	10284
887.399	10185
887.523	10181
887.648	10200
887.773	10135
887.897	10261
888.021	10227
888.146	10078
888.27	10200
888.395	10306
888.519	10162
888.643	10135
888.767	10230
888.891	10124
889.015	9994
889.139	10059
889.263	10082
889.387	10051
889.511	10078
889.635	10044
889.759	9987
889.883	10017
890.006	9956
890.13	10128
890.254	9975
890.377	9998
890.501	9838
890.624	9899
890.748	9922
890.871	9827
890.995	9698
891.118	9736
891.241	9793
891.364	9728
891.488	9789
891.611	9762
891.734	9698
891.857	9785
891.98	9720
892.103	9759
892.226	9785
892.349	9698
892.471	9591
892.594	9599
892.717	9648
892.839	9610
892.962	9633
893.085	9641
893.207	9595
893.33	9515
893.452	9637
893.575	9553
893.697	9542
893.819	9701
893.941	9637
894.064	9610
894.186	9401
894.308	9469
894.43	9523
894.552	9549
894.674	9580
894.796	9370
894.918	9359
895.04	9435
895.161	9340
895.283	9363
895.405	9294
895.526	9283
895.648	9268
895.769	9264
895.891	9272
896.012	9264
896.134	9211
896.255	9203
896.376	9074
896.498	9123
896.619	9112
896.74	9043
896.861	9097
896.982	9298
897.103	9275
897.224	9150
897.345	9074
897.466	8979
897.587	8979
897.708	9100
897.828	9135
897.949	8979
898.07	8906
898.19	8929
898.311	9024
898.431	8895
898.552	8925
898.672	8956
898.792	8849
898.913	8944
899.033	8773
899.153	8819
899.273	8659
899.393	8705
899.513	8746
899.633	8712
899.753	8769
899.873	8716
899.993	8758
900.113	8610
900.232	8743
900.352	8682
900.472	8617
900.591	8568
900.711	8617
900.83	8526
900.95	8705
901.069	8727
901.189	8594
901.308	8488
901.427	8465
901.546	8476
901.665	8442
901.784	8533
901.904	8450
902.023	8339
902.141	8256
902.26	8199
902.379	8282
902.498	8202
902.617	8202
902.735	8294
902.854	8298
902.973	8256
903.091	8119
903.21	8183
903.328	8218
903.446	8157
903.565	8081
903.683	8119
903.801	8073
903.919	8035
904.038	8176
904.156	8027
904.274	8020
904.392	8050
904.51	8020
904.627	8031
904.745	8058
904.863	8088
904.981	7963
905.098	7894
905.216	7856
905.334	7875
905.451	7826
905.569	7826
905.686	7955
905.803	7902
905.921	7693
906.038	7860
906.155	7795
906.272	7696
906.389	7727
906.506	7662
906.623	7586
906.74	7639
906.857	7556
906.974	7597
907.091	7704
907.208	7761
907.324	7597
907.441	7582
907.557	7449
907.674	7453
907.79	7407
907.907	7396
908.023	7441
908.139	7403
908.256	7403
908.372	7381
908.488	7377
908.604	7228
908.72	7301
908.836	7274
908.952	7289
909.068	7297
909.184	7285
909.3	7221
909.415	7297
909.531	7327
909.647	7103
909.762	7110
909.878	7149
909.993	7118
910.108	7095
910.224	7099
910.339	7141
910.454	7046
910.57	7019
910.685	6924
910.8	7213
910.915	7091
911.03	6966
911.145	6924
911.259	6878
911.374	6905
911.489	6844
911.604	6814
911.718	6768
911.833	6665
911.947	6658
912.062	6582
912.176	6703
912.291	6772
912.405	6730
912.519	6798
912.633	6791
912.748	6677
912.862	6715
912.976	6650
913.09	6601
913.204	6578
913.318	6639
913.431	6642
913.545	6665
913.659	6745
913.772	6642
913.886	6547
914	6589
914.113	6616
914.226	6601
914.34	6616
914.453	6479
914.566	6612
914.68	6494
914.793	6521
914.906	6407
915.019	6460
915.132	6433
915.245	6445
915.358	6460
915.47	6464
915.583	6490
915.696	6555
915.809	6513
915.921	6585
916.034	6418
916.146	6437
916.259	6372
916.371	6448
916.483	6441
916.595	6369
916.708	6414
916.82	6399
916.932	6388
917.044	6426
917.156	6357
917.268	6270
917.38	6353
917.491	6395
917.603	6346
917.715	6422
917.826	6388
917.938	6327
918.049	6247
918.161	6391
918.272	6456
918.384	6483
918.495	6376
918.606	6251
918.717	6213
918.828	6277
918.939	6292
919.05	6228
919.161	6270
919.272	6167
919.383	6201
919.494	6281
919.604	6410
919.715	6266
919.826	6251
919.936	6209
920.047	6308
920.157	6331
920.267	6361
920.378	6346
920.488	6319
920.598	6448
920.708	6574
920.818	6483
920.928	6441
921.038	6635
921.148	6593
921.258	6365
921.368	6399
921.477	6209
921.587	6209
921.697	6064
921.806	6224
921.916	6076
922.025	5878
922.134	5920
922.244	5855
922.353	5946
922.462	5870
922.571	5786
922.68	5764
922.789	5718
922.898	5703
923.007	5691
923.116	5695
923.224	5703
923.333	5623
923.442	5634
923.55	5592
923.659	5623
923.767	5611
923.876	5577
923.984	5615
924.092	5490
924.201	5600
924.309	5543
924.417	5566
924.525	5512
924.633	5512
924.741	6331
924.849	5353
924.956	5501
925.064	5406
925.172	5364
925.279	5311
925.387	5406
925.494	5349
925.602	5425
925.709	5379
925.816	5311
925.924	5322
926.031	5349
926.138	5288
926.245	5364
926.352	5208
926.459	5315
926.566	5334
926.673	5136
926.779	5121
926.886	5109
926.993	5033
927.099	5029
927.206	4930
927.312	4961
927.419	5006
927.525	4999
927.631	5022
927.737	4885
927.843	4911
927.95	4797
928.056	4805
928.162	4862
928.267	4816
928.373	5376
928.479	4873
928.585	4660
928.69	4759
928.796	4793
928.901	4717
929.007	4626
929.112	4683
929.218	4622
929.323	4622
929.428	4607
929.533	4634
929.638	4523
929.743	4577
929.848	4584
929.953	4519
930.058	4447
930.163	4367
930.267	4348
930.372	4394
930.477	4333
930.581	4478
930.685	4383
930.79	4276
930.894	4276
930.998	4276
931.103	4394
931.207	4112
931.311	4059
931.415	4059
931.519	3918
931.623	3953
