Data from glass_V78500241_2699.txt Node
Date: Wed Sep 01 19:33:12 CST 2021
User: usil
Spectrometer: V785-0024
Trigger mode: 0
Integration Time (sec): 4.000000E-1
Scans to average: 1
Nonlinearity correction enabled: false
Boxcar width: 0
Storing dark spectrum: false
XAxis mode: Wavelengths
Number of Pixels in Spectrum: 1024
>>>>>Begin Spectral Data<<<<<
801.071	3717
801.214	3751
801.356	3728
801.499	3709
801.641	3698
801.783	3778
801.926	3850
802.068	3865
802.211	3823
802.353	3903
802.496	3842
802.638	3876
802.78	3926
802.923	3915
803.065	3899
803.208	3846
803.35	3827
803.492	3857
803.635	3892
803.777	3793
803.919	3899
804.061	4128
804.204	3926
804.346	3964
804.488	3926
804.63	4029
804.773	3945
804.915	3994
805.057	4074
805.199	4036
805.341	4082
805.483	4135
805.626	4097
805.768	4105
805.91	4173
806.052	4181
806.194	4181
806.336	4310
806.478	4204
806.62	4185
806.762	4204
806.904	4230
807.046	4325
807.188	4204
807.33	4188
807.472	4246
807.614	4188
807.756	4253
807.898	4211
808.04	4200
808.182	4314
808.324	4284
808.465	4363
808.607	4447
808.749	4398
808.891	4455
809.033	4462
809.174	4440
809.316	4272
809.458	4181
809.6	4150
809.741	4135
809.883	4143
810.025	4188
810.166	4223
810.308	4207
810.45	4227
810.591	4223
810.733	4257
810.875	4542
811.016	4812
811.158	5109
811.299	5277
811.441	5246
811.582	5014
811.724	4691
811.865	4459
812.007	4474
812.148	4451
812.29	4356
812.431	4424
812.573	4398
812.714	4394
812.855	4386
812.997	4398
813.138	4470
813.279	4390
813.421	4386
813.562	4337
813.703	4341
813.845	4352
813.986	4265
814.127	4215
814.268	4268
814.41	4257
814.551	4242
814.692	4322
814.833	4261
814.974	4295
815.115	4337
815.256	4242
815.397	4242
815.539	4230
815.68	4211
815.821	4223
815.962	4265
816.103	4257
816.244	4192
816.385	4204
816.526	4234
816.666	4158
816.807	4082
816.948	4181
817.089	4200
817.23	4124
817.371	4044
817.512	4055
817.653	4067
817.793	4032
817.934	4059
818.075	4093
818.216	4032
818.356	4074
818.497	4013
818.638	3922
818.778	3911
818.919	3831
819.06	3823
819.2	3934
819.341	3831
819.481	3842
819.622	3896
819.762	4002
819.903	3949
820.043	3861
820.184	3827
820.324	3793
820.465	3899
820.605	3846
820.746	3869
820.886	3838
821.026	3915
821.167	3918
821.307	3960
821.447	3945
821.588	3918
821.728	3975
821.868	3918
822.008	3865
822.149	3892
822.289	3911
822.429	3747
822.569	3770
822.709	3797
822.849	3694
822.99	3740
823.13	3747
823.27	3736
823.41	3667
823.55	3686
823.69	3709
823.83	3740
823.97	3675
824.11	3606
824.25	3629
824.389	3644
824.529	3629
824.669	3629
824.809	3720
824.949	3732
825.089	3713
825.228	3701
825.368	3542
825.508	3553
825.648	3557
825.787	3580
825.927	3606
826.067	3637
826.206	3625
826.346	3762
826.485	3842
826.625	3903
826.765	3888
826.904	3804
827.044	3584
827.183	3530
827.323	3424
827.462	3469
827.601	3389
827.741	3420
827.88	3416
828.02	3363
828.159	3431
828.298	3488
828.437	3488
828.577	3462
828.716	3568
828.855	3485
828.994	3374
829.134	3355
829.273	3374
829.412	3325
829.551	3298
829.69	3363
829.829	3424
829.968	3496
830.107	3435
830.246	3431
830.385	3386
830.524	3382
830.663	3321
830.802	3230
830.941	3192
831.08	3188
831.219	3260
831.357	3279
831.496	3401
831.635	3237
831.774	3138
831.913	3184
832.051	3119
832.19	3119
832.329	3180
832.467	3123
832.606	3104
832.744	3180
832.883	3192
833.022	3150
833.16	3279
833.299	3298
833.437	3329
833.576	3370
833.714	3336
833.852	3435
833.991	3409
834.129	3424
834.267	3428
834.406	3409
834.544	3374
834.682	3431
834.821	3386
834.959	3557
835.097	3435
835.235	3496
835.373	3454
835.511	3481
835.65	3473
835.788	3466
835.926	3397
836.064	3374
836.202	3389
836.34	3553
836.478	3603
836.615	3477
836.753	3591
836.891	3641
837.029	3580
837.167	3587
837.305	3542
837.443	3515
837.58	3504
837.718	3603
837.856	3561
837.993	3526
838.131	3595
838.269	3587
838.406	3553
838.544	3564
838.681	3412
838.819	3466
838.956	3370
839.094	3355
839.231	3428
839.369	3481
839.506	3713
839.643	3637
839.781	3466
839.918	3473
840.055	3507
840.193	3511
840.33	3500
840.467	3549
840.604	3595
840.742	3808
840.879	3519
841.016	3561
841.153	3572
841.29	3732
841.427	3682
841.564	3679
841.701	3728
841.838	3682
841.975	3663
842.112	3732
842.249	3656
842.385	3610
842.522	3819
842.659	3709
842.796	3694
842.933	3682
843.069	3694
843.206	3698
843.343	3797
843.479	3759
843.616	3827
843.752	3694
843.889	3648
844.025	3842
844.162	3701
844.298	3819
844.435	3804
844.571	3724
844.708	3899
844.844	3987
844.98	4017
845.117	4006
845.253	3934
845.389	3884
845.525	3922
845.661	3956
845.798	3907
845.934	3960
846.07	3911
846.206	4059
846.342	4101
846.478	4036
846.614	3911
846.75	3876
846.886	3873
847.022	3987
847.158	3975
847.294	4036
847.429	4025
847.565	3994
847.701	4242
847.837	3861
847.972	3880
848.108	3960
848.244	3964
848.379	3816
848.515	3797
848.65	3808
848.786	3816
848.921	3888
849.057	3934
849.192	3899
849.328	3892
849.463	3907
849.598	3892
849.734	3804
849.869	3846
850.004	3751
850.14	3789
850.275	3785
850.41	3751
850.545	3762
850.68	3762
850.815	3823
850.95	3816
851.085	3880
851.22	3838
851.355	3823
851.49	3709
851.625	3797
851.76	3793
851.895	3720
852.03	3694
852.165	3766
852.299	3823
852.434	3873
852.569	3816
852.703	3861
852.838	3911
852.973	3991
853.107	3956
853.242	3854
853.376	3842
853.511	3781
853.645	3800
853.78	3960
853.914	3915
854.048	3896
854.183	3918
854.317	3922
854.451	4032
854.585	3968
854.72	3953
854.854	4006
854.988	3945
855.122	4021
855.256	3922
855.39	3964
855.524	4109
855.658	4105
855.792	4093
855.926	4120
856.06	4158
856.194	4200
856.327	4116
856.461	4071
856.595	4150
856.729	4211
856.862	4280
856.996	4223
857.13	4291
857.263	4356
857.397	4356
857.53	4246
857.664	4344
857.797	4363
857.931	4428
858.064	4375
858.197	4466
858.331	4398
858.464	4348
858.597	4329
858.731	4440
858.864	4436
858.997	4451
859.13	4485
859.263	4554
859.396	4565
859.529	4474
859.662	4493
859.795	4500
859.928	4630
860.061	4729
860.194	4729
860.327	4649
860.46	4580
860.592	4664
860.725	4721
860.858	4782
860.99	4740
861.123	4683
861.256	4694
861.388	4736
861.521	5284
861.653	4725
861.786	4679
861.918	4733
862.05	4786
862.183	4805
862.315	4923
862.447	4885
862.58	4870
862.712	4740
862.844	4801
862.976	4896
863.108	4904
863.24	5258
863.372	4816
863.504	4908
863.636	4881
863.768	5022
863.9	4938
864.032	4896
864.164	4949
864.296	4984
864.428	5041
864.559	5098
864.691	5071
864.823	5132
864.954	5128
865.086	5136
865.217	5071
865.349	5079
865.48	5117
865.612	5159
865.743	5277
865.875	5201
866.006	5155
866.137	5239
866.269	5174
866.4	5201
866.531	5227
866.662	5216
866.793	5318
866.924	5273
867.055	5284
867.186	5353
867.317	5326
867.448	5315
867.579	5398
867.71	5376
867.841	5357
867.972	5455
868.103	5467
868.233	5429
868.364	5455
868.495	5528
868.625	5638
868.756	5767
868.886	5665
869.017	5703
869.147	5802
869.278	5851
869.408	5786
869.539	5824
869.669	5897
869.799	5901
869.929	5996
870.06	6041
870.19	6216
870.32	6186
870.45	6205
870.58	6319
870.71	6426
870.84	6467
870.97	6433
871.1	6445
871.23	6601
871.36	6631
871.489	6642
871.619	6757
871.749	6730
871.879	6878
872.008	6935
872.138	6981
872.267	6996
872.397	6981
872.526	6970
872.656	7057
872.785	7194
872.915	7327
873.044	7514
873.173	7563
873.303	7620
873.432	7822
873.561	7849
873.69	7871
873.819	7989
873.948	8153
874.077	8206
874.206	8301
874.335	8457
874.464	8640
874.593	8857
874.722	8842
874.851	9138
874.979	9176
875.108	9382
875.237	9412
875.365	9462
875.494	9648
875.623	9812
875.751	9850
875.88	9987
876.008	10166
876.136	10227
876.265	10493
876.393	10672
876.521	10710
876.65	10820
876.778	10869
876.906	10919
877.034	10934
877.162	11113
877.29	11113
877.418	11330
877.546	11322
877.674	11391
877.802	11471
877.93	11566
878.058	11516
878.185	11520
878.313	11657
878.441	11805
878.568	11684
878.696	11786
878.824	11893
878.951	11904
879.079	11961
879.206	12098
879.333	12057
879.461	11969
879.588	12121
879.715	12057
879.842	12254
879.97	12068
880.097	11889
880.224	11821
880.351	11916
880.478	11832
880.605	11824
880.732	11790
880.859	12038
880.986	11893
881.112	11824
881.239	11661
881.366	11703
881.493	11551
881.619	11558
881.746	11623
881.872	11535
881.999	11516
882.125	11497
882.252	11570
882.378	11562
882.505	11532
882.631	11368
882.757	11208
882.883	11261
883.01	11265
883.136	11208
883.262	11048
883.388	11064
883.514	11220
883.64	11109
883.766	11048
883.892	11064
884.018	10984
884.143	11094
884.269	11079
884.395	10820
884.52	10778
884.646	10797
884.772	10653
884.897	10641
885.023	10694
885.148	10710
885.274	10755
885.399	10645
885.524	10569
885.65	10565
885.775	10584
885.9	10561
886.025	10634
886.15	10584
886.275	10421
886.4	10402
886.525	10371
886.65	10341
886.775	10299
886.9	10516
887.025	10535
887.149	10344
887.274	10177
887.399	10200
887.523	10116
887.648	10097
887.773	10082
887.897	10238
888.021	10215
888.146	10124
888.27	10272
888.395	10185
888.519	10124
888.643	10105
888.767	10200
888.891	10067
889.015	9983
889.139	10074
889.263	9941
889.387	10086
889.511	10013
889.635	10067
889.759	9922
889.883	9975
890.006	9968
890.13	10116
890.254	9911
890.377	9915
890.501	9861
890.624	9911
890.748	9759
890.871	9789
890.995	9679
891.118	9667
891.241	9724
891.364	9713
891.488	9823
891.611	9774
891.734	9724
891.857	9724
891.98	9705
892.103	9724
892.226	9660
892.349	9671
892.471	9454
892.594	9595
892.717	9507
892.839	9557
892.962	9587
893.085	9648
893.207	9591
893.33	9397
893.452	9568
893.575	9564
893.697	9515
893.819	9610
893.941	9606
894.064	9568
894.186	9477
894.308	9458
894.43	9469
894.552	9576
894.674	9405
894.796	9405
894.918	9420
895.04	9386
895.161	9401
895.283	9336
895.405	9294
895.526	9287
895.648	9222
895.769	9241
895.891	9230
896.012	9237
896.134	9230
896.255	9169
896.376	9123
896.498	9176
896.619	9116
896.74	9116
896.861	9108
896.982	9253
897.103	9317
897.224	9131
897.345	9032
897.466	8982
897.587	9028
897.708	9085
897.828	8998
897.949	8967
898.07	8895
898.19	8918
898.311	9039
898.431	8887
898.552	8823
898.672	9024
898.792	8861
898.913	8872
899.033	8811
899.153	8769
899.273	8640
899.393	8678
899.513	8708
899.633	8716
899.753	8667
899.873	8640
899.993	8720
900.113	8773
900.232	8712
900.352	8587
900.472	8670
900.591	8507
900.711	8575
900.83	8651
900.95	8640
901.069	8648
901.189	8571
901.308	8351
901.427	8317
901.546	8469
901.665	8396
901.784	8469
901.904	8309
902.023	8324
902.141	8202
902.26	8157
902.379	8271
902.498	8256
902.617	8225
902.735	8298
902.854	8305
902.973	8290
903.091	8142
903.21	8100
903.328	8115
903.446	8145
903.565	8081
903.683	8073
903.801	8005
903.919	8119
904.038	8199
904.156	8016
904.274	8046
904.392	7989
904.51	8008
904.627	8001
904.745	8050
904.863	8138
904.981	7883
905.098	7845
905.216	7841
905.334	7841
905.451	7894
905.569	7837
905.686	7940
905.803	7879
905.921	7803
906.038	7807
906.155	7818
906.272	7742
906.389	7738
906.506	7655
906.623	7639
906.74	7624
906.857	7552
906.974	7567
907.091	7616
907.208	7681
907.324	7670
907.441	7609
907.557	7457
907.674	7381
907.79	7407
907.907	7331
908.023	7460
908.139	7392
908.256	7335
908.372	7320
908.488	7301
908.604	7232
908.72	7240
908.836	7266
908.952	7225
909.068	7263
909.184	7331
909.3	7263
909.415	7228
909.531	7247
909.647	7164
909.762	7084
909.878	7053
909.993	7099
910.108	7084
910.224	7076
910.339	7072
910.454	7046
910.57	7038
910.685	6916
910.8	7160
910.915	7126
911.03	7107
911.145	6920
911.259	6848
911.374	6939
911.489	6837
911.604	6802
911.718	6738
911.833	6768
911.947	6646
912.062	6631
912.176	6616
912.291	6722
912.405	6650
912.519	6814
912.633	6776
912.748	6760
912.862	6642
912.976	6623
913.09	6475
913.204	6612
913.318	6597
913.431	6604
913.545	6574
913.659	6707
913.772	6604
913.886	6563
914	6540
914.113	6547
914.226	6646
914.34	6585
914.453	6547
914.566	6593
914.68	6570
914.793	6475
914.906	6399
915.019	6357
915.132	6399
915.245	6452
915.358	6391
915.47	6456
915.583	6395
915.696	6441
915.809	6498
915.921	6555
916.034	6479
916.146	6388
916.259	6369
916.371	6460
916.483	6410
916.595	6414
916.708	6380
916.82	6403
916.932	6338
917.044	6399
917.156	6365
917.268	6311
917.38	6342
917.491	6311
917.603	6311
917.715	6311
917.826	6448
917.938	6311
918.049	6270
918.161	6399
918.272	6369
918.384	6361
918.495	6315
918.606	6239
918.717	6220
918.828	6289
918.939	6266
919.05	6182
919.161	6247
919.272	6114
919.383	6171
919.494	6239
919.604	6395
919.715	6273
919.826	6159
919.936	6289
920.047	6331
920.157	6254
920.267	6441
920.378	6289
920.488	6273
920.598	6441
920.708	6479
920.818	6467
920.928	6441
921.038	6570
921.148	6574
921.258	6391
921.368	6285
921.477	6194
921.587	6148
921.697	6114
921.806	6133
921.916	5999
922.025	5904
922.134	5897
922.244	5901
922.353	5901
922.462	5840
922.571	5760
922.68	5649
922.789	5672
922.898	5672
923.007	5630
923.116	5688
923.224	5649
923.333	5695
923.442	5592
923.55	5551
923.659	5585
923.767	5585
923.876	5535
923.984	5543
924.092	5474
924.201	5535
924.309	5547
924.417	5524
924.525	5490
924.633	5520
924.741	6273
924.849	5376
924.956	5505
925.064	5322
925.172	5360
925.279	5261
925.387	5326
925.494	5360
925.602	5368
925.709	5379
925.816	5246
925.924	5311
926.031	5368
926.138	5292
926.245	5296
926.352	5181
926.459	5353
926.566	5292
926.673	5246
926.779	5037
926.886	5105
926.993	4968
927.099	5025
927.206	4972
927.312	4904
927.419	4999
927.525	4953
927.631	4984
927.737	4896
927.843	4816
927.95	4797
928.056	4847
928.162	4820
928.267	4816
928.373	5246
928.479	4858
928.585	4653
928.69	4759
928.796	4774
928.901	4679
929.007	4580
929.112	4675
929.218	4622
929.323	4611
929.428	4561
929.533	4668
929.638	4462
929.743	4493
929.848	4584
929.953	4451
930.058	4417
930.163	4257
930.267	4310
930.372	4440
930.477	4242
930.581	4466
930.685	4344
930.79	4242
930.894	4280
930.998	4268
931.103	4375
931.207	4124
931.311	4078
931.415	4029
931.519	3876
931.623	3888
