Data from glass_V78500241_631.txt Node
Date: Wed Sep 01 19:18:52 CST 2021
User: usil
Spectrometer: V785-0024
Trigger mode: 0
Integration Time (sec): 4.000000E-1
Scans to average: 1
Nonlinearity correction enabled: false
Boxcar width: 0
Storing dark spectrum: false
XAxis mode: Wavelengths
Number of Pixels in Spectrum: 1024
>>>>>Begin Spectral Data<<<<<
801.071	3751
801.214	3781
801.356	3701
801.499	3755
801.641	3789
801.783	3808
801.926	3880
802.068	3854
802.211	3831
802.353	3926
802.496	3835
802.638	3907
802.78	3930
802.923	3918
803.065	3884
803.208	3835
803.35	3876
803.492	3941
803.635	3922
803.777	3835
803.919	3888
804.061	4166
804.204	3945
804.346	3953
804.488	3907
804.63	4055
804.773	3968
804.915	3979
805.057	4143
805.199	4071
805.341	4116
805.483	4177
805.626	4166
805.768	4101
805.91	4249
806.052	4246
806.194	4234
806.336	4379
806.478	4211
806.62	4215
806.762	4200
806.904	4230
807.046	4344
807.188	4158
807.33	4192
807.472	4310
807.614	4227
807.756	4265
807.898	4257
808.04	4249
808.182	4322
808.324	4287
808.465	4394
808.607	4474
808.749	4485
808.891	4451
809.033	4527
809.174	4481
809.316	4253
809.458	4238
809.6	4131
809.741	4143
809.883	4162
810.025	4238
810.166	4227
810.308	4238
810.45	4215
810.591	4215
810.733	4268
810.875	4527
811.016	4782
811.158	5094
811.299	5299
811.441	5299
811.582	5098
811.724	4717
811.865	4512
812.007	4462
812.148	4402
812.29	4405
812.431	4428
812.573	4421
812.714	4394
812.855	4390
812.997	4443
813.138	4523
813.279	4428
813.421	4390
813.562	4405
813.703	4375
813.845	4356
813.986	4230
814.127	4276
814.268	4234
814.41	4310
814.551	4295
814.692	4322
814.833	4249
814.974	4287
815.115	4383
815.256	4310
815.397	4234
815.539	4246
815.68	4234
815.821	4246
815.962	4341
816.103	4261
816.244	4227
816.385	4242
816.526	4284
816.666	4249
816.807	4120
816.948	4227
817.089	4188
817.23	4105
817.371	4067
817.512	4029
817.653	4059
817.793	4040
817.934	3968
818.075	4116
818.216	4093
818.356	4090
818.497	4021
818.638	3934
818.778	3926
818.919	3915
819.06	3869
819.2	3911
819.341	3884
819.481	3857
819.622	3934
819.762	3968
819.903	3949
820.043	3865
820.184	3857
820.324	3838
820.465	3899
820.605	3873
820.746	3880
820.886	3857
821.026	3953
821.167	3949
821.307	3956
821.447	3953
821.588	4013
821.728	3960
821.868	3964
822.008	3930
822.149	3930
822.289	3907
822.429	3812
822.569	3774
822.709	3816
822.849	3679
822.99	3759
823.13	3793
823.27	3793
823.41	3781
823.55	3747
823.69	3778
823.83	3766
823.97	3694
824.11	3614
824.25	3622
824.389	3667
824.529	3694
824.669	3641
824.809	3736
824.949	3812
825.089	3728
825.228	3694
825.368	3637
825.508	3564
825.648	3595
825.787	3610
825.927	3644
826.067	3637
826.206	3671
826.346	3812
826.485	3831
826.625	3869
826.765	3956
826.904	3880
827.044	3648
827.183	3606
827.323	3424
827.462	3500
827.601	3431
827.741	3405
827.88	3485
828.02	3382
828.159	3443
828.298	3473
828.437	3584
828.577	3473
828.716	3599
828.855	3526
828.994	3393
829.134	3397
829.273	3386
829.412	3393
829.551	3306
829.69	3355
829.829	3435
829.968	3519
830.107	3443
830.246	3496
830.385	3386
830.524	3374
830.663	3287
830.802	3264
830.941	3233
831.08	3222
831.219	3249
831.357	3306
831.496	3405
831.635	3211
831.774	3192
831.913	3211
832.051	3123
832.19	3180
832.329	3199
832.467	3138
832.606	3112
832.744	3165
832.883	3188
833.022	3249
833.16	3275
833.299	3355
833.437	3325
833.576	3367
833.714	3420
833.852	3458
833.991	3481
834.129	3462
834.267	3477
834.406	3424
834.544	3443
834.682	3447
834.821	3405
834.959	3599
835.097	3435
835.235	3580
835.373	3519
835.511	3519
835.65	3485
835.788	3542
835.926	3401
836.064	3374
836.202	3401
836.34	3606
836.478	3603
836.615	3568
836.753	3591
836.891	3648
837.029	3682
837.167	3603
837.305	3553
837.443	3561
837.58	3496
837.718	3637
837.856	3553
837.993	3545
838.131	3610
838.269	3564
838.406	3629
838.544	3564
838.681	3462
838.819	3507
838.956	3412
839.094	3447
839.231	3447
839.369	3561
839.506	3751
839.643	3610
839.781	3481
839.918	3458
840.055	3568
840.193	3568
840.33	3519
840.467	3564
840.604	3595
840.742	3823
840.879	3568
841.016	3614
841.153	3622
841.29	3751
841.427	3732
841.564	3701
841.701	3770
841.838	3709
841.975	3717
842.112	3713
842.249	3675
842.385	3667
842.522	3835
842.659	3724
842.796	3686
842.933	3728
843.069	3720
843.206	3755
843.343	3850
843.479	3816
843.616	3846
843.752	3717
843.889	3713
844.025	3831
844.162	3759
844.298	3823
844.435	3835
844.571	3785
844.708	3876
844.844	3987
844.98	4059
845.117	4029
845.253	3934
845.389	3937
845.525	3979
845.661	3949
845.798	3926
845.934	3998
846.07	3960
846.206	4078
846.342	4135
846.478	4067
846.614	4017
846.75	3956
846.886	3949
847.022	4036
847.158	3953
847.294	4040
847.429	4051
847.565	4010
847.701	4234
847.837	3911
847.972	3876
848.108	4021
848.244	4036
848.379	3857
848.515	3781
848.65	3819
848.786	3884
848.921	3888
849.057	3915
849.192	3956
849.328	3941
849.463	3911
849.598	3915
849.734	3857
849.869	3827
850.004	3800
850.14	3804
850.275	3857
850.41	3747
850.545	3743
850.68	3774
850.815	3835
850.95	3808
851.085	3960
851.22	3865
851.355	3831
851.49	3804
851.625	3831
851.76	3827
851.895	3701
852.03	3736
852.165	3812
852.299	3842
852.434	3911
852.569	3869
852.703	3934
852.838	3998
852.973	3998
853.107	3968
853.242	3896
853.376	3869
853.511	3816
853.645	3854
853.78	4002
853.914	3945
854.048	3915
854.183	3899
854.317	3979
854.451	4105
854.585	3956
854.72	3941
854.854	4051
854.988	3949
855.122	4036
855.256	3949
855.39	3994
855.524	4105
855.658	4082
855.792	4109
855.926	4147
856.06	4238
856.194	4181
856.327	4162
856.461	4188
856.595	4131
856.729	4185
856.862	4276
856.996	4280
857.13	4318
857.263	4344
857.397	4383
857.53	4337
857.664	4363
857.797	4409
857.931	4413
858.064	4394
858.197	4459
858.331	4379
858.464	4356
858.597	4363
858.731	4424
858.864	4478
858.997	4459
859.13	4478
859.263	4538
859.396	4580
859.529	4527
859.662	4523
859.795	4535
859.928	4577
860.061	4683
860.194	4778
860.327	4656
860.46	4702
860.592	4740
860.725	4748
860.858	4793
860.99	4679
861.123	4706
861.256	4698
861.388	4824
861.521	5326
861.653	4698
861.786	4721
861.918	4778
862.05	4820
862.183	4908
862.315	4930
862.447	4930
862.58	4900
862.712	4816
862.844	4748
862.976	4843
863.108	4835
863.24	5197
863.372	4885
863.504	4915
863.636	4873
863.768	4957
863.9	5006
864.032	4949
864.164	4965
864.296	5045
864.428	5090
864.559	5079
864.691	5140
864.823	5102
864.954	5102
865.086	5174
865.217	5166
865.349	5140
865.48	5143
865.612	5189
865.743	5280
865.875	5208
866.006	5242
866.137	5261
866.269	5269
866.4	5277
866.531	5292
866.662	5208
866.793	5273
866.924	5299
867.055	5337
867.186	5395
867.317	5337
867.448	5326
867.579	5379
867.71	5414
867.841	5379
867.972	5436
868.103	5532
868.233	5512
868.364	5539
868.495	5573
868.625	5726
868.756	5836
868.886	5680
869.017	5733
869.147	5847
869.278	5836
869.408	5844
869.539	5866
869.669	5950
869.799	5897
869.929	5999
870.06	6049
870.19	6171
870.32	6171
870.45	6296
870.58	6365
870.71	6441
870.84	6460
870.97	6433
871.1	6414
871.23	6681
871.36	6703
871.489	6696
871.619	6776
871.749	6829
871.879	6848
872.008	6962
872.138	6970
872.267	6989
872.397	6993
872.526	7000
872.656	7072
872.785	7247
872.915	7327
873.044	7518
873.173	7540
873.303	7723
873.432	7769
873.561	7833
873.69	7989
873.819	8005
873.948	8187
874.077	8286
874.206	8412
874.335	8412
874.464	8655
874.593	8826
874.722	8941
874.851	9199
874.979	9230
875.108	9298
875.237	9450
875.365	9408
875.494	9656
875.623	9846
875.751	9884
875.88	10013
876.008	10150
876.136	10344
876.265	10516
876.393	10664
876.521	10706
876.65	10847
876.778	10896
876.906	10839
877.034	11018
877.162	11143
877.29	11201
877.418	11254
877.546	11299
877.674	11471
877.802	11524
877.93	11463
878.058	11627
878.185	11600
878.313	11611
878.441	11752
878.568	11661
878.696	11802
878.824	11760
878.951	11973
879.079	12064
879.206	12148
879.333	12049
879.461	12011
879.588	12079
879.715	12155
879.842	12224
879.97	12045
880.097	11847
880.224	11889
880.351	11923
880.478	11935
880.605	11901
880.732	11931
880.859	12060
880.986	11836
881.112	11904
881.239	11790
881.366	11676
881.493	11657
881.619	11516
881.746	11558
881.872	11566
881.999	11455
882.125	11516
882.252	11551
882.378	11463
882.505	11539
882.631	11322
882.757	11269
882.883	11376
883.01	11280
883.136	11204
883.262	11121
883.388	11094
883.514	11235
883.64	11250
883.766	11117
883.892	11056
884.018	11060
884.143	11029
884.269	11109
884.395	10889
884.52	10793
884.646	10831
884.772	10656
884.897	10679
885.023	10725
885.148	10748
885.274	10805
885.399	10675
885.524	10649
885.65	10702
885.775	10618
885.9	10550
886.025	10546
886.15	10577
886.275	10516
886.4	10363
886.525	10459
886.65	10363
886.775	10371
886.9	10504
887.025	10588
887.149	10356
887.274	10295
887.399	10207
887.523	10192
887.648	10101
887.773	10188
887.897	10306
888.021	10238
888.146	10150
888.27	10268
888.395	10219
888.519	10207
888.643	10196
888.767	10200
888.891	10051
889.015	10173
889.139	10063
889.263	10013
889.387	10086
889.511	10124
889.635	10036
889.759	10029
889.883	10063
890.006	10048
890.13	10120
890.254	9922
890.377	9934
890.501	9812
890.624	9934
890.748	9926
890.871	9740
890.995	9797
891.118	9728
891.241	9808
891.364	9759
891.488	9808
891.611	9819
891.734	9740
891.857	9797
891.98	9709
892.103	9827
892.226	9732
892.349	9675
892.471	9530
892.594	9618
892.717	9686
892.839	9618
892.962	9587
893.085	9671
893.207	9663
893.33	9515
893.452	9526
893.575	9572
893.697	9473
893.819	9675
893.941	9709
894.064	9614
894.186	9420
894.308	9355
894.43	9553
894.552	9606
894.674	9477
894.796	9408
894.918	9450
895.04	9363
895.161	9382
895.283	9306
895.405	9279
895.526	9275
895.648	9192
895.769	9237
895.891	9256
896.012	9294
896.134	9241
896.255	9184
896.376	9100
896.498	9165
896.619	9165
896.74	9150
896.861	9135
896.982	9321
897.103	9329
897.224	9218
897.345	9123
897.466	9032
897.587	9017
897.708	9123
897.828	9047
897.949	8925
898.07	8895
898.19	8872
898.311	9032
898.431	8902
898.552	8944
898.672	9074
898.792	8982
898.913	8891
899.033	8746
899.153	8773
899.273	8743
899.393	8724
899.513	8708
899.633	8678
899.753	8735
899.873	8663
899.993	8712
900.113	8689
900.232	8758
900.352	8613
900.472	8598
900.591	8579
900.711	8659
900.83	8511
900.95	8670
901.069	8663
901.189	8583
901.308	8419
901.427	8438
901.546	8434
901.665	8427
901.784	8499
901.904	8434
902.023	8336
902.141	8191
902.26	8244
902.379	8218
902.498	8233
902.617	8252
902.735	8336
902.854	8298
902.973	8237
903.091	8168
903.21	8187
903.328	8183
903.446	8123
903.565	8103
903.683	8103
903.801	8088
903.919	8149
904.038	8084
904.156	8073
904.274	8119
904.392	7978
904.51	8065
904.627	8119
904.745	8065
904.863	8050
904.981	7936
905.098	7871
905.216	7898
905.334	7803
905.451	7898
905.569	7883
905.686	7925
905.803	7951
905.921	7814
906.038	7894
906.155	7799
906.272	7731
906.389	7723
906.506	7616
906.623	7677
906.74	7620
906.857	7578
906.974	7571
907.091	7662
907.208	7742
907.324	7616
907.441	7613
907.557	7480
907.674	7495
907.79	7362
907.907	7407
908.023	7449
908.139	7457
908.256	7411
908.372	7373
908.488	7339
908.604	7266
908.72	7270
908.836	7293
908.952	7259
909.068	7270
909.184	7301
909.3	7194
909.415	7282
909.531	7282
909.647	7160
909.762	7171
909.878	7095
909.993	7069
910.108	7126
910.224	7084
910.339	7084
910.454	7088
910.57	6970
910.685	7008
910.8	7152
910.915	7031
911.03	7057
911.145	6920
911.259	6894
911.374	6867
911.489	6882
911.604	6814
911.718	6692
911.833	6711
911.947	6696
912.062	6582
912.176	6722
912.291	6764
912.405	6734
912.519	6848
912.633	6852
912.748	6768
912.862	6627
912.976	6646
913.09	6574
913.204	6582
913.318	6627
913.431	6681
913.545	6688
913.659	6700
913.772	6665
913.886	6551
914	6536
914.113	6650
914.226	6662
914.34	6635
914.453	6525
914.566	6642
914.68	6555
914.793	6509
914.906	6433
915.019	6418
915.132	6372
915.245	6448
915.358	6391
915.47	6494
915.583	6437
915.696	6513
915.809	6559
915.921	6582
916.034	6426
916.146	6506
916.259	6418
916.371	6509
916.483	6429
916.595	6441
916.708	6414
916.82	6429
916.932	6384
917.044	6410
917.156	6410
917.268	6369
917.38	6327
917.491	6296
917.603	6365
917.715	6422
917.826	6407
917.938	6350
918.049	6304
918.161	6327
918.272	6479
918.384	6365
918.495	6319
918.606	6300
918.717	6213
918.828	6281
918.939	6281
919.05	6235
919.161	6235
919.272	6175
919.383	6121
919.494	6338
919.604	6441
919.715	6369
919.826	6205
919.936	6266
920.047	6353
920.157	6304
920.267	6433
920.378	6292
920.488	6247
920.598	6494
920.708	6521
920.818	6490
920.928	6494
921.038	6639
921.148	6563
921.258	6395
921.368	6331
921.477	6235
921.587	6197
921.697	6068
921.806	6163
921.916	6136
922.025	5977
922.134	5878
922.244	5870
922.353	5920
922.462	5942
922.571	5824
922.68	5756
922.789	5630
922.898	5741
923.007	5646
923.116	5699
923.224	5699
923.333	5703
923.442	5581
923.55	5608
923.659	5604
923.767	5672
923.876	5524
923.984	5608
924.092	5535
924.201	5554
924.309	5512
924.417	5581
924.525	5528
924.633	5512
924.741	6266
924.849	5406
924.956	5478
925.064	5368
925.172	5258
925.279	5307
925.387	5349
925.494	5326
925.602	5463
925.709	5364
925.816	5326
925.924	5357
926.031	5368
926.138	5303
926.245	5334
926.352	5254
926.459	5280
926.566	5360
926.673	5227
926.779	5140
926.886	5166
926.993	5064
927.099	5041
927.206	4968
927.312	4987
927.419	4995
927.525	5018
927.631	4980
927.737	4930
927.843	4881
927.95	4790
928.056	4820
928.162	4873
928.267	4858
928.373	5277
928.479	4854
928.585	4714
928.69	4831
928.796	4782
928.901	4721
929.007	4637
929.112	4645
929.218	4634
929.323	4637
929.428	4558
929.533	4679
929.638	4516
929.743	4542
929.848	4542
929.953	4508
930.058	4443
930.163	4367
930.267	4348
930.372	4462
930.477	4329
930.581	4470
930.685	4383
930.79	4276
930.894	4318
930.998	4253
931.103	4405
931.207	4158
931.311	4101
931.415	4074
931.519	3926
931.623	3941
