Data from glass_V78500241_1795.txt Node
Date: Wed Sep 01 19:26:56 CST 2021
User: usil
Spectrometer: V785-0024
Trigger mode: 0
Integration Time (sec): 4.000000E-1
Scans to average: 1
Nonlinearity correction enabled: false
Boxcar width: 0
Storing dark spectrum: false
XAxis mode: Wavelengths
Number of Pixels in Spectrum: 1024
>>>>>Begin Spectral Data<<<<<
801.071	3736
801.214	3762
801.356	3705
801.499	3671
801.641	3770
801.783	3827
801.926	3816
802.068	3797
802.211	3854
802.353	3842
802.496	3823
802.638	3869
802.78	3911
802.923	3922
803.065	3865
803.208	3823
803.35	3907
803.492	3960
803.635	3915
803.777	3800
803.919	3911
804.061	4143
804.204	3972
804.346	3922
804.488	3918
804.63	4017
804.773	3953
804.915	4025
805.057	4147
805.199	4067
805.341	4078
805.483	4120
805.626	4116
805.768	4143
805.91	4166
806.052	4276
806.194	4200
806.336	4314
806.478	4223
806.62	4173
806.762	4192
806.904	4242
807.046	4367
807.188	4215
807.33	4215
807.472	4238
807.614	4135
807.756	4261
807.898	4158
808.04	4261
808.182	4253
808.324	4276
808.465	4379
808.607	4451
808.749	4462
808.891	4478
809.033	4512
809.174	4413
809.316	4303
809.458	4280
809.6	4169
809.741	4128
809.883	4150
810.025	4185
810.166	4261
810.308	4242
810.45	4265
810.591	4215
810.733	4303
810.875	4523
811.016	4816
811.158	5109
811.299	5265
811.441	5307
811.582	5075
811.724	4645
811.865	4436
812.007	4504
812.148	4440
812.29	4485
812.431	4398
812.573	4474
812.714	4386
812.855	4375
812.997	4436
813.138	4497
813.279	4421
813.421	4386
813.562	4352
813.703	4303
813.845	4348
813.986	4291
814.127	4173
814.268	4291
814.41	4295
814.551	4276
814.692	4306
814.833	4272
814.974	4306
815.115	4352
815.256	4249
815.397	4265
815.539	4268
815.68	4147
815.821	4223
815.962	4337
816.103	4265
816.244	4261
816.385	4204
816.526	4325
816.666	4219
816.807	4109
816.948	4185
817.089	4177
817.23	4105
817.371	4036
817.512	4029
817.653	4105
817.793	4002
817.934	4013
818.075	4135
818.216	4097
818.356	4105
818.497	3975
818.638	3911
818.778	3907
818.919	3888
819.06	3937
819.2	3907
819.341	3873
819.481	3831
819.622	3918
819.762	4071
819.903	3934
820.043	3865
820.184	3846
820.324	3831
820.465	3819
820.605	3819
820.746	3884
820.886	3819
821.026	3892
821.167	3937
821.307	4002
821.447	3991
821.588	3991
821.728	3953
821.868	3918
822.008	3911
822.149	3930
822.289	3926
822.429	3774
822.569	3789
822.709	3808
822.849	3679
822.99	3713
823.13	3740
823.27	3774
823.41	3705
823.55	3743
823.69	3740
823.83	3740
823.97	3644
824.11	3614
824.25	3553
824.389	3637
824.529	3637
824.669	3652
824.809	3686
824.949	3751
825.089	3724
825.228	3709
825.368	3561
825.508	3526
825.648	3591
825.787	3595
825.927	3679
826.067	3614
826.206	3633
826.346	3778
826.485	3789
826.625	3854
826.765	3949
826.904	3850
827.044	3629
827.183	3511
827.323	3424
827.462	3473
827.601	3462
827.741	3431
827.88	3462
828.02	3355
828.159	3458
828.298	3481
828.437	3561
828.577	3469
828.716	3576
828.855	3477
828.994	3363
829.134	3367
829.273	3424
829.412	3374
829.551	3351
829.69	3348
829.829	3397
829.968	3515
830.107	3443
830.246	3462
830.385	3389
830.524	3351
830.663	3275
830.802	3264
830.941	3218
831.08	3192
831.219	3279
831.357	3256
831.496	3424
831.635	3264
831.774	3176
831.913	3173
832.051	3131
832.19	3165
832.329	3241
832.467	3146
832.606	3119
832.744	3203
832.883	3161
833.022	3230
833.16	3249
833.299	3287
833.437	3401
833.576	3367
833.714	3405
833.852	3428
833.991	3439
834.129	3462
834.267	3431
834.406	3416
834.544	3439
834.682	3443
834.821	3401
834.959	3553
835.097	3428
835.235	3492
835.373	3504
835.511	3492
835.65	3469
835.788	3504
835.926	3363
836.064	3401
836.202	3409
836.34	3564
836.478	3603
836.615	3542
836.753	3622
836.891	3622
837.029	3587
837.167	3629
837.305	3572
837.443	3549
837.58	3496
837.718	3625
837.856	3549
837.993	3584
838.131	3599
838.269	3603
838.406	3603
838.544	3545
838.681	3435
838.819	3420
838.956	3351
839.094	3405
839.231	3466
839.369	3542
839.506	3709
839.643	3637
839.781	3466
839.918	3466
840.055	3519
840.193	3526
840.33	3519
840.467	3545
840.604	3564
840.742	3793
840.879	3564
841.016	3587
841.153	3591
841.29	3732
841.427	3709
841.564	3713
841.701	3709
841.838	3724
841.975	3682
842.112	3701
842.249	3625
842.385	3606
842.522	3800
842.659	3679
842.796	3728
842.933	3705
843.069	3675
843.206	3698
843.343	3804
843.479	3781
843.616	3823
843.752	3682
843.889	3652
844.025	3823
844.162	3682
844.298	3873
844.435	3800
844.571	3789
844.708	3907
844.844	3975
844.98	4032
845.117	4032
845.253	3937
845.389	3892
845.525	3892
845.661	3960
845.798	3922
845.934	4002
846.07	3956
846.206	4051
846.342	4147
846.478	4036
846.614	3934
846.75	3964
846.886	3918
847.022	4051
847.158	4017
847.294	3998
847.429	4006
847.565	3983
847.701	4207
847.837	3880
847.972	3873
848.108	3968
848.244	3979
848.379	3888
848.515	3819
848.65	3819
848.786	3808
848.921	3869
849.057	3930
849.192	3991
849.328	3880
849.463	3876
849.598	3876
849.734	3842
849.869	3823
850.004	3808
850.14	3835
850.275	3800
850.41	3724
850.545	3759
850.68	3778
850.815	3793
850.95	3823
851.085	3911
851.22	3854
851.355	3823
851.49	3774
851.625	3797
851.76	3819
851.895	3724
852.03	3755
852.165	3823
852.299	3876
852.434	3861
852.569	3876
852.703	3842
852.838	3937
852.973	4002
853.107	3964
853.242	3892
853.376	3857
853.511	3789
853.645	3831
853.78	3972
853.914	3896
854.048	3892
854.183	3884
854.317	3945
854.451	4044
854.585	3972
854.72	3941
854.854	4063
854.988	3956
855.122	4013
855.256	3953
855.39	4017
855.524	4154
855.658	4109
855.792	4074
855.926	4139
856.06	4116
856.194	4185
856.327	4128
856.461	4105
856.595	4131
856.729	4169
856.862	4268
856.996	4268
857.13	4246
857.263	4287
857.397	4348
857.53	4318
857.664	4375
857.797	4436
857.931	4443
858.064	4363
858.197	4405
858.331	4432
858.464	4360
858.597	4348
858.731	4432
858.864	4447
858.997	4455
859.13	4497
859.263	4516
859.396	4554
859.529	4535
859.662	4531
859.795	4516
859.928	4580
860.061	4683
860.194	4714
860.327	4668
860.46	4603
860.592	4702
860.725	4786
860.858	4790
860.99	4733
861.123	4656
861.256	4694
861.388	4755
861.521	5383
861.653	4714
861.786	4702
861.918	4748
862.05	4824
862.183	4831
862.315	4877
862.447	4892
862.58	4908
862.712	4809
862.844	4714
862.976	4915
863.108	4858
863.24	5246
863.372	4847
863.504	4904
863.636	4972
863.768	4980
863.9	4949
864.032	4991
864.164	4923
864.296	4987
864.428	5052
864.559	5124
864.691	5098
864.823	5098
864.954	5067
865.086	5094
865.217	5132
865.349	5128
865.48	5193
865.612	5151
865.743	5303
865.875	5204
866.006	5162
866.137	5258
866.269	5250
866.4	5197
866.531	5239
866.662	5284
866.793	5254
866.924	5273
867.055	5311
867.186	5357
867.317	5345
867.448	5258
867.579	5395
867.71	5345
867.841	5372
867.972	5421
868.103	5417
868.233	5478
868.364	5501
868.495	5551
868.625	5707
868.756	5729
868.886	5638
869.017	5722
869.147	5828
869.278	5882
869.408	5809
869.539	5817
869.669	5961
869.799	5912
869.929	5999
870.06	6022
870.19	6216
870.32	6190
870.45	6300
870.58	6372
870.71	6452
870.84	6399
870.97	6418
871.1	6441
871.23	6692
871.36	6662
871.489	6635
871.619	6722
871.749	6806
871.879	6875
872.008	6958
872.138	6996
872.267	6985
872.397	6970
872.526	7031
872.656	7122
872.785	7213
872.915	7343
873.044	7506
873.173	7499
873.303	7677
873.432	7757
873.561	7902
873.69	7902
873.819	8008
873.948	8149
874.077	8244
874.206	8408
874.335	8450
874.464	8629
874.593	8834
874.722	8929
874.851	9188
874.979	9211
875.108	9359
875.237	9412
875.365	9447
875.494	9572
875.623	9854
875.751	9854
875.88	10017
876.008	10124
876.136	10284
876.265	10493
876.393	10630
876.521	10771
876.65	10801
876.778	10809
876.906	10946
877.034	11045
877.162	11098
877.29	11086
877.418	11250
877.546	11311
877.674	11414
877.802	11497
877.93	11501
878.058	11543
878.185	11638
878.313	11627
878.441	11707
878.568	11668
878.696	11824
878.824	11920
878.951	11920
879.079	11980
879.206	12254
879.333	12117
879.461	11999
879.588	12098
879.715	12087
879.842	12205
879.97	12068
880.097	11878
880.224	11840
880.351	11897
880.478	11870
880.605	11912
880.732	11817
880.859	11984
880.986	11824
881.112	11927
881.239	11745
881.366	11657
881.493	11615
881.619	11543
881.746	11547
881.872	11573
881.999	11516
882.125	11463
882.252	11581
882.378	11520
882.505	11589
882.631	11364
882.757	11303
882.883	11353
883.01	11296
883.136	11170
883.262	11178
883.388	11132
883.514	11128
883.64	11140
883.766	11132
883.892	11022
884.018	11048
884.143	11052
884.269	11143
884.395	10809
884.52	10793
884.646	10752
884.772	10733
884.897	10630
885.023	10717
885.148	10683
885.274	10835
885.399	10645
885.524	10584
885.65	10535
885.775	10618
885.9	10481
886.025	10542
886.15	10470
886.275	10474
886.4	10360
886.525	10417
886.65	10356
886.775	10371
886.9	10447
887.025	10523
887.149	10394
887.274	10265
887.399	10181
887.523	10162
887.648	10162
887.773	10086
887.897	10238
888.021	10185
888.146	10059
888.27	10261
888.395	10242
888.519	10162
888.643	10185
888.767	10227
888.891	10147
889.015	10048
889.139	10154
889.263	9941
889.387	10063
889.511	10173
889.635	10101
889.759	9968
889.883	9960
890.006	9922
890.13	10071
890.254	9968
890.377	9930
890.501	9846
890.624	9869
890.748	9842
890.871	9774
890.995	9759
891.118	9663
891.241	9717
891.364	9751
891.488	9816
891.611	9755
891.734	9759
891.857	9705
891.98	9701
892.103	9717
892.226	9736
892.349	9648
892.471	9534
892.594	9576
892.717	9641
892.839	9622
892.962	9603
893.085	9717
893.207	9641
893.33	9549
893.452	9488
893.575	9561
893.697	9488
893.819	9553
893.941	9595
894.064	9564
894.186	9450
894.308	9397
894.43	9473
894.552	9545
894.674	9561
894.796	9336
894.918	9412
895.04	9344
895.161	9389
895.283	9317
895.405	9199
895.526	9211
895.648	9237
895.769	9207
895.891	9195
896.012	9272
896.134	9195
896.255	9287
896.376	9165
896.498	9081
896.619	9093
896.74	9085
896.861	9055
896.982	9241
897.103	9302
897.224	9173
897.345	9081
897.466	9009
897.587	9058
897.708	9093
897.828	9039
897.949	8895
898.07	8864
898.19	8910
898.311	9005
898.431	8960
898.552	8937
898.672	9009
898.792	8979
898.913	8883
899.033	8750
899.153	8781
899.273	8621
899.393	8746
899.513	8754
899.633	8750
899.753	8735
899.873	8678
899.993	8758
900.113	8727
900.232	8640
900.352	8625
900.472	8571
900.591	8587
900.711	8556
900.83	8552
900.95	8651
901.069	8686
901.189	8598
901.308	8381
901.427	8427
901.546	8469
901.665	8484
901.784	8484
901.904	8305
902.023	8286
902.141	8214
902.26	8218
902.379	8320
902.498	8233
902.617	8275
902.735	8313
902.854	8256
902.973	8271
903.091	8126
903.21	8100
903.328	8180
903.446	8119
903.565	8107
903.683	8073
903.801	8062
903.919	8035
904.038	8157
904.156	8035
904.274	8130
904.392	8008
904.51	8035
904.627	7925
904.745	8050
904.863	8100
904.981	7875
905.098	7883
905.216	7887
905.334	7894
905.451	7928
905.569	7818
905.686	7986
905.803	7868
905.921	7795
906.038	7906
906.155	7719
906.272	7670
906.389	7757
906.506	7586
906.623	7613
906.74	7620
906.857	7624
906.974	7594
907.091	7719
907.208	7639
907.324	7662
907.441	7578
907.557	7422
907.674	7381
907.79	7365
907.907	7411
908.023	7438
908.139	7445
908.256	7422
908.372	7377
908.488	7312
908.604	7301
908.72	7213
908.836	7255
908.952	7221
909.068	7282
909.184	7358
909.3	7270
909.415	7297
909.531	7274
909.647	7088
909.762	7129
909.878	7179
909.993	7141
910.108	7031
910.224	7053
910.339	7110
910.454	7057
910.57	7065
910.685	6947
910.8	7137
910.915	7114
911.03	7034
911.145	6886
911.259	6867
911.374	6886
911.489	6878
911.604	6806
911.718	6776
911.833	6757
911.947	6620
912.062	6544
912.176	6749
912.291	6711
912.405	6734
912.519	6768
912.633	6810
912.748	6745
912.862	6722
912.976	6612
913.09	6566
913.204	6540
913.318	6540
913.431	6665
913.545	6722
913.659	6760
913.772	6574
913.886	6563
914	6570
914.113	6597
914.226	6620
914.34	6623
914.453	6475
914.566	6578
914.68	6517
914.793	6551
914.906	6410
915.019	6433
915.132	6357
915.245	6445
915.358	6441
915.47	6471
915.583	6410
915.696	6479
915.809	6486
915.921	6536
916.034	6452
916.146	6399
916.259	6441
916.371	6437
916.483	6441
916.595	6399
916.708	6407
916.82	6433
916.932	6376
917.044	6384
917.156	6422
917.268	6315
917.38	6365
917.491	6376
917.603	6300
917.715	6380
917.826	6433
917.938	6304
918.049	6254
918.161	6296
918.272	6426
918.384	6403
918.495	6300
918.606	6304
918.717	6190
918.828	6232
918.939	6308
919.05	6182
919.161	6239
919.272	6121
919.383	6155
919.494	6270
919.604	6445
919.715	6243
919.826	6205
919.936	6247
920.047	6338
920.157	6254
920.267	6448
920.378	6315
920.488	6296
920.598	6486
920.708	6544
920.818	6490
920.928	6490
921.038	6559
921.148	6585
921.258	6357
921.368	6289
921.477	6224
921.587	6190
921.697	6117
921.806	6163
921.916	6064
922.025	5935
922.134	5885
922.244	5851
922.353	5931
922.462	5813
922.571	5847
922.68	5703
922.789	5668
922.898	5733
923.007	5619
923.116	5737
923.224	5703
923.333	5623
923.442	5566
923.55	5592
923.659	5566
923.767	5615
923.876	5535
923.984	5592
924.092	5551
924.201	5623
924.309	5505
924.417	5581
924.525	5459
924.633	5436
924.741	6277
924.849	5353
924.956	5471
925.064	5360
925.172	5311
925.279	5292
925.387	5322
925.494	5364
925.602	5436
925.709	5376
925.816	5280
925.924	5353
926.031	5398
926.138	5296
926.245	5322
926.352	5227
926.459	5330
926.566	5318
926.673	5159
926.779	5166
926.886	5094
926.993	5052
927.099	5056
927.206	4957
927.312	4915
927.419	5041
927.525	4995
927.631	4953
927.737	4877
927.843	4809
927.95	4820
928.056	4790
928.162	4809
928.267	4877
928.373	5334
928.479	4892
928.585	4672
928.69	4774
928.796	4797
928.901	4653
929.007	4626
929.112	4679
929.218	4630
929.323	4618
929.428	4546
929.533	4660
929.638	4493
929.743	4538
929.848	4542
929.953	4558
930.058	4447
930.163	4284
930.267	4314
930.372	4398
930.477	4276
930.581	4489
930.685	4325
930.79	4249
930.894	4234
930.998	4246
931.103	4379
931.207	4131
931.311	4044
931.415	4059
931.519	3930
931.623	3934
