Data from glass_V78500241_934.txt Node
Date: Wed Sep 01 19:20:58 CST 2021
User: usil
Spectrometer: V785-0024
Trigger mode: 0
Integration Time (sec): 4.000000E-1
Scans to average: 1
Nonlinearity correction enabled: false
Boxcar width: 0
Storing dark spectrum: false
XAxis mode: Wavelengths
Number of Pixels in Spectrum: 1024
>>>>>Begin Spectral Data<<<<<
801.071	3770
801.214	3740
801.356	3705
801.499	3759
801.641	3740
801.783	3804
801.926	3842
802.068	3835
802.211	3854
802.353	3888
802.496	3808
802.638	3922
802.78	3903
802.923	3926
803.065	3884
803.208	3842
803.35	3922
803.492	3899
803.635	3937
803.777	3831
803.919	3918
804.061	4162
804.204	3918
804.346	3953
804.488	3911
804.63	4067
804.773	3964
804.915	4059
805.057	4143
805.199	4044
805.341	4105
805.483	4150
805.626	4169
805.768	4109
805.91	4158
806.052	4287
806.194	4238
806.336	4363
806.478	4185
806.62	4204
806.762	4200
806.904	4215
807.046	4352
807.188	4223
807.33	4196
807.472	4238
807.614	4230
807.756	4253
807.898	4253
808.04	4242
808.182	4314
808.324	4306
808.465	4360
808.607	4405
808.749	4466
808.891	4481
809.033	4542
809.174	4390
809.316	4265
809.458	4219
809.6	4154
809.741	4166
809.883	4120
810.025	4207
810.166	4253
810.308	4207
810.45	4265
810.591	4284
810.733	4299
810.875	4565
811.016	4828
811.158	5166
811.299	5277
811.441	5315
811.582	5067
811.724	4744
811.865	4470
812.007	4478
812.148	4462
812.29	4409
812.431	4424
812.573	4383
812.714	4363
812.855	4443
812.997	4428
813.138	4474
813.279	4421
813.421	4390
813.562	4398
813.703	4348
813.845	4318
813.986	4287
814.127	4196
814.268	4268
814.41	4394
814.551	4280
814.692	4344
814.833	4268
814.974	4310
815.115	4303
815.256	4329
815.397	4253
815.539	4227
815.68	4169
815.821	4230
815.962	4363
816.103	4318
816.244	4276
816.385	4211
816.526	4234
816.666	4249
816.807	4112
816.948	4166
817.089	4162
817.23	4078
817.371	4067
817.512	4082
817.653	4074
817.793	4013
817.934	4044
818.075	4120
818.216	4074
818.356	4082
818.497	4006
818.638	3968
818.778	3960
818.919	3876
819.06	3880
819.2	3926
819.341	3880
819.481	3823
819.622	3907
819.762	4029
819.903	3949
820.043	3911
820.184	3842
820.324	3808
820.465	3869
820.605	3857
820.746	3922
820.886	3785
821.026	3903
821.167	3880
821.307	3972
821.447	3918
821.588	3983
821.728	3964
821.868	3968
822.008	3876
822.149	3915
822.289	3873
822.429	3812
822.569	3762
822.709	3835
822.849	3663
822.99	3762
823.13	3751
823.27	3800
823.41	3709
823.55	3724
823.69	3679
823.83	3743
823.97	3675
824.11	3606
824.25	3625
824.389	3652
824.529	3637
824.669	3671
824.809	3728
824.949	3717
825.089	3720
825.228	3724
825.368	3587
825.508	3603
825.648	3564
825.787	3625
825.927	3660
826.067	3652
826.206	3675
826.346	3823
826.485	3842
826.625	3880
826.765	3960
826.904	3884
827.044	3637
827.183	3515
827.323	3458
827.462	3519
827.601	3431
827.741	3439
827.88	3439
828.02	3382
828.159	3481
828.298	3485
828.437	3572
828.577	3500
828.716	3610
828.855	3542
828.994	3405
829.134	3348
829.273	3428
829.412	3370
829.551	3344
829.69	3389
829.829	3481
829.968	3553
830.107	3466
830.246	3420
830.385	3412
830.524	3344
830.663	3367
830.802	3275
830.941	3207
831.08	3173
831.219	3249
831.357	3260
831.496	3401
831.635	3226
831.774	3226
831.913	3199
832.051	3169
832.19	3165
832.329	3233
832.467	3131
832.606	3093
832.744	3192
832.883	3207
833.022	3199
833.16	3222
833.299	3283
833.437	3351
833.576	3386
833.714	3378
833.852	3466
833.991	3458
834.129	3431
834.267	3462
834.406	3405
834.544	3409
834.682	3447
834.821	3412
834.959	3618
835.097	3420
835.235	3564
835.373	3488
835.511	3485
835.65	3485
835.788	3504
835.926	3420
836.064	3386
836.202	3450
836.34	3606
836.478	3648
836.615	3561
836.753	3603
836.891	3610
837.029	3656
837.167	3595
837.305	3561
837.443	3564
837.58	3545
837.718	3622
837.856	3542
837.993	3564
838.131	3610
838.269	3572
838.406	3618
838.544	3561
838.681	3454
838.819	3469
838.956	3424
839.094	3405
839.231	3473
839.369	3526
839.506	3698
839.643	3667
839.781	3504
839.918	3428
840.055	3469
840.193	3534
840.33	3580
840.467	3591
840.604	3648
840.742	3823
840.879	3549
841.016	3576
841.153	3663
841.29	3770
841.427	3682
841.564	3759
841.701	3759
841.838	3698
841.975	3698
842.112	3698
842.249	3701
842.385	3667
842.522	3831
842.659	3720
842.796	3705
842.933	3698
843.069	3743
843.206	3709
843.343	3823
843.479	3797
843.616	3823
843.752	3690
843.889	3690
844.025	3827
844.162	3732
844.298	3838
844.435	3823
844.571	3808
844.708	3907
844.844	4036
844.98	4029
845.117	4029
845.253	3915
845.389	3918
845.525	3953
845.661	4006
845.798	3918
845.934	4017
846.07	3994
846.206	4093
846.342	4150
846.478	4105
846.614	3998
846.75	3930
846.886	3915
847.022	4032
847.158	4006
847.294	4013
847.429	4063
847.565	4059
847.701	4207
847.837	3854
847.972	3922
848.108	3979
848.244	3975
848.379	3869
848.515	3819
848.65	3846
848.786	3854
848.921	3896
849.057	3930
849.192	3949
849.328	3911
849.463	3953
849.598	3907
849.734	3899
849.869	3846
850.004	3793
850.14	3816
850.275	3766
850.41	3778
850.545	3732
850.68	3789
850.815	3812
850.95	3816
851.085	3918
851.22	3846
851.355	3880
851.49	3785
851.625	3800
851.76	3812
851.895	3720
852.03	3743
852.165	3892
852.299	3838
852.434	3896
852.569	3857
852.703	3880
852.838	3972
852.973	4055
853.107	4002
853.242	3907
853.376	3873
853.511	3804
853.645	3827
853.78	3953
853.914	3968
854.048	3873
854.183	3888
854.317	3949
854.451	4025
854.585	3956
854.72	3945
854.854	4082
854.988	3960
855.122	4032
855.256	3903
855.39	4013
855.524	4109
855.658	4097
855.792	4128
855.926	4158
856.06	4154
856.194	4204
856.327	4150
856.461	4143
856.595	4162
856.729	4188
856.862	4291
856.996	4227
857.13	4314
857.263	4310
857.397	4318
857.53	4287
857.664	4352
857.797	4405
857.931	4417
858.064	4447
858.197	4432
858.331	4394
858.464	4409
858.597	4333
858.731	4451
858.864	4489
858.997	4451
859.13	4561
859.263	4485
859.396	4588
859.529	4527
859.662	4519
859.795	4512
859.928	4626
860.061	4729
860.194	4748
860.327	4599
860.46	4694
860.592	4793
860.725	4790
860.858	4759
860.99	4702
861.123	4687
861.256	4714
861.388	4771
861.521	5512
861.653	4717
861.786	4755
861.918	4721
862.05	4801
862.183	4847
862.315	4915
862.447	4938
862.58	4927
862.712	4801
862.844	4774
862.976	4858
863.108	4900
863.24	5170
863.372	4847
863.504	4881
863.636	4919
863.768	4984
863.9	4987
864.032	4953
864.164	4957
864.296	5037
864.428	5121
864.559	5098
864.691	5162
864.823	5140
864.954	5140
865.086	5132
865.217	5132
865.349	5060
865.48	5109
865.612	5181
865.743	5288
865.875	5223
866.006	5140
866.137	5296
866.269	5235
866.4	5246
866.531	5261
866.662	5246
866.793	5296
866.924	5311
867.055	5303
867.186	5330
867.317	5311
867.448	5318
867.579	5372
867.71	5448
867.841	5402
867.972	5436
868.103	5463
868.233	5471
868.364	5543
868.495	5577
868.625	5688
868.756	5756
868.886	5699
869.017	5745
869.147	5870
869.278	5870
869.408	5840
869.539	5786
869.669	5927
869.799	5946
869.929	6030
870.06	6045
870.19	6220
870.32	6159
870.45	6300
870.58	6372
870.71	6414
870.84	6513
870.97	6426
871.1	6418
871.23	6665
871.36	6715
871.489	6715
871.619	6700
871.749	6848
871.879	6901
872.008	6962
872.138	7031
872.267	7080
872.397	7031
872.526	7065
872.656	7099
872.785	7198
872.915	7400
873.044	7491
873.173	7483
873.303	7666
873.432	7723
873.561	7803
873.69	7913
873.819	7993
873.948	8172
874.077	8183
874.206	8336
874.335	8514
874.464	8613
874.593	8876
874.722	8944
874.851	9127
874.979	9279
875.108	9393
875.237	9473
875.365	9492
875.494	9682
875.623	9861
875.751	9854
875.88	10044
876.008	10154
876.136	10215
876.265	10478
876.393	10733
876.521	10656
876.65	10774
876.778	10877
876.906	10904
877.034	10980
877.162	11132
877.29	11174
877.418	11303
877.546	11417
877.674	11459
877.802	11516
877.93	11528
878.058	11638
878.185	11634
878.313	11668
878.441	11722
878.568	11661
878.696	11760
878.824	11847
878.951	11939
879.079	12041
879.206	12117
879.333	12068
879.461	12053
879.588	12076
879.715	12125
879.842	12194
879.97	12083
880.097	11908
880.224	11882
880.351	11946
880.478	11916
880.605	11874
880.732	11809
880.859	12045
880.986	11908
881.112	11935
881.239	11817
881.366	11729
881.493	11573
881.619	11551
881.746	11543
881.872	11505
881.999	11535
882.125	11455
882.252	11490
882.378	11459
882.505	11516
882.631	11410
882.757	11311
882.883	11330
883.01	11368
883.136	11178
883.262	11189
883.388	11075
883.514	11204
883.64	11162
883.766	11113
883.892	11048
884.018	11048
884.143	11056
884.269	11052
884.395	10850
884.52	10824
884.646	10873
884.772	10744
884.897	10721
885.023	10736
885.148	10771
885.274	10748
885.399	10767
885.524	10584
885.65	10546
885.775	10611
885.9	10538
886.025	10596
886.15	10493
886.275	10481
886.4	10371
886.525	10417
886.65	10329
886.775	10310
886.9	10466
887.025	10615
887.149	10306
887.274	10223
887.399	10257
887.523	10200
887.648	10116
887.773	10147
887.897	10211
888.021	10238
888.146	10139
888.27	10242
888.395	10253
888.519	10181
888.643	10177
888.767	10238
888.891	10059
889.015	9987
889.139	10059
889.263	10055
889.387	10112
889.511	10166
889.635	10021
889.759	10029
889.883	9949
890.006	10025
890.13	10154
890.254	9956
890.377	9998
890.501	9808
890.624	9846
890.748	9911
890.871	9842
890.995	9778
891.118	9743
891.241	9759
891.364	9797
891.488	9873
891.611	9766
891.734	9766
891.857	9857
891.98	9778
892.103	9755
892.226	9743
892.349	9682
892.471	9534
892.594	9576
892.717	9557
892.839	9591
892.962	9644
893.085	9682
893.207	9622
893.33	9557
893.452	9504
893.575	9603
893.697	9534
893.819	9629
893.941	9618
894.064	9599
894.186	9466
894.308	9458
894.43	9572
894.552	9572
894.674	9549
894.796	9397
894.918	9469
895.04	9359
895.161	9443
895.283	9336
895.405	9253
895.526	9207
895.648	9249
895.769	9268
895.891	9310
896.012	9287
896.134	9249
896.255	9161
896.376	9131
896.498	9123
896.619	9203
896.74	9017
896.861	9097
896.982	9287
897.103	9329
897.224	9138
897.345	9066
897.466	9062
897.587	9066
897.708	9112
897.828	9051
897.949	8952
898.07	8872
898.19	8902
898.311	9047
898.431	8918
898.552	8925
898.672	9062
898.792	8906
898.913	8941
899.033	8724
899.153	8785
899.273	8636
899.393	8743
899.513	8758
899.633	8720
899.753	8739
899.873	8705
899.993	8731
900.113	8724
900.232	8712
900.352	8644
900.472	8594
900.591	8560
900.711	8568
900.83	8530
900.95	8663
901.069	8708
901.189	8625
901.308	8419
901.427	8423
901.546	8393
901.665	8457
901.784	8533
901.904	8358
902.023	8328
902.141	8153
902.26	8237
902.379	8309
902.498	8256
902.617	8237
902.735	8271
902.854	8267
902.973	8256
903.091	8157
903.21	8081
903.328	8199
903.446	8142
903.565	8111
903.683	8126
903.801	8054
903.919	8123
904.038	8119
904.156	8149
904.274	8161
904.392	8062
904.51	8039
904.627	8054
904.745	8088
904.863	8111
904.981	7955
905.098	7890
905.216	7883
905.334	7894
905.451	7875
905.569	7925
905.686	7887
905.803	7841
905.921	7784
906.038	7856
906.155	7814
906.272	7708
906.389	7750
906.506	7597
906.623	7609
906.74	7624
906.857	7552
906.974	7544
907.091	7677
907.208	7776
907.324	7624
907.441	7594
907.557	7468
907.674	7476
907.79	7411
907.907	7453
908.023	7464
908.139	7468
908.256	7369
908.372	7377
908.488	7369
908.604	7312
908.72	7221
908.836	7270
908.952	7259
909.068	7228
909.184	7384
909.3	7289
909.415	7274
909.531	7308
909.647	7095
909.762	7129
909.878	7126
909.993	7091
910.108	7110
910.224	7065
910.339	7099
910.454	7091
910.57	6966
910.685	6951
910.8	7206
910.915	7171
911.03	7027
911.145	6951
911.259	6913
911.374	6875
911.489	6814
911.604	6829
911.718	6688
911.833	6779
911.947	6654
912.062	6582
912.176	6711
912.291	6753
912.405	6703
912.519	6867
912.633	6852
912.748	6719
912.862	6688
912.976	6616
913.09	6578
913.204	6612
913.318	6585
913.431	6662
913.545	6677
913.659	6707
913.772	6681
913.886	6540
914	6551
914.113	6692
914.226	6654
914.34	6612
914.453	6490
914.566	6623
914.68	6528
914.793	6528
914.906	6426
915.019	6433
915.132	6384
915.245	6437
915.358	6433
915.47	6467
915.583	6441
915.696	6467
915.809	6547
915.921	6547
916.034	6384
916.146	6433
916.259	6380
916.371	6536
916.483	6452
916.595	6422
916.708	6426
916.82	6433
916.932	6403
917.044	6365
917.156	6353
917.268	6380
917.38	6395
917.491	6372
917.603	6403
917.715	6395
917.826	6483
917.938	6304
918.049	6213
918.161	6399
918.272	6464
918.384	6486
918.495	6331
918.606	6228
918.717	6220
918.828	6277
918.939	6289
919.05	6190
919.161	6247
919.272	6144
919.383	6209
919.494	6228
919.604	6437
919.715	6327
919.826	6247
919.936	6239
920.047	6311
920.157	6292
920.267	6509
920.378	6331
920.488	6304
920.598	6418
920.708	6566
920.818	6460
920.928	6483
921.038	6597
921.148	6593
921.258	6308
921.368	6338
921.477	6197
921.587	6125
921.697	6098
921.806	6159
921.916	6098
922.025	5999
922.134	5946
922.244	5874
922.353	6045
922.462	5855
922.571	5844
922.68	5733
922.789	5638
922.898	5699
923.007	5630
923.116	5767
923.224	5718
923.333	5668
923.442	5570
923.55	5577
923.659	5581
923.767	5649
923.876	5585
923.984	5585
924.092	5570
924.201	5608
924.309	5516
924.417	5516
924.525	5505
924.633	5490
924.741	6155
924.849	5429
924.956	5474
925.064	5341
925.172	5303
925.279	5299
925.387	5368
925.494	5330
925.602	5436
925.709	5436
925.816	5284
925.924	5318
926.031	5360
926.138	5296
926.245	5341
926.352	5193
926.459	5341
926.566	5337
926.673	5235
926.779	5170
926.886	5128
926.993	5014
927.099	4980
927.206	5060
927.312	4946
927.419	5010
927.525	5003
927.631	5041
927.737	4877
927.843	4896
927.95	4793
928.056	4797
928.162	4850
928.267	4873
928.373	5341
928.479	4850
928.585	4706
928.69	4771
928.796	4774
928.901	4725
929.007	4618
929.112	4725
929.218	4618
929.323	4603
929.428	4580
929.533	4656
929.638	4523
929.743	4531
929.848	4565
929.953	4516
930.058	4428
930.163	4325
930.267	4363
930.372	4466
930.477	4348
930.581	4470
930.685	4390
930.79	4249
930.894	4253
930.998	4291
931.103	4405
931.207	4139
931.311	4086
931.415	4063
931.519	3964
931.623	3945
