Data from glass_V78500241_1794.txt Node
Date: Wed Sep 01 19:26:56 CST 2021
User: usil
Spectrometer: V785-0024
Trigger mode: 0
Integration Time (sec): 4.000000E-1
Scans to average: 1
Nonlinearity correction enabled: false
Boxcar width: 0
Storing dark spectrum: false
XAxis mode: Wavelengths
Number of Pixels in Spectrum: 1024
>>>>>Begin Spectral Data<<<<<
801.071	3705
801.214	3717
801.356	3747
801.499	3774
801.641	3743
801.783	3785
801.926	3850
802.068	3850
802.211	3884
802.353	3869
802.496	3835
802.638	3892
802.78	3915
802.923	3884
803.065	3907
803.208	3846
803.35	3899
803.492	3888
803.635	3888
803.777	3785
803.919	3831
804.061	4173
804.204	3956
804.346	3922
804.488	3926
804.63	4097
804.773	3941
804.915	4040
805.057	4139
805.199	4082
805.341	4074
805.483	4109
805.626	4154
805.768	4097
805.91	4192
806.052	4265
806.194	4158
806.336	4341
806.478	4211
806.62	4166
806.762	4196
806.904	4238
807.046	4325
807.188	4173
807.33	4162
807.472	4249
807.614	4177
807.756	4253
807.898	4207
808.04	4227
808.182	4306
808.324	4337
808.465	4322
808.607	4508
808.749	4451
808.891	4474
809.033	4538
809.174	4386
809.316	4257
809.458	4249
809.6	4143
809.741	4112
809.883	4093
810.025	4230
810.166	4204
810.308	4211
810.45	4207
810.591	4253
810.733	4295
810.875	4516
811.016	4839
811.158	5105
811.299	5303
811.441	5220
811.582	5060
811.724	4694
811.865	4459
812.007	4447
812.148	4405
812.29	4421
812.431	4421
812.573	4428
812.714	4375
812.855	4424
812.997	4436
813.138	4523
813.279	4405
813.421	4390
813.562	4383
813.703	4329
813.845	4295
813.986	4306
814.127	4257
814.268	4204
814.41	4261
814.551	4268
814.692	4333
814.833	4257
814.974	4295
815.115	4333
815.256	4306
815.397	4246
815.539	4299
815.68	4204
815.821	4223
815.962	4344
816.103	4268
816.244	4246
816.385	4227
816.526	4284
816.666	4223
816.807	4135
816.948	4177
817.089	4181
817.23	4124
817.371	4074
817.512	4055
817.653	4048
817.793	4082
817.934	4051
818.075	4074
818.216	4067
818.356	4093
818.497	4002
818.638	3907
818.778	3937
818.919	3888
819.06	3873
819.2	3911
819.341	3861
819.481	3857
819.622	3922
819.762	4013
819.903	3945
820.043	3835
820.184	3819
820.324	3800
820.465	3865
820.605	3892
820.746	3812
820.886	3766
821.026	3922
821.167	3880
821.307	3960
821.447	3934
821.588	3937
821.728	3930
821.868	3930
822.008	3861
822.149	3918
822.289	3873
822.429	3789
822.569	3755
822.709	3850
822.849	3701
822.99	3740
823.13	3766
823.27	3751
823.41	3720
823.55	3774
823.69	3713
823.83	3747
823.97	3671
824.11	3633
824.25	3610
824.389	3698
824.529	3698
824.669	3606
824.809	3724
824.949	3762
825.089	3766
825.228	3686
825.368	3564
825.508	3542
825.648	3557
825.787	3584
825.927	3641
826.067	3622
826.206	3682
826.346	3800
826.485	3793
826.625	3827
826.765	3960
826.904	3846
827.044	3625
827.183	3557
827.323	3454
827.462	3488
827.601	3393
827.741	3397
827.88	3466
828.02	3374
828.159	3450
828.298	3454
828.437	3485
828.577	3454
828.716	3595
828.855	3511
828.994	3378
829.134	3332
829.273	3428
829.412	3370
829.551	3340
829.69	3351
829.829	3412
829.968	3485
830.107	3416
830.246	3416
830.385	3359
830.524	3348
830.663	3253
830.802	3260
830.941	3180
831.08	3230
831.219	3249
831.357	3237
831.496	3386
831.635	3287
831.774	3161
831.913	3184
832.051	3112
832.19	3157
832.329	3203
832.467	3138
832.606	3085
832.744	3207
832.883	3165
833.022	3203
833.16	3253
833.299	3291
833.437	3348
833.576	3329
833.714	3386
833.852	3405
833.991	3473
834.129	3443
834.267	3462
834.406	3386
834.544	3374
834.682	3454
834.821	3397
834.959	3564
835.097	3405
835.235	3523
835.373	3485
835.511	3511
835.65	3462
835.788	3469
835.926	3393
836.064	3401
836.202	3435
836.34	3526
836.478	3564
836.615	3538
836.753	3553
836.891	3633
837.029	3637
837.167	3564
837.305	3584
837.443	3538
837.58	3469
837.718	3580
837.856	3587
837.993	3545
838.131	3614
838.269	3587
838.406	3587
838.544	3584
838.681	3473
838.819	3435
838.956	3386
839.094	3447
839.231	3431
839.369	3492
839.506	3785
839.643	3648
839.781	3477
839.918	3416
840.055	3545
840.193	3462
840.33	3538
840.467	3534
840.604	3587
840.742	3835
840.879	3584
841.016	3568
841.153	3603
841.29	3728
841.427	3705
841.564	3747
841.701	3751
841.838	3713
841.975	3675
842.112	3755
842.249	3641
842.385	3622
842.522	3819
842.659	3682
842.796	3648
842.933	3713
843.069	3717
843.206	3663
843.343	3842
843.479	3785
843.616	3778
843.752	3690
843.889	3682
844.025	3838
844.162	3694
844.298	3869
844.435	3789
844.571	3770
844.708	3956
844.844	3998
844.98	4002
845.117	3994
845.253	3964
845.389	3861
845.525	3949
845.661	3991
845.798	3907
845.934	3983
846.07	3956
846.206	4059
846.342	4116
846.478	4090
846.614	3991
846.75	3915
846.886	3941
847.022	4040
847.158	3998
847.294	4006
847.429	4017
847.565	4006
847.701	4238
847.837	3903
847.972	3857
848.108	3964
848.244	3979
848.379	3842
848.515	3808
848.65	3842
848.786	3873
848.921	3861
849.057	3922
849.192	4021
849.328	3899
849.463	3915
849.598	3861
849.734	3861
849.869	3842
850.004	3804
850.14	3823
850.275	3781
850.41	3766
850.545	3755
850.68	3816
850.815	3816
850.95	3751
851.085	3937
851.22	3865
851.355	3823
851.49	3831
851.625	3766
851.76	3816
851.895	3698
852.03	3743
852.165	3808
852.299	3835
852.434	3949
852.569	3850
852.703	3903
852.838	3972
852.973	3991
853.107	4006
853.242	3896
853.376	3876
853.511	3770
853.645	3842
853.78	3975
853.914	3869
854.048	3934
854.183	3873
854.317	3941
854.451	4078
854.585	3979
854.72	3926
854.854	4006
854.988	3918
855.122	3964
855.256	3945
855.39	4029
855.524	4128
855.658	4055
855.792	4101
855.926	4173
856.06	4135
856.194	4192
856.327	4124
856.461	4109
856.595	4135
856.729	4158
856.862	4280
856.996	4246
857.13	4310
857.263	4325
857.397	4367
857.53	4280
857.664	4356
857.797	4405
857.931	4390
858.064	4367
858.197	4462
858.331	4402
858.464	4367
858.597	4310
858.731	4428
858.864	4485
858.997	4481
859.13	4508
859.263	4558
859.396	4569
859.529	4523
859.662	4542
859.795	4504
859.928	4561
860.061	4675
860.194	4767
860.327	4645
860.46	4615
860.592	4691
860.725	4809
860.858	4725
860.99	4672
861.123	4649
861.256	4660
861.388	4801
861.521	5368
861.653	4698
861.786	4717
861.918	4752
862.05	4790
862.183	4824
862.315	4850
862.447	4980
862.58	4862
862.712	4778
862.844	4721
862.976	4885
863.108	4889
863.24	5273
863.372	4790
863.504	4934
863.636	4942
863.768	4957
863.9	4946
864.032	4904
864.164	4968
864.296	5052
864.428	5109
864.559	5128
864.691	5113
864.823	5132
864.954	5147
865.086	5094
865.217	5128
865.349	5071
865.48	5181
865.612	5193
865.743	5288
865.875	5162
866.006	5174
866.137	5254
866.269	5223
866.4	5265
866.531	5216
866.662	5216
866.793	5299
866.924	5239
867.055	5364
867.186	5345
867.317	5315
867.448	5337
867.579	5387
867.71	5410
867.841	5357
867.972	5429
868.103	5425
868.233	5467
868.364	5493
868.495	5524
868.625	5684
868.756	5809
868.886	5642
869.017	5718
869.147	5790
869.278	5878
869.408	5840
869.539	5836
869.669	5904
869.799	5923
869.929	5984
870.06	6015
870.19	6232
870.32	6186
870.45	6224
870.58	6399
870.71	6494
870.84	6483
870.97	6441
871.1	6426
871.23	6620
871.36	6772
871.489	6662
871.619	6696
871.749	6833
871.879	6859
872.008	6977
872.138	7019
872.267	7042
872.397	7042
872.526	7084
872.656	7107
872.785	7194
872.915	7396
873.044	7563
873.173	7594
873.303	7655
873.432	7765
873.561	7795
873.69	7925
873.819	7986
873.948	8229
874.077	8290
874.206	8343
874.335	8427
874.464	8636
874.593	8853
874.722	8899
874.851	9127
874.979	9173
875.108	9355
875.237	9511
875.365	9500
875.494	9652
875.623	9888
875.751	9895
875.88	9972
876.008	10124
876.136	10234
876.265	10459
876.393	10683
876.521	10763
876.65	10805
876.778	10858
876.906	10953
877.034	11022
877.162	11155
877.29	11155
877.418	11162
877.546	11337
877.674	11429
877.802	11406
877.93	11554
878.058	11490
878.185	11516
878.313	11627
878.441	11775
878.568	11714
878.696	11748
878.824	11855
878.951	12003
879.079	12045
879.206	12148
879.333	12068
879.461	11984
879.588	12072
879.715	12140
879.842	12220
879.97	11977
880.097	11855
880.224	11843
880.351	11870
880.478	11863
880.605	11923
880.732	11817
880.859	11961
880.986	11805
881.112	11828
881.239	11726
881.366	11672
881.493	11585
881.619	11585
881.746	11558
881.872	11524
881.999	11463
882.125	11448
882.252	11589
882.378	11589
882.505	11482
882.631	11376
882.757	11326
882.883	11261
883.01	11315
883.136	11204
883.262	11147
883.388	11105
883.514	11265
883.64	11174
883.766	11083
883.892	10942
884.018	11022
884.143	11052
884.269	11136
884.395	10824
884.52	10801
884.646	10797
884.772	10721
884.897	10596
885.023	10649
885.148	10828
885.274	10733
885.399	10786
885.524	10721
885.65	10645
885.775	10538
885.9	10478
886.025	10580
886.15	10592
886.275	10516
886.4	10447
886.525	10409
886.65	10417
886.775	10352
886.9	10588
887.025	10500
887.149	10356
887.274	10257
887.399	10200
887.523	10230
887.648	10131
887.773	10120
887.897	10287
888.021	10211
888.146	10169
888.27	10196
888.395	10261
888.519	10223
888.643	10185
888.767	10272
888.891	10082
889.015	10036
889.139	9949
889.263	10013
889.387	9994
889.511	10169
889.635	10029
889.759	9975
889.883	9998
890.006	10025
890.13	10082
890.254	9949
890.377	9991
890.501	9854
890.624	9876
890.748	9941
890.871	9755
890.995	9857
891.118	9709
891.241	9766
891.364	9736
891.488	9797
891.611	9759
891.734	9698
891.857	9686
891.98	9675
892.103	9770
892.226	9770
892.349	9698
892.471	9523
892.594	9576
892.717	9603
892.839	9671
892.962	9637
893.085	9679
893.207	9526
893.33	9557
893.452	9500
893.575	9584
893.697	9488
893.819	9637
893.941	9633
894.064	9519
894.186	9481
894.308	9412
894.43	9534
894.552	9606
894.674	9519
894.796	9416
894.918	9443
895.04	9302
895.161	9351
895.283	9321
895.405	9226
895.526	9249
895.648	9253
895.769	9279
895.891	9214
896.012	9218
896.134	9249
896.255	9138
896.376	9199
896.498	9150
896.619	9051
896.74	9104
896.861	9100
896.982	9207
897.103	9386
897.224	9135
897.345	9089
897.466	9089
897.587	8971
897.708	9013
897.828	9116
897.949	8929
898.07	8845
898.19	8929
898.311	8952
898.431	8883
898.552	8849
898.672	9062
898.792	8986
898.913	8857
899.033	8880
899.153	8712
899.273	8693
899.393	8678
899.513	8781
899.633	8750
899.753	8712
899.873	8708
899.993	8708
900.113	8746
900.232	8655
900.352	8693
900.472	8598
900.591	8495
900.711	8632
900.83	8617
900.95	8613
901.069	8720
901.189	8571
901.308	8454
901.427	8423
901.546	8423
901.665	8469
901.784	8488
901.904	8377
902.023	8298
902.141	8275
902.26	8259
902.379	8233
902.498	8161
902.617	8191
902.735	8301
902.854	8267
902.973	8279
903.091	8142
903.21	8168
903.328	8138
903.446	8115
903.565	8100
903.683	8115
903.801	8062
903.919	8103
904.038	8180
904.156	8043
904.274	8092
904.392	8077
904.51	8039
904.627	8031
904.745	8115
904.863	8065
904.981	7978
905.098	7875
905.216	7913
905.334	7860
905.451	7856
905.569	7887
905.686	7898
905.803	7921
905.921	7803
906.038	7841
906.155	7837
906.272	7753
906.389	7719
906.506	7647
906.623	7647
906.74	7643
906.857	7578
906.974	7563
907.091	7601
907.208	7693
907.324	7647
907.441	7483
907.557	7476
907.674	7457
907.79	7373
907.907	7411
908.023	7396
908.139	7415
908.256	7388
908.372	7327
908.488	7278
908.604	7278
908.72	7270
908.836	7297
908.952	7266
909.068	7255
909.184	7339
909.3	7282
909.415	7206
909.531	7244
909.647	7107
909.762	7107
909.878	7091
909.993	7137
910.108	7118
910.224	7050
910.339	7118
910.454	7042
910.57	7050
910.685	7004
910.8	7114
910.915	7046
911.03	7046
911.145	6878
911.259	6875
911.374	6882
911.489	6795
911.604	6798
911.718	6692
911.833	6764
911.947	6692
912.062	6566
912.176	6696
912.291	6741
912.405	6700
912.519	6787
912.633	6806
912.748	6707
912.862	6722
912.976	6658
913.09	6555
913.204	6589
913.318	6631
913.431	6688
913.545	6669
913.659	6719
913.772	6684
913.886	6593
914	6532
914.113	6616
914.226	6635
914.34	6555
914.453	6502
914.566	6612
914.68	6555
914.793	6521
914.906	6410
915.019	6391
915.132	6365
915.245	6414
915.358	6467
915.47	6426
915.583	6441
915.696	6464
915.809	6563
915.921	6559
916.034	6429
916.146	6350
916.259	6414
916.371	6460
916.483	6437
916.595	6437
916.708	6433
916.82	6460
916.932	6422
917.044	6445
917.156	6418
917.268	6350
917.38	6357
917.491	6334
917.603	6376
917.715	6372
917.826	6452
917.938	6319
918.049	6243
918.161	6331
918.272	6414
918.384	6391
918.495	6445
918.606	6209
918.717	6258
918.828	6243
918.939	6292
919.05	6220
919.161	6251
919.272	6087
919.383	6121
919.494	6243
919.604	6399
919.715	6315
919.826	6235
919.936	6281
920.047	6372
920.157	6277
920.267	6407
920.378	6292
920.488	6270
920.598	6464
920.708	6547
920.818	6414
920.928	6448
921.038	6585
921.148	6532
921.258	6346
921.368	6285
921.477	6197
921.587	6152
921.697	6079
921.806	6186
921.916	6098
922.025	5931
922.134	5927
922.244	5920
922.353	5954
922.462	5855
922.571	5786
922.68	5695
922.789	5684
922.898	5695
923.007	5653
923.116	5684
923.224	5737
923.333	5657
923.442	5657
923.55	5558
923.659	5642
923.767	5634
923.876	5558
923.984	5596
924.092	5509
924.201	5532
924.309	5539
924.417	5547
924.525	5455
924.633	5482
924.741	6315
924.849	5364
924.956	5509
925.064	5368
925.172	5318
925.279	5334
925.387	5368
925.494	5349
925.602	5429
925.709	5395
925.816	5330
925.924	5334
926.031	5372
926.138	5330
926.245	5273
926.352	5181
926.459	5311
926.566	5341
926.673	5166
926.779	5136
926.886	5170
926.993	5006
927.099	5010
927.206	5003
927.312	4942
927.419	5003
927.525	4991
927.631	4949
927.737	4881
927.843	4870
927.95	4763
928.056	4809
928.162	4771
928.267	4873
928.373	5345
928.479	4843
928.585	4698
928.69	4767
928.796	4774
928.901	4626
929.007	4588
929.112	4702
929.218	4618
929.323	4592
929.428	4592
929.533	4603
929.638	4519
929.743	4599
929.848	4584
929.953	4485
930.058	4459
930.163	4325
930.267	4333
930.372	4466
930.477	4310
930.581	4459
930.685	4386
930.79	4299
930.894	4268
930.998	4287
931.103	4333
931.207	4086
931.311	4090
931.415	4067
931.519	3949
931.623	3941
