Data from glass_V78500241_2816.txt Node
Date: Wed Sep 01 19:34:01 CST 2021
User: usil
Spectrometer: V785-0024
Trigger mode: 0
Integration Time (sec): 4.000000E-1
Scans to average: 1
Nonlinearity correction enabled: false
Boxcar width: 0
Storing dark spectrum: false
XAxis mode: Wavelengths
Number of Pixels in Spectrum: 1024
>>>>>Begin Spectral Data<<<<<
801.071	3694
801.214	3747
801.356	3713
801.499	3736
801.641	3686
801.783	3781
801.926	3842
802.068	3838
802.211	3804
802.353	3861
802.496	3797
802.638	3842
802.78	3903
802.923	3896
803.065	3873
803.208	3838
803.35	3842
803.492	3873
803.635	3937
803.777	3770
803.919	3838
804.061	4105
804.204	3960
804.346	3903
804.488	3934
804.63	4025
804.773	3972
804.915	3994
805.057	4120
805.199	4006
805.341	4071
805.483	4112
805.626	4093
805.768	4112
805.91	4223
806.052	4154
806.194	4188
806.336	4325
806.478	4185
806.62	4169
806.762	4173
806.904	4238
807.046	4318
807.188	4196
807.33	4147
807.472	4246
807.614	4169
807.756	4242
807.898	4219
808.04	4207
808.182	4257
808.324	4272
808.465	4348
808.607	4470
808.749	4413
808.891	4481
809.033	4451
809.174	4352
809.316	4253
809.458	4234
809.6	4169
809.741	4116
809.883	4067
810.025	4196
810.166	4192
810.308	4207
810.45	4253
810.591	4207
810.733	4287
810.875	4493
811.016	4850
811.158	5067
811.299	5242
811.441	5258
811.582	5045
811.724	4683
811.865	4436
812.007	4432
812.148	4421
812.29	4333
812.431	4390
812.573	4398
812.714	4386
812.855	4405
812.997	4383
813.138	4443
813.279	4367
813.421	4329
813.562	4360
813.703	4310
813.845	4318
813.986	4284
814.127	4204
814.268	4238
814.41	4207
814.551	4204
814.692	4272
814.833	4219
814.974	4265
815.115	4325
815.256	4249
815.397	4188
815.539	4249
815.68	4207
815.821	4192
815.962	4280
816.103	4284
816.244	4227
816.385	4215
816.526	4223
816.666	4173
816.807	4097
816.948	4169
817.089	4169
817.23	4074
817.371	4021
817.512	4048
817.653	4002
817.793	3994
817.934	4013
818.075	4051
818.216	4051
818.356	4059
818.497	3960
818.638	3915
818.778	3865
818.919	3850
819.06	3835
819.2	3876
819.341	3854
819.481	3838
819.622	3896
819.762	4029
819.903	3953
820.043	3835
820.184	3797
820.324	3789
820.465	3865
820.605	3850
820.746	3854
820.886	3751
821.026	3918
821.167	3850
821.307	3968
821.447	3998
821.588	3953
821.728	3941
821.868	3896
822.008	3827
822.149	3876
822.289	3907
822.429	3778
822.569	3736
822.709	3789
822.849	3720
822.99	3694
823.13	3724
823.27	3759
823.41	3656
823.55	3728
823.69	3663
823.83	3740
823.97	3648
824.11	3622
824.25	3564
824.389	3641
824.529	3622
824.669	3557
824.809	3663
824.949	3713
825.089	3694
825.228	3686
825.368	3561
825.508	3542
825.648	3549
825.787	3568
825.927	3610
826.067	3591
826.206	3648
826.346	3759
826.485	3778
826.625	3823
826.765	3930
826.904	3789
827.044	3599
827.183	3542
827.323	3409
827.462	3504
827.601	3458
827.741	3382
827.88	3431
828.02	3359
828.159	3439
828.298	3462
828.437	3515
828.577	3431
828.716	3561
828.855	3488
828.994	3374
829.134	3367
829.273	3367
829.412	3310
829.551	3393
829.69	3306
829.829	3416
829.968	3504
830.107	3412
830.246	3420
830.385	3359
830.524	3348
830.663	3264
830.802	3249
830.941	3211
831.08	3173
831.219	3287
831.357	3260
831.496	3386
831.635	3195
831.774	3211
831.913	3188
832.051	3123
832.19	3135
832.329	3203
832.467	3138
832.606	3085
832.744	3211
832.883	3188
833.022	3218
833.16	3226
833.299	3249
833.437	3306
833.576	3367
833.714	3409
833.852	3439
833.991	3431
834.129	3473
834.267	3428
834.406	3412
834.544	3412
834.682	3431
834.821	3428
834.959	3584
835.097	3401
835.235	3534
835.373	3458
835.511	3466
835.65	3469
835.788	3485
835.926	3393
836.064	3393
836.202	3363
836.34	3523
836.478	3553
836.615	3523
836.753	3595
836.891	3576
837.029	3587
837.167	3591
837.305	3530
837.443	3496
837.58	3530
837.718	3561
837.856	3515
837.993	3496
838.131	3561
838.269	3587
838.406	3564
838.544	3534
838.681	3481
838.819	3439
838.956	3344
839.094	3359
839.231	3450
839.369	3481
839.506	3690
839.643	3633
839.781	3492
839.918	3458
840.055	3500
840.193	3515
840.33	3481
840.467	3523
840.604	3599
840.742	3751
840.879	3526
841.016	3557
841.153	3561
841.29	3728
841.427	3728
841.564	3679
841.701	3717
841.838	3701
841.975	3648
842.112	3698
842.249	3641
842.385	3644
842.522	3785
842.659	3667
842.796	3644
842.933	3713
843.069	3675
843.206	3656
843.343	3751
843.479	3740
843.616	3812
843.752	3641
843.889	3656
844.025	3804
844.162	3705
844.298	3789
844.435	3774
844.571	3755
844.708	3899
844.844	3983
844.98	3972
845.117	3998
845.253	3892
845.389	3907
845.525	3945
845.661	3926
845.798	3884
845.934	3949
846.07	3918
846.206	3998
846.342	4093
846.478	4048
846.614	3964
846.75	3937
846.886	3930
847.022	3972
847.158	3979
847.294	3991
847.429	3930
847.565	3975
847.701	4211
847.837	3892
847.972	3819
848.108	3953
848.244	3956
848.379	3899
848.515	3838
848.65	3804
848.786	3819
848.921	3838
849.057	3926
849.192	3937
849.328	3861
849.463	3842
849.598	3861
849.734	3808
849.869	3804
850.004	3774
850.14	3816
850.275	3747
850.41	3774
850.545	3713
850.68	3762
850.815	3785
850.95	3774
851.085	3915
851.22	3861
851.355	3804
851.49	3823
851.625	3793
851.76	3751
851.895	3705
852.03	3766
852.165	3759
852.299	3835
852.434	3869
852.569	3846
852.703	3842
852.838	3880
852.973	3972
853.107	3953
853.242	3869
853.376	3812
853.511	3770
853.645	3800
853.78	3934
853.914	3861
854.048	3823
854.183	3899
854.317	3918
854.451	4036
854.585	3922
854.72	3926
854.854	4032
854.988	3907
855.122	3968
855.256	3888
855.39	3991
855.524	4082
855.658	4055
855.792	4040
855.926	4116
856.06	4109
856.194	4173
856.327	4128
856.461	4135
856.595	4139
856.729	4177
856.862	4227
856.996	4246
857.13	4268
857.263	4341
857.397	4333
857.53	4268
857.664	4314
857.797	4386
857.931	4379
858.064	4329
858.197	4424
858.331	4432
858.464	4379
858.597	4295
858.731	4409
858.864	4428
858.997	4466
859.13	4489
859.263	4481
859.396	4558
859.529	4527
859.662	4504
859.795	4504
859.928	4603
860.061	4641
860.194	4774
860.327	4641
860.46	4634
860.592	4717
860.725	4790
860.858	4725
860.99	4656
861.123	4683
861.256	4672
861.388	4740
861.521	5265
861.653	4714
861.786	4721
861.918	4748
862.05	4759
862.183	4816
862.315	4828
862.447	4919
862.58	4854
862.712	4771
862.844	4774
862.976	4900
863.108	4889
863.24	5151
863.372	4809
863.504	4873
863.636	4858
863.768	4946
863.9	4946
864.032	4866
864.164	4915
864.296	4991
864.428	5098
864.559	5117
864.691	5166
864.823	5155
864.954	5140
865.086	5166
865.217	5109
865.349	5060
865.48	5162
865.612	5162
865.743	5273
865.875	5189
866.006	5166
866.137	5193
866.269	5223
866.4	5277
866.531	5246
866.662	5208
866.793	5250
866.924	5250
867.055	5250
867.186	5318
867.317	5296
867.448	5341
867.579	5277
867.71	5383
867.841	5414
867.972	5436
868.103	5421
868.233	5452
868.364	5417
868.495	5562
868.625	5668
868.756	5729
868.886	5638
869.017	5707
869.147	5794
869.278	5805
869.408	5764
869.539	5821
869.669	5882
869.799	5878
869.929	5969
870.06	6057
870.19	6171
870.32	6129
870.45	6266
870.58	6338
870.71	6433
870.84	6494
870.97	6414
871.1	6422
871.23	6597
871.36	6662
871.489	6692
871.619	6738
871.749	6837
871.879	6852
872.008	6981
872.138	6985
872.267	7008
872.397	6928
872.526	7057
872.656	7122
872.785	7149
872.915	7316
873.044	7434
873.173	7586
873.303	7605
873.432	7723
873.561	7837
873.69	7898
873.819	8012
873.948	8183
874.077	8214
874.206	8309
874.335	8431
874.464	8651
874.593	8864
874.722	8876
874.851	9116
874.979	9188
875.108	9401
875.237	9389
875.365	9435
875.494	9622
875.623	9804
875.751	9892
875.88	9991
876.008	10219
876.136	10299
876.265	10542
876.393	10618
876.521	10675
876.65	10816
876.778	10854
876.906	10889
877.034	10987
877.162	11090
877.29	11109
877.418	11315
877.546	11292
877.674	11326
877.802	11444
877.93	11539
878.058	11581
878.185	11535
878.313	11634
878.441	11714
878.568	11627
878.696	11794
878.824	11859
878.951	11931
879.079	12022
879.206	12098
879.333	12007
879.461	11965
879.588	12049
879.715	12022
879.842	12235
879.97	12129
880.097	11836
880.224	11832
880.351	11866
880.478	11885
880.605	11813
880.732	11783
880.859	11942
880.986	11847
881.112	11805
881.239	11752
881.366	11638
881.493	11592
881.619	11474
881.746	11558
881.872	11486
881.999	11535
882.125	11440
882.252	11490
882.378	11505
882.505	11570
882.631	11353
882.757	11341
882.883	11353
883.01	11201
883.136	11132
883.262	11189
883.388	11090
883.514	11113
883.64	11216
883.766	11124
883.892	10980
884.018	11006
884.143	11056
884.269	11090
884.395	10812
884.52	10771
884.646	10729
884.772	10710
884.897	10675
885.023	10714
885.148	10656
885.274	10679
885.399	10645
885.524	10542
885.65	10634
885.775	10592
885.9	10580
886.025	10531
886.15	10588
886.275	10462
886.4	10417
886.525	10337
886.65	10295
886.775	10325
886.9	10466
887.025	10447
887.149	10367
887.274	10185
887.399	10116
887.523	10139
887.648	10131
887.773	10097
887.897	10249
888.021	10196
888.146	10135
888.27	10169
888.395	10219
888.519	10200
888.643	10093
888.767	10185
888.891	10090
889.015	9994
889.139	10029
889.263	9915
889.387	10010
889.511	10120
889.635	10124
889.759	9945
889.883	9994
890.006	9975
890.13	10093
890.254	9903
890.377	9926
890.501	9835
890.624	9842
890.748	9926
890.871	9823
890.995	9720
891.118	9717
891.241	9720
891.364	9709
891.488	9736
891.611	9797
891.734	9762
891.857	9759
891.98	9679
892.103	9747
892.226	9682
892.349	9724
892.471	9466
892.594	9606
892.717	9629
892.839	9572
892.962	9648
893.085	9637
893.207	9568
893.33	9473
893.452	9477
893.575	9500
893.697	9492
893.819	9606
893.941	9656
894.064	9564
894.186	9359
894.308	9401
894.43	9523
894.552	9576
894.674	9538
894.796	9374
894.918	9386
895.04	9348
895.161	9370
895.283	9367
895.405	9211
895.526	9188
895.648	9237
895.769	9260
895.891	9249
896.012	9199
896.134	9188
896.255	9211
896.376	9135
896.498	9161
896.619	9119
896.74	9097
896.861	9070
896.982	9207
897.103	9340
897.224	9123
897.345	9051
897.466	8986
897.587	8967
897.708	9100
897.828	9032
897.949	8933
898.07	8842
898.19	8902
898.311	8971
898.431	8880
898.552	8872
898.672	8948
898.792	8944
898.913	8891
899.033	8842
899.153	8800
899.273	8636
899.393	8743
899.513	8746
899.633	8708
899.753	8739
899.873	8617
899.993	8705
900.113	8712
900.232	8655
900.352	8640
900.472	8594
900.591	8507
900.711	8613
900.83	8499
900.95	8606
901.069	8670
901.189	8549
901.308	8457
901.427	8374
901.546	8415
901.665	8442
901.784	8522
901.904	8347
902.023	8393
902.141	8267
902.26	8202
902.379	8259
902.498	8199
902.617	8221
902.735	8290
902.854	8282
902.973	8225
903.091	8073
903.21	8073
903.328	8187
903.446	8103
903.565	8103
903.683	8115
903.801	8008
903.919	8126
904.038	8069
904.156	8046
904.274	8054
904.392	8050
904.51	8046
904.627	8005
904.745	8020
904.863	8123
904.981	7902
905.098	7822
905.216	7887
905.334	7864
905.451	7879
905.569	7879
905.686	7936
905.803	7913
905.921	7864
906.038	7837
906.155	7761
906.272	7719
906.389	7723
906.506	7651
906.623	7544
906.74	7605
906.857	7609
906.974	7529
907.091	7658
907.208	7674
907.324	7594
907.441	7510
907.557	7411
907.674	7407
907.79	7350
907.907	7369
908.023	7377
908.139	7335
908.256	7441
908.372	7362
908.488	7324
908.604	7251
908.72	7164
908.836	7282
908.952	7209
909.068	7225
909.184	7270
909.3	7183
909.415	7312
909.531	7282
909.647	7118
909.762	7080
909.878	7042
909.993	7133
910.108	6989
910.224	7065
910.339	7072
910.454	7057
910.57	6989
910.685	6947
910.8	7061
910.915	7080
911.03	6973
911.145	6913
911.259	6852
911.374	6897
911.489	6810
911.604	6749
911.718	6635
911.833	6730
911.947	6639
912.062	6536
912.176	6734
912.291	6688
912.405	6665
912.519	6802
912.633	6821
912.748	6696
912.862	6715
912.976	6589
913.09	6547
913.204	6547
913.318	6635
913.431	6620
913.545	6677
913.659	6654
913.772	6646
913.886	6582
914	6559
914.113	6620
914.226	6631
914.34	6578
914.453	6517
914.566	6608
914.68	6464
914.793	6528
914.906	6414
915.019	6395
915.132	6338
915.245	6414
915.358	6429
915.47	6380
915.583	6452
915.696	6433
915.809	6494
915.921	6464
916.034	6391
916.146	6433
916.259	6350
916.371	6410
916.483	6399
916.595	6399
916.708	6384
916.82	6372
916.932	6357
917.044	6361
917.156	6388
917.268	6346
917.38	6311
917.491	6311
917.603	6376
917.715	6395
917.826	6353
917.938	6353
918.049	6251
918.161	6277
918.272	6410
918.384	6418
918.495	6270
918.606	6273
918.717	6224
918.828	6308
918.939	6258
919.05	6239
919.161	6232
919.272	6087
919.383	6110
919.494	6262
919.604	6388
919.715	6216
919.826	6148
919.936	6266
920.047	6262
920.157	6247
920.267	6410
920.378	6323
920.488	6209
920.598	6441
920.708	6551
920.818	6464
920.928	6441
921.038	6547
921.148	6570
921.258	6319
921.368	6228
921.477	6209
921.587	6129
921.697	6079
921.806	6213
921.916	6019
922.025	5923
922.134	5893
922.244	5844
922.353	5927
922.462	5821
922.571	5790
922.68	5646
922.789	5634
922.898	5691
923.007	5585
923.116	5688
923.224	5695
923.333	5642
923.442	5604
923.55	5570
923.659	5581
923.767	5596
923.876	5562
923.984	5611
924.092	5501
924.201	5539
924.309	5516
924.417	5547
924.525	5505
924.633	5490
924.741	6258
924.849	5368
924.956	5490
925.064	5368
925.172	5277
925.279	5284
925.387	5353
925.494	5292
925.602	5448
925.709	5364
925.816	5284
925.924	5288
926.031	5353
926.138	5277
926.245	5307
926.352	5235
926.459	5265
926.566	5250
926.673	5166
926.779	5117
926.886	5155
926.993	5037
927.099	5056
927.206	4980
927.312	4961
927.419	4972
927.525	4938
927.631	5041
927.737	4847
927.843	4850
927.95	4831
928.056	4831
928.162	4812
928.267	4816
928.373	5284
928.479	4828
928.585	4649
928.69	4771
928.796	4763
928.901	4656
929.007	4569
929.112	4698
929.218	4607
929.323	4584
929.428	4535
929.533	4649
929.638	4451
929.743	4493
929.848	4584
929.953	4546
930.058	4394
930.163	4318
930.267	4318
930.372	4424
930.477	4295
930.581	4436
930.685	4344
930.79	4287
930.894	4246
930.998	4242
931.103	4375
931.207	4086
931.311	4086
931.415	4017
931.519	3926
931.623	3930
