Data from glass_V78500241_2535.txt Node
Date: Wed Sep 01 19:32:04 CST 2021
User: usil
Spectrometer: V785-0024
Trigger mode: 0
Integration Time (sec): 4.000000E-1
Scans to average: 1
Nonlinearity correction enabled: false
Boxcar width: 0
Storing dark spectrum: false
XAxis mode: Wavelengths
Number of Pixels in Spectrum: 1024
>>>>>Begin Spectral Data<<<<<
801.071	3736
801.214	3781
801.356	3732
801.499	3740
801.641	3724
801.783	3732
801.926	3812
802.068	3812
802.211	3827
802.353	3922
802.496	3819
802.638	3823
802.78	3911
802.923	3915
803.065	3896
803.208	3857
803.35	3880
803.492	3915
803.635	3884
803.777	3819
803.919	3907
804.061	4166
804.204	3934
804.346	3968
804.488	3869
804.63	3994
804.773	3994
804.915	4010
805.057	4112
805.199	3987
805.341	4090
805.483	4124
805.626	4071
805.768	4063
805.91	4219
806.052	4219
806.194	4215
806.336	4348
806.478	4181
806.62	4166
806.762	4196
806.904	4299
807.046	4303
807.188	4230
807.33	4158
807.472	4192
807.614	4192
807.756	4284
807.898	4154
808.04	4192
808.182	4234
808.324	4314
808.465	4390
808.607	4466
808.749	4417
808.891	4455
809.033	4516
809.174	4383
809.316	4230
809.458	4223
809.6	4150
809.741	4128
809.883	4112
810.025	4204
810.166	4249
810.308	4223
810.45	4261
810.591	4223
810.733	4284
810.875	4527
811.016	4778
811.158	5083
811.299	5220
811.441	5330
811.582	5067
811.724	4725
811.865	4489
812.007	4489
812.148	4398
812.29	4443
812.431	4424
812.573	4394
812.714	4360
812.855	4405
812.997	4402
813.138	4481
813.279	4443
813.421	4398
813.562	4337
813.703	4284
813.845	4306
813.986	4207
814.127	4227
814.268	4253
814.41	4257
814.551	4249
814.692	4287
814.833	4265
814.974	4291
815.115	4291
815.256	4276
815.397	4223
815.539	4261
815.68	4200
815.821	4154
815.962	4299
816.103	4284
816.244	4234
816.385	4207
816.526	4276
816.666	4185
816.807	4086
816.948	4188
817.089	4135
817.23	4093
817.371	4029
817.512	4006
817.653	4078
817.793	4021
817.934	3994
818.075	4048
818.216	4093
818.356	4086
818.497	4013
818.638	3934
818.778	3937
818.919	3876
819.06	3808
819.2	3876
819.341	3873
819.481	3816
819.622	3930
819.762	4013
819.903	3941
820.043	3857
820.184	3884
820.324	3755
820.465	3892
820.605	3888
820.746	3838
820.886	3823
821.026	3903
821.167	3876
821.307	3998
821.447	3960
821.588	3972
821.728	3945
821.868	3941
822.008	3873
822.149	3922
822.289	3892
822.429	3740
822.569	3762
822.709	3793
822.849	3690
822.99	3671
823.13	3705
823.27	3774
823.41	3694
823.55	3755
823.69	3705
823.83	3717
823.97	3667
824.11	3633
824.25	3591
824.389	3641
824.529	3675
824.669	3637
824.809	3732
824.949	3728
825.089	3705
825.228	3717
825.368	3591
825.508	3507
825.648	3545
825.787	3614
825.927	3595
826.067	3614
826.206	3652
826.346	3762
826.485	3778
826.625	3823
826.765	3896
826.904	3861
827.044	3572
827.183	3534
827.323	3416
827.462	3496
827.601	3447
827.741	3428
827.88	3447
828.02	3367
828.159	3450
828.298	3450
828.437	3496
828.577	3439
828.716	3603
828.855	3488
828.994	3351
829.134	3431
829.273	3382
829.412	3332
829.551	3317
829.69	3340
829.829	3439
829.968	3469
830.107	3397
830.246	3447
830.385	3397
830.524	3340
830.663	3291
830.802	3237
830.941	3169
831.08	3203
831.219	3268
831.357	3253
831.496	3374
831.635	3222
831.774	3192
831.913	3184
832.051	3100
832.19	3142
832.329	3199
832.467	3165
832.606	3085
832.744	3192
832.883	3222
833.022	3173
833.16	3211
833.299	3298
833.437	3332
833.576	3393
833.714	3336
833.852	3416
833.991	3431
834.129	3454
834.267	3370
834.406	3389
834.544	3405
834.682	3393
834.821	3431
834.959	3572
835.097	3393
835.235	3534
835.373	3466
835.511	3473
835.65	3454
835.788	3469
835.926	3397
836.064	3370
836.202	3409
836.34	3549
836.478	3595
836.615	3568
836.753	3576
836.891	3622
837.029	3606
837.167	3591
837.305	3591
837.443	3545
837.58	3477
837.718	3610
837.856	3561
837.993	3538
838.131	3564
838.269	3553
838.406	3557
838.544	3557
838.681	3496
838.819	3424
838.956	3367
839.094	3367
839.231	3370
839.369	3466
839.506	3686
839.643	3584
839.781	3466
839.918	3492
840.055	3519
840.193	3542
840.33	3500
840.467	3504
840.604	3542
840.742	3797
840.879	3545
841.016	3564
841.153	3564
841.29	3770
841.427	3694
841.564	3720
841.701	3747
841.838	3679
841.975	3686
842.112	3724
842.249	3694
842.385	3606
842.522	3838
842.659	3648
842.796	3637
842.933	3709
843.069	3720
843.206	3679
843.343	3865
843.479	3762
843.616	3808
843.752	3694
843.889	3660
844.025	3800
844.162	3686
844.298	3816
844.435	3774
844.571	3770
844.708	3865
844.844	3979
844.98	3987
845.117	4010
845.253	3953
845.389	3835
845.525	3937
845.661	3949
845.798	3896
845.934	4006
846.07	3964
846.206	4029
846.342	4116
846.478	4010
846.614	3960
846.75	3911
846.886	3880
847.022	4063
847.158	4002
847.294	4040
847.429	3998
847.565	3968
847.701	4238
847.837	3842
847.972	3876
848.108	3922
848.244	3994
848.379	3857
848.515	3819
848.65	3835
848.786	3835
848.921	3857
849.057	3876
849.192	3907
849.328	3903
849.463	3876
849.598	3915
849.734	3857
849.869	3838
850.004	3762
850.14	3804
850.275	3778
850.41	3724
850.545	3720
850.68	3804
850.815	3778
850.95	3778
851.085	3922
851.22	3892
851.355	3816
851.49	3774
851.625	3797
851.76	3766
851.895	3698
852.03	3736
852.165	3789
852.299	3838
852.434	3899
852.569	3835
852.703	3892
852.838	3960
852.973	4002
853.107	4010
853.242	3854
853.376	3873
853.511	3766
853.645	3816
853.78	3945
853.914	3880
854.048	3892
854.183	3861
854.317	3994
854.451	4032
854.585	3964
854.72	3926
854.854	4010
854.988	3964
855.122	3991
855.256	3888
855.39	4013
855.524	4120
855.658	4101
855.792	4112
855.926	4120
856.06	4150
856.194	4158
856.327	4105
856.461	4131
856.595	4109
856.729	4166
856.862	4268
856.996	4185
857.13	4272
857.263	4337
857.397	4322
857.53	4287
857.664	4348
857.797	4405
857.931	4428
858.064	4417
858.197	4405
858.331	4398
858.464	4371
858.597	4341
858.731	4402
858.864	4409
858.997	4440
859.13	4470
859.263	4497
859.396	4519
859.529	4550
859.662	4523
859.795	4519
859.928	4558
860.061	4687
860.194	4717
860.327	4653
860.46	4672
860.592	4683
860.725	4763
860.858	4793
860.99	4733
861.123	4687
861.256	4649
861.388	4767
861.521	5421
861.653	4740
861.786	4706
861.918	4744
862.05	4759
862.183	4828
862.315	4862
862.447	4923
862.58	4892
862.712	4778
862.844	4725
862.976	4870
863.108	4885
863.24	5174
863.372	4843
863.504	4854
863.636	4923
863.768	4980
863.9	5006
864.032	4923
864.164	4957
864.296	5045
864.428	5124
864.559	5075
864.691	5117
864.823	5075
864.954	5052
865.086	5128
865.217	5060
865.349	5155
865.48	5159
865.612	5189
865.743	5254
865.875	5159
866.006	5189
866.137	5284
866.269	5239
866.4	5235
866.531	5212
866.662	5242
866.793	5284
866.924	5220
867.055	5353
867.186	5322
867.317	5326
867.448	5258
867.579	5379
867.71	5379
867.841	5353
867.972	5417
868.103	5421
868.233	5448
868.364	5520
868.495	5543
868.625	5657
868.756	5771
868.886	5653
869.017	5726
869.147	5901
869.278	5832
869.408	5805
869.539	5783
869.669	5950
869.799	5866
869.929	5939
870.06	5958
870.19	6224
870.32	6155
870.45	6251
870.58	6273
870.71	6365
870.84	6445
870.97	6380
871.1	6490
871.23	6654
871.36	6688
871.489	6593
871.619	6745
871.749	6738
871.879	6875
872.008	6985
872.138	6958
872.267	6989
872.397	6939
872.526	6993
872.656	7050
872.785	7190
872.915	7392
873.044	7487
873.173	7567
873.303	7571
873.432	7776
873.561	7837
873.69	7925
873.819	8035
873.948	8134
874.077	8199
874.206	8301
874.335	8347
874.464	8621
874.593	8838
874.722	8914
874.851	9119
874.979	9260
875.108	9374
875.237	9393
875.365	9477
875.494	9580
875.623	9838
875.751	9850
875.88	9922
876.008	10074
876.136	10211
876.265	10561
876.393	10717
876.521	10683
876.65	10835
876.778	10873
876.906	10896
877.034	11025
877.162	11136
877.29	11159
877.418	11356
877.546	11376
877.674	11467
877.802	11505
877.93	11452
878.058	11478
878.185	11596
878.313	11592
878.441	11699
878.568	11668
878.696	11752
878.824	11882
878.951	11927
879.079	11999
879.206	12087
879.333	11980
879.461	11931
879.588	12194
879.715	12079
879.842	12106
879.97	12110
880.097	11935
880.224	11889
880.351	11935
880.478	11824
880.605	11798
880.732	11790
880.859	11992
880.986	11821
881.112	11847
881.239	11691
881.366	11627
881.493	11585
881.619	11539
881.746	11570
881.872	11547
881.999	11455
882.125	11566
882.252	11501
882.378	11497
882.505	11573
882.631	11398
882.757	11284
882.883	11395
883.01	11231
883.136	11197
883.262	11075
883.388	11086
883.514	11132
883.64	11189
883.766	11143
883.892	11060
884.018	10984
884.143	11052
884.269	11128
884.395	10824
884.52	10797
884.646	10733
884.772	10702
884.897	10664
885.023	10660
885.148	10736
885.274	10755
885.399	10721
885.524	10649
885.65	10607
885.775	10675
885.9	10622
886.025	10554
886.15	10599
886.275	10455
886.4	10329
886.525	10360
886.65	10402
886.775	10341
886.9	10493
887.025	10588
887.149	10405
887.274	10257
887.399	10249
887.523	10211
887.648	10135
887.773	9987
887.897	10310
888.021	10173
888.146	10150
888.27	10181
888.395	10223
888.519	10207
888.643	10154
888.767	10234
888.891	10051
889.015	9979
889.139	9998
889.263	10032
889.387	10025
889.511	10093
889.635	10006
889.759	9960
889.883	9911
890.006	9953
890.13	10078
890.254	10021
890.377	9934
890.501	9823
890.624	9842
890.748	9895
890.871	9797
890.995	9740
891.118	9766
891.241	9736
891.364	9736
891.488	9812
891.611	9743
891.734	9770
891.857	9728
891.98	9584
892.103	9789
892.226	9675
892.349	9644
892.471	9549
892.594	9660
892.717	9545
892.839	9610
892.962	9606
893.085	9663
893.207	9595
893.33	9515
893.452	9580
893.575	9618
893.697	9401
893.819	9595
893.941	9603
894.064	9599
894.186	9416
894.308	9412
894.43	9469
894.552	9580
894.674	9469
894.796	9397
894.918	9363
895.04	9306
895.161	9317
895.283	9386
895.405	9226
895.526	9245
895.648	9256
895.769	9241
895.891	9226
896.012	9329
896.134	9211
896.255	9180
896.376	9127
896.498	9093
896.619	9184
896.74	9097
896.861	9135
896.982	9249
897.103	9294
897.224	9173
897.345	9005
897.466	9013
897.587	9017
897.708	9051
897.828	9032
897.949	8830
898.07	8868
898.19	8914
898.311	9051
898.431	8868
898.552	8902
898.672	8967
898.792	8967
898.913	8834
899.033	8857
899.153	8667
899.273	8663
899.393	8689
899.513	8701
899.633	8621
899.753	8735
899.873	8670
899.993	8788
900.113	8720
900.232	8655
900.352	8636
900.472	8568
900.591	8530
900.711	8564
900.83	8545
900.95	8640
901.069	8743
901.189	8590
901.308	8431
901.427	8431
901.546	8412
901.665	8374
901.784	8484
901.904	8385
902.023	8339
902.141	8195
902.26	8214
902.379	8298
902.498	8240
902.617	8210
902.735	8347
902.854	8282
902.973	8206
903.091	8077
903.21	8107
903.328	8164
903.446	8096
903.565	7970
903.683	8145
903.801	8031
903.919	8096
904.038	8103
904.156	7997
904.274	8103
904.392	7982
904.51	8050
904.627	8084
904.745	8092
904.863	8126
904.981	7974
905.098	7902
905.216	7864
905.334	7852
905.451	7902
905.569	7875
905.686	7868
905.803	7879
905.921	7715
906.038	7830
906.155	7719
906.272	7632
906.389	7750
906.506	7757
906.623	7586
906.74	7605
906.857	7491
906.974	7578
907.091	7609
907.208	7696
907.324	7594
907.441	7613
907.557	7460
907.674	7422
907.79	7377
907.907	7407
908.023	7434
908.139	7426
908.256	7400
908.372	7396
908.488	7396
908.604	7259
908.72	7255
908.836	7263
908.952	7206
909.068	7217
909.184	7343
909.3	7194
909.415	7274
909.531	7270
909.647	7072
909.762	7103
909.878	7050
909.993	7080
910.108	7076
910.224	7069
910.339	7103
910.454	7015
910.57	6966
910.685	6924
910.8	7107
910.915	7126
911.03	7031
911.145	6897
911.259	6867
911.374	6886
911.489	6753
911.604	6776
911.718	6722
911.833	6730
911.947	6684
912.062	6616
912.176	6688
912.291	6703
912.405	6673
912.519	6818
912.633	6821
912.748	6703
912.862	6757
912.976	6601
913.09	6582
913.204	6578
913.318	6612
913.431	6650
913.545	6757
913.659	6688
913.772	6620
913.886	6566
914	6532
914.113	6593
914.226	6623
914.34	6517
914.453	6494
914.566	6604
914.68	6486
914.793	6555
914.906	6380
915.019	6403
915.132	6388
915.245	6369
915.358	6464
915.47	6422
915.583	6464
915.696	6483
915.809	6513
915.921	6513
916.034	6429
916.146	6445
916.259	6361
916.371	6490
916.483	6433
916.595	6361
916.708	6346
916.82	6365
916.932	6357
917.044	6319
917.156	6422
917.268	6296
917.38	6243
917.491	6334
917.603	6331
917.715	6391
917.826	6384
917.938	6372
918.049	6232
918.161	6338
918.272	6369
918.384	6471
918.495	6350
918.606	6304
918.717	6182
918.828	6232
918.939	6251
919.05	6163
919.161	6190
919.272	6117
919.383	6167
919.494	6315
919.604	6384
919.715	6270
919.826	6178
919.936	6251
920.047	6338
920.157	6308
920.267	6437
920.378	6365
920.488	6266
920.598	6426
920.708	6494
920.818	6464
920.928	6376
921.038	6585
921.148	6578
921.258	6323
921.368	6247
921.477	6216
921.587	6247
921.697	6083
921.806	6190
921.916	6068
922.025	5931
922.134	5889
922.244	5878
922.353	5931
922.462	5828
922.571	5752
922.68	5737
922.789	5707
922.898	5688
923.007	5615
923.116	5726
923.224	5672
923.333	5642
923.442	5566
923.55	5573
923.659	5558
923.767	5661
923.876	5570
923.984	5592
924.092	5532
924.201	5532
924.309	5539
924.417	5577
924.525	5482
924.633	5493
924.741	6285
924.849	5311
924.956	5482
925.064	5402
925.172	5345
925.279	5326
925.387	5387
925.494	5357
925.602	5398
925.709	5353
925.816	5311
925.924	5284
926.031	5326
926.138	5307
926.245	5318
926.352	5216
926.459	5318
926.566	5311
926.673	5216
926.779	5109
926.886	5124
926.993	5029
927.099	5014
927.206	5029
927.312	4927
927.419	5052
927.525	4938
927.631	4995
927.737	4915
927.843	4866
927.95	4717
928.056	4843
928.162	4824
928.267	4824
928.373	5246
928.479	4824
928.585	4691
928.69	4767
928.796	4793
928.901	4717
929.007	4577
929.112	4653
929.218	4641
929.323	4580
929.428	4504
929.533	4660
929.638	4527
929.743	4588
929.848	4561
929.953	4470
930.058	4428
930.163	4344
930.267	4333
930.372	4436
930.477	4333
930.581	4447
930.685	4367
930.79	4253
930.894	4303
930.998	4219
931.103	4379
931.207	4128
931.311	4086
931.415	4090
931.519	3915
931.623	3945
