Data from glass_V78500241_1250.txt Node
Date: Wed Sep 01 19:23:09 CST 2021
User: usil
Spectrometer: V785-0024
Trigger mode: 0
Integration Time (sec): 4.000000E-1
Scans to average: 1
Nonlinearity correction enabled: false
Boxcar width: 0
Storing dark spectrum: false
XAxis mode: Wavelengths
Number of Pixels in Spectrum: 1024
>>>>>Begin Spectral Data<<<<<
801.071	3759
801.214	3789
801.356	3694
801.499	3762
801.641	3713
801.783	3804
801.926	3861
802.068	3819
802.211	3884
802.353	3907
802.496	3816
802.638	3926
802.78	3892
802.923	3949
803.065	3918
803.208	3861
803.35	3873
803.492	3934
803.635	3918
803.777	3846
803.919	3865
804.061	4150
804.204	3926
804.346	3991
804.488	3937
804.63	4029
804.773	3960
804.915	4063
805.057	4162
805.199	4010
805.341	4128
805.483	4154
805.626	4169
805.768	4154
805.91	4242
806.052	4261
806.194	4211
806.336	4360
806.478	4211
806.62	4223
806.762	4204
806.904	4268
807.046	4325
807.188	4230
807.33	4227
807.472	4234
807.614	4207
807.756	4261
807.898	4249
808.04	4223
808.182	4287
808.324	4329
808.465	4394
808.607	4428
808.749	4516
808.891	4500
809.033	4500
809.174	4440
809.316	4299
809.458	4249
809.6	4112
809.741	4135
809.883	4185
810.025	4230
810.166	4219
810.308	4207
810.45	4265
810.591	4238
810.733	4318
810.875	4550
811.016	4812
811.158	5098
811.299	5242
811.441	5292
811.582	5037
811.724	4691
811.865	4489
812.007	4478
812.148	4470
812.29	4409
812.431	4383
812.573	4405
812.714	4405
812.855	4428
812.997	4398
813.138	4508
813.279	4447
813.421	4383
813.562	4443
813.703	4390
813.845	4318
813.986	4280
814.127	4196
814.268	4234
814.41	4303
814.551	4268
814.692	4375
814.833	4261
814.974	4314
815.115	4371
815.256	4303
815.397	4284
815.539	4246
815.68	4230
815.821	4196
815.962	4329
816.103	4272
816.244	4265
816.385	4234
816.526	4299
816.666	4196
816.807	4116
816.948	4166
817.089	4185
817.23	4090
817.371	4120
817.512	4044
817.653	4051
817.793	4002
817.934	4032
818.075	4128
818.216	4074
818.356	4090
818.497	3983
818.638	3953
818.778	3922
818.919	3896
819.06	3850
819.2	3915
819.341	3888
819.481	3922
819.622	3915
819.762	4029
819.903	3979
820.043	3850
820.184	3850
820.324	3831
820.465	3941
820.605	3915
820.746	3842
820.886	3827
821.026	3861
821.167	3930
821.307	3994
821.447	4006
821.588	3983
821.728	3941
821.868	3930
822.008	3899
822.149	3922
822.289	3972
822.429	3797
822.569	3755
822.709	3823
822.849	3679
822.99	3755
823.13	3755
823.27	3774
823.41	3728
823.55	3781
823.69	3743
823.83	3717
823.97	3675
824.11	3644
824.25	3618
824.389	3603
824.529	3663
824.669	3675
824.809	3736
824.949	3762
825.089	3728
825.228	3690
825.368	3576
825.508	3553
825.648	3595
825.787	3568
825.927	3671
826.067	3603
826.206	3675
826.346	3827
826.485	3846
826.625	3876
826.765	4006
826.904	3827
827.044	3622
827.183	3580
827.323	3485
827.462	3496
827.601	3412
827.741	3447
827.88	3492
828.02	3359
828.159	3435
828.298	3515
828.437	3557
828.577	3500
828.716	3644
828.855	3515
828.994	3363
829.134	3397
829.273	3389
829.412	3313
829.551	3321
829.69	3412
829.829	3466
829.968	3496
830.107	3443
830.246	3454
830.385	3386
830.524	3351
830.663	3283
830.802	3298
830.941	3233
831.08	3233
831.219	3245
831.357	3253
831.496	3393
831.635	3237
831.774	3184
831.913	3218
832.051	3138
832.19	3157
832.329	3203
832.467	3161
832.606	3093
832.744	3184
832.883	3176
833.022	3214
833.16	3264
833.299	3313
833.437	3325
833.576	3405
833.714	3401
833.852	3454
833.991	3462
834.129	3477
834.267	3473
834.406	3397
834.544	3416
834.682	3443
834.821	3443
834.959	3591
835.097	3443
835.235	3504
835.373	3542
835.511	3485
835.65	3469
835.788	3496
835.926	3393
836.064	3386
836.202	3416
836.34	3603
836.478	3637
836.615	3515
836.753	3587
836.891	3679
837.029	3622
837.167	3572
837.305	3572
837.443	3549
837.58	3504
837.718	3572
837.856	3557
837.993	3576
838.131	3606
838.269	3591
838.406	3599
838.544	3629
838.681	3511
838.819	3481
838.956	3431
839.094	3378
839.231	3466
839.369	3458
839.506	3747
839.643	3694
839.781	3515
839.918	3477
840.055	3542
840.193	3519
840.33	3557
840.467	3580
840.604	3591
840.742	3819
840.879	3561
841.016	3538
841.153	3606
841.29	3759
841.427	3720
841.564	3682
841.701	3736
841.838	3701
841.975	3701
842.112	3728
842.249	3656
842.385	3652
842.522	3793
842.659	3686
842.796	3709
842.933	3743
843.069	3709
843.206	3713
843.343	3850
843.479	3778
843.616	3778
843.752	3694
843.889	3751
844.025	3857
844.162	3709
844.298	3869
844.435	3812
844.571	3762
844.708	3873
844.844	3994
844.98	4017
845.117	3998
845.253	3960
845.389	3903
845.525	3983
845.661	3941
845.798	3960
845.934	4010
846.07	3949
846.206	4048
846.342	4093
846.478	4067
846.614	3998
846.75	3876
846.886	3918
847.022	4032
847.158	3953
847.294	3991
847.429	4032
847.565	3979
847.701	4261
847.837	3873
847.972	3789
848.108	3968
848.244	3991
848.379	3903
848.515	3823
848.65	3804
848.786	3865
848.921	3831
849.057	3922
849.192	3945
849.328	3915
849.463	3899
849.598	3865
849.734	3842
849.869	3850
850.004	3766
850.14	3838
850.275	3842
850.41	3713
850.545	3781
850.68	3812
850.815	3816
850.95	3804
851.085	3964
851.22	3865
851.355	3835
851.49	3812
851.625	3785
851.76	3785
851.895	3724
852.03	3747
852.165	3793
852.299	3816
852.434	3949
852.569	3876
852.703	3892
852.838	3941
852.973	4002
853.107	4013
853.242	3899
853.376	3846
853.511	3785
853.645	3896
853.78	3972
853.914	3918
854.048	3865
854.183	3941
854.317	3945
854.451	4074
854.585	3945
854.72	3998
854.854	4036
854.988	3987
855.122	4010
855.256	3956
855.39	4002
855.524	4143
855.658	4128
855.792	4147
855.926	4143
856.06	4185
856.194	4227
856.327	4147
856.461	4128
856.595	4173
856.729	4230
856.862	4211
856.996	4246
857.13	4314
857.263	4306
857.397	4363
857.53	4299
857.664	4356
857.797	4402
857.931	4417
858.064	4379
858.197	4432
858.331	4421
858.464	4436
858.597	4383
858.731	4474
858.864	4398
858.997	4459
859.13	4527
859.263	4546
859.396	4573
859.529	4489
859.662	4538
859.795	4550
859.928	4580
860.061	4736
860.194	4683
860.327	4668
860.46	4637
860.592	4755
860.725	4812
860.858	4748
860.99	4683
861.123	4679
861.256	4714
861.388	4816
861.521	5372
861.653	4694
861.786	4691
861.918	4759
862.05	4828
862.183	4847
862.315	4873
862.447	4984
862.58	4892
862.712	4786
862.844	4767
862.976	4930
863.108	4866
863.24	5197
863.372	4839
863.504	4889
863.636	4915
863.768	4942
863.9	4984
864.032	4934
864.164	4980
864.296	5022
864.428	5083
864.559	5109
864.691	5102
864.823	5143
864.954	5143
865.086	5193
865.217	5105
865.349	5056
865.48	5155
865.612	5189
865.743	5254
865.875	5220
866.006	5193
866.137	5269
866.269	5204
866.4	5216
866.531	5185
866.662	5185
866.793	5254
866.924	5315
867.055	5345
867.186	5357
867.317	5353
867.448	5303
867.579	5444
867.71	5383
867.841	5425
867.972	5429
868.103	5421
868.233	5474
868.364	5463
868.495	5482
868.625	5668
868.756	5783
868.886	5657
869.017	5775
869.147	5889
869.278	5878
869.408	5836
869.539	5783
869.669	5889
869.799	5889
869.929	5973
870.06	5996
870.19	6205
870.32	6220
870.45	6311
870.58	6399
870.71	6433
870.84	6460
870.97	6399
871.1	6475
871.23	6665
871.36	6665
871.489	6673
871.619	6707
871.749	6802
871.879	6935
872.008	6962
872.138	6973
872.267	6970
872.397	7057
872.526	7122
872.656	7103
872.785	7274
872.915	7403
873.044	7514
873.173	7586
873.303	7674
873.432	7742
873.561	7913
873.69	7868
873.819	8012
873.948	8145
874.077	8214
874.206	8358
874.335	8438
874.464	8682
874.593	8861
874.722	9005
874.851	9165
874.979	9188
875.108	9386
875.237	9466
875.365	9462
875.494	9584
875.623	9831
875.751	9937
875.88	9991
876.008	10147
876.136	10227
876.265	10538
876.393	10714
876.521	10721
876.65	10896
876.778	10908
876.906	10911
877.034	10953
877.162	11052
877.29	11185
877.418	11368
877.546	11391
877.674	11482
877.802	11478
877.93	11524
878.058	11615
878.185	11554
878.313	11684
878.441	11718
878.568	11710
878.696	11756
878.824	11851
878.951	11950
879.079	11996
879.206	12133
879.333	12041
879.461	12057
879.588	12060
879.715	12079
879.842	12235
879.97	12163
880.097	11931
880.224	11992
880.351	11958
880.478	11836
880.605	11870
880.732	11756
880.859	12007
880.986	11809
881.112	11874
881.239	11760
881.366	11649
881.493	11611
881.619	11600
881.746	11520
881.872	11539
881.999	11528
882.125	11455
882.252	11524
882.378	11501
882.505	11558
882.631	11421
882.757	11296
882.883	11341
883.01	11235
883.136	11174
883.262	11136
883.388	11128
883.514	11246
883.64	11181
883.766	11109
883.892	11025
884.018	10976
884.143	11105
884.269	11060
884.395	10793
884.52	10763
884.646	10793
884.772	10694
884.897	10725
885.023	10679
885.148	10653
885.274	10809
885.399	10717
885.524	10603
885.65	10596
885.775	10523
885.9	10542
886.025	10637
886.15	10580
886.275	10398
886.4	10417
886.525	10394
886.65	10402
886.775	10382
886.9	10485
887.025	10516
887.149	10417
887.274	10200
887.399	10227
887.523	10177
887.648	10124
887.773	10112
887.897	10257
888.021	10124
888.146	10051
888.27	10207
888.395	10230
888.519	10158
888.643	10284
888.767	10105
888.891	10074
889.015	9975
889.139	9994
889.263	9964
889.387	10063
889.511	10143
889.635	10059
889.759	9892
889.883	10021
890.006	10093
890.13	10082
890.254	9907
890.377	10025
890.501	9823
890.624	9808
890.748	9884
890.871	9835
890.995	9873
891.118	9690
891.241	9816
891.364	9778
891.488	9835
891.611	9766
891.734	9740
891.857	9797
891.98	9743
892.103	9785
892.226	9705
892.349	9705
892.471	9507
892.594	9545
892.717	9614
892.839	9599
892.962	9671
893.085	9625
893.207	9564
893.33	9538
893.452	9580
893.575	9648
893.697	9519
893.819	9641
893.941	9595
894.064	9561
894.186	9462
894.308	9462
894.43	9488
894.552	9599
894.674	9523
894.796	9496
894.918	9416
895.04	9367
895.161	9363
895.283	9382
895.405	9256
895.526	9302
895.648	9310
895.769	9268
895.891	9348
896.012	9306
896.134	9256
896.255	9142
896.376	9135
896.498	9207
896.619	9150
896.74	9020
896.861	9104
896.982	9264
897.103	9298
897.224	9195
897.345	9085
897.466	9017
897.587	9062
897.708	9100
897.828	9036
897.949	8918
898.07	8887
898.19	8849
898.311	9077
898.431	8902
898.552	8933
898.672	8990
898.792	8952
898.913	8967
899.033	8842
899.153	8788
899.273	8678
899.393	8724
899.513	8701
899.633	8769
899.753	8682
899.873	8727
899.993	8750
900.113	8651
900.232	8731
900.352	8682
900.472	8579
900.591	8495
900.711	8579
900.83	8552
900.95	8697
901.069	8708
901.189	8610
901.308	8495
901.427	8355
901.546	8427
901.665	8434
901.784	8545
901.904	8385
902.023	8332
902.141	8298
902.26	8263
902.379	8183
902.498	8237
902.617	8221
902.735	8328
902.854	8267
902.973	8290
903.091	8153
903.21	8126
903.328	8172
903.446	8161
903.565	8096
903.683	8111
903.801	8077
903.919	8145
904.038	8142
904.156	8008
904.274	8115
904.392	8027
904.51	8069
904.627	8073
904.745	8073
904.863	8088
904.981	7951
905.098	7898
905.216	7890
905.334	7883
905.451	7917
905.569	7845
905.686	8024
905.803	7917
905.921	7776
906.038	7830
906.155	7807
906.272	7788
906.389	7704
906.506	7670
906.623	7647
906.74	7636
906.857	7544
906.974	7552
907.091	7666
907.208	7712
907.324	7594
907.441	7578
907.557	7506
907.674	7438
907.79	7453
907.907	7365
908.023	7449
908.139	7419
908.256	7384
908.372	7301
908.488	7362
908.604	7266
908.72	7266
908.836	7274
908.952	7308
909.068	7282
909.184	7354
909.3	7217
909.415	7285
909.531	7301
909.647	7118
909.762	7149
909.878	7118
909.993	7118
910.108	7088
910.224	7137
910.339	7152
910.454	7042
910.57	7023
910.685	7012
910.8	7183
910.915	7103
911.03	7053
911.145	6867
911.259	6924
911.374	6840
911.489	6814
911.604	6814
911.718	6684
911.833	6745
911.947	6738
912.062	6612
912.176	6700
912.291	6738
912.405	6669
912.519	6814
912.633	6840
912.748	6707
912.862	6665
912.976	6597
913.09	6555
913.204	6608
913.318	6616
913.431	6696
913.545	6669
913.659	6726
913.772	6673
913.886	6616
914	6540
914.113	6574
914.226	6650
914.34	6593
914.453	6498
914.566	6593
914.68	6540
914.793	6521
914.906	6426
915.019	6437
915.132	6369
915.245	6418
915.358	6448
915.47	6414
915.583	6513
915.696	6471
915.809	6559
915.921	6578
916.034	6414
916.146	6471
916.259	6403
916.371	6456
916.483	6452
916.595	6414
916.708	6460
916.82	6361
916.932	6414
917.044	6365
917.156	6384
917.268	6304
917.38	6308
917.491	6334
917.603	6350
917.715	6407
917.826	6437
917.938	6388
918.049	6205
918.161	6361
918.272	6353
918.384	6437
918.495	6369
918.606	6304
918.717	6254
918.828	6235
918.939	6300
919.05	6213
919.161	6285
919.272	6163
919.383	6171
919.494	6281
919.604	6433
919.715	6243
919.826	6262
919.936	6254
920.047	6410
920.157	6311
920.267	6494
920.378	6376
920.488	6319
920.598	6483
920.708	6536
920.818	6471
920.928	6456
921.038	6604
921.148	6589
921.258	6327
921.368	6292
921.477	6235
921.587	6182
921.697	6114
921.806	6148
921.916	6060
922.025	5965
922.134	5939
922.244	5897
922.353	5946
922.462	5889
922.571	5756
922.68	5729
922.789	5668
922.898	5688
923.007	5726
923.116	5710
923.224	5695
923.333	5653
923.442	5585
923.55	5577
923.659	5585
923.767	5646
923.876	5581
923.984	5566
924.092	5524
924.201	5551
924.309	5509
924.417	5543
924.525	5505
924.633	5528
924.741	6300
924.849	5436
924.956	5463
925.064	5383
925.172	5334
925.279	5299
925.387	5376
925.494	5341
925.602	5402
925.709	5364
925.816	5197
925.924	5349
926.031	5395
926.138	5288
926.245	5349
926.352	5239
926.459	5280
926.566	5326
926.673	5223
926.779	5155
926.886	5105
926.993	5064
927.099	5060
927.206	4995
927.312	4946
927.419	4980
927.525	4961
927.631	5018
927.737	4877
927.843	4877
927.95	4744
928.056	4831
928.162	4828
928.267	4793
928.373	5311
928.479	4866
928.585	4683
928.69	4763
928.796	4759
928.901	4710
929.007	4630
929.112	4649
929.218	4637
929.323	4637
929.428	4558
929.533	4660
929.638	4478
929.743	4531
929.848	4519
929.953	4546
930.058	4474
930.163	4348
930.267	4409
930.372	4428
930.477	4299
930.581	4489
930.685	4348
930.79	4265
930.894	4287
930.998	4306
931.103	4405
931.207	4162
931.311	4055
931.415	4032
931.519	3968
931.623	3987
