Data from glass_V78500241_1290.txt Node
Date: Wed Sep 01 19:23:26 CST 2021
User: usil
Spectrometer: V785-0024
Trigger mode: 0
Integration Time (sec): 4.000000E-1
Scans to average: 1
Nonlinearity correction enabled: false
Boxcar width: 0
Storing dark spectrum: false
XAxis mode: Wavelengths
Number of Pixels in Spectrum: 1024
>>>>>Begin Spectral Data<<<<<
801.071	3728
801.214	3762
801.356	3736
801.499	3717
801.641	3713
801.783	3781
801.926	3865
802.068	3789
802.211	3842
802.353	3899
802.496	3854
802.638	3892
802.78	3899
802.923	3937
803.065	3888
803.208	3816
803.35	3846
803.492	3892
803.635	3960
803.777	3812
803.919	3907
804.061	4166
804.204	3994
804.346	3937
804.488	3930
804.63	4013
804.773	3960
804.915	4044
805.057	4154
805.199	4040
805.341	4093
805.483	4128
805.626	4162
805.768	4120
805.91	4257
806.052	4249
806.194	4196
806.336	4356
806.478	4249
806.62	4169
806.762	4227
806.904	4318
807.046	4363
807.188	4181
807.33	4219
807.472	4280
807.614	4211
807.756	4287
807.898	4173
808.04	4242
808.182	4253
808.324	4314
808.465	4352
808.607	4462
808.749	4440
808.891	4462
809.033	4489
809.174	4421
809.316	4265
809.458	4219
809.6	4154
809.741	4173
809.883	4120
810.025	4215
810.166	4242
810.308	4246
810.45	4242
810.591	4249
810.733	4257
810.875	4535
811.016	4809
811.158	5128
811.299	5239
811.441	5307
811.582	5033
811.724	4710
811.865	4443
812.007	4497
812.148	4417
812.29	4417
812.431	4367
812.573	4428
812.714	4363
812.855	4447
812.997	4409
813.138	4504
813.279	4409
813.421	4371
813.562	4394
813.703	4344
813.845	4363
813.986	4287
814.127	4230
814.268	4253
814.41	4280
814.551	4242
814.692	4348
814.833	4265
814.974	4303
815.115	4348
815.256	4268
815.397	4242
815.539	4306
815.68	4181
815.821	4242
815.962	4341
816.103	4291
816.244	4173
816.385	4227
816.526	4295
816.666	4223
816.807	4116
816.948	4131
817.089	4215
817.23	4143
817.371	4067
817.512	4059
817.653	4086
817.793	4036
817.934	4074
818.075	4112
818.216	4090
818.356	4071
818.497	3998
818.638	3899
818.778	3934
818.919	3903
819.06	3865
819.2	3949
819.341	3850
819.481	3827
819.622	3903
819.762	3983
819.903	3930
820.043	3903
820.184	3838
820.324	3831
820.465	3922
820.605	3865
820.746	3876
820.886	3850
821.026	3892
821.167	3880
821.307	3968
821.447	4002
821.588	3926
821.728	3941
821.868	3926
822.008	3907
822.149	3911
822.289	3896
822.429	3781
822.569	3747
822.709	3797
822.849	3732
822.99	3701
823.13	3759
823.27	3819
823.41	3732
823.55	3694
823.69	3743
823.83	3736
823.97	3679
824.11	3614
824.25	3587
824.389	3610
824.529	3682
824.669	3652
824.809	3701
824.949	3766
825.089	3770
825.228	3732
825.368	3572
825.508	3568
825.648	3545
825.787	3603
825.927	3709
826.067	3663
826.206	3663
826.346	3781
826.485	3842
826.625	3876
826.765	3979
826.904	3816
827.044	3641
827.183	3538
827.323	3428
827.462	3507
827.601	3424
827.741	3458
827.88	3462
828.02	3355
828.159	3439
828.298	3477
828.437	3557
828.577	3488
828.716	3606
828.855	3481
828.994	3355
829.134	3363
829.273	3412
829.412	3389
829.551	3363
829.69	3378
829.829	3435
829.968	3549
830.107	3447
830.246	3435
830.385	3386
830.524	3359
830.663	3332
830.802	3253
830.941	3192
831.08	3192
831.219	3287
831.357	3268
831.496	3401
831.635	3256
831.774	3203
831.913	3188
832.051	3165
832.19	3150
832.329	3226
832.467	3131
832.606	3100
832.744	3150
832.883	3165
833.022	3218
833.16	3253
833.299	3275
833.437	3306
833.576	3397
833.714	3443
833.852	3450
833.991	3424
834.129	3466
834.267	3473
834.406	3428
834.544	3405
834.682	3439
834.821	3424
834.959	3561
835.097	3424
835.235	3504
835.373	3477
835.511	3523
835.65	3477
835.788	3473
835.926	3428
836.064	3405
836.202	3374
836.34	3568
836.478	3622
836.615	3564
836.753	3545
836.891	3648
837.029	3618
837.167	3622
837.305	3553
837.443	3534
837.58	3485
837.718	3599
837.856	3587
837.993	3538
838.131	3610
838.269	3580
838.406	3584
838.544	3595
838.681	3462
838.819	3458
838.956	3344
839.094	3424
839.231	3458
839.369	3530
839.506	3747
839.643	3656
839.781	3534
839.918	3466
840.055	3561
840.193	3538
840.33	3557
840.467	3538
840.604	3618
840.742	3770
840.879	3561
841.016	3599
841.153	3553
841.29	3755
841.427	3713
841.564	3747
841.701	3728
841.838	3713
841.975	3690
842.112	3785
842.249	3644
842.385	3622
842.522	3831
842.659	3713
842.796	3713
842.933	3789
843.069	3709
843.206	3720
843.343	3842
843.479	3819
843.616	3857
843.752	3675
843.889	3717
844.025	3850
844.162	3747
844.298	3854
844.435	3766
844.571	3781
844.708	3850
844.844	4036
844.98	4021
845.117	3994
845.253	3930
845.389	3934
845.525	3979
845.661	4021
845.798	3903
845.934	4032
846.07	3956
846.206	4067
846.342	4139
846.478	4055
846.614	3994
846.75	3930
846.886	3934
847.022	4067
847.158	3991
847.294	4013
847.429	4036
847.565	3956
847.701	4276
847.837	3884
847.972	3880
848.108	3968
848.244	3964
848.379	3861
848.515	3827
848.65	3854
848.786	3861
848.921	3842
849.057	3945
849.192	3937
849.328	3876
849.463	3907
849.598	3876
849.734	3888
849.869	3842
850.004	3808
850.14	3797
850.275	3823
850.41	3762
850.545	3759
850.68	3808
850.815	3781
850.95	3793
851.085	3937
851.22	3873
851.355	3857
851.49	3793
851.625	3759
851.76	3789
851.895	3774
852.03	3732
852.165	3827
852.299	3819
852.434	3949
852.569	3869
852.703	3869
852.838	3964
852.973	4006
853.107	3991
853.242	3911
853.376	3888
853.511	3812
853.645	3861
853.78	3994
853.914	3945
854.048	3903
854.183	3926
854.317	3934
854.451	4090
854.585	3964
854.72	3941
854.854	4059
854.988	3926
855.122	4013
855.256	3937
855.39	4044
855.524	4116
855.658	4109
855.792	4093
855.926	4143
856.06	4177
856.194	4227
856.327	4135
856.461	4139
856.595	4188
856.729	4162
856.862	4268
856.996	4268
857.13	4268
857.263	4341
857.397	4394
857.53	4337
857.664	4367
857.797	4398
857.931	4424
858.064	4432
858.197	4409
858.331	4390
858.464	4383
858.597	4341
858.731	4459
858.864	4500
858.997	4470
859.13	4493
859.263	4565
859.396	4599
859.529	4531
859.662	4577
859.795	4550
859.928	4622
860.061	4653
860.194	4763
860.327	4630
860.46	4660
860.592	4774
860.725	4778
860.858	4767
860.99	4729
861.123	4687
861.256	4675
861.388	4790
861.521	5364
861.653	4744
861.786	4729
861.918	4767
862.05	4809
862.183	4854
862.315	4923
862.447	4927
862.58	4915
862.712	4812
862.844	4812
862.976	4896
863.108	4885
863.24	5113
863.372	4820
863.504	4949
863.636	4904
863.768	4999
863.9	4999
864.032	4919
864.164	4984
864.296	5025
864.428	5109
864.559	5056
864.691	5109
864.823	5140
864.954	5109
865.086	5102
865.217	5117
865.349	5151
865.48	5151
865.612	5136
865.743	5315
865.875	5208
866.006	5231
866.137	5254
866.269	5269
866.4	5235
866.531	5208
866.662	5242
866.793	5277
866.924	5258
867.055	5364
867.186	5303
867.317	5277
867.448	5345
867.579	5337
867.71	5387
867.841	5414
867.972	5478
868.103	5493
868.233	5486
868.364	5524
868.495	5547
868.625	5661
868.756	5748
868.886	5627
869.017	5718
869.147	5844
869.278	5878
869.408	5828
869.539	5794
869.669	5935
869.799	5901
869.929	5977
870.06	6003
870.19	6194
870.32	6121
870.45	6235
870.58	6331
870.71	6464
870.84	6433
870.97	6422
871.1	6414
871.23	6665
871.36	6692
871.489	6665
871.619	6707
871.749	6848
871.879	6821
872.008	6966
872.138	6962
872.267	7015
872.397	6977
872.526	7088
872.656	7122
872.785	7217
872.915	7480
873.044	7502
873.173	7609
873.303	7681
873.432	7776
873.561	7921
873.69	7921
873.819	7982
873.948	8119
874.077	8237
874.206	8320
874.335	8507
874.464	8644
874.593	8830
874.722	8960
874.851	9116
874.979	9245
875.108	9405
875.237	9492
875.365	9454
875.494	9610
875.623	9850
875.751	9869
875.88	10101
876.008	10093
876.136	10322
876.265	10478
876.393	10706
876.521	10710
876.65	10809
876.778	10835
876.906	10919
877.034	11003
877.162	11162
877.29	11083
877.418	11242
877.546	11322
877.674	11501
877.802	11452
877.93	11539
878.058	11558
878.185	11611
878.313	11741
878.441	11771
878.568	11729
878.696	11805
878.824	11855
878.951	11988
879.079	11977
879.206	12167
879.333	12034
879.461	11965
879.588	12041
879.715	12125
879.842	12201
879.97	12053
880.097	11878
880.224	11874
880.351	12011
880.478	11961
880.605	11851
880.732	11794
880.859	11977
880.986	11817
881.112	11863
881.239	11756
881.366	11619
881.493	11657
881.619	11535
881.746	11535
881.872	11528
881.999	11516
882.125	11448
882.252	11482
882.378	11501
882.505	11577
882.631	11387
882.757	11220
882.883	11334
883.01	11326
883.136	11231
883.262	11216
883.388	11201
883.514	11193
883.64	11227
883.766	11117
883.892	11029
884.018	10976
884.143	11067
884.269	11083
884.395	10896
884.52	10733
884.646	10771
884.772	10710
884.897	10664
885.023	10637
885.148	10721
885.274	10664
885.399	10672
885.524	10634
885.65	10580
885.775	10611
885.9	10607
886.025	10607
886.15	10599
886.275	10470
886.4	10470
886.525	10421
886.65	10413
886.775	10318
886.9	10470
887.025	10466
887.149	10413
887.274	10238
887.399	10211
887.523	10200
887.648	10154
887.773	10128
887.897	10261
888.021	10230
888.146	10101
888.27	10204
888.395	10272
888.519	10147
888.643	10200
888.767	10181
888.891	10105
889.015	9983
889.139	10063
889.263	9991
889.387	10051
889.511	10150
889.635	10112
889.759	9926
889.883	10017
890.006	9991
890.13	10093
890.254	9926
890.377	9964
890.501	9808
890.624	9953
890.748	9922
890.871	9774
890.995	9781
891.118	9705
891.241	9812
891.364	9713
891.488	9854
891.611	9785
891.734	9781
891.857	9747
891.98	9709
892.103	9842
892.226	9724
892.349	9694
892.471	9511
892.594	9644
892.717	9618
892.839	9660
892.962	9587
893.085	9720
893.207	9652
893.33	9481
893.452	9542
893.575	9568
893.697	9458
893.819	9663
893.941	9648
894.064	9587
894.186	9466
894.308	9405
894.43	9545
894.552	9595
894.674	9538
894.796	9412
894.918	9408
895.04	9382
895.161	9435
895.283	9397
895.405	9203
895.526	9264
895.648	9199
895.769	9249
895.891	9260
896.012	9287
896.134	9169
896.255	9180
896.376	9123
896.498	9199
896.619	9135
896.74	9127
896.861	9165
896.982	9291
897.103	9397
897.224	9150
897.345	9066
897.466	8986
897.587	9028
897.708	9127
897.828	9055
897.949	8963
898.07	8883
898.19	8883
898.311	9093
898.431	8895
898.552	8948
898.672	9043
898.792	8986
898.913	8883
899.033	8861
899.153	8724
899.273	8720
899.393	8667
899.513	8804
899.633	8769
899.753	8750
899.873	8701
899.993	8743
900.113	8746
900.232	8705
900.352	8682
900.472	8610
900.591	8602
900.711	8613
900.83	8613
900.95	8651
901.069	8720
901.189	8556
901.308	8514
901.427	8461
901.546	8431
901.665	8522
901.784	8507
901.904	8457
902.023	8389
902.141	8210
902.26	8259
902.379	8282
902.498	8259
902.617	8199
902.735	8279
902.854	8275
902.973	8248
903.091	8130
903.21	8084
903.328	8195
903.446	8115
903.565	8092
903.683	8069
903.801	8081
903.919	8069
904.038	8134
904.156	8073
904.274	8088
904.392	8069
904.51	8069
904.627	8050
904.745	8088
904.863	8077
904.981	7898
905.098	7909
905.216	7841
905.334	7936
905.451	7940
905.569	7917
905.686	7951
905.803	7906
905.921	7795
906.038	7868
906.155	7788
906.272	7666
906.389	7757
906.506	7601
906.623	7624
906.74	7620
906.857	7571
906.974	7548
907.091	7639
907.208	7708
907.324	7658
907.441	7594
907.557	7407
907.674	7419
907.79	7495
907.907	7441
908.023	7430
908.139	7445
908.256	7384
908.372	7335
908.488	7457
908.604	7316
908.72	7209
908.836	7255
908.952	7266
909.068	7266
909.184	7350
909.3	7274
909.415	7266
909.531	7312
909.647	7141
909.762	7103
909.878	7129
909.993	7088
910.108	7118
910.224	7053
910.339	7133
910.454	7012
910.57	7004
910.685	6966
910.8	7152
910.915	7080
911.03	7061
911.145	6943
911.259	6901
911.374	6863
911.489	6859
911.604	6840
911.718	6703
911.833	6783
911.947	6654
912.062	6665
912.176	6726
912.291	6700
912.405	6738
912.519	6806
912.633	6806
912.748	6722
912.862	6711
912.976	6646
913.09	6623
913.204	6578
913.318	6589
913.431	6692
913.545	6692
913.659	6696
913.772	6650
913.886	6589
914	6551
914.113	6604
914.226	6650
914.34	6623
914.453	6506
914.566	6669
914.68	6532
914.793	6570
914.906	6380
915.019	6407
915.132	6350
915.245	6452
915.358	6509
915.47	6437
915.583	6433
915.696	6471
915.809	6479
915.921	6547
916.034	6433
916.146	6407
916.259	6403
916.371	6460
916.483	6414
916.595	6418
916.708	6460
916.82	6407
916.932	6327
917.044	6331
917.156	6388
917.268	6338
917.38	6350
917.491	6353
917.603	6334
917.715	6380
917.826	6426
917.938	6365
918.049	6281
918.161	6372
918.272	6410
918.384	6445
918.495	6361
918.606	6270
918.717	6201
918.828	6281
918.939	6243
919.05	6262
919.161	6228
919.272	6190
919.383	6175
919.494	6266
919.604	6418
919.715	6266
919.826	6247
919.936	6281
920.047	6365
920.157	6289
920.267	6448
920.378	6289
920.488	6281
920.598	6494
920.708	6486
920.818	6502
920.928	6467
921.038	6681
921.148	6601
921.258	6410
921.368	6281
921.477	6258
921.587	6175
921.697	6053
921.806	6197
921.916	6117
922.025	5961
922.134	5946
922.244	5920
922.353	5935
922.462	5824
922.571	5767
922.68	5668
922.789	5695
922.898	5695
923.007	5627
923.116	5741
923.224	5714
923.333	5623
923.442	5630
923.55	5566
923.659	5573
923.767	5627
923.876	5505
923.984	5630
924.092	5474
924.201	5615
924.309	5547
924.417	5509
924.525	5505
924.633	5490
924.741	6182
924.849	5379
924.956	5486
925.064	5353
925.172	5311
925.279	5299
925.387	5368
925.494	5341
925.602	5478
925.709	5425
925.816	5341
925.924	5330
926.031	5391
926.138	5265
926.245	5299
926.352	5242
926.459	5296
926.566	5284
926.673	5151
926.779	5136
926.886	5098
926.993	5052
927.099	4991
927.206	4999
927.312	4953
927.419	5010
927.525	4968
927.631	4999
927.737	4881
927.843	4839
927.95	4820
928.056	4831
928.162	4854
928.267	4892
928.373	5379
928.479	4866
928.585	4679
928.69	4755
928.796	4797
928.901	4748
929.007	4611
929.112	4664
929.218	4702
929.323	4596
929.428	4569
929.533	4656
929.638	4462
929.743	4516
929.848	4523
929.953	4489
930.058	4466
930.163	4356
930.267	4356
930.372	4462
930.477	4291
930.581	4459
930.685	4379
930.79	4265
930.894	4272
930.998	4215
931.103	4428
931.207	4185
931.311	4097
931.415	4044
931.519	3915
931.623	3934
