Data from glass_V78500241_2572.txt Node
Date: Wed Sep 01 19:32:19 CST 2021
User: usil
Spectrometer: V785-0024
Trigger mode: 0
Integration Time (sec): 4.000000E-1
Scans to average: 1
Nonlinearity correction enabled: false
Boxcar width: 0
Storing dark spectrum: false
XAxis mode: Wavelengths
Number of Pixels in Spectrum: 1024
>>>>>Begin Spectral Data<<<<<
801.071	3743
801.214	3732
801.356	3644
801.499	3732
801.641	3736
801.783	3762
801.926	3857
802.068	3823
802.211	3850
802.353	3869
802.496	3781
802.638	3880
802.78	3892
802.923	3941
803.065	3892
803.208	3819
803.35	3884
803.492	3945
803.635	3918
803.777	3781
803.919	3896
804.061	4128
804.204	3960
804.346	3918
804.488	3888
804.63	4051
804.773	3934
804.915	4055
805.057	4124
805.199	4097
805.341	4063
805.483	4082
805.626	4116
805.768	4101
805.91	4200
806.052	4238
806.194	4169
806.336	4341
806.478	4192
806.62	4207
806.762	4188
806.904	4253
807.046	4306
807.188	4173
807.33	4154
807.472	4223
807.614	4154
807.756	4249
807.898	4204
808.04	4200
808.182	4291
808.324	4306
808.465	4348
808.607	4436
808.749	4436
808.891	4489
809.033	4508
809.174	4405
809.316	4242
809.458	4234
809.6	4150
809.741	4124
809.883	4143
810.025	4200
810.166	4173
810.308	4181
810.45	4223
810.591	4249
810.733	4276
810.875	4512
811.016	4835
811.158	5094
811.299	5288
811.441	5235
811.582	5109
811.724	4702
811.865	4440
812.007	4470
812.148	4440
812.29	4337
812.431	4394
812.573	4348
812.714	4375
812.855	4379
812.997	4436
813.138	4474
813.279	4421
813.421	4383
813.562	4310
813.703	4329
813.845	4314
813.986	4253
814.127	4185
814.268	4227
814.41	4261
814.551	4230
814.692	4314
814.833	4284
814.974	4295
815.115	4341
815.256	4268
815.397	4223
815.539	4215
815.68	4207
815.821	4215
815.962	4287
816.103	4227
816.244	4238
816.385	4230
816.526	4234
816.666	4200
816.807	4071
816.948	4139
817.089	4200
817.23	4105
817.371	4040
817.512	4082
817.653	4048
817.793	4010
817.934	4029
818.075	4082
818.216	4074
818.356	4074
818.497	3968
818.638	3934
818.778	3903
818.919	3857
819.06	3873
819.2	3892
819.341	3827
819.481	3854
819.622	3888
819.762	4021
819.903	3949
820.043	3873
820.184	3850
820.324	3835
820.465	3846
820.605	3835
820.746	3835
820.886	3781
821.026	3884
821.167	3854
821.307	3994
821.447	3991
821.588	3968
821.728	3953
821.868	3873
822.008	3876
822.149	3896
822.289	3903
822.429	3751
822.569	3728
822.709	3781
822.849	3694
822.99	3713
823.13	3724
823.27	3762
823.41	3698
823.55	3717
823.69	3698
823.83	3724
823.97	3641
824.11	3572
824.25	3580
824.389	3644
824.529	3667
824.669	3618
824.809	3698
824.949	3785
825.089	3724
825.228	3682
825.368	3564
825.508	3561
825.648	3553
825.787	3633
825.927	3652
826.067	3584
826.206	3656
826.346	3774
826.485	3816
826.625	3842
826.765	3918
826.904	3823
827.044	3599
827.183	3523
827.323	3431
827.462	3500
827.601	3424
827.741	3424
827.88	3435
828.02	3382
828.159	3405
828.298	3450
828.437	3564
828.577	3469
828.716	3576
828.855	3526
828.994	3393
829.134	3359
829.273	3367
829.412	3355
829.551	3336
829.69	3348
829.829	3431
829.968	3507
830.107	3424
830.246	3389
830.385	3351
830.524	3382
830.663	3291
830.802	3195
830.941	3211
831.08	3211
831.219	3275
831.357	3279
831.496	3386
831.635	3184
831.774	3184
831.913	3199
832.051	3180
832.19	3116
832.329	3207
832.467	3123
832.606	3123
832.744	3154
832.883	3169
833.022	3176
833.16	3264
833.299	3264
833.437	3325
833.576	3359
833.714	3393
833.852	3378
833.991	3481
834.129	3466
834.267	3477
834.406	3374
834.544	3409
834.682	3370
834.821	3405
834.959	3542
835.097	3409
835.235	3561
835.373	3435
835.511	3496
835.65	3443
835.788	3507
835.926	3409
836.064	3344
836.202	3378
836.34	3576
836.478	3572
836.615	3542
836.753	3584
836.891	3629
837.029	3606
837.167	3572
837.305	3553
837.443	3553
837.58	3507
837.718	3614
837.856	3587
837.993	3549
838.131	3576
838.269	3534
838.406	3591
838.544	3561
838.681	3469
838.819	3462
838.956	3363
839.094	3389
839.231	3420
839.369	3515
839.506	3694
839.643	3633
839.781	3473
839.918	3443
840.055	3557
840.193	3534
840.33	3549
840.467	3523
840.604	3564
840.742	3804
840.879	3515
841.016	3534
841.153	3580
841.29	3724
841.427	3701
841.564	3694
841.701	3705
841.838	3667
841.975	3633
842.112	3690
842.249	3633
842.385	3610
842.522	3854
842.659	3660
842.796	3656
842.933	3679
843.069	3675
843.206	3709
843.343	3781
843.479	3770
843.616	3823
843.752	3648
843.889	3663
844.025	3838
844.162	3686
844.298	3819
844.435	3812
844.571	3751
844.708	3865
844.844	3956
844.98	3956
845.117	4002
845.253	3888
845.389	3873
845.525	3991
845.661	3960
845.798	3949
845.934	3968
846.07	3911
846.206	3998
846.342	4093
846.478	4074
846.614	3911
846.75	3937
846.886	3876
847.022	4059
847.158	4013
847.294	3968
847.429	4010
847.565	4021
847.701	4230
847.837	3842
847.972	3846
848.108	3987
848.244	3930
848.379	3842
848.515	3785
848.65	3766
848.786	3850
848.921	3880
849.057	3949
849.192	3915
849.328	3884
849.463	3899
849.598	3861
849.734	3880
849.869	3800
850.004	3804
850.14	3827
850.275	3724
850.41	3682
850.545	3724
850.68	3751
850.815	3808
850.95	3759
851.085	3918
851.22	3869
851.355	3793
851.49	3793
851.625	3785
851.76	3762
851.895	3732
852.03	3705
852.165	3774
852.299	3842
852.434	3861
852.569	3835
852.703	3896
852.838	3907
852.973	3983
853.107	3991
853.242	3857
853.376	3873
853.511	3728
853.645	3800
853.78	3941
853.914	3888
854.048	3896
854.183	3907
854.317	3922
854.451	4048
854.585	3907
854.72	3915
854.854	4059
854.988	3956
855.122	4013
855.256	3903
855.39	4002
855.524	4063
855.658	4082
855.792	4105
855.926	4120
856.06	4147
856.194	4204
856.327	4112
856.461	4169
856.595	4154
856.729	4143
856.862	4211
856.996	4268
857.13	4306
857.263	4337
857.397	4306
857.53	4268
857.664	4333
857.797	4367
857.931	4440
858.064	4398
858.197	4417
858.331	4386
858.464	4394
858.597	4356
858.731	4379
858.864	4466
858.997	4470
859.13	4504
859.263	4516
859.396	4611
859.529	4508
859.662	4497
859.795	4516
859.928	4607
860.061	4664
860.194	4717
860.327	4679
860.46	4675
860.592	4702
860.725	4759
860.858	4752
860.99	4679
861.123	4687
861.256	4660
861.388	4812
861.521	5398
861.653	4710
861.786	4683
861.918	4778
862.05	4752
862.183	4831
862.315	4824
862.447	4900
862.58	4896
862.712	4778
862.844	4725
862.976	4862
863.108	4900
863.24	5155
863.372	4805
863.504	4942
863.636	4900
863.768	4911
863.9	4938
864.032	4946
864.164	4908
864.296	5029
864.428	5071
864.559	5113
864.691	5117
864.823	5102
864.954	5086
865.086	5128
865.217	5094
865.349	5090
865.48	5136
865.612	5162
865.743	5288
865.875	5261
866.006	5174
866.137	5280
866.269	5197
866.4	5231
866.531	5208
866.662	5208
866.793	5220
866.924	5303
867.055	5341
867.186	5334
867.317	5254
867.448	5311
867.579	5357
867.71	5376
867.841	5391
867.972	5433
868.103	5455
868.233	5459
868.364	5452
868.495	5467
868.625	5668
868.756	5779
868.886	5661
869.017	5646
869.147	5817
869.278	5901
869.408	5832
869.539	5802
869.669	5920
869.799	5942
869.929	5958
870.06	6038
870.19	6152
870.32	6140
870.45	6220
870.58	6365
870.71	6422
870.84	6471
870.97	6445
871.1	6456
871.23	6642
871.36	6688
871.489	6635
871.619	6692
871.749	6783
871.879	6871
872.008	6954
872.138	6954
872.267	6977
872.397	7008
872.526	6973
872.656	7095
872.785	7266
872.915	7335
873.044	7483
873.173	7533
873.303	7666
873.432	7753
873.561	7811
873.69	7928
873.819	7978
873.948	8142
874.077	8240
874.206	8320
874.335	8450
874.464	8625
874.593	8792
874.722	8952
874.851	9043
874.979	9176
875.108	9344
875.237	9386
875.365	9530
875.494	9606
875.623	9789
875.751	9781
875.88	9960
876.008	10135
876.136	10287
876.265	10474
876.393	10778
876.521	10702
876.65	10782
876.778	10831
876.906	10904
877.034	10980
877.162	11083
877.29	11197
877.418	11258
877.546	11376
877.674	11410
877.802	11471
877.93	11505
878.058	11547
878.185	11482
878.313	11649
878.441	11737
878.568	11642
878.696	11775
878.824	11851
878.951	11927
879.079	12133
879.206	12083
879.333	12022
879.461	11977
879.588	12091
879.715	12041
879.842	12213
879.97	12110
880.097	11809
880.224	11946
880.351	11878
880.478	11893
880.605	11760
880.732	11760
880.859	11980
880.986	11840
881.112	11832
881.239	11805
881.366	11543
881.493	11623
881.619	11566
881.746	11566
881.872	11512
881.999	11547
882.125	11471
882.252	11524
882.378	11376
882.505	11562
882.631	11326
882.757	11376
882.883	11360
883.01	11284
883.136	11140
883.262	11140
883.388	11098
883.514	11227
883.64	11128
883.766	11086
883.892	11003
884.018	10923
884.143	10987
884.269	11041
884.395	10839
884.52	10748
884.646	10782
884.772	10725
884.897	10607
885.023	10561
885.148	10710
885.274	10820
885.399	10683
885.524	10622
885.65	10641
885.775	10584
885.9	10554
886.025	10577
886.15	10546
886.275	10417
886.4	10367
886.525	10409
886.65	10443
886.775	10367
886.9	10447
887.025	10481
887.149	10352
887.274	10253
887.399	10223
887.523	10158
887.648	10109
887.773	10131
887.897	10276
888.021	10143
888.146	10112
888.27	10230
888.395	10227
888.519	10192
888.643	10196
888.767	10223
888.891	10063
889.015	10013
889.139	9998
889.263	9960
889.387	10124
889.511	10120
889.635	10036
889.759	10021
889.883	10010
890.006	10013
890.13	10078
890.254	9937
890.377	9911
890.501	9823
890.624	9835
890.748	9831
890.871	9755
890.995	9686
891.118	9698
891.241	9762
891.364	9755
891.488	9827
891.611	9705
891.734	9797
891.857	9793
891.98	9717
892.103	9816
892.226	9690
892.349	9641
892.471	9458
892.594	9511
892.717	9633
892.839	9603
892.962	9557
893.085	9682
893.207	9576
893.33	9526
893.452	9553
893.575	9519
893.697	9473
893.819	9591
893.941	9652
894.064	9584
894.186	9348
894.308	9466
894.43	9511
894.552	9564
894.674	9500
894.796	9412
894.918	9359
895.04	9340
895.161	9370
895.283	9359
895.405	9245
895.526	9207
895.648	9260
895.769	9169
895.891	9230
896.012	9302
896.134	9222
896.255	9214
896.376	9142
896.498	9135
896.619	9108
896.74	9017
896.861	9081
896.982	9188
897.103	9298
897.224	9165
897.345	9070
897.466	8914
897.587	9036
897.708	9039
897.828	8975
897.949	8902
898.07	8872
898.19	8906
898.311	8986
898.431	8937
898.552	8975
898.672	8948
898.792	9036
898.913	8891
899.033	8773
899.153	8686
899.273	8613
899.393	8712
899.513	8823
899.633	8754
899.753	8674
899.873	8731
899.993	8720
900.113	8724
900.232	8727
900.352	8651
900.472	8598
900.591	8579
900.711	8552
900.83	8613
900.95	8651
901.069	8746
901.189	8636
901.308	8514
901.427	8389
901.546	8484
901.665	8480
901.784	8442
901.904	8305
902.023	8328
902.141	8210
902.26	8183
902.379	8256
902.498	8279
902.617	8225
902.735	8286
902.854	8267
902.973	8263
903.091	8111
903.21	8096
903.328	8130
903.446	8043
903.565	8008
903.683	8024
903.801	8065
903.919	8126
904.038	8107
904.156	8046
904.274	8039
904.392	7986
904.51	8024
904.627	7974
904.745	8050
904.863	8054
904.981	7902
905.098	7780
905.216	7776
905.334	7868
905.451	7852
905.569	7864
905.686	7902
905.803	7947
905.921	7753
906.038	7811
906.155	7757
906.272	7750
906.389	7742
906.506	7636
906.623	7601
906.74	7548
906.857	7514
906.974	7575
907.091	7685
907.208	7681
907.324	7594
907.441	7578
907.557	7514
907.674	7480
907.79	7392
907.907	7403
908.023	7373
908.139	7384
908.256	7362
908.372	7270
908.488	7297
908.604	7274
908.72	7228
908.836	7274
908.952	7213
909.068	7278
909.184	7293
909.3	7187
909.415	7274
909.531	7259
909.647	7133
909.762	7183
909.878	6993
909.993	7118
910.108	7103
910.224	7103
910.339	7103
910.454	7038
910.57	7012
910.685	6985
910.8	7114
910.915	7038
911.03	7004
911.145	6852
911.259	6882
911.374	6837
911.489	6772
911.604	6798
911.718	6772
911.833	6753
911.947	6620
912.062	6635
912.176	6696
912.291	6677
912.405	6726
912.519	6741
912.633	6810
912.748	6745
912.862	6726
912.976	6623
913.09	6506
913.204	6551
913.318	6650
913.431	6623
913.545	6654
913.659	6700
913.772	6593
913.886	6612
914	6559
914.113	6612
914.226	6631
914.34	6601
914.453	6509
914.566	6623
914.68	6479
914.793	6475
914.906	6445
915.019	6410
915.132	6365
915.245	6376
915.358	6380
915.47	6441
915.583	6445
915.696	6441
915.809	6544
915.921	6506
916.034	6407
916.146	6391
916.259	6437
916.371	6445
916.483	6445
916.595	6422
916.708	6403
916.82	6357
916.932	6395
917.044	6403
917.156	6418
917.268	6311
917.38	6342
917.491	6270
917.603	6323
917.715	6376
917.826	6384
917.938	6258
918.049	6197
918.161	6331
918.272	6437
918.384	6395
918.495	6304
918.606	6270
918.717	6186
918.828	6251
918.939	6228
919.05	6194
919.161	6232
919.272	6098
919.383	6167
919.494	6273
919.604	6407
919.715	6232
919.826	6205
919.936	6262
920.047	6308
920.157	6254
920.267	6422
920.378	6315
920.488	6247
920.598	6399
920.708	6521
920.818	6433
920.928	6445
921.038	6612
921.148	6566
921.258	6391
921.368	6281
921.477	6190
921.587	6117
921.697	6091
921.806	6159
921.916	6076
922.025	5965
922.134	5859
922.244	5878
922.353	5942
922.462	5847
922.571	5760
922.68	5703
922.789	5691
922.898	5691
923.007	5592
923.116	5695
923.224	5661
923.333	5684
923.442	5570
923.55	5558
923.659	5566
923.767	5653
923.876	5570
923.984	5562
924.092	5524
924.201	5535
924.309	5516
924.417	5558
924.525	5486
924.633	5532
924.741	6254
924.849	5326
924.956	5512
925.064	5364
925.172	5315
925.279	5296
925.387	5337
925.494	5299
925.602	5383
925.709	5391
925.816	5239
925.924	5299
926.031	5372
926.138	5353
926.245	5322
926.352	5208
926.459	5307
926.566	5311
926.673	5212
926.779	5143
926.886	5064
926.993	5010
927.099	4999
927.206	4938
927.312	4949
927.419	5006
927.525	4980
927.631	5010
927.737	4858
927.843	4873
927.95	4767
928.056	4812
928.162	4793
928.267	4816
928.373	5258
928.479	4854
928.585	4714
928.69	4759
928.796	4717
928.901	4668
929.007	4527
929.112	4664
929.218	4653
929.323	4645
929.428	4554
929.533	4649
929.638	4512
929.743	4481
929.848	4558
929.953	4516
930.058	4405
930.163	4314
930.267	4337
930.372	4417
930.477	4299
930.581	4474
930.685	4386
930.79	4223
930.894	4268
930.998	4246
931.103	4424
931.207	4109
931.311	4078
931.415	4040
931.519	3922
931.623	3918
