Data from glass_V78500241_1798.txt Node
Date: Wed Sep 01 19:26:57 CST 2021
User: usil
Spectrometer: V785-0024
Trigger mode: 0
Integration Time (sec): 4.000000E-1
Scans to average: 1
Nonlinearity correction enabled: false
Boxcar width: 0
Storing dark spectrum: false
XAxis mode: Wavelengths
Number of Pixels in Spectrum: 1024
>>>>>Begin Spectral Data<<<<<
801.071	3709
801.214	3740
801.356	3751
801.499	3747
801.641	3751
801.783	3816
801.926	3842
802.068	3812
802.211	3850
802.353	3873
802.496	3808
802.638	3865
802.78	3899
802.923	3964
803.065	3892
803.208	3842
803.35	3861
803.492	3911
803.635	3903
803.777	3854
803.919	3911
804.061	4169
804.204	3960
804.346	3956
804.488	3922
804.63	3994
804.773	3956
804.915	4002
805.057	4097
805.199	4010
805.341	4078
805.483	4173
805.626	4090
805.768	4093
805.91	4215
806.052	4246
806.194	4192
806.336	4325
806.478	4188
806.62	4131
806.762	4196
806.904	4257
807.046	4265
807.188	4204
807.33	4166
807.472	4230
807.614	4177
807.756	4234
807.898	4204
808.04	4268
808.182	4253
808.324	4306
808.465	4409
808.607	4459
808.749	4485
808.891	4447
809.033	4500
809.174	4390
809.316	4257
809.458	4276
809.6	4143
809.741	4131
809.883	4120
810.025	4166
810.166	4219
810.308	4207
810.45	4261
810.591	4223
810.733	4276
810.875	4451
811.016	4820
811.158	5121
811.299	5273
811.441	5299
811.582	5045
811.724	4698
811.865	4436
812.007	4478
812.148	4386
812.29	4390
812.431	4375
812.573	4375
812.714	4352
812.855	4459
812.997	4440
813.138	4470
813.279	4459
813.421	4402
813.562	4367
813.703	4310
813.845	4356
813.986	4249
814.127	4192
814.268	4287
814.41	4284
814.551	4276
814.692	4322
814.833	4306
814.974	4291
815.115	4337
815.256	4246
815.397	4265
815.539	4211
815.68	4192
815.821	4215
815.962	4291
816.103	4295
816.244	4238
816.385	4219
816.526	4276
816.666	4211
816.807	4101
816.948	4192
817.089	4143
817.23	4116
817.371	4063
817.512	4059
817.653	4101
817.793	4059
817.934	4063
818.075	4063
818.216	4086
818.356	4048
818.497	4025
818.638	3819
818.778	3903
818.919	3884
819.06	3861
819.2	3873
819.341	3827
819.481	3808
819.622	3857
819.762	4010
819.903	3899
820.043	3850
820.184	3819
820.324	3823
820.465	3937
820.605	3884
820.746	3896
820.886	3800
821.026	3876
821.167	3918
821.307	3956
821.447	3960
821.588	3945
821.728	3918
821.868	3922
822.008	3888
822.149	3892
822.289	3941
822.429	3793
822.569	3785
822.709	3793
822.849	3679
822.99	3728
823.13	3740
823.27	3789
823.41	3724
823.55	3762
823.69	3679
823.83	3724
823.97	3652
824.11	3599
824.25	3644
824.389	3652
824.529	3682
824.669	3644
824.809	3713
824.949	3774
825.089	3709
825.228	3671
825.368	3557
825.508	3591
825.648	3576
825.787	3580
825.927	3641
826.067	3629
826.206	3663
826.346	3785
826.485	3865
826.625	3827
826.765	3911
826.904	3835
827.044	3629
827.183	3538
827.323	3397
827.462	3504
827.601	3443
827.741	3424
827.88	3450
828.02	3374
828.159	3492
828.298	3481
828.437	3534
828.577	3481
828.716	3606
828.855	3481
828.994	3367
829.134	3378
829.273	3374
829.412	3348
829.551	3321
829.69	3367
829.829	3466
829.968	3492
830.107	3431
830.246	3454
830.385	3382
830.524	3351
830.663	3321
830.802	3245
830.941	3173
831.08	3230
831.219	3256
831.357	3253
831.496	3393
831.635	3207
831.774	3184
831.913	3214
832.051	3131
832.19	3169
832.329	3237
832.467	3112
832.606	3085
832.744	3157
832.883	3192
833.022	3195
833.16	3272
833.299	3268
833.437	3355
833.576	3367
833.714	3397
833.852	3424
833.991	3386
834.129	3485
834.267	3466
834.406	3424
834.544	3393
834.682	3405
834.821	3405
834.959	3557
835.097	3409
835.235	3530
835.373	3488
835.511	3473
835.65	3481
835.788	3500
835.926	3416
836.064	3367
836.202	3405
836.34	3591
836.478	3606
836.615	3523
836.753	3572
836.891	3660
837.029	3633
837.167	3576
837.305	3564
837.443	3530
837.58	3496
837.718	3572
837.856	3591
837.993	3530
838.131	3591
838.269	3534
838.406	3595
838.544	3603
838.681	3447
838.819	3481
838.956	3397
839.094	3424
839.231	3435
839.369	3530
839.506	3682
839.643	3637
839.781	3511
839.918	3435
840.055	3545
840.193	3519
840.33	3549
840.467	3564
840.604	3614
840.742	3827
840.879	3545
841.016	3542
841.153	3603
841.29	3766
841.427	3740
841.564	3759
841.701	3705
841.838	3717
841.975	3709
842.112	3713
842.249	3648
842.385	3637
842.522	3842
842.659	3694
842.796	3644
842.933	3686
843.069	3720
843.206	3740
843.343	3789
843.479	3774
843.616	3819
843.752	3656
843.889	3705
844.025	3808
844.162	3759
844.298	3846
844.435	3804
844.571	3774
844.708	3880
844.844	3991
844.98	4002
845.117	4029
845.253	3956
845.389	3907
845.525	3918
845.661	3960
845.798	3896
845.934	4029
846.07	3987
846.206	4059
846.342	4097
846.478	4082
846.614	3991
846.75	3975
846.886	3880
847.022	3991
847.158	3918
847.294	3953
847.429	3991
847.565	4010
847.701	4215
847.837	3876
847.972	3846
848.108	3949
848.244	3937
848.379	3846
848.515	3823
848.65	3774
848.786	3854
848.921	3857
849.057	3896
849.192	3907
849.328	3899
849.463	3899
849.598	3823
849.734	3808
849.869	3861
850.004	3781
850.14	3827
850.275	3812
850.41	3740
850.545	3736
850.68	3736
850.815	3812
850.95	3819
851.085	3964
851.22	3827
851.355	3816
851.49	3781
851.625	3770
851.76	3797
851.895	3740
852.03	3705
852.165	3774
852.299	3842
852.434	3896
852.569	3854
852.703	3857
852.838	3915
852.973	4017
853.107	3964
853.242	3899
853.376	3854
853.511	3789
853.645	3835
853.78	3975
853.914	3930
854.048	3892
854.183	3865
854.317	3945
854.451	4059
854.585	3960
854.72	3941
854.854	4017
854.988	3884
855.122	3994
855.256	3930
855.39	3998
855.524	4097
855.658	4063
855.792	4109
855.926	4120
856.06	4120
856.194	4219
856.327	4135
856.461	4086
856.595	4158
856.729	4185
856.862	4257
856.996	4211
857.13	4314
857.263	4344
857.397	4371
857.53	4261
857.664	4371
857.797	4383
857.931	4443
858.064	4367
858.197	4413
858.331	4348
858.464	4386
858.597	4367
858.731	4428
858.864	4402
858.997	4493
859.13	4516
859.263	4554
859.396	4550
859.529	4508
859.662	4497
859.795	4523
859.928	4607
860.061	4675
860.194	4763
860.327	4668
860.46	4584
860.592	4717
860.725	4748
860.858	4797
860.99	4691
861.123	4683
861.256	4683
861.388	4801
861.521	5376
861.653	4755
861.786	4733
861.918	4778
862.05	4786
862.183	4809
862.315	4881
862.447	4938
862.58	4961
862.712	4809
862.844	4778
862.976	4877
863.108	4862
863.24	5261
863.372	4824
863.504	4885
863.636	4885
863.768	4942
863.9	4961
864.032	4946
864.164	4957
864.296	5006
864.428	5094
864.559	5079
864.691	5083
864.823	5083
864.954	5117
865.086	5151
865.217	5197
865.349	5064
865.48	5128
865.612	5201
865.743	5246
865.875	5181
866.006	5208
866.137	5239
866.269	5242
866.4	5261
866.531	5250
866.662	5235
866.793	5269
866.924	5345
867.055	5353
867.186	5311
867.317	5391
867.448	5288
867.579	5398
867.71	5357
867.841	5353
867.972	5429
868.103	5459
868.233	5512
868.364	5493
868.495	5512
868.625	5668
868.756	5745
868.886	5619
869.017	5718
869.147	5824
869.278	5859
869.408	5832
869.539	5832
869.669	5889
869.799	5851
869.929	5965
870.06	5946
870.19	6148
870.32	6163
870.45	6216
870.58	6357
870.71	6452
870.84	6471
870.97	6410
871.1	6437
871.23	6650
871.36	6741
871.489	6741
871.619	6791
871.749	6783
871.879	6848
872.008	6973
872.138	6996
872.267	6954
872.397	7050
872.526	7072
872.656	7107
872.785	7225
872.915	7358
873.044	7518
873.173	7601
873.303	7643
873.432	7731
873.561	7940
873.69	7947
873.819	8016
873.948	8199
874.077	8237
874.206	8290
874.335	8499
874.464	8632
874.593	8823
874.722	8895
874.851	9108
874.979	9241
875.108	9367
875.237	9477
875.365	9469
875.494	9648
875.623	9812
875.751	9827
875.88	9998
876.008	10067
876.136	10238
876.265	10493
876.393	10809
876.521	10721
876.65	10812
876.778	10824
876.906	10904
877.034	10972
877.162	11090
877.29	11075
877.418	11307
877.546	11299
877.674	11383
877.802	11486
877.93	11478
878.058	11611
878.185	11623
878.313	11726
878.441	11775
878.568	11611
878.696	11817
878.824	11813
878.951	11958
879.079	12049
879.206	12095
879.333	12083
879.461	11973
879.588	12022
879.715	12007
879.842	12171
879.97	12045
880.097	11832
880.224	11897
880.351	11855
880.478	11847
880.605	11813
880.732	11874
880.859	11988
880.986	11798
881.112	11821
881.239	11668
881.366	11668
881.493	11581
881.619	11551
881.746	11596
881.872	11505
881.999	11512
882.125	11558
882.252	11646
882.378	11474
882.505	11539
882.631	11372
882.757	11174
882.883	11337
883.01	11208
883.136	11117
883.262	11064
883.388	11003
883.514	11181
883.64	11151
883.766	11079
883.892	10968
884.018	10999
884.143	11022
884.269	11102
884.395	10854
884.52	10824
884.646	10725
884.772	10637
884.897	10641
885.023	10698
885.148	10611
885.274	10687
885.399	10729
885.524	10634
885.65	10573
885.775	10603
885.9	10577
886.025	10580
886.15	10527
886.275	10432
886.4	10318
886.525	10375
886.65	10306
886.775	10310
886.9	10478
887.025	10497
887.149	10455
887.274	10356
887.399	10169
887.523	10150
887.648	10147
887.773	10101
887.897	10322
888.021	10207
888.146	10177
888.27	10219
888.395	10238
888.519	10143
888.643	10120
888.767	10242
888.891	10063
889.015	9994
889.139	10063
889.263	9991
889.387	10055
889.511	10097
889.635	9975
889.759	10036
889.883	9964
890.006	10010
890.13	10120
890.254	9899
890.377	9918
890.501	9812
890.624	9857
890.748	9884
890.871	9774
890.995	9793
891.118	9728
891.241	9747
891.364	9747
891.488	9831
891.611	9705
891.734	9671
891.857	9785
891.98	9793
892.103	9766
892.226	9686
892.349	9686
892.471	9496
892.594	9595
892.717	9549
892.839	9580
892.962	9663
893.085	9679
893.207	9564
893.33	9553
893.452	9492
893.575	9538
893.697	9450
893.819	9580
893.941	9599
894.064	9553
894.186	9447
894.308	9382
894.43	9599
894.552	9526
894.674	9462
894.796	9344
894.918	9424
895.04	9325
895.161	9401
895.283	9367
895.405	9161
895.526	9249
895.648	9176
895.769	9291
895.891	9237
896.012	9211
896.134	9291
896.255	9108
896.376	9138
896.498	9157
896.619	9123
896.74	8998
896.861	9005
896.982	9302
897.103	9310
897.224	9104
897.345	9127
897.466	9020
897.587	9024
897.708	9070
897.828	8963
897.949	8925
898.07	8868
898.19	8918
898.311	8963
898.431	8883
898.552	8857
898.672	8963
898.792	8960
898.913	8895
899.033	8845
899.153	8735
899.273	8682
899.393	8708
899.513	8762
899.633	8758
899.753	8788
899.873	8693
899.993	8758
900.113	8731
900.232	8731
900.352	8629
900.472	8556
900.591	8495
900.711	8590
900.83	8571
900.95	8648
901.069	8712
901.189	8541
901.308	8454
901.427	8412
901.546	8412
901.665	8423
901.784	8503
901.904	8412
902.023	8328
902.141	8202
902.26	8172
902.379	8290
902.498	8187
902.617	8210
902.735	8305
902.854	8240
902.973	8259
903.091	8195
903.21	8092
903.328	8199
903.446	8081
903.565	8096
903.683	8107
903.801	8092
903.919	8153
904.038	8058
904.156	8130
904.274	8126
904.392	7997
904.51	8065
904.627	8008
904.745	8084
904.863	8054
904.981	7925
905.098	7837
905.216	7860
905.334	7955
905.451	7849
905.569	7883
905.686	7868
905.803	7917
905.921	7772
906.038	7955
906.155	7830
906.272	7712
906.389	7704
906.506	7616
906.623	7662
906.74	7578
906.857	7578
906.974	7594
907.091	7696
907.208	7723
907.324	7563
907.441	7578
907.557	7483
907.674	7449
907.79	7358
907.907	7365
908.023	7460
908.139	7384
908.256	7373
908.372	7392
908.488	7377
908.604	7251
908.72	7240
908.836	7259
908.952	7206
909.068	7263
909.184	7293
909.3	7266
909.415	7331
909.531	7278
909.647	7110
909.762	7118
909.878	7034
909.993	7149
910.108	7099
910.224	7114
910.339	7057
910.454	7072
910.57	7023
910.685	6989
910.8	7156
910.915	7061
911.03	7122
911.145	6958
911.259	6814
911.374	6897
911.489	6802
911.604	6753
911.718	6703
911.833	6722
911.947	6700
912.062	6612
912.176	6700
912.291	6688
912.405	6703
912.519	6878
912.633	6821
912.748	6772
912.862	6711
912.976	6650
913.09	6521
913.204	6559
913.318	6570
913.431	6700
913.545	6700
913.659	6677
913.772	6631
913.886	6597
914	6585
914.113	6639
914.226	6669
914.34	6631
914.453	6464
914.566	6589
914.68	6525
914.793	6513
914.906	6460
915.019	6391
915.132	6410
915.245	6369
915.358	6464
915.47	6521
915.583	6460
915.696	6422
915.809	6536
915.921	6498
916.034	6422
916.146	6441
916.259	6441
916.371	6467
916.483	6441
916.595	6395
916.708	6372
916.82	6372
916.932	6380
917.044	6429
917.156	6380
917.268	6327
917.38	6315
917.491	6331
917.603	6346
917.715	6361
917.826	6441
917.938	6334
918.049	6235
918.161	6342
918.272	6403
918.384	6372
918.495	6311
918.606	6254
918.717	6258
918.828	6220
918.939	6331
919.05	6186
919.161	6273
919.272	6091
919.383	6155
919.494	6266
919.604	6418
919.715	6300
919.826	6220
919.936	6239
920.047	6323
920.157	6258
920.267	6471
920.378	6357
920.488	6270
920.598	6464
920.708	6536
920.818	6437
920.928	6418
921.038	6597
921.148	6570
921.258	6338
921.368	6331
921.477	6213
921.587	6194
921.697	6087
921.806	6213
921.916	6041
922.025	5965
922.134	5927
922.244	5904
922.353	5946
922.462	5901
922.571	5794
922.68	5695
922.789	5634
922.898	5646
923.007	5615
923.116	5733
923.224	5691
923.333	5657
923.442	5642
923.55	5554
923.659	5600
923.767	5600
923.876	5532
923.984	5585
924.092	5398
924.201	5566
924.309	5509
924.417	5600
924.525	5444
924.633	5532
924.741	6216
924.849	5425
924.956	5486
925.064	5315
925.172	5273
925.279	5353
925.387	5372
925.494	5326
925.602	5387
925.709	5376
925.816	5334
925.924	5311
926.031	5299
926.138	5261
926.245	5337
926.352	5216
926.459	5318
926.566	5318
926.673	5216
926.779	5117
926.886	5113
926.993	5006
927.099	5022
927.206	4976
927.312	4923
927.419	5022
927.525	4991
927.631	4953
927.737	4877
927.843	4820
927.95	4774
928.056	4809
928.162	4881
928.267	4828
928.373	5318
928.479	4816
928.585	4721
928.69	4755
928.796	4755
928.901	4702
929.007	4618
929.112	4672
929.218	4637
929.323	4592
929.428	4569
929.533	4603
929.638	4550
929.743	4508
929.848	4512
929.953	4535
930.058	4447
930.163	4337
930.267	4306
930.372	4447
930.477	4314
930.581	4474
930.685	4348
930.79	4265
930.894	4268
930.998	4265
931.103	4402
931.207	4116
931.311	4086
931.415	4036
931.519	3945
931.623	3953
