Data from glass_V78500241_65.txt Node
Date: Wed Sep 01 19:14:56 CST 2021
User: usil
Spectrometer: V785-0024
Trigger mode: 0
Integration Time (sec): 4.000000E-1
Scans to average: 1
Nonlinearity correction enabled: false
Boxcar width: 0
Storing dark spectrum: false
XAxis mode: Wavelengths
Number of Pixels in Spectrum: 1024
>>>>>Begin Spectral Data<<<<<
801.071	3736
801.214	3774
801.356	3728
801.499	3755
801.641	3743
801.783	3797
801.926	3873
802.068	3835
802.211	3896
802.353	3896
802.496	3846
802.638	3896
802.78	3934
802.923	3975
803.065	3903
803.208	3831
803.35	3850
803.492	3873
803.635	3949
803.777	3800
803.919	3903
804.061	4143
804.204	3972
804.346	4051
804.488	3979
804.63	4067
804.773	4021
804.915	4048
805.057	4192
805.199	4078
805.341	4135
805.483	4150
805.626	4147
805.768	4154
805.91	4219
806.052	4192
806.194	4207
806.336	4402
806.478	4246
806.62	4150
806.762	4177
806.904	4284
807.046	4333
807.188	4219
807.33	4238
807.472	4253
807.614	4196
807.756	4246
807.898	4234
808.04	4227
808.182	4291
808.324	4360
808.465	4383
808.607	4516
808.749	4462
808.891	4493
809.033	4504
809.174	4394
809.316	4242
809.458	4303
809.6	4162
809.741	4166
809.883	4154
810.025	4219
810.166	4219
810.308	4276
810.45	4257
810.591	4261
810.733	4337
810.875	4512
811.016	4828
811.158	5132
811.299	5288
811.441	5288
811.582	5071
811.724	4759
811.865	4500
812.007	4466
812.148	4451
812.29	4432
812.431	4413
812.573	4379
812.714	4436
812.855	4402
812.997	4424
813.138	4447
813.279	4424
813.421	4375
813.562	4402
813.703	4337
813.845	4325
813.986	4272
814.127	4219
814.268	4287
814.41	4268
814.551	4322
814.692	4413
814.833	4253
814.974	4329
815.115	4375
815.256	4249
815.397	4280
815.539	4280
815.68	4196
815.821	4230
815.962	4325
816.103	4268
816.244	4234
816.385	4276
816.526	4303
816.666	4219
816.807	4074
816.948	4188
817.089	4207
817.23	4135
817.371	4105
817.512	4093
817.653	4090
817.793	4036
817.934	4048
818.075	4109
818.216	4109
818.356	4116
818.497	4013
818.638	3899
818.778	3896
818.919	3922
819.06	3907
819.2	3922
819.341	3865
819.481	3819
819.622	3949
819.762	4021
819.903	3907
820.043	3827
820.184	3835
820.324	3819
820.465	3903
820.605	3865
820.746	3873
820.886	3789
821.026	3934
821.167	3918
821.307	4010
821.447	4029
821.588	3937
821.728	3945
821.868	3945
822.008	3861
822.149	3937
822.289	3964
822.429	3781
822.569	3774
822.709	3854
822.849	3694
822.99	3720
823.13	3785
823.27	3789
823.41	3713
823.55	3728
823.69	3736
823.83	3751
823.97	3720
824.11	3648
824.25	3637
824.389	3603
824.529	3663
824.669	3656
824.809	3740
824.949	3762
825.089	3766
825.228	3720
825.368	3584
825.508	3610
825.648	3580
825.787	3587
825.927	3618
826.067	3652
826.206	3682
826.346	3819
826.485	3869
826.625	3876
826.765	3949
826.904	3823
827.044	3599
827.183	3561
827.323	3496
827.462	3507
827.601	3500
827.741	3447
827.88	3488
828.02	3359
828.159	3458
828.298	3500
828.437	3549
828.577	3481
828.716	3618
828.855	3492
828.994	3416
829.134	3363
829.273	3416
829.412	3344
829.551	3340
829.69	3382
829.829	3477
829.968	3488
830.107	3473
830.246	3428
830.385	3386
830.524	3382
830.663	3321
830.802	3279
830.941	3249
831.08	3241
831.219	3294
831.357	3245
831.496	3458
831.635	3283
831.774	3157
831.913	3241
832.051	3154
832.19	3173
832.329	3233
832.467	3138
832.606	3142
832.744	3192
832.883	3180
833.022	3218
833.16	3264
833.299	3294
833.437	3363
833.576	3416
833.714	3386
833.852	3450
833.991	3435
834.129	3477
834.267	3454
834.406	3401
834.544	3454
834.682	3469
834.821	3469
834.959	3618
835.097	3443
835.235	3534
835.373	3485
835.511	3519
835.65	3450
835.788	3473
835.926	3431
836.064	3382
836.202	3431
836.34	3610
836.478	3614
836.615	3545
836.753	3618
836.891	3671
837.029	3610
837.167	3610
837.305	3606
837.443	3576
837.58	3492
837.718	3614
837.856	3542
837.993	3538
838.131	3633
838.269	3591
838.406	3625
838.544	3595
838.681	3447
838.819	3462
838.956	3370
839.094	3412
839.231	3435
839.369	3553
839.506	3724
839.643	3637
839.781	3473
839.918	3481
840.055	3534
840.193	3530
840.33	3553
840.467	3526
840.604	3595
840.742	3846
840.879	3580
841.016	3599
841.153	3587
841.29	3770
841.427	3785
841.564	3759
841.701	3747
841.838	3709
841.975	3717
842.112	3774
842.249	3679
842.385	3633
842.522	3831
842.659	3698
842.796	3698
842.933	3740
843.069	3740
843.206	3736
843.343	3785
843.479	3774
843.616	3804
843.752	3728
843.889	3686
844.025	3903
844.162	3759
844.298	3865
844.435	3766
844.571	3766
844.708	3911
844.844	3991
844.98	4078
845.117	4044
845.253	3941
845.389	3918
845.525	3960
845.661	3994
845.798	3975
845.934	4055
846.07	3960
846.206	4082
846.342	4154
846.478	4082
846.614	3964
846.75	3945
846.886	3960
847.022	4051
847.158	3956
847.294	4025
847.429	4055
847.565	3991
847.701	4253
847.837	3930
847.972	3873
848.108	3994
848.244	3987
848.379	3861
848.515	3778
848.65	3797
848.786	3850
848.921	3899
849.057	3983
849.192	3972
849.328	3888
849.463	3941
849.598	3888
849.734	3896
849.869	3827
850.004	3785
850.14	3831
850.275	3800
850.41	3755
850.545	3797
850.68	3793
850.815	3819
850.95	3835
851.085	3922
851.22	3876
851.355	3842
851.49	3827
851.625	3827
851.76	3835
851.895	3755
852.03	3762
852.165	3808
852.299	3865
852.434	3953
852.569	3934
852.703	3903
852.838	3930
852.973	4036
853.107	4006
853.242	3880
853.376	3876
853.511	3816
853.645	3835
853.78	3968
853.914	3926
854.048	3918
854.183	3896
854.317	3953
854.451	4109
854.585	3972
854.72	3956
854.854	4101
854.988	3941
855.122	4029
855.256	3907
855.39	4032
855.524	4097
855.658	4135
855.792	4078
855.926	4169
856.06	4185
856.194	4246
856.327	4147
856.461	4188
856.595	4162
856.729	4207
856.862	4280
856.996	4261
857.13	4325
857.263	4360
857.397	4383
857.53	4265
857.664	4379
857.797	4417
857.931	4417
858.064	4409
858.197	4497
858.331	4413
858.464	4383
858.597	4348
858.731	4421
858.864	4497
858.997	4493
859.13	4542
859.263	4542
859.396	4683
859.529	4542
859.662	4558
859.795	4546
859.928	4668
860.061	4702
860.194	4706
860.327	4755
860.46	4672
860.592	4748
860.725	4793
860.858	4763
860.99	4679
861.123	4717
861.256	4729
861.388	4801
861.521	5368
861.653	4649
861.786	4679
861.918	4790
862.05	4812
862.183	4835
862.315	4915
862.447	4934
862.58	4900
862.712	4831
862.844	4839
862.976	4866
863.108	4885
863.24	5296
863.372	4862
863.504	4949
863.636	4942
863.768	4942
863.9	4980
864.032	4957
864.164	4995
864.296	5003
864.428	5162
864.559	5105
864.691	5162
864.823	5117
864.954	5117
865.086	5162
865.217	5121
865.349	5121
865.48	5159
865.612	5204
865.743	5288
865.875	5254
866.006	5193
866.137	5307
866.269	5235
866.4	5250
866.531	5227
866.662	5220
866.793	5296
866.924	5277
867.055	5360
867.186	5349
867.317	5292
867.448	5353
867.579	5414
867.71	5368
867.841	5391
867.972	5471
868.103	5520
868.233	5459
868.364	5505
868.495	5623
868.625	5691
868.756	5760
868.886	5684
869.017	5718
869.147	5836
869.278	5893
869.408	5798
869.539	5821
869.669	5920
869.799	5942
869.929	5980
870.06	6015
870.19	6228
870.32	6235
870.45	6289
870.58	6395
870.71	6490
870.84	6448
870.97	6486
871.1	6433
871.23	6620
871.36	6745
871.489	6684
871.619	6787
871.749	6814
871.879	6878
872.008	6920
872.138	6989
872.267	7015
872.397	6985
872.526	7004
872.656	7129
872.785	7247
872.915	7400
873.044	7502
873.173	7559
873.303	7628
873.432	7738
873.561	7940
873.69	7898
873.819	7993
873.948	8149
874.077	8305
874.206	8309
874.335	8438
874.464	8708
874.593	8845
874.722	8994
874.851	9127
874.979	9264
875.108	9332
875.237	9405
875.365	9397
875.494	9644
875.623	9854
875.751	9873
875.88	10040
876.008	10166
876.136	10272
876.265	10527
876.393	10687
876.521	10729
876.65	10892
876.778	10968
876.906	10892
877.034	11064
877.162	11185
877.29	11155
877.418	11242
877.546	11455
877.674	11421
877.802	11452
877.93	11581
878.058	11604
878.185	11661
878.313	11623
878.441	11779
878.568	11691
878.696	11901
878.824	11767
878.951	11980
879.079	12041
879.206	12155
879.333	12057
879.461	11916
879.588	12098
879.715	12068
879.842	12228
879.97	12038
880.097	11954
880.224	11904
880.351	11855
880.478	11901
880.605	11832
880.732	11813
880.859	12007
880.986	11855
881.112	11802
881.239	11809
881.366	11627
881.493	11581
881.619	11608
881.746	11562
881.872	11570
881.999	11429
882.125	11478
882.252	11558
882.378	11520
882.505	11592
882.631	11368
882.757	11307
882.883	11292
883.01	11273
883.136	11185
883.262	11170
883.388	11060
883.514	11178
883.64	11201
883.766	11090
883.892	10999
884.018	10980
884.143	11143
884.269	11083
884.395	10850
884.52	10797
884.646	10816
884.772	10729
884.897	10626
885.023	10683
885.148	10702
885.274	10809
885.399	10717
885.524	10664
885.65	10630
885.775	10546
885.9	10538
886.025	10580
886.15	10554
886.275	10413
886.4	10352
886.525	10379
886.65	10424
886.775	10405
886.9	10432
887.025	10535
887.149	10371
887.274	10291
887.399	10181
887.523	10242
887.648	10143
887.773	10143
887.897	10211
888.021	10242
888.146	10147
888.27	10204
888.395	10242
888.519	10196
888.643	10227
888.767	10124
888.891	10036
889.015	9998
889.139	10071
889.263	9968
889.387	10048
889.511	10150
889.635	10059
889.759	9968
889.883	10055
890.006	10032
890.13	10124
890.254	9983
890.377	9953
890.501	9922
890.624	9899
890.748	9888
890.871	9774
890.995	9785
891.118	9705
891.241	9766
891.364	9701
891.488	9865
891.611	9823
891.734	9755
891.857	9800
891.98	9728
892.103	9819
892.226	9755
892.349	9690
892.471	9542
892.594	9614
892.717	9656
892.839	9644
892.962	9606
893.085	9625
893.207	9667
893.33	9511
893.452	9614
893.575	9622
893.697	9561
893.819	9660
893.941	9568
894.064	9614
894.186	9477
894.308	9374
894.43	9568
894.552	9584
894.674	9545
894.796	9458
894.918	9466
895.04	9401
895.161	9424
895.283	9397
895.405	9199
895.526	9294
895.648	9241
895.769	9279
895.891	9279
896.012	9313
896.134	9279
896.255	9157
896.376	9199
896.498	9104
896.619	9119
896.74	9043
896.861	9028
896.982	9249
897.103	9287
897.224	9173
897.345	9104
897.466	9043
897.587	9058
897.708	9009
897.828	9013
897.949	8982
898.07	8952
898.19	8941
898.311	9001
898.431	8891
898.552	8952
898.672	9017
898.792	8963
898.913	8918
899.033	8823
899.153	8826
899.273	8670
899.393	8678
899.513	8811
899.633	8739
899.753	8823
899.873	8720
899.993	8708
900.113	8758
900.232	8724
900.352	8670
900.472	8621
900.591	8545
900.711	8617
900.83	8598
900.95	8667
901.069	8766
901.189	8587
901.308	8473
901.427	8450
901.546	8469
901.665	8499
901.784	8537
901.904	8419
902.023	8355
902.141	8221
902.26	8275
902.379	8309
902.498	8275
902.617	8202
902.735	8317
902.854	8313
902.973	8256
903.091	8142
903.21	8161
903.328	8237
903.446	8096
903.565	8050
903.683	8111
903.801	8039
903.919	8176
904.038	8145
904.156	7955
904.274	8084
904.392	8043
904.51	8050
904.627	8039
904.745	8088
904.863	8077
904.981	7970
905.098	7887
905.216	7822
905.334	7909
905.451	7928
905.569	7936
905.686	7925
905.803	7887
905.921	7841
906.038	7837
906.155	7795
906.272	7689
906.389	7776
906.506	7662
906.623	7666
906.74	7624
906.857	7514
906.974	7537
907.091	7643
907.208	7704
907.324	7666
907.441	7594
907.557	7499
907.674	7506
907.79	7396
907.907	7434
908.023	7449
908.139	7449
908.256	7430
908.372	7403
908.488	7369
908.604	7331
908.72	7285
908.836	7251
908.952	7274
909.068	7251
909.184	7316
909.3	7225
909.415	7282
909.531	7274
909.647	7129
909.762	7069
909.878	7171
909.993	7099
910.108	7091
910.224	7088
910.339	7095
910.454	7038
910.57	6947
910.685	6985
910.8	7152
910.915	7198
911.03	7031
911.145	6871
911.259	6947
911.374	6932
911.489	6791
911.604	6844
911.718	6779
911.833	6757
911.947	6696
912.062	6597
912.176	6696
912.291	6745
912.405	6700
912.519	6783
912.633	6829
912.748	6692
912.862	6684
912.976	6627
913.09	6563
913.204	6589
913.318	6650
913.431	6662
913.545	6700
913.659	6726
913.772	6639
913.886	6551
914	6563
914.113	6608
914.226	6627
914.34	6604
914.453	6506
914.566	6585
914.68	6506
914.793	6559
914.906	6429
915.019	6365
915.132	6395
915.245	6437
915.358	6448
915.47	6445
915.583	6410
915.696	6498
915.809	6544
915.921	6563
916.034	6426
916.146	6380
916.259	6403
916.371	6471
916.483	6452
916.595	6426
916.708	6464
916.82	6414
916.932	6410
917.044	6391
917.156	6418
917.268	6338
917.38	6365
917.491	6338
917.603	6342
917.715	6380
917.826	6490
917.938	6380
918.049	6281
918.161	6407
918.272	6407
918.384	6544
918.495	6414
918.606	6285
918.717	6247
918.828	6266
918.939	6372
919.05	6159
919.161	6224
919.272	6136
919.383	6182
919.494	6292
919.604	6380
919.715	6308
919.826	6220
919.936	6270
920.047	6384
920.157	6296
920.267	6555
920.378	6338
920.488	6289
920.598	6479
920.708	6589
920.818	6532
920.928	6513
921.038	6566
921.148	6639
921.258	6372
921.368	6338
921.477	6262
921.587	6140
921.697	6045
921.806	6224
921.916	6034
922.025	5923
922.134	5984
922.244	5927
922.353	5954
922.462	5874
922.571	5874
922.68	5745
922.789	5691
922.898	5672
923.007	5630
923.116	5775
923.224	5737
923.333	5707
923.442	5676
923.55	5562
923.659	5566
923.767	5691
923.876	5577
923.984	5627
924.092	5512
924.201	5638
924.309	5642
924.417	5532
924.525	5467
924.633	5474
924.741	6277
924.849	5414
924.956	5440
925.064	5410
925.172	5318
925.279	5337
925.387	5341
925.494	5364
925.602	5417
925.709	5364
925.816	5337
925.924	5330
926.031	5357
926.138	5303
926.245	5315
926.352	5212
926.459	5360
926.566	5387
926.673	5250
926.779	5166
926.886	5136
926.993	5098
927.099	4976
927.206	4991
927.312	4938
927.419	5025
927.525	4995
927.631	5014
927.737	4881
927.843	4900
927.95	4824
928.056	4854
928.162	4900
928.267	4889
928.373	5383
928.479	4930
928.585	4748
928.69	4771
928.796	4843
928.901	4675
929.007	4599
929.112	4649
929.218	4645
929.323	4577
929.428	4558
929.533	4653
929.638	4535
929.743	4531
929.848	4622
929.953	4531
930.058	4470
930.163	4337
930.267	4348
930.372	4413
930.477	4322
930.581	4485
930.685	4333
930.79	4303
930.894	4356
930.998	4284
931.103	4379
931.207	4143
931.311	4101
931.415	4093
931.519	3941
931.623	3953
