Data from glass_V78500241_2131.txt Node
Date: Wed Sep 01 19:29:16 CST 2021
User: usil
Spectrometer: V785-0024
Trigger mode: 0
Integration Time (sec): 4.000000E-1
Scans to average: 1
Nonlinearity correction enabled: false
Boxcar width: 0
Storing dark spectrum: false
XAxis mode: Wavelengths
Number of Pixels in Spectrum: 1024
>>>>>Begin Spectral Data<<<<<
801.071	3701
801.214	3701
801.356	3671
801.499	3743
801.641	3698
801.783	3747
801.926	3857
802.068	3797
802.211	3869
802.353	3861
802.496	3823
802.638	3873
802.78	3873
802.923	3953
803.065	3842
803.208	3838
803.35	3884
803.492	3850
803.635	3880
803.777	3835
803.919	3842
804.061	4166
804.204	3941
804.346	3949
804.488	3937
804.63	4051
804.773	3945
804.915	4017
805.057	4101
805.199	4090
805.341	4082
805.483	4109
805.626	4169
805.768	4124
805.91	4207
806.052	4196
806.194	4128
806.336	4356
806.478	4204
806.62	4185
806.762	4185
806.904	4280
807.046	4379
807.188	4230
807.33	4185
807.472	4188
807.614	4200
807.756	4227
807.898	4223
808.04	4249
808.182	4291
808.324	4303
808.465	4352
808.607	4485
808.749	4485
808.891	4440
809.033	4493
809.174	4417
809.316	4280
809.458	4246
809.6	4147
809.741	4135
809.883	4116
810.025	4219
810.166	4192
810.308	4188
810.45	4249
810.591	4207
810.733	4318
810.875	4500
811.016	4797
811.158	5075
811.299	5265
811.441	5269
811.582	5052
811.724	4675
811.865	4493
812.007	4455
812.148	4424
812.29	4383
812.431	4409
812.573	4394
812.714	4341
812.855	4405
812.997	4375
813.138	4512
813.279	4443
813.421	4390
813.562	4379
813.703	4322
813.845	4344
813.986	4272
814.127	4196
814.268	4268
814.41	4299
814.551	4276
814.692	4306
814.833	4272
814.974	4272
815.115	4363
815.256	4249
815.397	4227
815.539	4246
815.68	4200
815.821	4207
815.962	4295
816.103	4280
816.244	4299
816.385	4227
816.526	4242
816.666	4249
816.807	4109
816.948	4135
817.089	4143
817.23	4131
817.371	4029
817.512	4059
817.653	4112
817.793	4109
817.934	4040
818.075	4097
818.216	4071
818.356	4105
818.497	3968
818.638	3937
818.778	3884
818.919	3907
819.06	3842
819.2	3941
819.341	3896
819.481	3827
819.622	3888
819.762	3979
819.903	3926
820.043	3854
820.184	3838
820.324	3861
820.465	3838
820.605	3884
820.746	3903
820.886	3770
821.026	3922
821.167	3926
821.307	3994
821.447	3972
821.588	3937
821.728	3968
821.868	3930
822.008	3873
822.149	3911
822.289	3892
822.429	3759
822.569	3728
822.709	3740
822.849	3679
822.99	3743
823.13	3732
823.27	3740
823.41	3701
823.55	3759
823.69	3724
823.83	3698
823.97	3656
824.11	3599
824.25	3587
824.389	3610
824.529	3641
824.669	3660
824.809	3694
824.949	3720
825.089	3732
825.228	3675
825.368	3572
825.508	3545
825.648	3542
825.787	3584
825.927	3667
826.067	3603
826.206	3625
826.346	3789
826.485	3842
826.625	3873
826.765	3960
826.904	3808
827.044	3606
827.183	3530
827.323	3420
827.462	3469
827.601	3393
827.741	3435
827.88	3428
828.02	3389
828.159	3431
828.298	3473
828.437	3515
828.577	3481
828.716	3591
828.855	3488
828.994	3378
829.134	3367
829.273	3393
829.412	3321
829.551	3336
829.69	3367
829.829	3435
829.968	3534
830.107	3443
830.246	3443
830.385	3329
830.524	3340
830.663	3291
830.802	3233
830.941	3233
831.08	3195
831.219	3264
831.357	3294
831.496	3367
831.635	3241
831.774	3184
831.913	3199
832.051	3100
832.19	3188
832.329	3211
832.467	3116
832.606	3108
832.744	3207
832.883	3176
833.022	3203
833.16	3203
833.299	3306
833.437	3336
833.576	3351
833.714	3359
833.852	3401
833.991	3454
834.129	3458
834.267	3397
834.406	3389
834.544	3454
834.682	3420
834.821	3416
834.959	3591
835.097	3359
835.235	3538
835.373	3458
835.511	3469
835.65	3416
835.788	3454
835.926	3370
836.064	3355
836.202	3405
836.34	3545
836.478	3599
836.615	3549
836.753	3572
836.891	3610
837.029	3625
837.167	3568
837.305	3564
837.443	3542
837.58	3500
837.718	3610
837.856	3606
837.993	3542
838.131	3564
838.269	3545
838.406	3557
838.544	3599
838.681	3450
838.819	3443
838.956	3393
839.094	3428
839.231	3462
839.369	3507
839.506	3709
839.643	3618
839.781	3469
839.918	3466
840.055	3542
840.193	3545
840.33	3515
840.467	3553
840.604	3622
840.742	3789
840.879	3568
841.016	3542
841.153	3629
841.29	3747
841.427	3679
841.564	3709
841.701	3766
841.838	3736
841.975	3709
842.112	3713
842.249	3599
842.385	3633
842.522	3793
842.659	3652
842.796	3652
842.933	3682
843.069	3682
843.206	3732
843.343	3785
843.479	3766
843.616	3823
843.752	3679
843.889	3679
844.025	3892
844.162	3720
844.298	3835
844.435	3793
844.571	3808
844.708	3918
844.844	3983
844.98	4002
845.117	3991
845.253	3922
845.389	3896
845.525	3934
845.661	3960
845.798	3941
845.934	3998
846.07	3903
846.206	3998
846.342	4112
846.478	4048
846.614	3960
846.75	3926
846.886	3922
847.022	4021
847.158	3960
847.294	4044
847.429	4013
847.565	4010
847.701	4211
847.837	3869
847.972	3861
848.108	3998
848.244	3964
848.379	3865
848.515	3812
848.65	3774
848.786	3850
848.921	3865
849.057	3911
849.192	3934
849.328	3888
849.463	3937
849.598	3880
849.734	3838
849.869	3850
850.004	3819
850.14	3797
850.275	3808
850.41	3740
850.545	3736
850.68	3736
850.815	3785
850.95	3720
851.085	3930
851.22	3850
851.355	3797
851.49	3808
851.625	3770
851.76	3774
851.895	3747
852.03	3713
852.165	3812
852.299	3831
852.434	3854
852.569	3861
852.703	3876
852.838	3903
852.973	3987
853.107	3930
853.242	3873
853.376	3808
853.511	3778
853.645	3857
853.78	3949
853.914	3876
854.048	3899
854.183	3873
854.317	3945
854.451	4055
854.585	3896
854.72	4002
854.854	4090
854.988	3964
855.122	4017
855.256	3922
855.39	3968
855.524	4074
855.658	4097
855.792	4116
855.926	4112
856.06	4181
856.194	4196
856.327	4135
856.461	4109
856.595	4128
856.729	4204
856.862	4265
856.996	4280
857.13	4322
857.263	4329
857.397	4333
857.53	4261
857.664	4341
857.797	4363
857.931	4421
858.064	4375
858.197	4432
858.331	4428
858.464	4394
858.597	4287
858.731	4440
858.864	4432
858.997	4432
859.13	4493
859.263	4546
859.396	4615
859.529	4527
859.662	4481
859.795	4493
859.928	4565
860.061	4683
860.194	4710
860.327	4645
860.46	4645
860.592	4710
860.725	4710
860.858	4812
860.99	4733
861.123	4717
861.256	4668
861.388	4767
861.521	5474
861.653	4672
861.786	4672
861.918	4729
862.05	4812
862.183	4831
862.315	4850
862.447	4946
862.58	4877
862.712	4793
862.844	4725
862.976	4881
863.108	4885
863.24	5151
863.372	4835
863.504	4900
863.636	4870
863.768	4946
863.9	4953
864.032	4915
864.164	4915
864.296	4987
864.428	5109
864.559	5018
864.691	5094
864.823	5124
864.954	5090
865.086	5067
865.217	5094
865.349	5147
865.48	5113
865.612	5151
865.743	5265
865.875	5193
866.006	5140
866.137	5216
866.269	5220
866.4	5227
866.531	5220
866.662	5193
866.793	5189
866.924	5261
867.055	5296
867.186	5330
867.317	5269
867.448	5330
867.579	5341
867.71	5357
867.841	5357
867.972	5433
868.103	5414
868.233	5474
868.364	5501
868.495	5520
868.625	5649
868.756	5809
868.886	5684
869.017	5707
869.147	5847
869.278	5855
869.408	5794
869.539	5836
869.669	5870
869.799	5893
869.929	5973
870.06	6007
870.19	6220
870.32	6197
870.45	6205
870.58	6327
870.71	6399
870.84	6490
870.97	6376
871.1	6410
871.23	6631
871.36	6700
871.489	6665
871.619	6692
871.749	6798
871.879	6856
872.008	6962
872.138	6981
872.267	6970
872.397	7031
872.526	7019
872.656	7042
872.785	7206
872.915	7343
873.044	7460
873.173	7540
873.303	7639
873.432	7681
873.561	7856
873.69	7860
873.819	8020
873.948	8210
874.077	8256
874.206	8336
874.335	8389
874.464	8632
874.593	8819
874.722	8937
874.851	9077
874.979	9268
875.108	9401
875.237	9420
875.365	9515
875.494	9701
875.623	9800
875.751	9838
875.88	9983
876.008	10188
876.136	10295
876.265	10424
876.393	10706
876.521	10717
876.65	10812
876.778	10965
876.906	10904
877.034	11025
877.162	11067
877.29	11132
877.418	11265
877.546	11303
877.674	11398
877.802	11429
877.93	11429
878.058	11512
878.185	11611
878.313	11680
878.441	11680
878.568	11653
878.696	11817
878.824	11847
878.951	11901
879.079	12038
879.206	12133
879.333	12083
879.461	11996
879.588	11999
879.715	12019
879.842	12186
879.97	12057
880.097	11889
880.224	11851
880.351	11813
880.478	11863
880.605	11878
880.732	11878
880.859	11992
880.986	11752
881.112	11893
881.239	11726
881.366	11672
881.493	11619
881.619	11558
881.746	11471
881.872	11585
881.999	11395
882.125	11478
882.252	11512
882.378	11490
882.505	11535
882.631	11353
882.757	11277
882.883	11311
883.01	11269
883.136	11124
883.262	11071
883.388	11121
883.514	11136
883.64	11231
883.766	11083
883.892	11052
884.018	10961
884.143	11064
884.269	11113
884.395	10850
884.52	10744
884.646	10850
884.772	10706
884.897	10603
885.023	10679
885.148	10706
885.274	10774
885.399	10683
885.524	10637
885.65	10626
885.775	10527
885.9	10523
886.025	10596
886.15	10558
886.275	10398
886.4	10394
886.525	10360
886.65	10382
886.775	10333
886.9	10451
887.025	10565
887.149	10451
887.274	10223
887.399	10135
887.523	10173
887.648	10158
887.773	10128
887.897	10230
888.021	10242
888.146	10120
888.27	10154
888.395	10177
888.519	10196
888.643	10166
888.767	10135
888.891	10051
889.015	9918
889.139	10036
889.263	9949
889.387	10078
889.511	10112
889.635	10067
889.759	9949
889.883	10006
890.006	10021
890.13	10093
890.254	9934
890.377	9911
890.501	9823
890.624	9861
890.748	9827
890.871	9816
890.995	9766
891.118	9724
891.241	9743
891.364	9713
891.488	9785
891.611	9736
891.734	9778
891.857	9762
891.98	9679
892.103	9724
892.226	9633
892.349	9652
892.471	9507
892.594	9564
892.717	9618
892.839	9572
892.962	9591
893.085	9584
893.207	9576
893.33	9599
893.452	9534
893.575	9633
893.697	9454
893.819	9538
893.941	9641
894.064	9622
894.186	9401
894.308	9355
894.43	9580
894.552	9584
894.674	9443
894.796	9428
894.918	9382
895.04	9370
895.161	9378
895.283	9336
895.405	9146
895.526	9310
895.648	9176
895.769	9230
895.891	9233
896.012	9230
896.134	9249
896.255	9169
896.376	9062
896.498	9150
896.619	9070
896.74	9104
896.861	9116
896.982	9211
897.103	9321
897.224	9161
897.345	9085
897.466	9066
897.587	8990
897.708	9036
897.828	8960
897.949	9009
898.07	8899
898.19	8921
898.311	8956
898.431	8849
898.552	8868
898.672	8952
898.792	8929
898.913	8921
899.033	8762
899.153	8758
899.273	8712
899.393	8636
899.513	8746
899.633	8674
899.753	8697
899.873	8659
899.993	8773
900.113	8610
900.232	8739
900.352	8640
900.472	8590
900.591	8587
900.711	8579
900.83	8518
900.95	8602
901.069	8670
901.189	8564
901.308	8495
901.427	8385
901.546	8446
901.665	8427
901.784	8473
901.904	8366
902.023	8381
902.141	8233
902.26	8187
902.379	8157
902.498	8187
902.617	8237
902.735	8339
902.854	8267
902.973	8248
903.091	8119
903.21	8054
903.328	8161
903.446	8172
903.565	8073
903.683	8054
903.801	8065
903.919	8142
904.038	8142
904.156	8062
904.274	8039
904.392	7974
904.51	8008
904.627	8035
904.745	8100
904.863	8065
904.981	7898
905.098	7784
905.216	7830
905.334	7921
905.451	7883
905.569	7841
905.686	7883
905.803	7967
905.921	7780
906.038	7875
906.155	7822
906.272	7685
906.389	7693
906.506	7624
906.623	7670
906.74	7525
906.857	7586
906.974	7544
907.091	7643
907.208	7712
907.324	7624
907.441	7609
907.557	7464
907.674	7415
907.79	7453
907.907	7407
908.023	7476
908.139	7445
908.256	7396
908.372	7354
908.488	7407
908.604	7270
908.72	7164
908.836	7293
908.952	7190
909.068	7225
909.184	7297
909.3	7282
909.415	7278
909.531	7270
909.647	7126
909.762	7110
909.878	7088
909.993	7107
910.108	7122
910.224	7008
910.339	7095
910.454	7050
910.57	6985
910.685	6924
910.8	7190
910.915	7046
911.03	7008
911.145	6962
911.259	6875
911.374	6867
911.489	6867
911.604	6829
911.718	6776
911.833	6726
911.947	6688
912.062	6604
912.176	6677
912.291	6707
912.405	6684
912.519	6768
912.633	6833
912.748	6768
912.862	6684
912.976	6551
913.09	6460
913.204	6536
913.318	6604
913.431	6707
913.545	6677
913.659	6700
913.772	6654
913.886	6566
914	6517
914.113	6574
914.226	6612
914.34	6551
914.453	6498
914.566	6612
914.68	6517
914.793	6551
914.906	6403
915.019	6372
915.132	6403
915.245	6460
915.358	6437
915.47	6445
915.583	6437
915.696	6445
915.809	6528
915.921	6464
916.034	6403
916.146	6311
916.259	6357
916.371	6475
916.483	6448
916.595	6418
916.708	6414
916.82	6384
916.932	6365
917.044	6369
917.156	6342
917.268	6292
917.38	6384
917.491	6292
917.603	6315
917.715	6429
917.826	6388
917.938	6331
918.049	6216
918.161	6327
918.272	6399
918.384	6369
918.495	6365
918.606	6273
918.717	6235
918.828	6228
918.939	6289
919.05	6262
919.161	6205
919.272	6114
919.383	6136
919.494	6243
919.604	6414
919.715	6254
919.826	6144
919.936	6213
920.047	6342
920.157	6254
920.267	6418
920.378	6327
920.488	6235
920.598	6422
920.708	6601
920.818	6448
920.928	6445
921.038	6597
921.148	6506
921.258	6331
921.368	6235
921.477	6186
921.587	6197
921.697	6011
921.806	6171
921.916	6030
922.025	5965
922.134	5897
922.244	5885
922.353	5874
922.462	5859
922.571	5821
922.68	5691
922.789	5653
922.898	5638
923.007	5695
923.116	5691
923.224	5707
923.333	5634
923.442	5623
923.55	5562
923.659	5566
923.767	5562
923.876	5535
923.984	5630
924.092	5497
924.201	5589
924.309	5554
924.417	5577
924.525	5478
924.633	5471
924.741	6239
924.849	5326
924.956	5528
925.064	5326
925.172	5296
925.279	5311
925.387	5353
925.494	5280
925.602	5417
925.709	5417
925.816	5296
925.924	5288
926.031	5296
926.138	5318
926.245	5345
926.352	5151
926.459	5311
926.566	5322
926.673	5189
926.779	5113
926.886	5094
926.993	5022
927.099	4965
927.206	4995
927.312	4965
927.419	4991
927.525	4984
927.631	4942
927.737	4881
927.843	4771
927.95	4774
928.056	4790
928.162	4858
928.267	4858
928.373	5398
928.479	4839
928.585	4668
928.69	4771
928.796	4786
928.901	4618
929.007	4580
929.112	4653
929.218	4679
929.323	4584
929.428	4561
929.533	4668
929.638	4497
929.743	4588
929.848	4561
929.953	4485
930.058	4459
930.163	4291
930.267	4325
930.372	4405
930.477	4314
930.581	4466
930.685	4322
930.79	4230
930.894	4246
930.998	4249
931.103	4417
931.207	4162
931.311	4029
931.415	4036
931.519	3930
931.623	3915
