Data from glass_V78500241_881.txt Node
Date: Wed Sep 01 19:20:36 CST 2021
User: usil
Spectrometer: V785-0024
Trigger mode: 0
Integration Time (sec): 4.000000E-1
Scans to average: 1
Nonlinearity correction enabled: false
Boxcar width: 0
Storing dark spectrum: false
XAxis mode: Wavelengths
Number of Pixels in Spectrum: 1024
>>>>>Begin Spectral Data<<<<<
801.071	3736
801.214	3759
801.356	3751
801.499	3808
801.641	3732
801.783	3789
801.926	3827
802.068	3816
802.211	3880
802.353	3899
802.496	3861
802.638	3922
802.78	3930
802.923	3960
803.065	3972
803.208	3880
803.35	3884
803.492	3915
803.635	3884
803.777	3831
803.919	3896
804.061	4109
804.204	3983
804.346	3972
804.488	3922
804.63	4029
804.773	3975
804.915	4010
805.057	4204
805.199	4013
805.341	4097
805.483	4128
805.626	4135
805.768	4105
805.91	4253
806.052	4287
806.194	4223
806.336	4363
806.478	4169
806.62	4169
806.762	4257
806.904	4257
807.046	4356
807.188	4219
807.33	4173
807.472	4287
807.614	4196
807.756	4215
807.898	4207
808.04	4246
808.182	4291
808.324	4341
808.465	4379
808.607	4455
808.749	4417
808.891	4466
809.033	4485
809.174	4421
809.316	4303
809.458	4257
809.6	4135
809.741	4177
809.883	4128
810.025	4204
810.166	4219
810.308	4238
810.45	4249
810.591	4257
810.733	4287
810.875	4516
811.016	4850
811.158	5128
811.299	5280
811.441	5307
811.582	5086
811.724	4759
811.865	4459
812.007	4474
812.148	4443
812.29	4432
812.431	4455
812.573	4386
812.714	4394
812.855	4402
812.997	4424
813.138	4466
813.279	4443
813.421	4371
813.562	4344
813.703	4314
813.845	4360
813.986	4276
814.127	4223
814.268	4253
814.41	4276
814.551	4310
814.692	4337
814.833	4211
814.974	4287
815.115	4352
815.256	4230
815.397	4261
815.539	4253
815.68	4200
815.821	4257
815.962	4337
816.103	4318
816.244	4261
816.385	4265
816.526	4265
816.666	4242
816.807	4074
816.948	4185
817.089	4158
817.23	4086
817.371	4063
817.512	4067
817.653	4082
817.793	4010
817.934	4032
818.075	4101
818.216	4116
818.356	4059
818.497	3972
818.638	3953
818.778	3888
818.919	3880
819.06	3896
819.2	3960
819.341	3854
819.481	3854
819.622	3911
819.762	4040
819.903	3934
820.043	3869
820.184	3838
820.324	3812
820.465	3907
820.605	3903
820.746	3876
820.886	3793
821.026	3960
821.167	3896
821.307	3987
821.447	3972
821.588	3964
821.728	3926
821.868	3949
822.008	3903
822.149	3926
822.289	3918
822.429	3789
822.569	3732
822.709	3800
822.849	3724
822.99	3724
823.13	3755
823.27	3816
823.41	3713
823.55	3747
823.69	3690
823.83	3747
823.97	3698
824.11	3633
824.25	3603
824.389	3622
824.529	3686
824.669	3629
824.809	3709
824.949	3797
825.089	3709
825.228	3701
825.368	3584
825.508	3584
825.648	3568
825.787	3625
825.927	3671
826.067	3675
826.206	3648
826.346	3793
826.485	3861
826.625	3869
826.765	3926
826.904	3850
827.044	3606
827.183	3519
827.323	3439
827.462	3526
827.601	3481
827.741	3450
827.88	3443
828.02	3382
828.159	3405
828.298	3500
828.437	3564
828.577	3469
828.716	3610
828.855	3492
828.994	3416
829.134	3401
829.273	3401
829.412	3340
829.551	3370
829.69	3382
829.829	3443
829.968	3523
830.107	3431
830.246	3447
830.385	3397
830.524	3367
830.663	3317
830.802	3226
830.941	3218
831.08	3165
831.219	3268
831.357	3294
831.496	3435
831.635	3237
831.774	3214
831.913	3195
832.051	3131
832.19	3142
832.329	3211
832.467	3157
832.606	3154
832.744	3150
832.883	3184
833.022	3226
833.16	3233
833.299	3283
833.437	3355
833.576	3336
833.714	3378
833.852	3412
833.991	3439
834.129	3488
834.267	3428
834.406	3409
834.544	3462
834.682	3412
834.821	3458
834.959	3576
835.097	3469
835.235	3538
835.373	3496
835.511	3515
835.65	3428
835.788	3500
835.926	3420
836.064	3393
836.202	3416
836.34	3557
836.478	3606
836.615	3549
836.753	3595
836.891	3656
837.029	3663
837.167	3576
837.305	3561
837.443	3564
837.58	3538
837.718	3648
837.856	3568
837.993	3557
838.131	3587
838.269	3584
838.406	3622
838.544	3610
838.681	3458
838.819	3477
838.956	3378
839.094	3393
839.231	3439
839.369	3553
839.506	3724
839.643	3675
839.781	3530
839.918	3477
840.055	3500
840.193	3538
840.33	3530
840.467	3572
840.604	3606
840.742	3831
840.879	3572
841.016	3584
841.153	3603
841.29	3762
841.427	3720
841.564	3717
841.701	3732
841.838	3751
841.975	3717
842.112	3713
842.249	3652
842.385	3686
842.522	3861
842.659	3732
842.796	3770
842.933	3686
843.069	3720
843.206	3709
843.343	3812
843.479	3759
843.616	3804
843.752	3732
843.889	3728
844.025	3869
844.162	3709
844.298	3854
844.435	3797
844.571	3819
844.708	3934
844.844	3975
844.98	4074
845.117	3987
845.253	3975
845.389	3896
845.525	3972
845.661	4010
845.798	3896
845.934	4025
846.07	3983
846.206	4051
846.342	4154
846.478	4097
846.614	3960
846.75	3941
846.886	3937
847.022	4051
847.158	4025
847.294	4010
847.429	4036
847.565	4040
847.701	4166
847.837	3915
847.972	3915
848.108	3956
848.244	3979
848.379	3854
848.515	3789
848.65	3857
848.786	3838
848.921	3892
849.057	3926
849.192	3968
849.328	3915
849.463	3918
849.598	3892
849.734	3892
849.869	3819
850.004	3762
850.14	3816
850.275	3789
850.41	3728
850.545	3728
850.68	3770
850.815	3804
850.95	3755
851.085	3918
851.22	3869
851.355	3846
851.49	3793
851.625	3793
851.76	3835
851.895	3747
852.03	3781
852.165	3797
852.299	3880
852.434	3918
852.569	3857
852.703	3896
852.838	3941
852.973	4029
853.107	4006
853.242	3926
853.376	3861
853.511	3766
853.645	3846
853.78	4002
853.914	3911
854.048	3953
854.183	3842
854.317	3972
854.451	4071
854.585	3998
854.72	3926
854.854	4044
854.988	3949
855.122	3953
855.256	3903
855.39	4048
855.524	4128
855.658	4082
855.792	4090
855.926	4166
856.06	4154
856.194	4211
856.327	4109
856.461	4139
856.595	4128
856.729	4181
856.862	4303
856.996	4276
857.13	4344
857.263	4310
857.397	4379
857.53	4306
857.664	4371
857.797	4424
857.931	4421
858.064	4424
858.197	4459
858.331	4436
858.464	4356
858.597	4341
858.731	4485
858.864	4440
858.997	4455
859.13	4516
859.263	4565
859.396	4580
859.529	4542
859.662	4504
859.795	4531
859.928	4565
860.061	4706
860.194	4725
860.327	4672
860.46	4691
860.592	4725
860.725	4740
860.858	4782
860.99	4710
861.123	4748
861.256	4694
861.388	4816
861.521	5573
861.653	4706
861.786	4721
861.918	4729
862.05	4839
862.183	4858
862.315	4885
862.447	4946
862.58	4885
862.712	4805
862.844	4786
862.976	4923
863.108	4889
863.24	5197
863.372	4843
863.504	4938
863.636	4923
863.768	4987
863.9	4965
864.032	4930
864.164	4984
864.296	5064
864.428	5109
864.559	5109
864.691	5128
864.823	5121
864.954	5132
865.086	5117
865.217	5045
865.349	5174
865.48	5197
865.612	5220
865.743	5273
865.875	5220
866.006	5178
866.137	5197
866.269	5250
866.4	5254
866.531	5269
866.662	5242
866.793	5246
866.924	5292
867.055	5311
867.186	5376
867.317	5311
867.448	5258
867.579	5406
867.71	5364
867.841	5383
867.972	5467
868.103	5474
868.233	5482
868.364	5505
868.495	5490
868.625	5764
868.756	5760
868.886	5676
869.017	5741
869.147	5847
869.278	5866
869.408	5805
869.539	5855
869.669	5912
869.799	5897
869.929	6026
870.06	6011
870.19	6205
870.32	6209
870.45	6266
870.58	6365
870.71	6467
870.84	6506
870.97	6456
871.1	6388
871.23	6688
871.36	6669
871.489	6658
871.619	6681
871.749	6818
871.879	6829
872.008	6993
872.138	6913
872.267	6958
872.397	7019
872.526	6985
872.656	7160
872.785	7145
872.915	7411
873.044	7502
873.173	7563
873.303	7670
873.432	7765
873.561	7852
873.69	7936
873.819	8020
873.948	8206
874.077	8240
874.206	8324
874.335	8423
874.464	8663
874.593	8781
874.722	8941
874.851	9188
874.979	9218
875.108	9325
875.237	9351
875.365	9557
875.494	9618
875.623	9800
875.751	9873
875.88	10017
876.008	10173
876.136	10284
876.265	10485
876.393	10740
876.521	10675
876.65	10778
876.778	10972
876.906	10881
877.034	11006
877.162	11117
877.29	11193
877.418	11315
877.546	11444
877.674	11406
877.802	11391
877.93	11551
878.058	11566
878.185	11532
878.313	11573
878.441	11722
878.568	11585
878.696	11809
878.824	11859
878.951	11931
879.079	11992
879.206	12125
879.333	12095
879.461	11946
879.588	12129
879.715	12152
879.842	12186
879.97	12072
880.097	11942
880.224	11870
880.351	11939
880.478	11916
880.605	11870
880.732	11847
880.859	11946
880.986	11794
881.112	11790
881.239	11783
881.366	11756
881.493	11661
881.619	11600
881.746	11657
881.872	11589
881.999	11528
882.125	11444
882.252	11524
882.378	11509
882.505	11490
882.631	11345
882.757	11330
882.883	11364
883.01	11303
883.136	11147
883.262	11071
883.388	11052
883.514	11155
883.64	11109
883.766	11109
883.892	11045
884.018	10976
884.143	11086
884.269	11155
884.395	10934
884.52	10740
884.646	10755
884.772	10740
884.897	10653
885.023	10733
885.148	10683
885.274	10744
885.399	10729
885.524	10630
885.65	10607
885.775	10584
885.9	10538
886.025	10603
886.15	10558
886.275	10375
886.4	10367
886.525	10455
886.65	10405
886.775	10322
886.9	10508
887.025	10607
887.149	10367
887.274	10253
887.399	10192
887.523	10173
887.648	10181
887.773	10116
887.897	10227
888.021	10204
888.146	10154
888.27	10265
888.395	10284
888.519	10215
888.643	10177
888.767	10322
888.891	10112
889.015	10010
889.139	10063
889.263	9918
889.387	10135
889.511	10131
889.635	10055
889.759	9968
889.883	9991
890.006	9972
890.13	10101
890.254	9907
890.377	9968
890.501	9941
890.624	9907
890.748	9842
890.871	9816
890.995	9827
891.118	9690
891.241	9800
891.364	9819
891.488	9793
891.611	9728
891.734	9789
891.857	9808
891.98	9740
892.103	9747
892.226	9625
892.349	9591
892.471	9462
892.594	9625
892.717	9633
892.839	9644
892.962	9675
893.085	9557
893.207	9564
893.33	9519
893.452	9523
893.575	9606
893.697	9515
893.819	9618
893.941	9576
894.064	9542
894.186	9397
894.308	9412
894.43	9526
894.552	9561
894.674	9606
894.796	9443
894.918	9370
895.04	9340
895.161	9355
895.283	9355
895.405	9378
895.526	9382
895.648	9291
895.769	9260
895.891	9226
896.012	9275
896.134	9264
896.255	9211
896.376	9131
896.498	9135
896.619	9093
896.74	9116
896.861	9062
896.982	9233
897.103	9321
897.224	9222
897.345	9074
897.466	9058
897.587	9036
897.708	9123
897.828	9009
897.949	8990
898.07	8921
898.19	8910
898.311	9051
898.431	8864
898.552	8952
898.672	9062
898.792	8956
898.913	8944
899.033	8826
899.153	8796
899.273	8640
899.393	8678
899.513	8758
899.633	8773
899.753	8796
899.873	8716
899.993	8667
900.113	8716
900.232	8701
900.352	8697
900.472	8689
900.591	8617
900.711	8617
900.83	8568
900.95	8689
901.069	8678
901.189	8613
901.308	8457
901.427	8423
901.546	8438
901.665	8438
901.784	8488
901.904	8393
902.023	8358
902.141	8199
902.26	8271
902.379	8240
902.498	8206
902.617	8233
902.735	8332
902.854	8256
902.973	8282
903.091	8115
903.21	8161
903.328	8210
903.446	8039
903.565	8054
903.683	8138
903.801	7989
903.919	8164
904.038	8123
904.156	8058
904.274	8065
904.392	7947
904.51	8073
904.627	8096
904.745	8069
904.863	8103
904.981	7959
905.098	7917
905.216	7898
905.334	7917
905.451	7955
905.569	7852
905.686	7890
905.803	7928
905.921	7833
906.038	7921
906.155	7830
906.272	7738
906.389	7674
906.506	7643
906.623	7590
906.74	7624
906.857	7533
906.974	7620
907.091	7620
907.208	7731
907.324	7647
907.441	7578
907.557	7533
907.674	7434
907.79	7411
907.907	7434
908.023	7521
908.139	7354
908.256	7438
908.372	7407
908.488	7358
908.604	7282
908.72	7293
908.836	7346
908.952	7297
909.068	7244
909.184	7301
909.3	7282
909.415	7285
909.531	7293
909.647	7129
909.762	7084
909.878	7110
909.993	7183
910.108	7168
910.224	7084
910.339	7168
910.454	7004
910.57	7008
910.685	6973
910.8	7183
910.915	7129
911.03	7019
911.145	6924
911.259	6890
911.374	6920
911.489	6852
911.604	6844
911.718	6753
911.833	6669
911.947	6582
912.062	6589
912.176	6662
912.291	6734
912.405	6787
912.519	6772
912.633	6863
912.748	6791
912.862	6665
912.976	6646
913.09	6604
913.204	6612
913.318	6578
913.431	6677
913.545	6741
913.659	6711
913.772	6627
913.886	6551
914	6582
914.113	6597
914.226	6665
914.34	6589
914.453	6452
914.566	6654
914.68	6551
914.793	6536
914.906	6437
915.019	6399
915.132	6384
915.245	6399
915.358	6460
915.47	6407
915.583	6506
915.696	6502
915.809	6555
915.921	6528
916.034	6464
916.146	6376
916.259	6410
916.371	6547
916.483	6483
916.595	6388
916.708	6422
916.82	6384
916.932	6403
917.044	6369
917.156	6429
917.268	6327
917.38	6327
917.491	6338
917.603	6380
917.715	6433
917.826	6441
917.938	6346
918.049	6228
918.161	6308
918.272	6448
918.384	6452
918.495	6372
918.606	6315
918.717	6251
918.828	6270
918.939	6304
919.05	6182
919.161	6228
919.272	6110
919.383	6182
919.494	6300
919.604	6426
919.715	6304
919.826	6190
919.936	6289
920.047	6380
920.157	6239
920.267	6517
920.378	6353
920.488	6243
920.598	6460
920.708	6601
920.818	6502
920.928	6486
921.038	6601
921.148	6570
921.258	6376
921.368	6311
921.477	6258
921.587	6171
921.697	6083
921.806	6239
921.916	6140
922.025	5958
922.134	5931
922.244	5866
922.353	5996
922.462	5912
922.571	5790
922.68	5722
922.789	5737
922.898	5680
923.007	5634
923.116	5699
923.224	5684
923.333	5699
923.442	5570
923.55	5596
923.659	5638
923.767	5615
923.876	5566
923.984	5608
924.092	5520
924.201	5592
924.309	5608
924.417	5554
924.525	5528
924.633	5505
924.741	6129
924.849	5391
924.956	5463
925.064	5345
925.172	5315
925.279	5311
925.387	5334
925.494	5318
925.602	5452
925.709	5376
925.816	5311
925.924	5315
926.031	5376
926.138	5315
926.245	5330
926.352	5212
926.459	5292
926.566	5360
926.673	5201
926.779	5185
926.886	5090
926.993	5064
927.099	5022
927.206	4991
927.312	4942
927.419	5037
927.525	4999
927.631	5018
927.737	4885
927.843	4873
927.95	4831
928.056	4801
928.162	4809
928.267	4858
928.373	5398
928.479	4805
928.585	4687
928.69	4809
928.796	4816
928.901	4687
929.007	4599
929.112	4683
929.218	4618
929.323	4577
929.428	4584
929.533	4694
929.638	4508
929.743	4497
929.848	4603
929.953	4493
930.058	4447
930.163	4337
930.267	4344
930.372	4436
930.477	4325
930.581	4447
930.685	4348
930.79	4284
930.894	4280
930.998	4276
931.103	4383
931.207	4116
931.311	4101
931.415	4032
931.519	3937
931.623	3991
