Data from glass_V78500241_114.txt Node
Date: Wed Sep 01 19:15:17 CST 2021
User: usil
Spectrometer: V785-0024
Trigger mode: 0
Integration Time (sec): 4.000000E-1
Scans to average: 1
Nonlinearity correction enabled: false
Boxcar width: 0
Storing dark spectrum: false
XAxis mode: Wavelengths
Number of Pixels in Spectrum: 1024
>>>>>Begin Spectral Data<<<<<
801.071	3755
801.214	3751
801.356	3705
801.499	3736
801.641	3770
801.783	3743
801.926	3884
802.068	3857
802.211	3854
802.353	3899
802.496	3827
802.638	3892
802.78	3930
802.923	3915
803.065	3903
803.208	3831
803.35	3903
803.492	3926
803.635	3956
803.777	3827
803.919	3907
804.061	4181
804.204	4010
804.346	4002
804.488	3926
804.63	4040
804.773	4013
804.915	4097
805.057	4181
805.199	4036
805.341	4101
805.483	4162
805.626	4147
805.768	4135
805.91	4230
806.052	4268
806.194	4215
806.336	4360
806.478	4219
806.62	4230
806.762	4211
806.904	4257
807.046	4375
807.188	4246
807.33	4181
807.472	4253
807.614	4200
807.756	4257
807.898	4219
808.04	4238
808.182	4295
808.324	4337
808.465	4402
808.607	4508
808.749	4409
808.891	4481
809.033	4538
809.174	4428
809.316	4333
809.458	4249
809.6	4131
809.741	4177
809.883	4158
810.025	4200
810.166	4219
810.308	4204
810.45	4234
810.591	4230
810.733	4287
810.875	4527
811.016	4820
811.158	5147
811.299	5288
811.441	5368
811.582	5094
811.724	4714
811.865	4478
812.007	4512
812.148	4443
812.29	4386
812.431	4440
812.573	4424
812.714	4405
812.855	4447
812.997	4508
813.138	4481
813.279	4447
813.421	4390
813.562	4428
813.703	4341
813.845	4322
813.986	4272
814.127	4211
814.268	4284
814.41	4276
814.551	4261
814.692	4356
814.833	4287
814.974	4356
815.115	4356
815.256	4246
815.397	4284
815.539	4276
815.68	4238
815.821	4238
815.962	4367
816.103	4310
816.244	4310
816.385	4230
816.526	4253
816.666	4215
816.807	4124
816.948	4177
817.089	4192
817.23	4150
817.371	4135
817.512	4101
817.653	4063
817.793	4032
817.934	4044
818.075	4131
818.216	4131
818.356	4116
818.497	3998
818.638	3945
818.778	3884
818.919	3880
819.06	3861
819.2	3934
819.341	3842
819.481	3892
819.622	3968
819.762	3998
819.903	3975
820.043	3899
820.184	3869
820.324	3823
820.465	3930
820.605	3884
820.746	3922
820.886	3835
821.026	3937
821.167	3964
821.307	3991
821.447	3953
821.588	3972
821.728	3975
821.868	3991
822.008	3892
822.149	3945
822.289	3918
822.429	3823
822.569	3781
822.709	3816
822.849	3709
822.99	3743
823.13	3759
823.27	3743
823.41	3778
823.55	3732
823.69	3740
823.83	3785
823.97	3701
824.11	3622
824.25	3591
824.389	3644
824.529	3675
824.669	3637
824.809	3743
824.949	3778
825.089	3743
825.228	3736
825.368	3622
825.508	3545
825.648	3564
825.787	3660
825.927	3656
826.067	3660
826.206	3667
826.346	3819
826.485	3827
826.625	3884
826.765	3953
826.904	3838
827.044	3648
827.183	3572
827.323	3466
827.462	3496
827.601	3454
827.741	3435
827.88	3496
828.02	3370
828.159	3454
828.298	3519
828.437	3530
828.577	3511
828.716	3644
828.855	3542
828.994	3409
829.134	3405
829.273	3393
829.412	3370
829.551	3351
829.69	3378
829.829	3389
829.968	3545
830.107	3462
830.246	3454
830.385	3374
830.524	3370
830.663	3348
830.802	3294
830.941	3237
831.08	3226
831.219	3279
831.357	3291
831.496	3424
831.635	3260
831.774	3195
831.913	3222
832.051	3150
832.19	3184
832.329	3207
832.467	3150
832.606	3108
832.744	3180
832.883	3161
833.022	3173
833.16	3275
833.299	3340
833.437	3332
833.576	3348
833.714	3420
833.852	3431
833.991	3473
834.129	3481
834.267	3435
834.406	3439
834.544	3462
834.682	3428
834.821	3409
834.959	3576
835.097	3439
835.235	3534
835.373	3496
835.511	3519
835.65	3492
835.788	3507
835.926	3431
836.064	3374
836.202	3435
836.34	3584
836.478	3622
836.615	3606
836.753	3641
836.891	3652
837.029	3603
837.167	3568
837.305	3625
837.443	3504
837.58	3534
837.718	3603
837.856	3553
837.993	3584
838.131	3618
838.269	3595
838.406	3580
838.544	3549
838.681	3492
838.819	3492
838.956	3386
839.094	3401
839.231	3466
839.369	3526
839.506	3743
839.643	3610
839.781	3530
839.918	3469
840.055	3526
840.193	3473
840.33	3530
840.467	3561
840.604	3660
840.742	3827
840.879	3561
841.016	3564
841.153	3629
841.29	3785
841.427	3709
841.564	3724
841.701	3770
841.838	3690
841.975	3717
842.112	3720
842.249	3652
842.385	3652
842.522	3812
842.659	3705
842.796	3720
842.933	3751
843.069	3740
843.206	3736
843.343	3850
843.479	3797
843.616	3850
843.752	3679
843.889	3667
844.025	3892
844.162	3709
844.298	3876
844.435	3819
844.571	3816
844.708	3934
844.844	4010
844.98	4029
845.117	4006
845.253	3987
845.389	3937
845.525	4025
845.661	3964
845.798	3975
845.934	3983
846.07	3968
846.206	4078
846.342	4139
846.478	4051
846.614	3979
846.75	3926
846.886	3945
847.022	4055
847.158	3972
847.294	4078
847.429	4010
847.565	4044
847.701	4276
847.837	3903
847.972	3850
848.108	4006
848.244	3998
848.379	3854
848.515	3831
848.65	3869
848.786	3850
848.921	3888
849.057	3953
849.192	3979
849.328	3945
849.463	3972
849.598	3903
849.734	3903
849.869	3857
850.004	3816
850.14	3827
850.275	3785
850.41	3743
850.545	3797
850.68	3816
850.815	3774
850.95	3850
851.085	3915
851.22	3869
851.355	3835
851.49	3789
851.625	3808
851.76	3808
851.895	3781
852.03	3732
852.165	3808
852.299	3854
852.434	3899
852.569	3861
852.703	3880
852.838	3907
852.973	4029
853.107	4044
853.242	3892
853.376	3892
853.511	3800
853.645	3800
853.78	4010
853.914	3907
854.048	3861
854.183	3899
854.317	3983
854.451	4093
854.585	4032
854.72	3953
854.854	4082
854.988	3941
855.122	4013
855.256	3911
855.39	4048
855.524	4109
855.658	4090
855.792	4124
855.926	4131
856.06	4154
856.194	4287
856.327	4181
856.461	4139
856.595	4207
856.729	4158
856.862	4280
856.996	4219
857.13	4299
857.263	4306
857.397	4314
857.53	4306
857.664	4356
857.797	4394
857.931	4432
858.064	4417
858.197	4428
858.331	4402
858.464	4440
858.597	4379
858.731	4440
858.864	4421
858.997	4466
859.13	4531
859.263	4569
859.396	4592
859.529	4535
859.662	4542
859.795	4569
859.928	4622
860.061	4748
860.194	4733
860.327	4656
860.46	4622
860.592	4714
860.725	4828
860.858	4793
860.99	4763
861.123	4706
861.256	4774
861.388	4782
861.521	5535
861.653	4744
861.786	4691
861.918	4790
862.05	4771
862.183	4896
862.315	4938
862.447	4946
862.58	4839
862.712	4805
862.844	4843
862.976	4923
863.108	4873
863.24	5277
863.372	4858
863.504	4957
863.636	4942
863.768	5029
863.9	4961
864.032	4900
864.164	4957
864.296	5018
864.428	5124
864.559	5140
864.691	5147
864.823	5162
864.954	5105
865.086	5136
865.217	5128
865.349	5147
865.48	5197
865.612	5193
865.743	5318
865.875	5193
866.006	5201
866.137	5258
866.269	5235
866.4	5273
866.531	5242
866.662	5193
866.793	5242
866.924	5261
867.055	5360
867.186	5307
867.317	5280
867.448	5360
867.579	5395
867.71	5372
867.841	5436
867.972	5490
868.103	5573
868.233	5570
868.364	5532
868.495	5551
868.625	5630
868.756	5764
868.886	5642
869.017	5798
869.147	5847
869.278	5855
869.408	5783
869.539	5851
869.669	5916
869.799	5954
869.929	5999
870.06	6011
870.19	6167
870.32	6205
870.45	6235
870.58	6350
870.71	6395
870.84	6479
870.97	6437
871.1	6456
871.23	6646
871.36	6673
871.489	6582
871.619	6787
871.749	6791
871.879	6878
872.008	6958
872.138	6973
872.267	7008
872.397	7008
872.526	7061
872.656	7137
872.785	7259
872.915	7434
873.044	7556
873.173	7544
873.303	7639
873.432	7700
873.561	7928
873.69	7864
873.819	8069
873.948	8187
874.077	8244
874.206	8355
874.335	8438
874.464	8686
874.593	8807
874.722	8845
874.851	9192
874.979	9268
875.108	9363
875.237	9416
875.365	9553
875.494	9625
875.623	9808
875.751	9873
875.88	9972
876.008	10188
876.136	10348
876.265	10561
876.393	10687
876.521	10717
876.65	10744
876.778	10862
876.906	10869
877.034	10968
877.162	11140
877.29	11189
877.418	11261
877.546	11402
877.674	11471
877.802	11558
877.93	11551
878.058	11490
878.185	11573
878.313	11615
878.441	11688
878.568	11649
878.696	11798
878.824	11935
878.951	11969
879.079	11996
879.206	12102
879.333	12140
879.461	12038
879.588	12076
879.715	12114
879.842	12243
879.97	12068
880.097	11863
880.224	11977
880.351	11843
880.478	11916
880.605	11821
880.732	11828
880.859	12079
880.986	11843
881.112	11870
881.239	11714
881.366	11657
881.493	11630
881.619	11547
881.746	11558
881.872	11482
881.999	11539
882.125	11486
882.252	11493
882.378	11429
882.505	11589
882.631	11391
882.757	11311
882.883	11345
883.01	11250
883.136	11227
883.262	11136
883.388	11098
883.514	11140
883.64	11216
883.766	11151
883.892	11014
884.018	10927
884.143	11033
884.269	11147
884.395	10771
884.52	10736
884.646	10767
884.772	10717
884.897	10687
885.023	10710
885.148	10755
885.274	10786
885.399	10706
885.524	10637
885.65	10577
885.775	10538
885.9	10512
886.025	10683
886.15	10550
886.275	10497
886.4	10398
886.525	10363
886.65	10367
886.775	10314
886.9	10493
887.025	10569
887.149	10413
887.274	10276
887.399	10147
887.523	10207
887.648	10219
887.773	10078
887.897	10265
888.021	10219
888.146	10173
888.27	10227
888.395	10147
888.519	10150
888.643	10139
888.767	10162
888.891	10063
889.015	10044
889.139	10051
889.263	9922
889.387	10086
889.511	10029
889.635	10082
889.759	9960
889.883	9987
890.006	10071
890.13	10166
890.254	10017
890.377	10006
890.501	9789
890.624	9880
890.748	9934
890.871	9827
890.995	9816
891.118	9660
891.241	9789
891.364	9800
891.488	9899
891.611	9747
891.734	9724
891.857	9713
891.98	9800
892.103	9835
892.226	9740
892.349	9778
892.471	9542
892.594	9625
892.717	9599
892.839	9564
892.962	9618
893.085	9610
893.207	9572
893.33	9511
893.452	9534
893.575	9663
893.697	9492
893.819	9591
893.941	9652
894.064	9599
894.186	9397
894.308	9416
894.43	9526
894.552	9584
894.674	9462
894.796	9370
894.918	9481
895.04	9367
895.161	9378
895.283	9370
895.405	9294
895.526	9294
895.648	9214
895.769	9329
895.891	9283
896.012	9348
896.134	9173
896.255	9188
896.376	9180
896.498	9142
896.619	9184
896.74	9009
896.861	9116
896.982	9253
897.103	9367
897.224	9241
897.345	9036
897.466	8982
897.587	9020
897.708	9112
897.828	9081
897.949	8937
898.07	8933
898.19	8861
898.311	9036
898.431	8891
898.552	8944
898.672	8998
898.792	8948
898.913	8830
899.033	8823
899.153	8830
899.273	8689
899.393	8708
899.513	8708
899.633	8716
899.753	8743
899.873	8727
899.993	8708
900.113	8697
900.232	8769
900.352	8644
900.472	8651
900.591	8621
900.711	8655
900.83	8556
900.95	8712
901.069	8686
901.189	8663
901.308	8457
901.427	8423
901.546	8415
901.665	8465
901.784	8552
901.904	8355
902.023	8366
902.141	8233
902.26	8187
902.379	8343
902.498	8233
902.617	8206
902.735	8309
902.854	8336
902.973	8301
903.091	8180
903.21	8123
903.328	8149
903.446	8153
903.565	8073
903.683	8123
903.801	8065
903.919	8164
904.038	8130
904.156	8027
904.274	8077
904.392	8008
904.51	8077
904.627	8043
904.745	8088
904.863	8123
904.981	7936
905.098	7856
905.216	7906
905.334	7974
905.451	7883
905.569	7898
905.686	7951
905.803	7852
905.921	7734
906.038	7845
906.155	7799
906.272	7731
906.389	7792
906.506	7655
906.623	7685
906.74	7586
906.857	7632
906.974	7636
907.091	7715
907.208	7780
907.324	7636
907.441	7514
907.557	7457
907.674	7438
907.79	7407
907.907	7407
908.023	7464
908.139	7453
908.256	7377
908.372	7403
908.488	7388
908.604	7285
908.72	7228
908.836	7301
908.952	7301
909.068	7221
909.184	7285
909.3	7266
909.415	7266
909.531	7346
909.647	7088
909.762	7107
909.878	7114
909.993	7156
910.108	7126
910.224	7141
910.339	7114
910.454	7038
910.57	7012
910.685	6954
910.8	7183
910.915	7152
911.03	6985
911.145	6928
911.259	6859
911.374	6947
911.489	6859
911.604	6814
911.718	6707
911.833	6802
911.947	6631
912.062	6612
912.176	6677
912.291	6795
912.405	6722
912.519	6833
912.633	6791
912.748	6722
912.862	6757
912.976	6623
913.09	6509
913.204	6608
913.318	6570
913.431	6688
913.545	6696
913.659	6730
913.772	6681
913.886	6593
914	6551
914.113	6627
914.226	6669
914.34	6604
914.453	6559
914.566	6574
914.68	6578
914.793	6528
914.906	6441
915.019	6395
915.132	6388
915.245	6483
915.358	6483
915.47	6528
915.583	6452
915.696	6506
915.809	6578
915.921	6563
916.034	6464
916.146	6426
916.259	6353
916.371	6547
916.483	6429
916.595	6369
916.708	6456
916.82	6433
916.932	6456
917.044	6376
917.156	6422
917.268	6357
917.38	6365
917.491	6357
917.603	6384
917.715	6422
917.826	6353
917.938	6372
918.049	6194
918.161	6327
918.272	6418
918.384	6479
918.495	6308
918.606	6247
918.717	6247
918.828	6262
918.939	6235
919.05	6243
919.161	6266
919.272	6144
919.383	6201
919.494	6266
919.604	6498
919.715	6254
919.826	6289
919.936	6254
920.047	6361
920.157	6308
920.267	6490
920.378	6342
920.488	6277
920.598	6467
920.708	6612
920.818	6464
920.928	6426
921.038	6604
921.148	6604
921.258	6304
921.368	6296
921.477	6228
921.587	6197
921.697	6095
921.806	6171
921.916	6155
922.025	5969
922.134	5958
922.244	5874
922.353	5988
922.462	5855
922.571	5870
922.68	5729
922.789	5688
922.898	5726
923.007	5649
923.116	5714
923.224	5714
923.333	5649
923.442	5668
923.55	5589
923.659	5596
923.767	5661
923.876	5566
923.984	5642
924.092	5539
924.201	5532
924.309	5608
924.417	5608
924.525	5493
924.633	5528
924.741	6136
924.849	5406
924.956	5444
925.064	5372
925.172	5345
925.279	5303
925.387	5372
925.494	5296
925.602	5417
925.709	5425
925.816	5246
925.924	5277
926.031	5315
926.138	5322
926.245	5345
926.352	5258
926.459	5322
926.566	5315
926.673	5216
926.779	5128
926.886	5162
926.993	5018
927.099	5029
927.206	5010
927.312	4946
927.419	5075
927.525	5003
927.631	4980
927.737	4911
927.843	4904
927.95	4790
928.056	4820
928.162	4835
928.267	4896
928.373	5379
928.479	4862
928.585	4694
928.69	4797
928.796	4767
928.901	4649
929.007	4599
929.112	4714
929.218	4634
929.323	4637
929.428	4603
929.533	4668
929.638	4523
929.743	4550
929.848	4561
929.953	4558
930.058	4451
930.163	4356
930.267	4352
930.372	4424
930.477	4306
930.581	4462
930.685	4390
930.79	4268
930.894	4314
930.998	4253
931.103	4383
931.207	4139
931.311	4112
931.415	4032
931.519	3945
931.623	3926
