Data from glass_V78500241_1021.txt Node
Date: Wed Sep 01 19:21:34 CST 2021
User: usil
Spectrometer: V785-0024
Trigger mode: 0
Integration Time (sec): 4.000000E-1
Scans to average: 1
Nonlinearity correction enabled: false
Boxcar width: 0
Storing dark spectrum: false
XAxis mode: Wavelengths
Number of Pixels in Spectrum: 1024
>>>>>Begin Spectral Data<<<<<
801.071	3736
801.214	3770
801.356	3686
801.499	3759
801.641	3736
801.783	3732
801.926	3903
802.068	3831
802.211	3873
802.353	3884
802.496	3831
802.638	3926
802.78	3880
802.923	3903
803.065	3911
803.208	3869
803.35	3888
803.492	3896
803.635	3934
803.777	3865
803.919	3915
804.061	4192
804.204	3945
804.346	3941
804.488	3937
804.63	4059
804.773	3968
804.915	4040
805.057	4147
805.199	4059
805.341	4074
805.483	4105
805.626	4135
805.768	4143
805.91	4200
806.052	4196
806.194	4166
806.336	4367
806.478	4257
806.62	4143
806.762	4207
806.904	4211
807.046	4379
807.188	4227
807.33	4192
807.472	4299
807.614	4200
807.756	4284
807.898	4257
808.04	4219
808.182	4303
808.324	4329
808.465	4390
808.607	4447
808.749	4462
808.891	4478
809.033	4485
809.174	4405
809.316	4295
809.458	4261
809.6	4147
809.741	4196
809.883	4128
810.025	4185
810.166	4204
810.308	4242
810.45	4238
810.591	4242
810.733	4295
810.875	4550
811.016	4824
811.158	5143
811.299	5292
811.441	5284
811.582	5105
811.724	4698
811.865	4440
812.007	4481
812.148	4424
812.29	4413
812.431	4421
812.573	4421
812.714	4322
812.855	4421
812.997	4451
813.138	4489
813.279	4386
813.421	4402
813.562	4386
813.703	4314
813.845	4379
813.986	4219
814.127	4249
814.268	4253
814.41	4322
814.551	4276
814.692	4322
814.833	4261
814.974	4341
815.115	4348
815.256	4261
815.397	4253
815.539	4303
815.68	4177
815.821	4238
815.962	4299
816.103	4265
816.244	4246
816.385	4234
816.526	4291
816.666	4249
816.807	4082
816.948	4192
817.089	4219
817.23	4124
817.371	4082
817.512	4082
817.653	4044
817.793	4048
817.934	4124
818.075	4109
818.216	4105
818.356	4074
818.497	3968
818.638	3915
818.778	3949
818.919	3953
819.06	3838
819.2	3953
819.341	3861
819.481	3865
819.622	3960
819.762	4055
819.903	3987
820.043	3838
820.184	3827
820.324	3854
820.465	3873
820.605	3854
820.746	3876
820.886	3823
821.026	3941
821.167	3899
821.307	3979
821.447	3979
821.588	4010
821.728	3949
821.868	3960
822.008	3854
822.149	3941
822.289	3915
822.429	3793
822.569	3762
822.709	3831
822.849	3736
822.99	3713
823.13	3740
823.27	3819
823.41	3705
823.55	3751
823.69	3724
823.83	3781
823.97	3701
824.11	3614
824.25	3606
824.389	3671
824.529	3690
824.669	3686
824.809	3743
824.949	3755
825.089	3762
825.228	3713
825.368	3580
825.508	3580
825.648	3587
825.787	3610
825.927	3606
826.067	3618
826.206	3660
826.346	3785
826.485	3861
826.625	3861
826.765	3922
826.904	3797
827.044	3618
827.183	3534
827.323	3416
827.462	3500
827.601	3469
827.741	3469
827.88	3458
828.02	3386
828.159	3454
828.298	3526
828.437	3530
828.577	3485
828.716	3599
828.855	3496
828.994	3435
829.134	3378
829.273	3397
829.412	3370
829.551	3329
829.69	3355
829.829	3409
829.968	3584
830.107	3443
830.246	3485
830.385	3374
830.524	3363
830.663	3317
830.802	3283
830.941	3203
831.08	3188
831.219	3298
831.357	3275
831.496	3439
831.635	3222
831.774	3226
831.913	3203
832.051	3173
832.19	3154
832.329	3211
832.467	3138
832.606	3077
832.744	3192
832.883	3176
833.022	3195
833.16	3249
833.299	3329
833.437	3370
833.576	3367
833.714	3439
833.852	3443
833.991	3405
834.129	3458
834.267	3447
834.406	3416
834.544	3431
834.682	3428
834.821	3412
834.959	3587
835.097	3466
835.235	3530
835.373	3485
835.511	3477
835.65	3469
835.788	3485
835.926	3416
836.064	3416
836.202	3435
836.34	3599
836.478	3622
836.615	3564
836.753	3603
836.891	3675
837.029	3637
837.167	3591
837.305	3568
837.443	3515
837.58	3519
837.718	3599
837.856	3549
837.993	3534
838.131	3618
838.269	3622
838.406	3587
838.544	3564
838.681	3447
838.819	3450
838.956	3401
839.094	3412
839.231	3435
839.369	3526
839.506	3709
839.643	3618
839.781	3488
839.918	3485
840.055	3523
840.193	3557
840.33	3549
840.467	3564
840.604	3622
840.742	3835
840.879	3553
841.016	3587
841.153	3572
841.29	3770
841.427	3759
841.564	3740
841.701	3709
841.838	3694
841.975	3675
842.112	3720
842.249	3644
842.385	3629
842.522	3846
842.659	3705
842.796	3679
842.933	3713
843.069	3778
843.206	3717
843.343	3800
843.479	3770
843.616	3804
843.752	3698
843.889	3675
844.025	3907
844.162	3751
844.298	3850
844.435	3781
844.571	3778
844.708	3926
844.844	4013
844.98	4055
845.117	4021
845.253	3937
845.389	3945
845.525	4013
845.661	3979
845.798	3953
845.934	4013
846.07	3968
846.206	4048
846.342	4097
846.478	4078
846.614	3968
846.75	3960
846.886	3930
847.022	4006
847.158	4017
847.294	3994
847.429	4029
847.565	3934
847.701	4249
847.837	3850
847.972	3911
848.108	4013
848.244	3983
848.379	3861
848.515	3804
848.65	3842
848.786	3850
848.921	3911
849.057	3934
849.192	3975
849.328	3926
849.463	3896
849.598	3884
849.734	3876
849.869	3865
850.004	3850
850.14	3797
850.275	3831
850.41	3755
850.545	3762
850.68	3823
850.815	3781
850.95	3835
851.085	3956
851.22	3838
851.355	3876
851.49	3751
851.625	3762
851.76	3831
851.895	3709
852.03	3728
852.165	3804
852.299	3896
852.434	3888
852.569	3888
852.703	3926
852.838	3918
852.973	4029
853.107	4025
853.242	3857
853.376	3857
853.511	3785
853.645	3835
853.78	3979
853.914	3884
854.048	3857
854.183	3876
854.317	3956
854.451	4101
854.585	3987
854.72	3934
854.854	4036
854.988	3937
855.122	3975
855.256	3896
855.39	4074
855.524	4109
855.658	4112
855.792	4135
855.926	4177
856.06	4169
856.194	4230
856.327	4128
856.461	4128
856.595	4162
856.729	4166
856.862	4276
856.996	4257
857.13	4306
857.263	4299
857.397	4383
857.53	4299
857.664	4402
857.797	4386
857.931	4489
858.064	4409
858.197	4474
858.331	4417
858.464	4409
858.597	4421
858.731	4459
858.864	4459
858.997	4519
859.13	4577
859.263	4546
859.396	4588
859.529	4478
859.662	4508
859.795	4512
859.928	4603
860.061	4729
860.194	4733
860.327	4656
860.46	4611
860.592	4729
860.725	4786
860.858	4774
860.99	4694
861.123	4672
861.256	4733
861.388	4736
861.521	5497
861.653	4717
861.786	4736
861.918	4733
862.05	4828
862.183	4858
862.315	4870
862.447	4984
862.58	4904
862.712	4816
862.844	4748
862.976	4881
863.108	4866
863.24	5277
863.372	4870
863.504	4873
863.636	4908
863.768	4942
863.9	4942
864.032	4911
864.164	4972
864.296	5052
864.428	5052
864.559	5086
864.691	5124
864.823	5124
864.954	5105
865.086	5178
865.217	5204
865.349	5098
865.48	5140
865.612	5216
865.743	5322
865.875	5284
866.006	5170
866.137	5250
866.269	5265
866.4	5277
866.531	5178
866.662	5258
866.793	5242
866.924	5296
867.055	5349
867.186	5391
867.317	5322
867.448	5280
867.579	5353
867.71	5345
867.841	5406
867.972	5463
868.103	5478
868.233	5463
868.364	5547
868.495	5566
868.625	5634
868.756	5794
868.886	5684
869.017	5714
869.147	5897
869.278	5904
869.408	5855
869.539	5847
869.669	5946
869.799	5920
869.929	5999
870.06	6079
870.19	6205
870.32	6205
870.45	6281
870.58	6376
870.71	6422
870.84	6464
870.97	6407
871.1	6479
871.23	6616
871.36	6620
871.489	6650
871.619	6783
871.749	6806
871.879	6935
872.008	7015
872.138	7012
872.267	7004
872.397	6977
872.526	6985
872.656	7168
872.785	7145
872.915	7388
873.044	7537
873.173	7586
873.303	7670
873.432	7765
873.561	7864
873.69	7921
873.819	8016
873.948	8187
874.077	8263
874.206	8366
874.335	8446
874.464	8693
874.593	8944
874.722	8990
874.851	9112
874.979	9233
875.108	9317
875.237	9496
875.365	9515
875.494	9610
875.623	9876
875.751	9865
875.88	9998
876.008	10188
876.136	10333
876.265	10516
876.393	10786
876.521	10786
876.65	10812
876.778	10854
876.906	10900
877.034	11060
877.162	11140
877.29	11189
877.418	11334
877.546	11322
877.674	11364
877.802	11512
877.93	11524
878.058	11459
878.185	11592
878.313	11733
878.441	11775
878.568	11627
878.696	11821
878.824	11923
878.951	11942
879.079	12053
879.206	12129
879.333	12114
879.461	11988
879.588	12133
879.715	12087
879.842	12228
879.97	12102
880.097	11882
880.224	11901
880.351	11904
880.478	11882
880.605	11912
880.732	11809
880.859	11878
880.986	11779
881.112	11794
881.239	11745
881.366	11611
881.493	11672
881.619	11535
881.746	11638
881.872	11615
881.999	11505
882.125	11589
882.252	11566
882.378	11471
882.505	11509
882.631	11334
882.757	11246
882.883	11318
883.01	11235
883.136	11159
883.262	11189
883.388	11083
883.514	11254
883.64	11178
883.766	11086
883.892	10991
884.018	11010
884.143	11064
884.269	11162
884.395	10824
884.52	10793
884.646	10831
884.772	10774
884.897	10714
885.023	10675
885.148	10645
885.274	10702
885.399	10725
885.524	10675
885.65	10588
885.775	10592
885.9	10542
886.025	10622
886.15	10512
886.275	10459
886.4	10367
886.525	10428
886.65	10344
886.775	10344
886.9	10466
887.025	10523
887.149	10341
887.274	10200
887.399	10162
887.523	10211
887.648	10173
887.773	10128
887.897	10257
888.021	10284
888.146	10150
888.27	10242
888.395	10261
888.519	10166
888.643	10268
888.767	10200
888.891	10078
889.015	10040
889.139	10048
889.263	9987
889.387	10105
889.511	10055
889.635	10029
889.759	9991
889.883	9964
890.006	10074
890.13	10082
890.254	9926
890.377	9960
890.501	9827
890.624	9953
890.748	9842
890.871	9797
890.995	9743
891.118	9705
891.241	9762
891.364	9812
891.488	9854
891.611	9724
891.734	9800
891.857	9781
891.98	9701
892.103	9747
892.226	9701
892.349	9705
892.471	9500
892.594	9663
892.717	9587
892.839	9629
892.962	9625
893.085	9648
893.207	9564
893.33	9610
893.452	9549
893.575	9633
893.697	9545
893.819	9679
893.941	9660
894.064	9599
894.186	9443
894.308	9412
894.43	9530
894.552	9549
894.674	9511
894.796	9370
894.918	9420
895.04	9298
895.161	9363
895.283	9317
895.405	9279
895.526	9245
895.648	9291
895.769	9237
895.891	9245
896.012	9302
896.134	9218
896.255	9184
896.376	9207
896.498	9192
896.619	9131
896.74	9085
896.861	9154
896.982	9325
897.103	9302
897.224	9180
897.345	9108
897.466	9013
897.587	9055
897.708	9108
897.828	9043
897.949	8914
898.07	8956
898.19	8960
898.311	9074
898.431	8853
898.552	8994
898.672	9001
898.792	8948
898.913	8861
899.033	8849
899.153	8792
899.273	8617
899.393	8750
899.513	8727
899.633	8724
899.753	8762
899.873	8796
899.993	8773
900.113	8758
900.232	8739
900.352	8693
900.472	8610
900.591	8587
900.711	8530
900.83	8606
900.95	8701
901.069	8689
901.189	8568
901.308	8396
901.427	8469
901.546	8446
901.665	8518
901.784	8492
901.904	8431
902.023	8290
902.141	8214
902.26	8263
902.379	8328
902.498	8199
902.617	8233
902.735	8320
902.854	8259
902.973	8317
903.091	8145
903.21	8119
903.328	8199
903.446	8096
903.565	8043
903.683	8191
903.801	8069
903.919	8073
904.038	8084
904.156	8088
904.274	8134
904.392	8077
904.51	8050
904.627	8031
904.745	8119
904.863	8084
904.981	7909
905.098	7830
905.216	7970
905.334	7902
905.451	7921
905.569	7967
905.686	7936
905.803	7970
905.921	7792
906.038	7928
906.155	7871
906.272	7677
906.389	7761
906.506	7708
906.623	7639
906.74	7662
906.857	7571
906.974	7658
907.091	7666
907.208	7731
907.324	7696
907.441	7609
907.557	7476
907.674	7438
907.79	7419
907.907	7377
908.023	7396
908.139	7434
908.256	7358
908.372	7457
908.488	7346
908.604	7316
908.72	7305
908.836	7278
908.952	7194
909.068	7308
909.184	7327
909.3	7217
909.415	7339
909.531	7285
909.647	7107
909.762	7149
909.878	7091
909.993	7076
910.108	7099
910.224	7118
910.339	7141
910.454	7031
910.57	6996
910.685	6928
910.8	7168
910.915	7103
911.03	7038
911.145	6935
911.259	6897
911.374	6909
911.489	6806
911.604	6791
911.718	6722
911.833	6776
911.947	6650
912.062	6620
912.176	6673
912.291	6677
912.405	6684
912.519	6833
912.633	6802
912.748	6722
912.862	6715
912.976	6547
913.09	6574
913.204	6593
913.318	6654
913.431	6688
913.545	6635
913.659	6692
913.772	6662
913.886	6551
914	6547
914.113	6616
914.226	6719
914.34	6616
914.453	6517
914.566	6608
914.68	6521
914.793	6509
914.906	6498
915.019	6410
915.132	6365
915.245	6410
915.358	6506
915.47	6483
915.583	6403
915.696	6422
915.809	6578
915.921	6521
916.034	6456
916.146	6388
916.259	6369
916.371	6464
916.483	6506
916.595	6437
916.708	6486
916.82	6433
916.932	6372
917.044	6376
917.156	6388
917.268	6380
917.38	6357
917.491	6350
917.603	6350
917.715	6456
917.826	6429
917.938	6346
918.049	6243
918.161	6346
918.272	6460
918.384	6441
918.495	6357
918.606	6304
918.717	6247
918.828	6281
918.939	6273
919.05	6201
919.161	6327
919.272	6110
919.383	6121
919.494	6296
919.604	6422
919.715	6296
919.826	6213
919.936	6220
920.047	6342
920.157	6273
920.267	6460
920.378	6342
920.488	6285
920.598	6418
920.708	6578
920.818	6540
920.928	6441
921.038	6593
921.148	6566
921.258	6346
921.368	6331
921.477	6266
921.587	6258
921.697	6072
921.806	6144
921.916	6079
922.025	5996
922.134	5939
922.244	5889
922.353	6003
922.462	5897
922.571	5836
922.68	5707
922.789	5703
922.898	5699
923.007	5661
923.116	5661
923.224	5672
923.333	5684
923.442	5585
923.55	5630
923.659	5596
923.767	5649
923.876	5600
923.984	5623
924.092	5459
924.201	5570
924.309	5577
924.417	5570
924.525	5501
924.633	5493
924.741	6277
924.849	5425
924.956	5474
925.064	5402
925.172	5330
925.279	5307
925.387	5364
925.494	5402
925.602	5452
925.709	5429
925.816	5311
925.924	5353
926.031	5387
926.138	5296
926.245	5349
926.352	5242
926.459	5296
926.566	5349
926.673	5212
926.779	5155
926.886	5128
926.993	5098
927.099	5006
927.206	5018
927.312	4968
927.419	5075
927.525	4976
927.631	5010
927.737	4885
927.843	4862
927.95	4790
928.056	4801
928.162	4835
928.267	4896
928.373	5349
928.479	4858
928.585	4687
928.69	4797
928.796	4816
928.901	4706
929.007	4611
929.112	4649
929.218	4660
929.323	4603
929.428	4546
929.533	4687
929.638	4527
929.743	4538
929.848	4577
929.953	4500
930.058	4478
930.163	4360
930.267	4348
930.372	4462
930.477	4303
930.581	4455
930.685	4432
930.79	4291
930.894	4249
930.998	4284
931.103	4413
931.207	4090
931.311	4013
931.415	4059
931.519	3949
931.623	3934
