Data from glass_V78500241_57.txt Node
Date: Wed Sep 01 19:14:53 CST 2021
User: usil
Spectrometer: V785-0024
Trigger mode: 0
Integration Time (sec): 4.000000E-1
Scans to average: 1
Nonlinearity correction enabled: false
Boxcar width: 0
Storing dark spectrum: false
XAxis mode: Wavelengths
Number of Pixels in Spectrum: 1024
>>>>>Begin Spectral Data<<<<<
801.071	3766
801.214	3778
801.356	3736
801.499	3705
801.641	3770
801.783	3800
801.926	3915
802.068	3804
802.211	3854
802.353	3896
802.496	3869
802.638	3907
802.78	3892
802.923	3945
803.065	3918
803.208	3911
803.35	3911
803.492	3953
803.635	3918
803.777	3812
803.919	3850
804.061	4150
804.204	4025
804.346	4006
804.488	3941
804.63	4055
804.773	3956
804.915	4040
805.057	4143
805.199	4048
805.341	4093
805.483	4181
805.626	4169
805.768	4135
805.91	4246
806.052	4246
806.194	4230
806.336	4360
806.478	4253
806.62	4181
806.762	4204
806.904	4265
807.046	4360
807.188	4280
807.33	4185
807.472	4265
807.614	4211
807.756	4303
807.898	4215
808.04	4265
808.182	4261
808.324	4333
808.465	4344
808.607	4405
808.749	4451
808.891	4455
809.033	4493
809.174	4432
809.316	4291
809.458	4272
809.6	4173
809.741	4143
809.883	4139
810.025	4276
810.166	4234
810.308	4227
810.45	4284
810.591	4291
810.733	4234
810.875	4558
811.016	4820
811.158	5128
811.299	5318
811.441	5315
811.582	5071
811.724	4702
811.865	4459
812.007	4500
812.148	4451
812.29	4428
812.431	4436
812.573	4409
812.714	4409
812.855	4428
812.997	4428
813.138	4432
813.279	4386
813.421	4417
813.562	4421
813.703	4341
813.845	4325
813.986	4322
814.127	4249
814.268	4253
814.41	4291
814.551	4287
814.692	4318
814.833	4276
814.974	4295
815.115	4337
815.256	4246
815.397	4242
815.539	4253
815.68	4211
815.821	4234
815.962	4303
816.103	4284
816.244	4238
816.385	4246
816.526	4299
816.666	4200
816.807	4105
816.948	4200
817.089	4230
817.23	4120
817.371	4044
817.512	4044
817.653	4067
817.793	4051
817.934	4040
818.075	4135
818.216	4097
818.356	4086
818.497	4010
818.638	3960
818.778	3934
818.919	3869
819.06	3873
819.2	3956
819.341	3888
819.481	3842
819.622	3911
819.762	4040
819.903	3949
820.043	3892
820.184	3854
820.324	3793
820.465	3876
820.605	3876
820.746	3846
820.886	3797
821.026	3930
821.167	3926
821.307	3987
821.447	3991
821.588	3968
821.728	3960
821.868	3945
822.008	3857
822.149	3911
822.289	3972
822.429	3789
822.569	3816
822.709	3793
822.849	3740
822.99	3762
823.13	3732
823.27	3857
823.41	3743
823.55	3766
823.69	3770
823.83	3778
823.97	3667
824.11	3595
824.25	3622
824.389	3663
824.529	3698
824.669	3633
824.809	3717
824.949	3797
825.089	3728
825.228	3759
825.368	3614
825.508	3572
825.648	3572
825.787	3663
825.927	3686
826.067	3644
826.206	3679
826.346	3800
826.485	3857
826.625	3899
826.765	3941
826.904	3857
827.044	3606
827.183	3519
827.323	3507
827.462	3477
827.601	3507
827.741	3439
827.88	3488
828.02	3370
828.159	3473
828.298	3519
828.437	3530
828.577	3477
828.716	3629
828.855	3530
828.994	3397
829.134	3378
829.273	3378
829.412	3344
829.551	3363
829.69	3386
829.829	3439
829.968	3576
830.107	3443
830.246	3485
830.385	3382
830.524	3374
830.663	3279
830.802	3272
830.941	3180
831.08	3214
831.219	3291
831.357	3275
831.496	3443
831.635	3268
831.774	3176
831.913	3245
832.051	3150
832.19	3100
832.329	3218
832.467	3154
832.606	3131
832.744	3169
832.883	3192
833.022	3173
833.16	3275
833.299	3340
833.437	3332
833.576	3435
833.714	3428
833.852	3431
833.991	3435
834.129	3481
834.267	3447
834.406	3420
834.544	3412
834.682	3386
834.821	3424
834.959	3561
835.097	3477
835.235	3564
835.373	3504
835.511	3526
835.65	3488
835.788	3507
835.926	3412
836.064	3389
836.202	3397
836.34	3599
836.478	3637
836.615	3564
836.753	3591
836.891	3675
837.029	3656
837.167	3641
837.305	3610
837.443	3507
837.58	3553
837.718	3610
837.856	3606
837.993	3576
838.131	3660
838.269	3580
838.406	3584
838.544	3603
838.681	3481
838.819	3511
838.956	3439
839.094	3401
839.231	3485
839.369	3515
839.506	3743
839.643	3667
839.781	3492
839.918	3477
840.055	3534
840.193	3564
840.33	3568
840.467	3591
840.604	3629
840.742	3808
840.879	3553
841.016	3610
841.153	3614
841.29	3781
841.427	3759
841.564	3732
841.701	3766
841.838	3713
841.975	3679
842.112	3751
842.249	3633
842.385	3660
842.522	3888
842.659	3705
842.796	3694
842.933	3682
843.069	3709
843.206	3705
843.343	3823
843.479	3778
843.616	3850
843.752	3682
843.889	3705
844.025	3884
844.162	3747
844.298	3857
844.435	3793
844.571	3816
844.708	3934
844.844	3945
844.98	4010
845.117	4017
845.253	3934
845.389	3918
845.525	3968
845.661	3983
845.798	3956
845.934	4048
846.07	4013
846.206	4071
846.342	4112
846.478	4067
846.614	3975
846.75	3930
846.886	3926
847.022	4067
847.158	3983
847.294	4006
847.429	4059
847.565	4002
847.701	4295
847.837	3903
847.972	3869
848.108	3964
848.244	4017
848.379	3903
848.515	3804
848.65	3850
848.786	3865
848.921	3884
849.057	3915
849.192	3945
849.328	3934
849.463	3937
849.598	3888
849.734	3896
849.869	3869
850.004	3789
850.14	3876
850.275	3785
850.41	3732
850.545	3755
850.68	3808
850.815	3797
850.95	3785
851.085	3937
851.22	3911
851.355	3865
851.49	3781
851.625	3785
851.76	3816
851.895	3762
852.03	3701
852.165	3819
852.299	3865
852.434	3945
852.569	3884
852.703	3892
852.838	3964
852.973	4029
853.107	4021
853.242	3911
853.376	3850
853.511	3743
853.645	3854
853.78	4017
853.914	3926
854.048	3896
854.183	3896
854.317	3964
854.451	4082
854.585	4013
854.72	3972
854.854	4048
854.988	3941
855.122	4017
855.256	3964
855.39	4078
855.524	4124
855.658	4109
855.792	4158
855.926	4135
856.06	4177
856.194	4284
856.327	4139
856.461	4135
856.595	4196
856.729	4234
856.862	4280
856.996	4253
857.13	4291
857.263	4325
857.397	4402
857.53	4287
857.664	4394
857.797	4459
857.931	4447
858.064	4409
858.197	4451
858.331	4383
858.464	4379
858.597	4322
858.731	4455
858.864	4474
858.997	4504
859.13	4542
859.263	4535
859.396	4618
859.529	4565
859.662	4588
859.795	4535
859.928	4645
860.061	4698
860.194	4721
860.327	4714
860.46	4641
860.592	4748
860.725	4774
860.858	4774
860.99	4653
861.123	4668
861.256	4714
861.388	4797
861.521	5398
861.653	4744
861.786	4691
861.918	4763
862.05	4797
862.183	4877
862.315	4900
862.447	4965
862.58	4904
862.712	4809
862.844	4771
862.976	4873
863.108	4873
863.24	5299
863.372	4820
863.504	4942
863.636	4915
863.768	5006
863.9	4980
864.032	4927
864.164	4976
864.296	5014
864.428	5117
864.559	5113
864.691	5124
864.823	5208
864.954	5140
865.086	5181
865.217	5109
865.349	5117
865.48	5151
865.612	5178
865.743	5330
865.875	5193
866.006	5166
866.137	5254
866.269	5242
866.4	5311
866.531	5250
866.662	5242
866.793	5322
866.924	5250
867.055	5357
867.186	5368
867.317	5261
867.448	5337
867.579	5395
867.71	5421
867.841	5425
867.972	5463
868.103	5467
868.233	5493
868.364	5486
868.495	5520
868.625	5623
868.756	5817
868.886	5623
869.017	5737
869.147	5897
869.278	5935
869.408	5855
869.539	5878
869.669	5939
869.799	5935
869.929	5996
870.06	6041
870.19	6209
870.32	6247
870.45	6296
870.58	6369
870.71	6448
870.84	6441
870.97	6517
871.1	6513
871.23	6681
871.36	6726
871.489	6677
871.619	6753
871.749	6837
871.879	6856
872.008	7069
872.138	6981
872.267	7072
872.397	7019
872.526	7031
872.656	7080
872.785	7206
872.915	7396
873.044	7521
873.173	7559
873.303	7719
873.432	7792
873.561	7970
873.69	7947
873.819	8024
873.948	8202
874.077	8301
874.206	8290
874.335	8427
874.464	8655
874.593	8807
874.722	8872
874.851	9116
874.979	9241
875.108	9420
875.237	9393
875.365	9504
875.494	9698
875.623	9800
875.751	9865
875.88	9968
876.008	10166
876.136	10363
876.265	10512
876.393	10759
876.521	10748
876.65	10835
876.778	10889
876.906	10942
877.034	10987
877.162	11136
877.29	11086
877.418	11318
877.546	11265
877.674	11467
877.802	11520
877.93	11524
878.058	11600
878.185	11608
878.313	11691
878.441	11707
878.568	11707
878.696	11821
878.824	11939
878.951	11935
879.079	12068
879.206	12136
879.333	12136
879.461	12007
879.588	12091
879.715	12121
879.842	12270
879.97	12026
880.097	11885
880.224	11901
880.351	11859
880.478	11870
880.605	11843
880.732	11771
880.859	11958
880.986	11870
881.112	11885
881.239	11756
881.366	11589
881.493	11627
881.619	11524
881.746	11532
881.872	11474
881.999	11551
882.125	11471
882.252	11615
882.378	11474
882.505	11528
882.631	11387
882.757	11303
882.883	11402
883.01	11231
883.136	11311
883.262	11140
883.388	11075
883.514	11162
883.64	11155
883.766	11128
883.892	11041
884.018	11025
884.143	11018
884.269	11105
884.395	10968
884.52	10786
884.646	10763
884.772	10717
884.897	10653
885.023	10634
885.148	10698
885.274	10744
885.399	10691
885.524	10622
885.65	10573
885.775	10592
885.9	10618
886.025	10599
886.15	10542
886.275	10424
886.4	10424
886.525	10466
886.65	10390
886.775	10360
886.9	10523
887.025	10558
887.149	10382
887.274	10219
887.399	10173
887.523	10219
887.648	10204
887.773	10200
887.897	10249
888.021	10287
888.146	10135
888.27	10238
888.395	10253
888.519	10139
888.643	10188
888.767	10200
888.891	10067
889.015	10071
889.139	10124
889.263	9998
889.387	10078
889.511	10097
889.635	10048
889.759	9975
889.883	10090
890.006	10006
890.13	10124
890.254	9983
890.377	9987
890.501	9854
890.624	9781
890.748	9884
890.871	9888
890.995	9781
891.118	9663
891.241	9816
891.364	9766
891.488	9797
891.611	9797
891.734	9831
891.857	9804
891.98	9759
892.103	9736
892.226	9709
892.349	9671
892.471	9538
892.594	9656
892.717	9629
892.839	9599
892.962	9637
893.085	9701
893.207	9603
893.33	9545
893.452	9526
893.575	9622
893.697	9526
893.819	9652
893.941	9603
894.064	9667
894.186	9397
894.308	9401
894.43	9561
894.552	9568
894.674	9564
894.796	9420
894.918	9428
895.04	9408
895.161	9351
895.283	9416
895.405	9253
895.526	9283
895.648	9260
895.769	9222
895.891	9294
896.012	9283
896.134	9275
896.255	9233
896.376	9127
896.498	9173
896.619	9150
896.74	9043
896.861	9123
896.982	9268
897.103	9355
897.224	9203
897.345	9081
897.466	9108
897.587	9009
897.708	9142
897.828	9066
897.949	8979
898.07	8834
898.19	8952
898.311	8998
898.431	8933
898.552	8918
898.672	8967
898.792	8998
898.913	8921
899.033	8842
899.153	8750
899.273	8674
899.393	8731
899.513	8750
899.633	8708
899.753	8758
899.873	8720
899.993	8842
900.113	8758
900.232	8697
900.352	8670
900.472	8610
900.591	8526
900.711	8712
900.83	8598
900.95	8697
901.069	8727
901.189	8587
901.308	8396
901.427	8389
901.546	8503
901.665	8476
901.784	8564
901.904	8336
902.023	8328
902.141	8229
902.26	8221
902.379	8317
902.498	8218
902.617	8286
902.735	8256
902.854	8339
902.973	8233
903.091	8172
903.21	8130
903.328	8145
903.446	8142
903.565	8046
903.683	8092
903.801	8081
903.919	8145
904.038	8164
904.156	8088
904.274	8096
904.392	8092
904.51	8069
904.627	8130
904.745	8149
904.863	8092
904.981	7894
905.098	7879
905.216	7906
905.334	7883
905.451	7928
905.569	7887
905.686	7936
905.803	7955
905.921	7822
906.038	7864
906.155	7765
906.272	7780
906.389	7723
906.506	7639
906.623	7647
906.74	7647
906.857	7537
906.974	7586
907.091	7693
907.208	7734
907.324	7670
907.441	7613
907.557	7457
907.674	7419
907.79	7419
907.907	7419
908.023	7430
908.139	7407
908.256	7415
908.372	7369
908.488	7316
908.604	7270
908.72	7331
908.836	7255
908.952	7263
909.068	7266
909.184	7350
909.3	7354
909.415	7263
909.531	7350
909.647	7080
909.762	7118
909.878	7221
909.993	7149
910.108	7141
910.224	7084
910.339	7080
910.454	7038
910.57	7031
910.685	7023
910.8	7198
910.915	7126
911.03	7046
911.145	6932
911.259	6837
911.374	6970
911.489	6833
911.604	6863
911.718	6749
911.833	6703
911.947	6719
912.062	6642
912.176	6745
912.291	6798
912.405	6658
912.519	6825
912.633	6859
912.748	6719
912.862	6722
912.976	6631
913.09	6559
913.204	6620
913.318	6570
913.431	6684
913.545	6703
913.659	6730
913.772	6662
913.886	6566
914	6620
914.113	6635
914.226	6623
914.34	6665
914.453	6498
914.566	6601
914.68	6566
914.793	6506
914.906	6437
915.019	6410
915.132	6384
915.245	6418
915.358	6426
915.47	6460
915.583	6460
915.696	6513
915.809	6509
915.921	6593
916.034	6475
916.146	6399
916.259	6426
916.371	6502
916.483	6407
916.595	6388
916.708	6429
916.82	6407
916.932	6414
917.044	6384
917.156	6410
917.268	6357
917.38	6346
917.491	6350
917.603	6327
917.715	6475
917.826	6433
917.938	6304
918.049	6228
918.161	6399
918.272	6376
918.384	6399
918.495	6365
918.606	6258
918.717	6213
918.828	6296
918.939	6399
919.05	6197
919.161	6281
919.272	6201
919.383	6140
919.494	6350
919.604	6479
919.715	6304
919.826	6201
919.936	6270
920.047	6380
920.157	6296
920.267	6479
920.378	6403
920.488	6315
920.598	6471
920.708	6601
920.818	6426
920.928	6483
921.038	6639
921.148	6582
921.258	6376
921.368	6277
921.477	6186
921.587	6190
921.697	6117
921.806	6182
921.916	6152
922.025	5942
922.134	5973
922.244	5885
922.353	5980
922.462	5844
922.571	5878
922.68	5703
922.789	5718
922.898	5779
923.007	5623
923.116	5688
923.224	5703
923.333	5657
923.442	5604
923.55	5630
923.659	5653
923.767	5718
923.876	5638
923.984	5630
924.092	5539
924.201	5554
924.309	5581
924.417	5570
924.525	5478
924.633	5551
924.741	6273
924.849	5421
924.956	5505
925.064	5379
925.172	5337
925.279	5368
925.387	5372
925.494	5379
925.602	5524
925.709	5398
925.816	5303
925.924	5349
926.031	5387
926.138	5330
926.245	5334
926.352	5227
926.459	5315
926.566	5364
926.673	5208
926.779	5166
926.886	5090
926.993	5029
927.099	5025
927.206	5025
927.312	4957
927.419	4999
927.525	4984
927.631	5045
927.737	4900
927.843	4889
927.95	4809
928.056	4828
928.162	4847
928.267	4877
928.373	5337
928.479	4885
928.585	4683
928.69	4767
928.796	4786
928.901	4672
929.007	4596
929.112	4706
929.218	4687
929.323	4630
929.428	4580
929.533	4656
929.638	4535
929.743	4527
929.848	4592
929.953	4489
930.058	4440
930.163	4329
930.267	4352
930.372	4459
930.477	4352
930.581	4523
930.685	4383
930.79	4253
930.894	4291
930.998	4299
931.103	4371
931.207	4173
931.311	4078
931.415	4010
931.519	3949
931.623	3994
