Data from glass_V78500241_641.txt Node
Date: Wed Sep 01 19:18:56 CST 2021
User: usil
Spectrometer: V785-0024
Trigger mode: 0
Integration Time (sec): 4.000000E-1
Scans to average: 1
Nonlinearity correction enabled: false
Boxcar width: 0
Storing dark spectrum: false
XAxis mode: Wavelengths
Number of Pixels in Spectrum: 1024
>>>>>Begin Spectral Data<<<<<
801.071	3740
801.214	3755
801.356	3724
801.499	3781
801.641	3717
801.783	3823
801.926	3899
802.068	3819
802.211	3873
802.353	3892
802.496	3816
802.638	3899
802.78	3903
802.923	3964
803.065	3907
803.208	3876
803.35	3884
803.492	3937
803.635	3953
803.777	3827
803.919	3888
804.061	4166
804.204	3956
804.346	3956
804.488	3922
804.63	4051
804.773	3956
804.915	4051
805.057	4169
805.199	4040
805.341	4105
805.483	4169
805.626	4154
805.768	4116
805.91	4238
806.052	4246
806.194	4242
806.336	4356
806.478	4200
806.62	4185
806.762	4207
806.904	4242
807.046	4344
807.188	4246
807.33	4196
807.472	4265
807.614	4200
807.756	4295
807.898	4261
808.04	4257
808.182	4322
808.324	4318
808.465	4447
808.607	4519
808.749	4421
808.891	4493
809.033	4550
809.174	4421
809.316	4249
809.458	4238
809.6	4135
809.741	4120
809.883	4200
810.025	4188
810.166	4227
810.308	4234
810.45	4200
810.591	4257
810.733	4303
810.875	4535
811.016	4850
811.158	5109
811.299	5284
811.441	5318
811.582	5094
811.724	4748
811.865	4489
812.007	4497
812.148	4474
812.29	4424
812.431	4383
812.573	4421
812.714	4405
812.855	4424
812.997	4405
813.138	4523
813.279	4424
813.421	4428
813.562	4379
813.703	4333
813.845	4390
813.986	4272
814.127	4280
814.268	4272
814.41	4280
814.551	4242
814.692	4318
814.833	4276
814.974	4352
815.115	4371
815.256	4227
815.397	4215
815.539	4238
815.68	4234
815.821	4287
815.962	4325
816.103	4299
816.244	4268
816.385	4219
816.526	4276
816.666	4227
816.807	4131
816.948	4169
817.089	4169
817.23	4162
817.371	4071
817.512	4078
817.653	4105
817.793	4074
817.934	4013
818.075	4071
818.216	4124
818.356	4086
818.497	4029
818.638	3949
818.778	3892
818.919	3907
819.06	3838
819.2	3911
819.341	3869
819.481	3865
819.622	3911
819.762	4017
819.903	3972
820.043	3865
820.184	3835
820.324	3842
820.465	3873
820.605	3899
820.746	3873
820.886	3785
821.026	3972
821.167	3907
821.307	3983
821.447	4017
821.588	3975
821.728	3968
821.868	3934
822.008	3896
822.149	3922
822.289	3915
822.429	3797
822.569	3793
822.709	3819
822.849	3701
822.99	3736
823.13	3743
823.27	3789
823.41	3713
823.55	3709
823.69	3728
823.83	3785
823.97	3671
824.11	3625
824.25	3652
824.389	3633
824.529	3652
824.669	3671
824.809	3751
824.949	3766
825.089	3743
825.228	3717
825.368	3599
825.508	3557
825.648	3580
825.787	3637
825.927	3637
826.067	3656
826.206	3724
826.346	3789
826.485	3857
826.625	3915
826.765	3994
826.904	3884
827.044	3644
827.183	3481
827.323	3469
827.462	3454
827.601	3500
827.741	3447
827.88	3458
828.02	3401
828.159	3473
828.298	3519
828.437	3504
828.577	3485
828.716	3591
828.855	3515
828.994	3374
829.134	3382
829.273	3412
829.412	3359
829.551	3332
829.69	3397
829.829	3439
829.968	3534
830.107	3458
830.246	3428
830.385	3405
830.524	3382
830.663	3264
830.802	3291
830.941	3233
831.08	3176
831.219	3298
831.357	3245
831.496	3443
831.635	3241
831.774	3226
831.913	3207
832.051	3154
832.19	3161
832.329	3199
832.467	3100
832.606	3116
832.744	3146
832.883	3161
833.022	3226
833.16	3253
833.299	3336
833.437	3348
833.576	3424
833.714	3370
833.852	3439
833.991	3439
834.129	3492
834.267	3485
834.406	3435
834.544	3428
834.682	3466
834.821	3420
834.959	3587
835.097	3439
835.235	3561
835.373	3504
835.511	3561
835.65	3447
835.788	3469
835.926	3370
836.064	3393
836.202	3428
836.34	3603
836.478	3606
836.615	3523
836.753	3622
836.891	3667
837.029	3633
837.167	3614
837.305	3561
837.443	3561
837.58	3526
837.718	3580
837.856	3606
837.993	3561
838.131	3629
838.269	3599
838.406	3610
838.544	3545
838.681	3488
838.819	3492
838.956	3416
839.094	3431
839.231	3447
839.369	3507
839.506	3743
839.643	3663
839.781	3511
839.918	3496
840.055	3534
840.193	3545
840.33	3538
840.467	3561
840.604	3637
840.742	3857
840.879	3587
841.016	3557
841.153	3610
841.29	3743
841.427	3728
841.564	3724
841.701	3736
841.838	3747
841.975	3690
842.112	3751
842.249	3675
842.385	3648
842.522	3797
842.659	3690
842.796	3709
842.933	3705
843.069	3732
843.206	3701
843.343	3857
843.479	3778
843.616	3831
843.752	3660
843.889	3705
844.025	3850
844.162	3736
844.298	3865
844.435	3785
844.571	3804
844.708	3968
844.844	3949
844.98	4032
845.117	4025
845.253	3949
845.389	3888
845.525	3968
845.661	4010
845.798	3896
845.934	3983
846.07	3960
846.206	4067
846.342	4071
846.478	4090
846.614	4017
846.75	3937
846.886	3926
847.022	4044
847.158	3964
847.294	3960
847.429	4040
847.565	4017
847.701	4215
847.837	3915
847.972	3899
848.108	3983
848.244	3991
848.379	3876
848.515	3797
848.65	3850
848.786	3812
848.921	3846
849.057	3911
849.192	3979
849.328	3941
849.463	3945
849.598	3892
849.734	3823
849.869	3838
850.004	3793
850.14	3842
850.275	3797
850.41	3785
850.545	3740
850.68	3808
850.815	3831
850.95	3785
851.085	3964
851.22	3869
851.355	3873
851.49	3785
851.625	3827
851.76	3831
851.895	3728
852.03	3743
852.165	3808
852.299	3869
852.434	3907
852.569	3899
852.703	3869
852.838	3930
852.973	4010
853.107	3975
853.242	3934
853.376	3854
853.511	3797
853.645	3842
853.78	4021
853.914	3907
854.048	3915
854.183	3896
854.317	3983
854.451	4105
854.585	3979
854.72	3964
854.854	4040
854.988	3945
855.122	4044
855.256	3903
855.39	4059
855.524	4143
855.658	4112
855.792	4143
855.926	4158
856.06	4166
856.194	4204
856.327	4166
856.461	4093
856.595	4147
856.729	4181
856.862	4280
856.996	4295
857.13	4295
857.263	4352
857.397	4363
857.53	4284
857.664	4375
857.797	4402
857.931	4436
858.064	4447
858.197	4455
858.331	4428
858.464	4413
858.597	4417
858.731	4459
858.864	4504
858.997	4478
859.13	4565
859.263	4580
859.396	4584
859.529	4573
859.662	4561
859.795	4554
859.928	4679
860.061	4694
860.194	4744
860.327	4672
860.46	4637
860.592	4740
860.725	4763
860.858	4820
860.99	4725
861.123	4717
861.256	4706
861.388	4786
861.521	5265
861.653	4748
861.786	4790
861.918	4763
862.05	4824
862.183	4866
862.315	4892
862.447	4919
862.58	4889
862.712	4816
862.844	4740
862.976	4930
863.108	4923
863.24	5193
863.372	4881
863.504	4938
863.636	4942
863.768	5003
863.9	4980
864.032	4881
864.164	5010
864.296	5060
864.428	5075
864.559	5166
864.691	5121
864.823	5155
864.954	5117
865.086	5143
865.217	5109
865.349	5136
865.48	5166
865.612	5197
865.743	5299
865.875	5212
866.006	5235
866.137	5288
866.269	5212
866.4	5303
866.531	5235
866.662	5239
866.793	5311
866.924	5364
867.055	5337
867.186	5395
867.317	5372
867.448	5311
867.579	5429
867.71	5387
867.841	5379
867.972	5482
868.103	5482
868.233	5463
868.364	5478
868.495	5493
868.625	5714
868.756	5798
868.886	5741
869.017	5752
869.147	5847
869.278	5923
869.408	5855
869.539	5847
869.669	5920
869.799	5980
869.929	6019
870.06	5973
870.19	6155
870.32	6220
870.45	6292
870.58	6399
870.71	6486
870.84	6479
870.97	6372
871.1	6410
871.23	6616
871.36	6692
871.489	6646
871.619	6745
871.749	6806
871.879	6814
872.008	7012
872.138	6947
872.267	6970
872.397	7015
872.526	7046
872.656	7129
872.785	7194
872.915	7438
873.044	7495
873.173	7590
873.303	7746
873.432	7742
873.561	7909
873.69	7883
873.819	8001
873.948	8168
874.077	8328
874.206	8377
874.335	8446
874.464	8674
874.593	8887
874.722	8967
874.851	9066
874.979	9188
875.108	9393
875.237	9408
875.365	9526
875.494	9690
875.623	9899
875.751	9937
875.88	9998
876.008	10067
876.136	10234
876.265	10573
876.393	10740
876.521	10733
876.65	10858
876.778	10972
876.906	10877
877.034	10999
877.162	11117
877.29	11189
877.418	11296
877.546	11269
877.674	11444
877.802	11467
877.93	11539
878.058	11486
878.185	11596
878.313	11737
878.441	11726
878.568	11657
878.696	11802
878.824	11885
878.951	11946
879.079	12011
879.206	12133
879.333	12060
879.461	12068
879.588	11992
879.715	12079
879.842	12228
879.97	12098
880.097	11927
880.224	11935
880.351	11942
880.478	11973
880.605	11870
880.732	11824
880.859	11973
880.986	11866
881.112	11832
881.239	11745
881.366	11691
881.493	11615
881.619	11520
881.746	11592
881.872	11471
881.999	11585
882.125	11448
882.252	11627
882.378	11539
882.505	11524
882.631	11334
882.757	11356
882.883	11326
883.01	11254
883.136	11181
883.262	11193
883.388	11109
883.514	11166
883.64	11246
883.766	11189
883.892	11022
884.018	11079
884.143	11094
884.269	11098
884.395	10854
884.52	10831
884.646	10774
884.772	10733
884.897	10675
885.023	10675
885.148	10759
885.274	10733
885.399	10755
885.524	10634
885.65	10580
885.775	10573
885.9	10603
886.025	10546
886.15	10550
886.275	10451
886.4	10428
886.525	10424
886.65	10432
886.775	10421
886.9	10489
887.025	10466
887.149	10413
887.274	10242
887.399	10287
887.523	10238
887.648	10200
887.773	10109
887.897	10257
888.021	10207
888.146	10158
888.27	10196
888.395	10204
888.519	10238
888.643	10147
888.767	10147
888.891	10261
889.015	10044
889.139	10109
889.263	9991
889.387	10128
889.511	10177
889.635	10086
889.759	10006
889.883	10013
890.006	10093
890.13	10090
890.254	9968
890.377	9991
890.501	9854
890.624	9975
890.748	9884
890.871	9789
890.995	9770
891.118	9781
891.241	9690
891.364	9774
891.488	9857
891.611	9747
891.734	9705
891.857	9774
891.98	9675
892.103	9755
892.226	9709
892.349	9675
892.471	9519
892.594	9625
892.717	9652
892.839	9587
892.962	9561
893.085	9660
893.207	9561
893.33	9519
893.452	9458
893.575	9595
893.697	9523
893.819	9625
893.941	9671
894.064	9614
894.186	9424
894.308	9405
894.43	9557
894.552	9584
894.674	9542
894.796	9439
894.918	9428
895.04	9367
895.161	9382
895.283	9306
895.405	9279
895.526	9268
895.648	9287
895.769	9253
895.891	9214
896.012	9283
896.134	9298
896.255	9211
896.376	9157
896.498	9119
896.619	9173
896.74	9104
896.861	9135
896.982	9241
897.103	9294
897.224	9192
897.345	9062
897.466	8982
897.587	9028
897.708	9085
897.828	8937
897.949	8960
898.07	8845
898.19	8918
898.311	8998
898.431	8918
898.552	8937
898.672	8956
898.792	8925
898.913	8906
899.033	8887
899.153	8800
899.273	8651
899.393	8762
899.513	8800
899.633	8792
899.753	8743
899.873	8823
899.993	8739
900.113	8682
900.232	8785
900.352	8667
900.472	8629
900.591	8552
900.711	8598
900.83	8552
900.95	8701
901.069	8708
901.189	8541
901.308	8549
901.427	8404
901.546	8461
901.665	8488
901.784	8480
901.904	8434
902.023	8374
902.141	8309
902.26	8237
902.379	8282
902.498	8252
902.617	8168
902.735	8339
902.854	8343
902.973	8244
903.091	8149
903.21	8153
903.328	8168
903.446	8100
903.565	8123
903.683	8092
903.801	8012
903.919	8088
904.038	8145
904.156	8096
904.274	8054
904.392	8100
904.51	8039
904.627	8043
904.745	8046
904.863	8111
904.981	7940
905.098	7875
905.216	7894
905.334	7925
905.451	7890
905.569	7925
905.686	7932
905.803	7879
905.921	7761
906.038	7875
906.155	7837
906.272	7753
906.389	7715
906.506	7670
906.623	7715
906.74	7647
906.857	7582
906.974	7590
907.091	7685
907.208	7700
907.324	7601
907.441	7552
907.557	7556
907.674	7445
907.79	7430
907.907	7419
908.023	7487
908.139	7472
908.256	7434
908.372	7369
908.488	7381
908.604	7297
908.72	7187
908.836	7320
908.952	7289
909.068	7236
909.184	7312
909.3	7255
909.415	7327
909.531	7240
909.647	7114
909.762	7110
909.878	7095
909.993	7194
910.108	7107
910.224	7072
910.339	7091
910.454	7095
910.57	7072
910.685	6928
910.8	7149
910.915	7084
911.03	6970
911.145	6989
911.259	6935
911.374	6951
911.489	6863
911.604	6760
911.718	6779
911.833	6726
911.947	6692
912.062	6662
912.176	6711
912.291	6753
912.405	6749
912.519	6791
912.633	6882
912.748	6738
912.862	6741
912.976	6650
913.09	6528
913.204	6601
913.318	6654
913.431	6601
913.545	6722
913.659	6726
913.772	6654
913.886	6589
914	6536
914.113	6620
914.226	6669
914.34	6642
914.453	6452
914.566	6593
914.68	6502
914.793	6536
914.906	6395
915.019	6471
915.132	6410
915.245	6395
915.358	6429
915.47	6456
915.583	6498
915.696	6494
915.809	6509
915.921	6547
916.034	6410
916.146	6414
916.259	6369
916.371	6445
916.483	6483
916.595	6422
916.708	6426
916.82	6467
916.932	6361
917.044	6418
917.156	6418
917.268	6353
917.38	6361
917.491	6338
917.603	6380
917.715	6380
917.826	6403
917.938	6369
918.049	6232
918.161	6327
918.272	6448
918.384	6452
918.495	6342
918.606	6258
918.717	6296
918.828	6277
918.939	6270
919.05	6209
919.161	6243
919.272	6178
919.383	6152
919.494	6273
919.604	6445
919.715	6304
919.826	6213
919.936	6232
920.047	6296
920.157	6300
920.267	6483
920.378	6353
920.488	6296
920.598	6479
920.708	6597
920.818	6475
920.928	6498
921.038	6669
921.148	6582
921.258	6410
921.368	6296
921.477	6224
921.587	6163
921.697	6140
921.806	6205
921.916	6076
922.025	5984
922.134	5923
922.244	5908
922.353	5965
922.462	5859
922.571	5821
922.68	5756
922.789	5722
922.898	5729
923.007	5703
923.116	5680
923.224	5672
923.333	5627
923.442	5592
923.55	5566
923.659	5589
923.767	5619
923.876	5570
923.984	5615
924.092	5520
924.201	5547
924.309	5474
924.417	5554
924.525	5448
924.633	5512
924.741	6251
924.849	5417
924.956	5482
925.064	5357
925.172	5315
925.279	5322
925.387	5360
925.494	5322
925.602	5433
925.709	5455
925.816	5341
925.924	5368
926.031	5364
926.138	5311
926.245	5353
926.352	5216
926.459	5334
926.566	5330
926.673	5216
926.779	5132
926.886	5090
926.993	5060
927.099	4984
927.206	4968
927.312	4980
927.419	5018
927.525	4946
927.631	4980
927.737	4942
927.843	4828
927.95	4786
928.056	4866
928.162	4854
928.267	4881
928.373	5391
928.479	4870
928.585	4729
928.69	4752
928.796	4801
928.901	4656
929.007	4569
929.112	4694
929.218	4634
929.323	4599
929.428	4527
929.533	4679
929.638	4550
929.743	4554
929.848	4519
929.953	4546
930.058	4375
930.163	4344
930.267	4386
930.372	4409
930.477	4306
930.581	4481
930.685	4375
930.79	4303
930.894	4261
930.998	4306
931.103	4398
931.207	4128
931.311	4090
931.415	4101
931.519	3918
931.623	3934
