Data from glass_V78500241_2169.txt Node
Date: Wed Sep 01 19:29:32 CST 2021
User: usil
Spectrometer: V785-0024
Trigger mode: 0
Integration Time (sec): 4.000000E-1
Scans to average: 1
Nonlinearity correction enabled: false
Boxcar width: 0
Storing dark spectrum: false
XAxis mode: Wavelengths
Number of Pixels in Spectrum: 1024
>>>>>Begin Spectral Data<<<<<
801.071	3770
801.214	3740
801.356	3736
801.499	3701
801.641	3724
801.783	3819
801.926	3823
802.068	3812
802.211	3838
802.353	3835
802.496	3842
802.638	3880
802.78	3911
802.923	3911
803.065	3896
803.208	3800
803.35	3857
803.492	3915
803.635	3922
803.777	3797
803.919	3884
804.061	4150
804.204	3934
804.346	3949
804.488	3915
804.63	4002
804.773	3949
804.915	4021
805.057	4139
805.199	3994
805.341	4082
805.483	4154
805.626	4116
805.768	4120
805.91	4204
806.052	4230
806.194	4246
806.336	4363
806.478	4207
806.62	4169
806.762	4177
806.904	4265
807.046	4299
807.188	4253
807.33	4166
807.472	4249
807.614	4200
807.756	4257
807.898	4200
808.04	4246
808.182	4257
808.324	4276
808.465	4348
808.607	4447
808.749	4462
808.891	4497
809.033	4493
809.174	4443
809.316	4268
809.458	4223
809.6	4120
809.741	4128
809.883	4124
810.025	4207
810.166	4204
810.308	4242
810.45	4249
810.591	4196
810.733	4295
810.875	4527
811.016	4786
811.158	5128
811.299	5250
811.441	5273
811.582	5056
811.724	4698
811.865	4432
812.007	4466
812.148	4447
812.29	4459
812.431	4409
812.573	4428
812.714	4348
812.855	4421
812.997	4348
813.138	4443
813.279	4421
813.421	4386
813.562	4371
813.703	4291
813.845	4352
813.986	4249
814.127	4215
814.268	4200
814.41	4318
814.551	4230
814.692	4295
814.833	4299
814.974	4268
815.115	4314
815.256	4204
815.397	4246
815.539	4257
815.68	4188
815.821	4234
815.962	4337
816.103	4268
816.244	4192
816.385	4261
816.526	4284
816.666	4204
816.807	4120
816.948	4185
817.089	4177
817.23	4036
817.371	4051
817.512	4036
817.653	4109
817.793	4032
817.934	4021
818.075	4090
818.216	4154
818.356	4097
818.497	4036
818.638	3918
818.778	3884
818.919	3892
819.06	3842
819.2	3911
819.341	3896
819.481	3861
819.622	3915
819.762	3991
819.903	3945
820.043	3827
820.184	3835
820.324	3781
820.465	3869
820.605	3816
820.746	3823
820.886	3804
821.026	3907
821.167	3899
821.307	3930
821.447	3960
821.588	3987
821.728	3934
821.868	3964
822.008	3854
822.149	3922
822.289	3922
822.429	3785
822.569	3747
822.709	3812
822.849	3724
822.99	3694
823.13	3743
823.27	3770
823.41	3732
823.55	3717
823.69	3698
823.83	3736
823.97	3690
824.11	3614
824.25	3576
824.389	3584
824.529	3644
824.669	3633
824.809	3717
824.949	3759
825.089	3694
825.228	3701
825.368	3637
825.508	3534
825.648	3530
825.787	3576
825.927	3614
826.067	3614
826.206	3671
826.346	3762
826.485	3846
826.625	3880
826.765	3941
826.904	3865
827.044	3576
827.183	3553
827.323	3416
827.462	3454
827.601	3447
827.741	3454
827.88	3462
828.02	3386
828.159	3447
828.298	3485
828.437	3515
828.577	3469
828.716	3610
828.855	3481
828.994	3401
829.134	3370
829.273	3393
829.412	3367
829.551	3321
829.69	3313
829.829	3431
829.968	3511
830.107	3454
830.246	3428
830.385	3367
830.524	3351
830.663	3317
830.802	3272
830.941	3176
831.08	3203
831.219	3264
831.357	3256
831.496	3393
831.635	3192
831.774	3173
831.913	3165
832.051	3112
832.19	3199
832.329	3192
832.467	3123
832.606	3108
832.744	3157
832.883	3192
833.022	3165
833.16	3283
833.299	3302
833.437	3321
833.576	3401
833.714	3386
833.852	3405
833.991	3469
834.129	3447
834.267	3420
834.406	3386
834.544	3450
834.682	3416
834.821	3424
834.959	3511
835.097	3397
835.235	3595
835.373	3454
835.511	3507
835.65	3462
835.788	3492
835.926	3439
836.064	3363
836.202	3405
836.34	3534
836.478	3603
836.615	3545
836.753	3564
836.891	3622
837.029	3610
837.167	3580
837.305	3549
837.443	3549
837.58	3500
837.718	3591
837.856	3549
837.993	3542
838.131	3584
838.269	3553
838.406	3610
838.544	3545
838.681	3466
838.819	3443
838.956	3363
839.094	3363
839.231	3428
839.369	3515
839.506	3694
839.643	3633
839.781	3515
839.918	3462
840.055	3481
840.193	3515
840.33	3523
840.467	3568
840.604	3587
840.742	3785
840.879	3534
841.016	3549
841.153	3576
841.29	3762
841.427	3701
841.564	3705
841.701	3694
841.838	3698
841.975	3694
842.112	3747
842.249	3595
842.385	3595
842.522	3842
842.659	3675
842.796	3625
842.933	3713
843.069	3717
843.206	3705
843.343	3869
843.479	3819
843.616	3823
843.752	3660
843.889	3663
844.025	3861
844.162	3682
844.298	3812
844.435	3808
844.571	3812
844.708	3884
844.844	3983
844.98	4082
845.117	4017
845.253	3907
845.389	3896
845.525	3956
845.661	3949
845.798	3922
845.934	3960
846.07	3937
846.206	4025
846.342	4139
846.478	4067
846.614	3937
846.75	3945
846.886	3876
847.022	4013
847.158	3964
847.294	3987
847.429	3983
847.565	3991
847.701	4227
847.837	3899
847.972	3869
848.108	3983
848.244	3983
848.379	3846
848.515	3789
848.65	3812
848.786	3831
848.921	3865
849.057	3937
849.192	3937
849.328	3896
849.463	3907
849.598	3873
849.734	3903
849.869	3857
850.004	3804
850.14	3797
850.275	3789
850.41	3740
850.545	3774
850.68	3759
850.815	3778
850.95	3793
851.085	3907
851.22	3865
851.355	3789
851.49	3770
851.625	3800
851.76	3793
851.895	3747
852.03	3762
852.165	3781
852.299	3854
852.434	3865
852.569	3857
852.703	3861
852.838	3915
852.973	4002
853.107	3968
853.242	3896
853.376	3808
853.511	3793
853.645	3812
853.78	3949
853.914	3903
854.048	3941
854.183	3892
854.317	3949
854.451	4082
854.585	3934
854.72	3972
854.854	4048
854.988	3949
855.122	4006
855.256	3915
855.39	4006
855.524	4082
855.658	4097
855.792	4093
855.926	4147
856.06	4185
856.194	4192
856.327	4131
856.461	4128
856.595	4154
856.729	4181
856.862	4268
856.996	4181
857.13	4284
857.263	4291
857.397	4363
857.53	4310
857.664	4363
857.797	4405
857.931	4417
858.064	4405
858.197	4474
858.331	4379
858.464	4379
858.597	4360
858.731	4432
858.864	4470
858.997	4428
859.13	4493
859.263	4516
859.396	4607
859.529	4508
859.662	4508
859.795	4493
859.928	4580
860.061	4691
860.194	4771
860.327	4656
860.46	4592
860.592	4664
860.725	4725
860.858	4790
860.99	4645
861.123	4706
861.256	4656
861.388	4752
861.521	5417
861.653	4729
861.786	4710
861.918	4725
862.05	4809
862.183	4816
862.315	4942
862.447	4889
862.58	4816
862.712	4812
862.844	4782
862.976	4866
863.108	4847
863.24	5212
863.372	4904
863.504	4900
863.636	4896
863.768	4987
863.9	4934
864.032	4870
864.164	4934
864.296	4995
864.428	5060
864.559	5090
864.691	5102
864.823	5090
864.954	5121
865.086	5094
865.217	5117
865.349	5117
865.48	5174
865.612	5189
865.743	5296
865.875	5166
866.006	5166
866.137	5216
866.269	5265
866.4	5261
866.531	5231
866.662	5258
866.793	5246
866.924	5246
867.055	5341
867.186	5311
867.317	5315
867.448	5349
867.579	5406
867.71	5337
867.841	5398
867.972	5467
868.103	5459
868.233	5406
868.364	5493
868.495	5501
868.625	5634
868.756	5764
868.886	5710
869.017	5722
869.147	5897
869.278	5828
869.408	5771
869.539	5771
869.669	5901
869.799	5893
869.929	5988
870.06	6034
870.19	6152
870.32	6194
870.45	6262
870.58	6384
870.71	6407
870.84	6452
870.97	6353
871.1	6403
871.23	6582
871.36	6688
871.489	6627
871.619	6779
871.749	6798
871.879	6795
872.008	6970
872.138	6939
872.267	6996
872.397	6939
872.526	7084
872.656	7084
872.785	7168
872.915	7331
873.044	7502
873.173	7552
873.303	7586
873.432	7746
873.561	7868
873.69	7887
873.819	8005
873.948	8123
874.077	8279
874.206	8290
874.335	8476
874.464	8629
874.593	8891
874.722	8952
874.851	9131
874.979	9203
875.108	9348
875.237	9370
875.365	9466
875.494	9614
875.623	9850
875.751	9804
875.88	9975
876.008	10154
876.136	10257
876.265	10535
876.393	10698
876.521	10736
876.65	10816
876.778	10877
876.906	10946
877.034	11033
877.162	11174
877.29	11128
877.418	11239
877.546	11261
877.674	11368
877.802	11463
877.93	11516
878.058	11497
878.185	11562
878.313	11676
878.441	11733
878.568	11642
878.696	11745
878.824	11798
878.951	11901
879.079	11965
879.206	12125
879.333	12110
879.461	11920
879.588	12110
879.715	12098
879.842	12235
879.97	12064
880.097	11802
880.224	11821
880.351	11874
880.478	11942
880.605	11866
880.732	11771
880.859	12060
880.986	11756
881.112	11775
881.239	11824
881.366	11611
881.493	11657
881.619	11558
881.746	11516
881.872	11509
881.999	11516
882.125	11406
882.252	11589
882.378	11452
882.505	11554
882.631	11353
882.757	11292
882.883	11246
883.01	11231
883.136	11189
883.262	11086
883.388	11105
883.514	11220
883.64	11155
883.766	11113
883.892	10930
884.018	10938
884.143	10972
884.269	11075
884.395	10771
884.52	10717
884.646	10763
884.772	10744
884.897	10668
885.023	10622
885.148	10733
885.274	10733
885.399	10607
885.524	10622
885.65	10550
885.775	10618
885.9	10493
886.025	10561
886.15	10500
886.275	10493
886.4	10436
886.525	10379
886.65	10421
886.775	10257
886.9	10523
887.025	10512
887.149	10341
887.274	10192
887.399	10139
887.523	10230
887.648	10074
887.773	10093
887.897	10181
888.021	10215
888.146	10135
888.27	10150
888.395	10204
888.519	10234
888.643	10173
888.767	10227
888.891	10090
889.015	9953
889.139	9991
889.263	10044
889.387	10071
889.511	10128
889.635	10101
889.759	9922
889.883	9941
890.006	9972
890.13	10040
890.254	9972
890.377	10025
890.501	9835
890.624	9907
890.748	9869
890.871	9823
890.995	9724
891.118	9755
891.241	9736
891.364	9778
891.488	9831
891.611	9736
891.734	9682
891.857	9717
891.98	9690
892.103	9686
892.226	9701
892.349	9675
892.471	9633
892.594	9614
892.717	9618
892.839	9561
892.962	9606
893.085	9648
893.207	9568
893.33	9523
893.452	9477
893.575	9599
893.697	9523
893.819	9576
893.941	9606
894.064	9587
894.186	9416
894.308	9401
894.43	9450
894.552	9641
894.674	9530
894.796	9351
894.918	9363
895.04	9340
895.161	9336
895.283	9336
895.405	9287
895.526	9283
895.648	9222
895.769	9222
895.891	9249
896.012	9291
896.134	9195
896.255	9157
896.376	9188
896.498	9135
896.619	9150
896.74	9028
896.861	9077
896.982	9176
897.103	9355
897.224	9138
897.345	9032
897.466	8952
897.587	8986
897.708	9097
897.828	9036
897.949	8906
898.07	8887
898.19	8830
898.311	9017
898.431	8971
898.552	8876
898.672	8941
898.792	8956
898.913	8880
899.033	8826
899.153	8720
899.273	8640
899.393	8693
899.513	8769
899.633	8720
899.753	8667
899.873	8674
899.993	8777
900.113	8727
900.232	8731
900.352	8655
900.472	8575
900.591	8590
900.711	8575
900.83	8556
900.95	8644
901.069	8648
901.189	8568
901.308	8412
901.427	8377
901.546	8450
901.665	8412
901.784	8450
901.904	8427
902.023	8313
902.141	8229
902.26	8237
902.379	8290
902.498	8134
902.617	8168
902.735	8328
902.854	8218
902.973	8202
903.091	8142
903.21	8153
903.328	8123
903.446	8084
903.565	8058
903.683	8081
903.801	8103
903.919	8149
904.038	8107
904.156	8031
904.274	8126
904.392	7936
904.51	8016
904.627	8050
904.745	8065
904.863	8065
904.981	7936
905.098	7826
905.216	7841
905.334	7940
905.451	7921
905.569	7925
905.686	7883
905.803	7898
905.921	7734
906.038	7894
906.155	7795
906.272	7719
906.389	7712
906.506	7601
906.623	7613
906.74	7594
906.857	7533
906.974	7567
907.091	7601
907.208	7685
907.324	7601
907.441	7567
907.557	7426
907.674	7430
907.79	7411
907.907	7426
908.023	7392
908.139	7396
908.256	7419
908.372	7381
908.488	7396
908.604	7274
908.72	7160
908.836	7259
908.952	7213
909.068	7251
909.184	7320
909.3	7240
909.415	7244
909.531	7240
909.647	7118
909.762	7141
909.878	7099
909.993	7118
910.108	7091
910.224	7107
910.339	7038
910.454	7053
910.57	7027
910.685	6897
910.8	7145
910.915	7114
911.03	6996
911.145	6897
911.259	6901
911.374	6878
911.489	6848
911.604	6806
911.718	6677
911.833	6707
911.947	6639
912.062	6658
912.176	6627
912.291	6673
912.405	6635
912.519	6776
912.633	6875
912.748	6745
912.862	6658
912.976	6623
913.09	6563
913.204	6597
913.318	6585
913.431	6688
913.545	6677
913.659	6764
913.772	6688
913.886	6578
914	6525
914.113	6589
914.226	6623
914.34	6620
914.453	6532
914.566	6589
914.68	6479
914.793	6528
914.906	6403
915.019	6426
915.132	6380
915.245	6426
915.358	6407
915.47	6452
915.583	6471
915.696	6441
915.809	6502
915.921	6551
916.034	6384
916.146	6452
916.259	6376
916.371	6483
916.483	6422
916.595	6388
916.708	6342
916.82	6422
916.932	6445
917.044	6369
917.156	6369
917.268	6266
917.38	6304
917.491	6319
917.603	6350
917.715	6365
917.826	6380
917.938	6369
918.049	6205
918.161	6315
918.272	6388
918.384	6433
918.495	6308
918.606	6270
918.717	6205
918.828	6254
918.939	6247
919.05	6216
919.161	6270
919.272	6117
919.383	6133
919.494	6266
919.604	6403
919.715	6342
919.826	6186
919.936	6209
920.047	6380
920.157	6315
920.267	6475
920.378	6311
920.488	6292
920.598	6433
920.708	6528
920.818	6433
920.928	6471
921.038	6570
921.148	6532
921.258	6327
921.368	6273
921.477	6197
921.587	6117
921.697	6041
921.806	6186
921.916	6060
922.025	5935
922.134	5931
922.244	5901
922.353	5939
922.462	5828
922.571	5783
922.68	5668
922.789	5676
922.898	5649
923.007	5573
923.116	5714
923.224	5646
923.333	5657
923.442	5573
923.55	5585
923.659	5558
923.767	5615
923.876	5490
923.984	5615
924.092	5474
924.201	5539
924.309	5581
924.417	5467
924.525	5505
924.633	5512
924.741	6262
924.849	5395
924.956	5467
925.064	5387
925.172	5311
925.279	5277
925.387	5288
925.494	5330
925.602	5410
925.709	5395
925.816	5280
925.924	5258
926.031	5391
926.138	5269
926.245	5277
926.352	5216
926.459	5307
926.566	5315
926.673	5227
926.779	5189
926.886	5124
926.993	5003
927.099	5025
927.206	4995
927.312	4930
927.419	4942
927.525	4999
927.631	4999
927.737	4885
927.843	4805
927.95	4771
928.056	4763
928.162	4797
928.267	4820
928.373	5326
928.479	4858
928.585	4660
928.69	4752
928.796	4778
928.901	4634
929.007	4584
929.112	4694
929.218	4622
929.323	4607
929.428	4588
929.533	4603
929.638	4481
929.743	4550
929.848	4588
929.953	4481
930.058	4493
930.163	4314
930.267	4352
930.372	4428
930.477	4280
930.581	4466
930.685	4363
930.79	4261
930.894	4310
930.998	4280
931.103	4421
931.207	4105
931.311	4082
931.415	4013
931.519	3930
931.623	3922
