Data from glass_V78500241_776.txt Node
Date: Wed Sep 01 19:19:52 CST 2021
User: usil
Spectrometer: V785-0024
Trigger mode: 0
Integration Time (sec): 4.000000E-1
Scans to average: 1
Nonlinearity correction enabled: false
Boxcar width: 0
Storing dark spectrum: false
XAxis mode: Wavelengths
Number of Pixels in Spectrum: 1024
>>>>>Begin Spectral Data<<<<<
801.071	3774
801.214	3724
801.356	3717
801.499	3747
801.641	3762
801.783	3831
801.926	3854
802.068	3850
802.211	3888
802.353	3903
802.496	3854
802.638	3899
802.78	3945
802.923	3915
803.065	3941
803.208	3854
803.35	3880
803.492	3915
803.635	3922
803.777	3819
803.919	3945
804.061	4139
804.204	3983
804.346	3987
804.488	3934
804.63	4040
804.773	3994
804.915	4090
805.057	4166
805.199	4067
805.341	4082
805.483	4154
805.626	4124
805.768	4120
805.91	4188
806.052	4223
806.194	4215
806.336	4383
806.478	4253
806.62	4185
806.762	4211
806.904	4223
807.046	4306
807.188	4215
807.33	4192
807.472	4238
807.614	4188
807.756	4291
807.898	4227
808.04	4219
808.182	4337
808.324	4303
808.465	4413
808.607	4519
808.749	4508
808.891	4455
809.033	4535
809.174	4386
809.316	4238
809.458	4223
809.6	4196
809.741	4150
809.883	4177
810.025	4196
810.166	4196
810.308	4272
810.45	4238
810.591	4223
810.733	4341
810.875	4481
811.016	4820
811.158	5159
811.299	5258
811.441	5261
811.582	5136
811.724	4721
811.865	4459
812.007	4481
812.148	4424
812.29	4443
812.431	4417
812.573	4428
812.714	4363
812.855	4424
812.997	4424
813.138	4455
813.279	4466
813.421	4383
813.562	4379
813.703	4303
813.845	4367
813.986	4261
814.127	4215
814.268	4318
814.41	4322
814.551	4337
814.692	4303
814.833	4295
814.974	4348
815.115	4360
815.256	4272
815.397	4223
815.539	4261
815.68	4207
815.821	4166
815.962	4261
816.103	4272
816.244	4268
816.385	4280
816.526	4303
816.666	4211
816.807	4135
816.948	4219
817.089	4227
817.23	4143
817.371	4051
817.512	4078
817.653	4071
817.793	4051
817.934	4036
818.075	4120
818.216	4082
818.356	4101
818.497	3979
818.638	3896
818.778	3934
818.919	3915
819.06	3915
819.2	3941
819.341	3861
819.481	3869
819.622	3899
819.762	4017
819.903	4006
820.043	3888
820.184	3819
820.324	3869
820.465	3930
820.605	3857
820.746	3861
820.886	3838
821.026	3934
821.167	3956
821.307	3972
821.447	3994
821.588	3987
821.728	3926
821.868	3945
822.008	3899
822.149	3911
822.289	3964
822.429	3804
822.569	3793
822.709	3789
822.849	3694
822.99	3759
823.13	3755
823.27	3804
823.41	3709
823.55	3690
823.69	3740
823.83	3717
823.97	3656
824.11	3595
824.25	3580
824.389	3667
824.529	3682
824.669	3614
824.809	3728
824.949	3778
825.089	3778
825.228	3736
825.368	3572
825.508	3584
825.648	3572
825.787	3622
825.927	3629
826.067	3614
826.206	3701
826.346	3819
826.485	3835
826.625	3888
826.765	3979
826.904	3846
827.044	3618
827.183	3549
827.323	3439
827.462	3504
827.601	3469
827.741	3409
827.88	3473
828.02	3416
828.159	3454
828.298	3466
828.437	3580
828.577	3447
828.716	3576
828.855	3511
828.994	3374
829.134	3382
829.273	3389
829.412	3351
829.551	3401
829.69	3367
829.829	3424
829.968	3534
830.107	3435
830.246	3454
830.385	3382
830.524	3325
830.663	3279
830.802	3279
830.941	3211
831.08	3233
831.219	3256
831.357	3233
831.496	3397
831.635	3237
831.774	3176
831.913	3230
832.051	3108
832.19	3161
832.329	3226
832.467	3161
832.606	3119
832.744	3173
832.883	3195
833.022	3211
833.16	3291
833.299	3298
833.437	3348
833.576	3389
833.714	3447
833.852	3431
833.991	3424
834.129	3458
834.267	3428
834.406	3416
834.544	3462
834.682	3466
834.821	3454
834.959	3561
835.097	3473
835.235	3519
835.373	3462
835.511	3530
835.65	3477
835.788	3507
835.926	3401
836.064	3401
836.202	3386
836.34	3576
836.478	3629
836.615	3523
836.753	3584
836.891	3641
837.029	3606
837.167	3599
837.305	3564
837.443	3549
837.58	3534
837.718	3610
837.856	3557
837.993	3557
838.131	3641
838.269	3599
838.406	3648
838.544	3568
838.681	3519
838.819	3439
838.956	3382
839.094	3450
839.231	3443
839.369	3488
839.506	3701
839.643	3648
839.781	3481
839.918	3458
840.055	3564
840.193	3507
840.33	3545
840.467	3538
840.604	3606
840.742	3835
840.879	3534
841.016	3564
841.153	3606
841.29	3732
841.427	3751
841.564	3774
841.701	3770
841.838	3740
841.975	3675
842.112	3770
842.249	3629
842.385	3644
842.522	3800
842.659	3743
842.796	3705
842.933	3762
843.069	3724
843.206	3743
843.343	3823
843.479	3747
843.616	3823
843.752	3671
843.889	3652
844.025	3827
844.162	3740
844.298	3850
844.435	3774
844.571	3789
844.708	3915
844.844	3998
844.98	4025
845.117	4006
845.253	3945
845.389	3937
845.525	3991
845.661	3979
845.798	3953
845.934	4013
846.07	3994
846.206	4093
846.342	4109
846.478	4067
846.614	3972
846.75	3903
846.886	3888
847.022	4036
847.158	3983
847.294	3953
847.429	4013
847.565	4002
847.701	4223
847.837	3911
847.972	3865
848.108	4025
848.244	3998
848.379	3892
848.515	3838
848.65	3831
848.786	3888
848.921	3876
849.057	3937
849.192	3956
849.328	3937
849.463	3941
849.598	3911
849.734	3865
849.869	3854
850.004	3770
850.14	3857
850.275	3789
850.41	3728
850.545	3720
850.68	3797
850.815	3812
850.95	3812
851.085	3953
851.22	3842
851.355	3846
851.49	3850
851.625	3789
851.76	3778
851.895	3759
852.03	3732
852.165	3808
852.299	3850
852.434	3903
852.569	3850
852.703	3880
852.838	3903
852.973	4002
853.107	4029
853.242	3911
853.376	3854
853.511	3743
853.645	3865
853.78	4002
853.914	3880
854.048	3915
854.183	3865
854.317	3960
854.451	4074
854.585	3945
854.72	3922
854.854	4044
854.988	3941
855.122	4013
855.256	3964
855.39	4036
855.524	4120
855.658	4078
855.792	4063
855.926	4135
856.06	4207
856.194	4242
856.327	4143
856.461	4154
856.595	4185
856.729	4154
856.862	4246
856.996	4249
857.13	4329
857.263	4356
857.397	4413
857.53	4249
857.664	4398
857.797	4398
857.931	4432
858.064	4398
858.197	4455
858.331	4428
858.464	4371
858.597	4363
858.731	4447
858.864	4508
858.997	4459
859.13	4512
859.263	4516
859.396	4561
859.529	4546
859.662	4516
859.795	4554
859.928	4599
860.061	4740
860.194	4767
860.327	4622
860.46	4660
860.592	4748
860.725	4763
860.858	4801
860.99	4748
861.123	4702
861.256	4733
861.388	4782
861.521	5429
861.653	4721
861.786	4656
861.918	4759
862.05	4797
862.183	4885
862.315	4870
862.447	4938
862.58	4927
862.712	4805
862.844	4752
862.976	4946
863.108	4809
863.24	5242
863.372	4896
863.504	4946
863.636	4885
863.768	4957
863.9	5022
864.032	4968
864.164	4923
864.296	5029
864.428	5083
864.559	5124
864.691	5189
864.823	5136
864.954	5060
865.086	5090
865.217	5067
865.349	5109
865.48	5197
865.612	5201
865.743	5261
865.875	5220
866.006	5193
866.137	5212
866.269	5261
866.4	5315
866.531	5265
866.662	5231
866.793	5273
866.924	5311
867.055	5360
867.186	5360
867.317	5280
867.448	5318
867.579	5376
867.71	5406
867.841	5402
867.972	5452
868.103	5410
868.233	5493
868.364	5551
868.495	5524
868.625	5737
868.756	5828
868.886	5642
869.017	5684
869.147	5851
869.278	5882
869.408	5779
869.539	5859
869.669	5882
869.799	5847
869.929	6019
870.06	6064
870.19	6273
870.32	6239
870.45	6216
870.58	6361
870.71	6410
870.84	6403
870.97	6441
871.1	6471
871.23	6635
871.36	6734
871.489	6597
871.619	6738
871.749	6878
871.879	6844
872.008	7046
872.138	6993
872.267	7061
872.397	7027
872.526	7076
872.656	7103
872.785	7225
872.915	7346
873.044	7533
873.173	7575
873.303	7632
873.432	7734
873.561	7898
873.69	7974
873.819	8043
873.948	8153
874.077	8279
874.206	8381
874.335	8469
874.464	8617
874.593	8876
874.722	8975
874.851	9127
874.979	9249
875.108	9397
875.237	9447
875.365	9515
875.494	9686
875.623	9812
875.751	9838
875.88	9998
876.008	10158
876.136	10253
876.265	10580
876.393	10721
876.521	10767
876.65	10809
876.778	10892
876.906	10873
877.034	10930
877.162	11166
877.29	11102
877.418	11334
877.546	11421
877.674	11444
877.802	11471
877.93	11608
878.058	11554
878.185	11493
878.313	11718
878.441	11794
878.568	11672
878.696	11786
878.824	11840
878.951	11935
879.079	12049
879.206	12148
879.333	12053
879.461	11984
879.588	12064
879.715	12076
879.842	12182
879.97	12144
880.097	11878
880.224	11874
880.351	11893
880.478	11866
880.605	11859
880.732	11836
880.859	12053
880.986	11821
881.112	11912
881.239	11741
881.366	11653
881.493	11585
881.619	11558
881.746	11592
881.872	11532
881.999	11539
882.125	11474
882.252	11562
882.378	11528
882.505	11566
882.631	11315
882.757	11322
882.883	11254
883.01	11280
883.136	11185
883.262	11113
883.388	11166
883.514	11117
883.64	11216
883.766	11155
883.892	10942
884.018	11014
884.143	11090
884.269	11181
884.395	10854
884.52	10767
884.646	10801
884.772	10729
884.897	10679
885.023	10729
885.148	10763
885.274	10710
885.399	10748
885.524	10637
885.65	10573
885.775	10630
885.9	10649
886.025	10637
886.15	10584
886.275	10489
886.4	10440
886.525	10466
886.65	10367
886.775	10303
886.9	10508
887.025	10569
887.149	10310
887.274	10200
887.399	10211
887.523	10162
887.648	10150
887.773	10112
887.897	10242
888.021	10139
888.146	10112
888.27	10242
888.395	10253
888.519	10196
888.643	10223
888.767	10230
888.891	10013
889.015	10055
889.139	10154
889.263	10013
889.387	9994
889.511	10177
889.635	10090
889.759	9979
889.883	9941
890.006	10017
890.13	10082
890.254	10017
890.377	10002
890.501	9945
890.624	9888
890.748	9892
890.871	9823
890.995	9770
891.118	9747
891.241	9846
891.364	9766
891.488	9823
891.611	9740
891.734	9755
891.857	9766
891.98	9648
892.103	9785
892.226	9682
892.349	9656
892.471	9485
892.594	9526
892.717	9644
892.839	9606
892.962	9576
893.085	9694
893.207	9595
893.33	9507
893.452	9511
893.575	9652
893.697	9443
893.819	9584
893.941	9580
894.064	9686
894.186	9447
894.308	9447
894.43	9622
894.552	9637
894.674	9553
894.796	9420
894.918	9397
895.04	9393
895.161	9386
895.283	9344
895.405	9302
895.526	9268
895.648	9176
895.769	9203
895.891	9268
896.012	9294
896.134	9260
896.255	9192
896.376	9157
896.498	9123
896.619	9123
896.74	9066
896.861	9104
896.982	9287
897.103	9310
897.224	9218
897.345	9066
897.466	8979
897.587	9047
897.708	9093
897.828	9047
897.949	8986
898.07	8933
898.19	8921
898.311	9055
898.431	8868
898.552	8937
898.672	9017
898.792	8906
898.913	8925
899.033	8845
899.153	8735
899.273	8674
899.393	8682
899.513	8762
899.633	8762
899.753	8796
899.873	8693
899.993	8705
900.113	8724
900.232	8807
900.352	8697
900.472	8621
900.591	8518
900.711	8545
900.83	8590
900.95	8686
901.069	8788
901.189	8552
901.308	8454
901.427	8400
901.546	8450
901.665	8438
901.784	8427
901.904	8423
902.023	8301
902.141	8221
902.26	8244
902.379	8252
902.498	8210
902.617	8237
902.735	8294
902.854	8290
902.973	8237
903.091	8069
903.21	8172
903.328	8119
903.446	8092
903.565	8138
903.683	8058
903.801	8050
903.919	8092
904.038	8107
904.156	8103
904.274	8054
904.392	7993
904.51	8035
904.627	8043
904.745	8115
904.863	8103
904.981	7944
905.098	7890
905.216	7921
905.334	7875
905.451	7890
905.569	7890
905.686	7959
905.803	7967
905.921	7769
906.038	7894
906.155	7769
906.272	7681
906.389	7704
906.506	7620
906.623	7628
906.74	7597
906.857	7556
906.974	7518
907.091	7708
907.208	7715
907.324	7632
907.441	7559
907.557	7415
907.674	7438
907.79	7460
907.907	7407
908.023	7426
908.139	7472
908.256	7407
908.372	7392
908.488	7403
908.604	7270
908.72	7236
908.836	7301
908.952	7305
909.068	7247
909.184	7327
909.3	7270
909.415	7278
909.531	7270
909.647	7080
909.762	7080
909.878	7099
909.993	7160
910.108	7114
910.224	7034
910.339	7110
910.454	7042
910.57	6958
910.685	6966
910.8	7187
910.915	7137
911.03	6962
911.145	6886
911.259	6863
911.374	6871
911.489	6859
911.604	6863
911.718	6719
911.833	6772
911.947	6696
912.062	6604
912.176	6700
912.291	6734
912.405	6730
912.519	6818
912.633	6837
912.748	6749
912.862	6730
912.976	6616
913.09	6563
913.204	6604
913.318	6604
913.431	6662
913.545	6639
913.659	6738
913.772	6631
913.886	6585
914	6570
914.113	6642
914.226	6662
914.34	6616
914.453	6471
914.566	6623
914.68	6513
914.793	6467
914.906	6410
915.019	6422
915.132	6410
915.245	6418
915.358	6441
915.47	6502
915.583	6445
915.696	6528
915.809	6536
915.921	6551
916.034	6448
916.146	6452
916.259	6342
916.371	6441
916.483	6483
916.595	6388
916.708	6395
916.82	6380
916.932	6391
917.044	6403
917.156	6410
917.268	6285
917.38	6319
917.491	6384
917.603	6372
917.715	6342
917.826	6475
917.938	6357
918.049	6182
918.161	6331
918.272	6388
918.384	6483
918.495	6323
918.606	6281
918.717	6224
918.828	6262
918.939	6251
919.05	6228
919.161	6292
919.272	6140
919.383	6159
919.494	6273
919.604	6422
919.715	6334
919.826	6270
919.936	6277
920.047	6323
920.157	6266
920.267	6471
920.378	6346
920.488	6251
920.598	6467
920.708	6506
920.818	6445
920.928	6456
921.038	6642
921.148	6601
921.258	6380
921.368	6304
921.477	6266
921.587	6152
921.697	6114
921.806	6213
921.916	6030
922.025	5980
922.134	5939
922.244	5939
922.353	5950
922.462	5870
922.571	5802
922.68	5760
922.789	5688
922.898	5691
923.007	5646
923.116	5733
923.224	5672
923.333	5688
923.442	5623
923.55	5573
923.659	5581
923.767	5665
923.876	5551
923.984	5592
924.092	5539
924.201	5634
924.309	5554
924.417	5615
924.525	5493
924.633	5532
924.741	6125
924.849	5368
924.956	5493
925.064	5379
925.172	5341
925.279	5288
925.387	5383
925.494	5349
925.602	5471
925.709	5379
925.816	5360
925.924	5334
926.031	5383
926.138	5265
926.245	5322
926.352	5201
926.459	5315
926.566	5357
926.673	5181
926.779	5185
926.886	5124
926.993	5094
927.099	5045
927.206	4965
927.312	4987
927.419	5064
927.525	4961
927.631	4961
927.737	4923
927.843	4820
927.95	4786
928.056	4854
928.162	4850
928.267	4889
928.373	5368
928.479	4862
928.585	4694
928.69	4767
928.796	4816
928.901	4710
929.007	4577
929.112	4725
929.218	4634
929.323	4565
929.428	4531
929.533	4653
929.638	4535
929.743	4569
929.848	4550
929.953	4493
930.058	4470
930.163	4337
930.267	4348
930.372	4443
930.477	4318
930.581	4481
930.685	4379
930.79	4265
930.894	4261
930.998	4272
931.103	4352
931.207	4173
931.311	4116
931.415	4067
931.519	3918
931.623	3956
