Data from glass_V78500241_958.txt Node
Date: Wed Sep 01 19:21:08 CST 2021
User: usil
Spectrometer: V785-0024
Trigger mode: 0
Integration Time (sec): 4.000000E-1
Scans to average: 1
Nonlinearity correction enabled: false
Boxcar width: 0
Storing dark spectrum: false
XAxis mode: Wavelengths
Number of Pixels in Spectrum: 1024
>>>>>Begin Spectral Data<<<<<
801.071	3740
801.214	3755
801.356	3686
801.499	3732
801.641	3743
801.783	3774
801.926	3831
802.068	3827
802.211	3865
802.353	3896
802.496	3854
802.638	3884
802.78	3964
802.923	3937
803.065	3964
803.208	3876
803.35	3907
803.492	3892
803.635	3937
803.777	3804
803.919	3896
804.061	4158
804.204	3953
804.346	3949
804.488	3930
804.63	4055
804.773	3991
804.915	4044
805.057	4196
805.199	4063
805.341	4120
805.483	4112
805.626	4112
805.768	4154
805.91	4257
806.052	4192
806.194	4196
806.336	4394
806.478	4219
806.62	4196
806.762	4215
806.904	4284
807.046	4379
807.188	4227
807.33	4215
807.472	4196
807.614	4207
807.756	4238
807.898	4227
808.04	4249
808.182	4295
808.324	4322
808.465	4363
808.607	4497
808.749	4500
808.891	4478
809.033	4523
809.174	4459
809.316	4249
809.458	4246
809.6	4162
809.741	4166
809.883	4177
810.025	4223
810.166	4257
810.308	4230
810.45	4249
810.591	4253
810.733	4322
810.875	4542
811.016	4839
811.158	5178
811.299	5235
811.441	5307
811.582	5067
811.724	4721
811.865	4489
812.007	4436
812.148	4447
812.29	4390
812.431	4417
812.573	4394
812.714	4398
812.855	4367
812.997	4394
813.138	4508
813.279	4443
813.421	4398
813.562	4379
813.703	4356
813.845	4394
813.986	4272
814.127	4261
814.268	4265
814.41	4299
814.551	4272
814.692	4337
814.833	4261
814.974	4299
815.115	4329
815.256	4261
815.397	4234
815.539	4261
815.68	4230
815.821	4238
815.962	4295
816.103	4265
816.244	4261
816.385	4257
816.526	4284
816.666	4204
816.807	4101
816.948	4158
817.089	4219
817.23	4196
817.371	4097
817.512	4082
817.653	4120
817.793	4025
817.934	4036
818.075	4116
818.216	4093
818.356	4112
818.497	4029
818.638	3930
818.778	3964
818.919	3911
819.06	3865
819.2	3934
819.341	3896
819.481	3865
819.622	3934
819.762	4021
819.903	3964
820.043	3869
820.184	3869
820.324	3823
820.465	3896
820.605	3922
820.746	3850
820.886	3812
821.026	3972
821.167	3960
821.307	3998
821.447	3991
821.588	3930
821.728	4036
821.868	3994
822.008	3926
822.149	3915
822.289	3915
822.429	3793
822.569	3762
822.709	3823
822.849	3705
822.99	3740
823.13	3785
823.27	3812
823.41	3740
823.55	3759
823.69	3770
823.83	3728
823.97	3656
824.11	3644
824.25	3618
824.389	3694
824.529	3667
824.669	3656
824.809	3732
824.949	3705
825.089	3759
825.228	3717
825.368	3561
825.508	3557
825.648	3618
825.787	3637
825.927	3663
826.067	3648
826.206	3667
826.346	3762
826.485	3865
826.625	3873
826.765	3968
826.904	3831
827.044	3633
827.183	3568
827.323	3469
827.462	3526
827.601	3450
827.741	3447
827.88	3481
828.02	3424
828.159	3466
828.298	3504
828.437	3557
828.577	3481
828.716	3595
828.855	3481
828.994	3401
829.134	3355
829.273	3435
829.412	3340
829.551	3359
829.69	3412
829.829	3443
829.968	3519
830.107	3473
830.246	3481
830.385	3389
830.524	3351
830.663	3272
830.802	3222
830.941	3184
831.08	3249
831.219	3260
831.357	3272
831.496	3447
831.635	3256
831.774	3184
831.913	3241
832.051	3184
832.19	3150
832.329	3188
832.467	3150
832.606	3119
832.744	3146
832.883	3203
833.022	3260
833.16	3287
833.299	3298
833.437	3363
833.576	3405
833.714	3409
833.852	3428
833.991	3397
834.129	3485
834.267	3450
834.406	3473
834.544	3431
834.682	3428
834.821	3420
834.959	3572
835.097	3412
835.235	3526
835.373	3511
835.511	3496
835.65	3481
835.788	3488
835.926	3409
836.064	3397
836.202	3435
836.34	3584
836.478	3625
836.615	3576
836.753	3599
836.891	3667
837.029	3629
837.167	3572
837.305	3530
837.443	3545
837.58	3504
837.718	3606
837.856	3572
837.993	3526
838.131	3622
838.269	3568
838.406	3591
838.544	3584
838.681	3473
838.819	3454
838.956	3363
839.094	3389
839.231	3450
839.369	3488
839.506	3720
839.643	3637
839.781	3515
839.918	3458
840.055	3511
840.193	3568
840.33	3519
840.467	3606
840.604	3644
840.742	3800
840.879	3568
841.016	3557
841.153	3610
841.29	3743
841.427	3713
841.564	3740
841.701	3728
841.838	3682
841.975	3701
842.112	3736
842.249	3663
842.385	3625
842.522	3861
842.659	3701
842.796	3713
842.933	3728
843.069	3724
843.206	3701
843.343	3835
843.479	3785
843.616	3838
843.752	3713
843.889	3660
844.025	3846
844.162	3743
844.298	3880
844.435	3835
844.571	3800
844.708	3918
844.844	4036
844.98	4048
845.117	4025
845.253	3941
845.389	3934
845.525	3975
845.661	3972
845.798	3926
845.934	4021
846.07	3983
846.206	4059
846.342	4116
846.478	4071
846.614	3953
846.75	3937
846.886	3892
847.022	4040
847.158	4017
847.294	4036
847.429	4040
847.565	4021
847.701	4272
847.837	3892
847.972	3892
848.108	3998
848.244	3968
848.379	3869
848.515	3850
848.65	3823
848.786	3850
848.921	3873
849.057	3937
849.192	3930
849.328	3911
849.463	3896
849.598	3846
849.734	3911
849.869	3865
850.004	3770
850.14	3869
850.275	3800
850.41	3728
850.545	3774
850.68	3800
850.815	3819
850.95	3797
851.085	3903
851.22	3850
851.355	3816
851.49	3766
851.625	3816
851.76	3789
851.895	3781
852.03	3762
852.165	3797
852.299	3816
852.434	3892
852.569	3892
852.703	3903
852.838	3941
852.973	4036
853.107	3998
853.242	3888
853.376	3873
853.511	3838
853.645	3869
853.78	3975
853.914	3915
854.048	3922
854.183	3865
854.317	3983
854.451	4154
854.585	3983
854.72	3934
854.854	4044
854.988	3968
855.122	3994
855.256	3937
855.39	4021
855.524	4093
855.658	4109
855.792	4101
855.926	4158
856.06	4188
856.194	4173
856.327	4169
856.461	4143
856.595	4120
856.729	4207
856.862	4287
856.996	4261
857.13	4280
857.263	4360
857.397	4379
857.53	4238
857.664	4363
857.797	4417
857.931	4436
858.064	4424
858.197	4383
858.331	4379
858.464	4421
858.597	4363
858.731	4462
858.864	4466
858.997	4478
859.13	4466
859.263	4565
859.396	4584
859.529	4538
859.662	4523
859.795	4531
859.928	4599
860.061	4702
860.194	4733
860.327	4683
860.46	4649
860.592	4740
860.725	4790
860.858	4797
860.99	4656
861.123	4687
861.256	4694
861.388	4755
861.521	5516
861.653	4759
861.786	4733
861.918	4725
862.05	4767
862.183	4809
862.315	4873
862.447	4900
862.58	4843
862.712	4767
862.844	4782
862.976	4889
863.108	4885
863.24	5242
863.372	4843
863.504	4919
863.636	4919
863.768	5018
863.9	4953
864.032	4946
864.164	4968
864.296	5022
864.428	5151
864.559	5124
864.691	5117
864.823	5109
864.954	5151
865.086	5136
865.217	5143
865.349	5105
865.48	5155
865.612	5151
865.743	5269
865.875	5174
866.006	5181
866.137	5258
866.269	5246
866.4	5254
866.531	5235
866.662	5280
866.793	5296
866.924	5296
867.055	5303
867.186	5444
867.317	5387
867.448	5269
867.579	5391
867.71	5406
867.841	5387
867.972	5452
868.103	5467
868.233	5490
868.364	5520
868.495	5516
868.625	5649
868.756	5817
868.886	5634
869.017	5737
869.147	5828
869.278	5817
869.408	5840
869.539	5847
869.669	5908
869.799	5931
869.929	6015
870.06	6057
870.19	6182
870.32	6197
870.45	6251
870.58	6372
870.71	6452
870.84	6445
870.97	6467
871.1	6460
871.23	6631
871.36	6719
871.489	6684
871.619	6806
871.749	6837
871.879	6924
872.008	6966
872.138	6947
872.267	7031
872.397	7000
872.526	7122
872.656	7133
872.785	7156
872.915	7350
873.044	7537
873.173	7586
873.303	7708
873.432	7814
873.561	7875
873.69	7909
873.819	8027
873.948	8210
874.077	8279
874.206	8317
874.335	8522
874.464	8667
874.593	8838
874.722	8956
874.851	9100
874.979	9226
875.108	9420
875.237	9408
875.365	9485
875.494	9667
875.623	9941
875.751	9846
875.88	9964
876.008	10135
876.136	10280
876.265	10527
876.393	10622
876.521	10793
876.65	10839
876.778	10812
876.906	10904
877.034	11056
877.162	11064
877.29	11147
877.418	11330
877.546	11391
877.674	11490
877.802	11429
877.93	11490
878.058	11604
878.185	11589
878.313	11577
878.441	11691
878.568	11619
878.696	11786
878.824	11874
878.951	11988
879.079	11996
879.206	12041
879.333	12038
879.461	11927
879.588	12083
879.715	12083
879.842	12190
879.97	12076
880.097	11946
880.224	11893
880.351	11893
880.478	11908
880.605	11897
880.732	11798
880.859	12019
880.986	11805
881.112	11802
881.239	11790
881.366	11718
881.493	11592
881.619	11547
881.746	11630
881.872	11589
881.999	11486
882.125	11539
882.252	11592
882.378	11520
882.505	11516
882.631	11402
882.757	11292
882.883	11360
883.01	11208
883.136	11246
883.262	11170
883.388	11037
883.514	11204
883.64	11140
883.766	11159
883.892	10881
884.018	11045
884.143	11067
884.269	11109
884.395	10801
884.52	10835
884.646	10824
884.772	10714
884.897	10626
885.023	10710
885.148	10797
885.274	10778
885.399	10660
885.524	10649
885.65	10599
885.775	10634
885.9	10531
886.025	10641
886.15	10550
886.275	10470
886.4	10322
886.525	10390
886.65	10356
886.775	10348
886.9	10500
887.025	10561
887.149	10322
887.274	10265
887.399	10207
887.523	10211
887.648	10188
887.773	10188
887.897	10234
888.021	10299
888.146	10185
888.27	10230
888.395	10173
888.519	10150
888.643	10162
888.767	10120
888.891	10112
889.015	10002
889.139	10029
889.263	9956
889.387	10074
889.511	10188
889.635	10071
889.759	10071
889.883	10006
890.006	10013
890.13	10086
890.254	9888
890.377	9998
890.501	9816
890.624	9903
890.748	9903
890.871	9800
890.995	9766
891.118	9774
891.241	9800
891.364	9709
891.488	9892
891.611	9736
891.734	9698
891.857	9793
891.98	9785
892.103	9755
892.226	9717
892.349	9720
892.471	9591
892.594	9675
892.717	9686
892.839	9614
892.962	9595
893.085	9656
893.207	9629
893.33	9488
893.452	9580
893.575	9564
893.697	9530
893.819	9625
893.941	9622
894.064	9629
894.186	9443
894.308	9408
894.43	9534
894.552	9603
894.674	9580
894.796	9416
894.918	9447
895.04	9359
895.161	9431
895.283	9431
895.405	9230
895.526	9230
895.648	9245
895.769	9184
895.891	9294
896.012	9317
896.134	9313
896.255	9253
896.376	9173
896.498	9127
896.619	9116
896.74	9161
896.861	9135
896.982	9321
897.103	9249
897.224	9207
897.345	9081
897.466	9032
897.587	9070
897.708	9093
897.828	9001
897.949	8971
898.07	8861
898.19	8872
898.311	8986
898.431	8982
898.552	8910
898.672	9028
898.792	8998
898.913	8960
899.033	8838
899.153	8731
899.273	8697
899.393	8739
899.513	8811
899.633	8781
899.753	8701
899.873	8724
899.993	8758
900.113	8697
900.232	8724
900.352	8712
900.472	8632
900.591	8568
900.711	8518
900.83	8610
900.95	8720
901.069	8674
901.189	8621
901.308	8541
901.427	8400
901.546	8446
901.665	8522
901.784	8507
901.904	8438
902.023	8385
902.141	8317
902.26	8237
902.379	8214
902.498	8248
902.617	8195
902.735	8282
902.854	8271
902.973	8294
903.091	8153
903.21	8123
903.328	8130
903.446	8145
903.565	8062
903.683	8062
903.801	8062
903.919	8161
904.038	8183
904.156	8027
904.274	8107
904.392	8043
904.51	8088
904.627	8050
904.745	8107
904.863	8138
904.981	7932
905.098	7921
905.216	7883
905.334	7849
905.451	7917
905.569	7875
905.686	7986
905.803	7879
905.921	7780
906.038	7894
906.155	7909
906.272	7696
906.389	7761
906.506	7616
906.623	7643
906.74	7620
906.857	7544
906.974	7578
907.091	7765
907.208	7715
907.324	7662
907.441	7586
907.557	7434
907.674	7476
907.79	7388
907.907	7411
908.023	7464
908.139	7335
908.256	7392
908.372	7350
908.488	7369
908.604	7339
908.72	7236
908.836	7266
908.952	7289
909.068	7259
909.184	7358
909.3	7297
909.415	7316
909.531	7320
909.647	7072
909.762	7149
909.878	7076
909.993	7168
910.108	7126
910.224	7053
910.339	7114
910.454	7050
910.57	7027
910.685	6951
910.8	7221
910.915	7103
911.03	7023
911.145	6901
911.259	6932
911.374	6833
911.489	6791
911.604	6798
911.718	6711
911.833	6779
911.947	6677
912.062	6612
912.176	6696
912.291	6715
912.405	6741
912.519	6833
912.633	6818
912.748	6787
912.862	6692
912.976	6677
913.09	6551
913.204	6677
913.318	6570
913.431	6692
913.545	6654
913.659	6681
913.772	6623
913.886	6597
914	6544
914.113	6623
914.226	6665
914.34	6658
914.453	6494
914.566	6593
914.68	6506
914.793	6509
914.906	6456
915.019	6376
915.132	6403
915.245	6475
915.358	6490
915.47	6456
915.583	6445
915.696	6475
915.809	6513
915.921	6589
916.034	6388
916.146	6422
916.259	6350
916.371	6513
916.483	6448
916.595	6376
916.708	6448
916.82	6399
916.932	6353
917.044	6407
917.156	6418
917.268	6369
917.38	6388
917.491	6308
917.603	6403
917.715	6456
917.826	6395
917.938	6308
918.049	6281
918.161	6353
918.272	6426
918.384	6403
918.495	6384
918.606	6296
918.717	6175
918.828	6277
918.939	6270
919.05	6270
919.161	6281
919.272	6175
919.383	6175
919.494	6254
919.604	6399
919.715	6319
919.826	6243
919.936	6285
920.047	6357
920.157	6315
920.267	6448
920.378	6350
920.488	6292
920.598	6422
920.708	6517
920.818	6486
920.928	6479
921.038	6623
921.148	6627
921.258	6372
921.368	6334
921.477	6216
921.587	6125
921.697	6041
921.806	6186
921.916	6068
922.025	5992
922.134	5969
922.244	5946
922.353	5992
922.462	5844
922.571	5851
922.68	5691
922.789	5726
922.898	5695
923.007	5665
923.116	5703
923.224	5707
923.333	5634
923.442	5581
923.55	5573
923.659	5619
923.767	5642
923.876	5551
923.984	5668
924.092	5482
924.201	5539
924.309	5535
924.417	5524
924.525	5474
924.633	5509
924.741	6129
924.849	5410
924.956	5493
925.064	5383
925.172	5341
925.279	5303
925.387	5353
925.494	5326
925.602	5429
925.709	5376
925.816	5220
925.924	5318
926.031	5398
926.138	5299
926.245	5353
926.352	5250
926.459	5334
926.566	5360
926.673	5178
926.779	5181
926.886	5136
926.993	5006
927.099	4999
927.206	5003
927.312	4938
927.419	4999
927.525	5003
927.631	4957
927.737	4919
927.843	4896
927.95	4771
928.056	4862
928.162	4839
928.267	4873
928.373	5311
928.479	4870
928.585	4759
928.69	4771
928.796	4805
928.901	4744
929.007	4584
929.112	4672
929.218	4694
929.323	4599
929.428	4592
929.533	4672
929.638	4523
929.743	4565
929.848	4580
929.953	4516
930.058	4470
930.163	4310
930.267	4417
930.372	4470
930.477	4333
930.581	4478
930.685	4367
930.79	4242
930.894	4287
930.998	4238
931.103	4375
931.207	4139
931.311	4086
931.415	4059
931.519	3896
931.623	3926
