Data from glass_V78500241_2414.txt Node
Date: Wed Sep 01 19:31:14 CST 2021
User: usil
Spectrometer: V785-0024
Trigger mode: 0
Integration Time (sec): 4.000000E-1
Scans to average: 1
Nonlinearity correction enabled: false
Boxcar width: 0
Storing dark spectrum: false
XAxis mode: Wavelengths
Number of Pixels in Spectrum: 1024
>>>>>Begin Spectral Data<<<<<
801.071	3766
801.214	3751
801.356	3690
801.499	3724
801.641	3694
801.783	3766
801.926	3869
802.068	3846
802.211	3869
802.353	3903
802.496	3907
802.638	3888
802.78	3854
802.923	3911
803.065	3892
803.208	3831
803.35	3831
803.492	3892
803.635	3888
803.777	3770
803.919	3873
804.061	4150
804.204	3968
804.346	3945
804.488	3949
804.63	4013
804.773	3941
804.915	4010
805.057	4158
805.199	4071
805.341	4086
805.483	4154
805.626	4150
805.768	4116
805.91	4188
806.052	4238
806.194	4177
806.336	4287
806.478	4219
806.62	4200
806.762	4177
806.904	4234
807.046	4348
807.188	4200
807.33	4158
807.472	4238
807.614	4166
807.756	4238
807.898	4158
808.04	4246
808.182	4287
808.324	4329
808.465	4341
808.607	4447
808.749	4405
808.891	4424
809.033	4462
809.174	4360
809.316	4265
809.458	4207
809.6	4131
809.741	4139
809.883	4162
810.025	4211
810.166	4207
810.308	4173
810.45	4223
810.591	4207
810.733	4310
810.875	4504
811.016	4786
811.158	5105
811.299	5269
811.441	5284
811.582	5060
811.724	4675
811.865	4470
812.007	4424
812.148	4405
812.29	4424
812.431	4394
812.573	4375
812.714	4344
812.855	4409
812.997	4375
813.138	4466
813.279	4424
813.421	4356
813.562	4348
813.703	4318
813.845	4314
813.986	4253
814.127	4204
814.268	4265
814.41	4242
814.551	4234
814.692	4303
814.833	4280
814.974	4314
815.115	4291
815.256	4242
815.397	4234
815.539	4310
815.68	4181
815.821	4196
815.962	4318
816.103	4306
816.244	4249
816.385	4211
816.526	4291
816.666	4177
816.807	4086
816.948	4143
817.089	4143
817.23	4078
817.371	4059
817.512	4029
817.653	4093
817.793	4021
817.934	4063
818.075	4074
818.216	4067
818.356	4109
818.497	3994
818.638	3880
818.778	3896
818.919	3899
819.06	3869
819.2	3907
819.341	3846
819.481	3842
819.622	3907
819.762	3994
819.903	3983
820.043	3846
820.184	3846
820.324	3781
820.465	3884
820.605	3865
820.746	3854
820.886	3781
821.026	3873
821.167	3896
821.307	3949
821.447	3975
821.588	3945
821.728	3941
821.868	3960
822.008	3934
822.149	3987
822.289	3876
822.429	3797
822.569	3713
822.709	3774
822.849	3671
822.99	3705
823.13	3724
823.27	3789
823.41	3679
823.55	3717
823.69	3720
823.83	3709
823.97	3682
824.11	3606
824.25	3587
824.389	3656
824.529	3652
824.669	3637
824.809	3724
824.949	3717
825.089	3705
825.228	3660
825.368	3572
825.508	3545
825.648	3515
825.787	3580
825.927	3633
826.067	3606
826.206	3656
826.346	3781
826.485	3823
826.625	3816
826.765	3915
826.904	3838
827.044	3580
827.183	3481
827.323	3466
827.462	3488
827.601	3393
827.741	3393
827.88	3447
828.02	3382
828.159	3466
828.298	3462
828.437	3500
828.577	3496
828.716	3584
828.855	3477
828.994	3325
829.134	3378
829.273	3370
829.412	3355
829.551	3332
829.69	3382
829.829	3424
829.968	3462
830.107	3458
830.246	3424
830.385	3367
830.524	3325
830.663	3283
830.802	3214
830.941	3199
831.08	3192
831.219	3249
831.357	3279
831.496	3370
831.635	3233
831.774	3195
831.913	3207
832.051	3119
832.19	3112
832.329	3192
832.467	3100
832.606	3104
832.744	3154
832.883	3150
833.022	3138
833.16	3245
833.299	3298
833.437	3317
833.576	3359
833.714	3420
833.852	3428
833.991	3431
834.129	3473
834.267	3397
834.406	3401
834.544	3405
834.682	3416
834.821	3443
834.959	3568
835.097	3409
835.235	3561
835.373	3477
835.511	3462
835.65	3466
835.788	3515
835.926	3374
836.064	3344
836.202	3397
836.34	3561
836.478	3625
836.615	3488
836.753	3587
836.891	3629
837.029	3591
837.167	3557
837.305	3511
837.443	3515
837.58	3488
837.718	3557
837.856	3553
837.993	3504
838.131	3568
838.269	3576
838.406	3580
838.544	3564
838.681	3450
838.819	3416
838.956	3370
839.094	3370
839.231	3462
839.369	3504
839.506	3740
839.643	3641
839.781	3492
839.918	3447
840.055	3515
840.193	3534
840.33	3530
840.467	3584
840.604	3587
840.742	3751
840.879	3561
841.016	3580
841.153	3599
841.29	3732
841.427	3705
841.564	3740
841.701	3709
841.838	3679
841.975	3660
842.112	3713
842.249	3637
842.385	3610
842.522	3816
842.659	3682
842.796	3671
842.933	3724
843.069	3637
843.206	3720
843.343	3781
843.479	3740
843.616	3800
843.752	3652
843.889	3663
844.025	3876
844.162	3781
844.298	3808
844.435	3838
844.571	3759
844.708	3888
844.844	4006
844.98	4002
845.117	3994
845.253	3903
845.389	3892
845.525	3987
845.661	3956
845.798	3930
845.934	4013
846.07	3983
846.206	4036
846.342	4097
846.478	4086
846.614	4013
846.75	3926
846.886	3907
847.022	4036
847.158	3945
847.294	3972
847.429	3998
847.565	3979
847.701	4219
847.837	3850
847.972	3865
848.108	3991
848.244	3975
848.379	3846
848.515	3827
848.65	3800
848.786	3838
848.921	3850
849.057	3915
849.192	3945
849.328	3850
849.463	3911
849.598	3876
849.734	3823
849.869	3827
850.004	3778
850.14	3793
850.275	3774
850.41	3720
850.545	3747
850.68	3762
850.815	3800
850.95	3766
851.085	3934
851.22	3880
851.355	3827
851.49	3766
851.625	3770
851.76	3778
851.895	3660
852.03	3720
852.165	3789
852.299	3823
852.434	3892
852.569	3846
852.703	3880
852.838	3926
852.973	4017
853.107	4063
853.242	3884
853.376	3873
853.511	3755
853.645	3838
853.78	3930
853.914	3903
854.048	3911
854.183	3899
854.317	3930
854.451	4048
854.585	3922
854.72	3922
854.854	4025
854.988	3934
855.122	3979
855.256	3873
855.39	4021
855.524	4109
855.658	4120
855.792	4078
855.926	4109
856.06	4116
856.194	4196
856.327	4181
856.461	4124
856.595	4112
856.729	4173
856.862	4249
856.996	4230
857.13	4318
857.263	4352
857.397	4367
857.53	4280
857.664	4314
857.797	4352
857.931	4394
858.064	4417
858.197	4409
858.331	4440
858.464	4341
858.597	4318
858.731	4398
858.864	4421
858.997	4462
859.13	4504
859.263	4535
859.396	4561
859.529	4542
859.662	4550
859.795	4519
859.928	4592
860.061	4672
860.194	4714
860.327	4641
860.46	4637
860.592	4714
860.725	4706
860.858	4771
860.99	4691
861.123	4683
861.256	4714
861.388	4752
861.521	5539
861.653	4755
861.786	4752
861.918	4736
862.05	4831
862.183	4862
862.315	4873
862.447	4908
862.58	4858
862.712	4831
862.844	4759
862.976	4896
863.108	4850
863.24	5201
863.372	4774
863.504	4904
863.636	4934
863.768	4984
863.9	4908
864.032	4896
864.164	4866
864.296	4968
864.428	5090
864.559	5102
864.691	5117
864.823	5121
864.954	5098
865.086	5181
865.217	5105
865.349	5117
865.48	5128
865.612	5151
865.743	5277
865.875	5204
866.006	5193
866.137	5216
866.269	5246
866.4	5212
866.531	5220
866.662	5197
866.793	5216
866.924	5280
867.055	5280
867.186	5326
867.317	5315
867.448	5303
867.579	5311
867.71	5364
867.841	5341
867.972	5436
868.103	5516
868.233	5467
868.364	5474
868.495	5532
868.625	5649
868.756	5771
868.886	5623
869.017	5718
869.147	5863
869.278	5863
869.408	5847
869.539	5832
869.669	5923
869.799	5878
869.929	6011
870.06	5999
870.19	6167
870.32	6117
870.45	6300
870.58	6388
870.71	6464
870.84	6426
870.97	6414
871.1	6380
871.23	6601
871.36	6681
871.489	6673
871.619	6787
871.749	6833
871.879	6829
872.008	6970
872.138	6951
872.267	6954
872.397	6977
872.526	7027
872.656	7046
872.785	7202
872.915	7381
873.044	7521
873.173	7518
873.303	7620
873.432	7742
873.561	7906
873.69	7883
873.819	8012
873.948	8218
874.077	8252
874.206	8324
874.335	8438
874.464	8708
874.593	8868
874.722	8891
874.851	9165
874.979	9226
875.108	9332
875.237	9466
875.365	9412
875.494	9549
875.623	9808
875.751	9819
875.88	9994
876.008	10112
876.136	10192
876.265	10508
876.393	10717
876.521	10710
876.65	10778
876.778	10828
876.906	10949
877.034	10904
877.162	11117
877.29	11090
877.418	11246
877.546	11322
877.674	11444
877.802	11512
877.93	11554
878.058	11562
878.185	11592
878.313	11703
878.441	11771
878.568	11623
878.696	11775
878.824	11859
878.951	11931
879.079	11973
879.206	12034
879.333	12102
879.461	12034
879.588	12057
879.715	12224
879.842	12262
879.97	12011
880.097	11859
880.224	11901
880.351	11866
880.478	11942
880.605	11775
880.732	11771
880.859	11954
880.986	11901
881.112	11817
881.239	11642
881.366	11703
881.493	11646
881.619	11608
881.746	11524
881.872	11474
881.999	11448
882.125	11562
882.252	11490
882.378	11543
882.505	11585
882.631	11254
882.757	11284
882.883	11269
883.01	11231
883.136	11162
883.262	11121
883.388	11105
883.514	11136
883.64	11136
883.766	11079
883.892	10972
884.018	10995
884.143	11033
884.269	11064
884.395	10831
884.52	10660
884.646	10733
884.772	10615
884.897	10645
885.023	10744
885.148	10630
885.274	10755
885.399	10691
885.524	10660
885.65	10584
885.775	10622
885.9	10542
886.025	10580
886.15	10584
886.275	10466
886.4	10459
886.525	10443
886.65	10287
886.775	10356
886.9	10470
887.025	10535
887.149	10367
887.274	10227
887.399	10143
887.523	10150
887.648	10036
887.773	10169
887.897	10196
888.021	10166
888.146	10082
888.27	10265
888.395	10139
888.519	10211
888.643	10211
888.767	10200
888.891	10067
889.015	9983
889.139	10139
889.263	9918
889.387	10109
889.511	10147
889.635	10029
889.759	10013
889.883	9987
890.006	10010
890.13	10029
890.254	9934
890.377	10013
890.501	9880
890.624	9918
890.748	9854
890.871	9781
890.995	9778
891.118	9743
891.241	9774
891.364	9732
891.488	9770
891.611	9701
891.734	9682
891.857	9709
891.98	9675
892.103	9797
892.226	9759
892.349	9682
892.471	9545
892.594	9599
892.717	9576
892.839	9622
892.962	9576
893.085	9671
893.207	9534
893.33	9496
893.452	9526
893.575	9564
893.697	9477
893.819	9614
893.941	9656
894.064	9564
894.186	9412
894.308	9435
894.43	9477
894.552	9599
894.674	9515
894.796	9378
894.918	9431
895.04	9340
895.161	9355
895.283	9336
895.405	9218
895.526	9279
895.648	9214
895.769	9214
895.891	9218
896.012	9287
896.134	9256
896.255	9165
896.376	9146
896.498	9127
896.619	9138
896.74	9104
896.861	9100
896.982	9245
897.103	9302
897.224	9119
897.345	9062
897.466	9051
897.587	8998
897.708	9062
897.828	8998
897.949	8921
898.07	8842
898.19	8845
898.311	8937
898.431	8941
898.552	8887
898.672	8941
898.792	8914
898.913	8883
899.033	8769
899.153	8773
899.273	8598
899.393	8750
899.513	8735
899.633	8697
899.753	8735
899.873	8659
899.993	8697
900.113	8693
900.232	8625
900.352	8621
900.472	8640
900.591	8575
900.711	8613
900.83	8507
900.95	8739
901.069	8731
901.189	8549
901.308	8415
901.427	8362
901.546	8381
901.665	8442
901.784	8480
901.904	8336
902.023	8355
902.141	8263
902.26	8145
902.379	8199
902.498	8130
902.617	8183
902.735	8195
902.854	8305
902.973	8336
903.091	8043
903.21	8145
903.328	8115
903.446	8164
903.565	8084
903.683	8020
903.801	8012
903.919	8096
904.038	8050
904.156	8050
904.274	8020
904.392	8016
904.51	8054
904.627	8107
904.745	8035
904.863	8081
904.981	7928
905.098	7883
905.216	7799
905.334	7837
905.451	7852
905.569	7830
905.686	7928
905.803	7909
905.921	7719
906.038	7841
906.155	7788
906.272	7708
906.389	7639
906.506	7674
906.623	7689
906.74	7601
906.857	7567
906.974	7601
907.091	7628
907.208	7723
907.324	7647
907.441	7540
907.557	7403
907.674	7403
907.79	7438
907.907	7403
908.023	7434
908.139	7384
908.256	7377
908.372	7308
908.488	7308
908.604	7289
908.72	7179
908.836	7274
908.952	7251
909.068	7228
909.184	7270
909.3	7240
909.415	7190
909.531	7339
909.647	7099
909.762	7149
909.878	7057
909.993	7065
910.108	7145
910.224	7080
910.339	7095
910.454	7012
910.57	7023
910.685	6916
910.8	7072
910.915	7072
911.03	7004
911.145	6837
911.259	6829
911.374	6905
911.489	6772
911.604	6833
911.718	6646
911.833	6692
911.947	6608
912.062	6559
912.176	6669
912.291	6700
912.405	6684
912.519	6852
912.633	6806
912.748	6700
912.862	6719
912.976	6566
913.09	6502
913.204	6585
913.318	6597
913.431	6646
913.545	6677
913.659	6696
913.772	6627
913.886	6532
914	6555
914.113	6669
914.226	6642
914.34	6578
914.453	6475
914.566	6582
914.68	6536
914.793	6498
914.906	6429
915.019	6331
915.132	6350
915.245	6422
915.358	6376
915.47	6407
915.583	6445
915.696	6521
915.809	6483
915.921	6555
916.034	6372
916.146	6372
916.259	6372
916.371	6479
916.483	6433
916.595	6365
916.708	6399
916.82	6441
916.932	6342
917.044	6323
917.156	6323
917.268	6319
917.38	6327
917.491	6300
917.603	6292
917.715	6346
917.826	6445
917.938	6331
918.049	6239
918.161	6338
918.272	6448
918.384	6350
918.495	6327
918.606	6247
918.717	6171
918.828	6270
918.939	6262
919.05	6186
919.161	6251
919.272	6117
919.383	6129
919.494	6273
919.604	6418
919.715	6254
919.826	6167
919.936	6197
920.047	6300
920.157	6289
920.267	6460
920.378	6323
920.488	6216
920.598	6471
920.708	6532
920.818	6433
920.928	6429
921.038	6517
921.148	6563
921.258	6365
921.368	6285
921.477	6224
921.587	6171
921.697	6095
921.806	6235
921.916	6038
922.025	5908
922.134	5908
922.244	5897
922.353	5923
922.462	5794
922.571	5802
922.68	5688
922.789	5695
922.898	5714
923.007	5642
923.116	5722
923.224	5668
923.333	5646
923.442	5600
923.55	5577
923.659	5547
923.767	5573
923.876	5535
923.984	5566
924.092	5524
924.201	5573
924.309	5478
924.417	5509
924.525	5471
924.633	5452
924.741	6277
924.849	5398
924.956	5471
925.064	5330
925.172	5277
925.279	5311
925.387	5254
925.494	5326
925.602	5402
925.709	5402
925.816	5246
925.924	5299
926.031	5341
926.138	5265
926.245	5273
926.352	5151
926.459	5307
926.566	5315
926.673	5162
926.779	5140
926.886	5121
926.993	4961
927.099	5014
927.206	4961
927.312	4965
927.419	5010
927.525	4961
927.631	5003
927.737	4877
927.843	4843
927.95	4778
928.056	4812
928.162	4767
928.267	4816
928.373	5231
928.479	4820
928.585	4687
928.69	4763
928.796	4828
928.901	4717
929.007	4611
929.112	4634
929.218	4577
929.323	4607
929.428	4569
929.533	4611
929.638	4569
929.743	4550
929.848	4512
929.953	4500
930.058	4402
930.163	4295
930.267	4333
930.372	4424
930.477	4314
930.581	4474
930.685	4360
930.79	4261
930.894	4257
930.998	4253
931.103	4360
931.207	4109
931.311	4055
931.415	4013
931.519	3937
931.623	3937
