Data from glass_V78500241_2554.txt Node
Date: Wed Sep 01 19:32:12 CST 2021
User: usil
Spectrometer: V785-0024
Trigger mode: 0
Integration Time (sec): 4.000000E-1
Scans to average: 1
Nonlinearity correction enabled: false
Boxcar width: 0
Storing dark spectrum: false
XAxis mode: Wavelengths
Number of Pixels in Spectrum: 1024
>>>>>Begin Spectral Data<<<<<
801.071	3743
801.214	3736
801.356	3690
801.499	3720
801.641	3732
801.783	3808
801.926	3827
802.068	3785
802.211	3838
802.353	3873
802.496	3812
802.638	3846
802.78	3888
802.923	3922
803.065	3888
803.208	3835
803.35	3819
803.492	3915
803.635	3918
803.777	3823
803.919	3899
804.061	4131
804.204	3930
804.346	3934
804.488	3876
804.63	3998
804.773	3972
804.915	3983
805.057	4154
805.199	4036
805.341	4082
805.483	4112
805.626	4143
805.768	4128
805.91	4200
806.052	4150
806.194	4192
806.336	4329
806.478	4181
806.62	4143
806.762	4177
806.904	4242
807.046	4306
807.188	4188
807.33	4207
807.472	4185
807.614	4204
807.756	4249
807.898	4204
808.04	4162
808.182	4242
808.324	4322
808.465	4306
808.607	4459
808.749	4421
808.891	4440
809.033	4474
809.174	4367
809.316	4227
809.458	4272
809.6	4105
809.741	4124
809.883	4116
810.025	4192
810.166	4227
810.308	4223
810.45	4230
810.591	4188
810.733	4303
810.875	4538
811.016	4805
811.158	5098
811.299	5216
811.441	5242
811.582	5067
811.724	4679
811.865	4481
812.007	4474
812.148	4436
812.29	4417
812.431	4436
812.573	4383
812.714	4398
812.855	4379
812.997	4402
813.138	4474
813.279	4432
813.421	4394
813.562	4398
813.703	4314
813.845	4348
813.986	4272
814.127	4211
814.268	4234
814.41	4265
814.551	4295
814.692	4276
814.833	4268
814.974	4253
815.115	4352
815.256	4253
815.397	4268
815.539	4333
815.68	4207
815.821	4188
815.962	4318
816.103	4261
816.244	4249
816.385	4185
816.526	4268
816.666	4227
816.807	4109
816.948	4150
817.089	4154
817.23	4112
817.371	4040
817.512	4040
817.653	4059
817.793	3994
817.934	3983
818.075	4067
818.216	4082
818.356	4120
818.497	3972
818.638	3930
818.778	3911
818.919	3888
819.06	3869
819.2	3918
819.341	3869
819.481	3880
819.622	3888
819.762	4032
819.903	3964
820.043	3846
820.184	3800
820.324	3808
820.465	3846
820.605	3873
820.746	3846
820.886	3778
821.026	3949
821.167	3869
821.307	3930
821.447	4010
821.588	3937
821.728	3945
821.868	3903
822.008	3854
822.149	3865
822.289	3888
822.429	3755
822.569	3770
822.709	3781
822.849	3671
822.99	3743
823.13	3709
823.27	3747
823.41	3701
823.55	3717
823.69	3698
823.83	3713
823.97	3682
824.11	3580
824.25	3633
824.389	3641
824.529	3663
824.669	3614
824.809	3713
824.949	3713
825.089	3701
825.228	3660
825.368	3614
825.508	3603
825.648	3538
825.787	3580
825.927	3656
826.067	3622
826.206	3641
826.346	3751
826.485	3823
826.625	3873
826.765	3953
826.904	3778
827.044	3603
827.183	3488
827.323	3477
827.462	3485
827.601	3443
827.741	3393
827.88	3424
828.02	3393
828.159	3439
828.298	3469
828.437	3519
828.577	3504
828.716	3595
828.855	3462
828.994	3348
829.134	3374
829.273	3386
829.412	3317
829.551	3367
829.69	3378
829.829	3431
829.968	3492
830.107	3401
830.246	3443
830.385	3332
830.524	3367
830.663	3298
830.802	3230
830.941	3199
831.08	3192
831.219	3272
831.357	3245
831.496	3355
831.635	3241
831.774	3214
831.913	3188
832.051	3142
832.19	3116
832.329	3203
832.467	3127
832.606	3081
832.744	3146
832.883	3161
833.022	3203
833.16	3241
833.299	3310
833.437	3336
833.576	3321
833.714	3397
833.852	3409
833.991	3458
834.129	3439
834.267	3416
834.406	3386
834.544	3378
834.682	3431
834.821	3397
834.959	3549
835.097	3428
835.235	3462
835.373	3477
835.511	3515
835.65	3431
835.788	3469
835.926	3367
836.064	3378
836.202	3397
836.34	3549
836.478	3568
836.615	3523
836.753	3572
836.891	3618
837.029	3622
837.167	3545
837.305	3553
837.443	3549
837.58	3507
837.718	3572
837.856	3553
837.993	3557
838.131	3572
838.269	3549
838.406	3553
838.544	3519
838.681	3481
838.819	3450
838.956	3363
839.094	3397
839.231	3428
839.369	3504
839.506	3732
839.643	3610
839.781	3485
839.918	3431
840.055	3511
840.193	3519
840.33	3538
840.467	3519
840.604	3553
840.742	3850
840.879	3519
841.016	3504
841.153	3580
841.29	3728
841.427	3724
841.564	3713
841.701	3717
841.838	3660
841.975	3648
842.112	3686
842.249	3641
842.385	3644
842.522	3793
842.659	3686
842.796	3644
842.933	3728
843.069	3679
843.206	3660
843.343	3804
843.479	3785
843.616	3831
843.752	3641
843.889	3671
844.025	3838
844.162	3724
844.298	3850
844.435	3747
844.571	3762
844.708	3907
844.844	3960
844.98	4006
845.117	4013
845.253	3949
845.389	3865
845.525	3960
845.661	4002
845.798	3945
845.934	3968
846.07	3956
846.206	4059
846.342	4131
846.478	4055
846.614	3945
846.75	3945
846.886	3892
847.022	4032
847.158	3945
847.294	3918
847.429	4002
847.565	3968
847.701	4230
847.837	3899
847.972	3888
848.108	3953
848.244	3953
848.379	3819
848.515	3800
848.65	3831
848.786	3857
848.921	3896
849.057	3918
849.192	3922
849.328	3903
849.463	3896
849.598	3865
849.734	3865
849.869	3835
850.004	3747
850.14	3831
850.275	3759
850.41	3728
850.545	3774
850.68	3743
850.815	3789
850.95	3759
851.085	3945
851.22	3842
851.355	3861
851.49	3819
851.625	3778
851.76	3785
851.895	3728
852.03	3740
852.165	3793
852.299	3850
852.434	3903
852.569	3854
852.703	3888
852.838	3899
852.973	3956
853.107	3979
853.242	3880
853.376	3800
853.511	3800
853.645	3835
853.78	3983
853.914	3857
854.048	3842
854.183	3888
854.317	3953
854.451	4101
854.585	3918
854.72	3975
854.854	4040
854.988	3953
855.122	3975
855.256	3918
855.39	4002
855.524	4097
855.658	4071
855.792	4063
855.926	4131
856.06	4147
856.194	4181
856.327	4131
856.461	4124
856.595	4143
856.729	4162
856.862	4268
856.996	4249
857.13	4276
857.263	4337
857.397	4341
857.53	4284
857.664	4363
857.797	4352
857.931	4424
858.064	4367
858.197	4409
858.331	4398
858.464	4417
858.597	4295
858.731	4443
858.864	4390
858.997	4428
859.13	4500
859.263	4519
859.396	4565
859.529	4523
859.662	4546
859.795	4535
859.928	4641
860.061	4675
860.194	4748
860.327	4664
860.46	4675
860.592	4706
860.725	4782
860.858	4736
860.99	4691
861.123	4656
861.256	4679
861.388	4778
861.521	5376
861.653	4740
861.786	4691
861.918	4717
862.05	4763
862.183	4839
862.315	4858
862.447	4923
862.58	4847
862.712	4797
862.844	4771
862.976	4858
863.108	4854
863.24	5162
863.372	4831
863.504	4900
863.636	4904
863.768	4957
863.9	4934
864.032	4896
864.164	4972
864.296	5083
864.428	5102
864.559	5079
864.691	5071
864.823	5147
864.954	5151
865.086	5143
865.217	5132
865.349	5071
865.48	5155
865.612	5227
865.743	5311
865.875	5235
866.006	5140
866.137	5254
866.269	5250
866.4	5265
866.531	5212
866.662	5201
866.793	5235
866.924	5322
867.055	5345
867.186	5345
867.317	5349
867.448	5303
867.579	5364
867.71	5341
867.841	5376
867.972	5478
868.103	5497
868.233	5467
868.364	5455
868.495	5585
868.625	5646
868.756	5733
868.886	5623
869.017	5737
869.147	5863
869.278	5855
869.408	5802
869.539	5832
869.669	5893
869.799	5878
869.929	5965
870.06	5958
870.19	6167
870.32	6167
870.45	6216
870.58	6372
870.71	6437
870.84	6403
870.97	6414
871.1	6391
871.23	6650
871.36	6627
871.489	6669
871.619	6760
871.749	6772
871.879	6806
872.008	6924
872.138	6913
872.267	6985
872.397	6996
872.526	7019
872.656	7126
872.785	7175
872.915	7335
873.044	7525
873.173	7521
873.303	7578
873.432	7734
873.561	7860
873.69	7902
873.819	8020
873.948	8206
874.077	8263
874.206	8324
874.335	8408
874.464	8659
874.593	8788
874.722	8807
874.851	9100
874.979	9298
875.108	9351
875.237	9332
875.365	9447
875.494	9633
875.623	9880
875.751	9831
875.88	9922
876.008	10131
876.136	10295
876.265	10459
876.393	10748
876.521	10672
876.65	10816
876.778	10850
876.906	10911
877.034	10930
877.162	11079
877.29	11162
877.418	11280
877.546	11353
877.674	11467
877.802	11512
877.93	11554
878.058	11493
878.185	11600
878.313	11615
878.441	11714
878.568	11646
878.696	11783
878.824	11824
878.951	11893
879.079	11977
879.206	12121
879.333	11954
879.461	11973
879.588	12121
879.715	12060
879.842	12182
879.97	12011
880.097	11904
880.224	11901
880.351	11863
880.478	11885
880.605	11783
880.732	11737
880.859	12015
880.986	11779
881.112	11821
881.239	11756
881.366	11676
881.493	11623
881.619	11497
881.746	11611
881.872	11539
881.999	11402
882.125	11493
882.252	11535
882.378	11459
882.505	11573
882.631	11345
882.757	11315
882.883	11360
883.01	11292
883.136	11132
883.262	11067
883.388	11022
883.514	11170
883.64	11121
883.766	11090
883.892	10904
884.018	10995
884.143	11006
884.269	11113
884.395	10824
884.52	10782
884.646	10683
884.772	10717
884.897	10675
885.023	10698
885.148	10759
885.274	10824
885.399	10698
885.524	10668
885.65	10580
885.775	10546
885.9	10588
886.025	10550
886.15	10615
886.275	10516
886.4	10379
886.525	10295
886.65	10375
886.775	10329
886.9	10489
887.025	10493
887.149	10367
887.274	10215
887.399	10227
887.523	10154
887.648	10162
887.773	10128
887.897	10147
888.021	10185
888.146	10048
888.27	10242
888.395	10272
888.519	10173
888.643	10139
888.767	10185
888.891	10128
889.015	10025
889.139	10029
889.263	9899
889.387	10101
889.511	10101
889.635	10010
889.759	9857
889.883	9987
890.006	10074
890.13	10120
890.254	9937
890.377	9972
890.501	9827
890.624	9892
890.748	9873
890.871	9838
890.995	9804
891.118	9698
891.241	9762
891.364	9793
891.488	9838
891.611	9743
891.734	9701
891.857	9797
891.98	9625
892.103	9759
892.226	9785
892.349	9641
892.471	9496
892.594	9618
892.717	9534
892.839	9599
892.962	9614
893.085	9667
893.207	9568
893.33	9580
893.452	9504
893.575	9561
893.697	9507
893.819	9576
893.941	9641
894.064	9614
894.186	9431
894.308	9401
894.43	9523
894.552	9584
894.674	9511
894.796	9332
894.918	9348
895.04	9405
895.161	9298
895.283	9313
895.405	9195
895.526	9195
895.648	9256
895.769	9275
895.891	9253
896.012	9313
896.134	9256
896.255	9142
896.376	9154
896.498	9062
896.619	9150
896.74	9112
896.861	9066
896.982	9192
897.103	9310
897.224	9154
897.345	9032
897.466	9039
897.587	9024
897.708	9097
897.828	8998
897.949	8971
898.07	8853
898.19	8853
898.311	8994
898.431	8956
898.552	8925
898.672	8914
898.792	8902
898.913	8918
899.033	8800
899.153	8758
899.273	8686
899.393	8674
899.513	8716
899.633	8743
899.753	8689
899.873	8769
899.993	8739
900.113	8750
900.232	8705
900.352	8678
900.472	8583
900.591	8492
900.711	8583
900.83	8495
900.95	8735
901.069	8670
901.189	8632
901.308	8427
901.427	8450
901.546	8427
901.665	8434
901.784	8484
901.904	8408
902.023	8290
902.141	8229
902.26	8210
902.379	8279
902.498	8221
902.617	8202
902.735	8263
902.854	8313
902.973	8248
903.091	8123
903.21	8149
903.328	8138
903.446	8134
903.565	8039
903.683	8126
903.801	8123
903.919	8134
904.038	8107
904.156	7997
904.274	8100
904.392	8031
904.51	8073
904.627	8039
904.745	8027
904.863	8058
904.981	7944
905.098	7894
905.216	7822
905.334	7932
905.451	7887
905.569	7917
905.686	7917
905.803	7879
905.921	7792
906.038	7883
906.155	7795
906.272	7727
906.389	7677
906.506	7567
906.623	7575
906.74	7559
906.857	7571
906.974	7571
907.091	7651
907.208	7727
907.324	7597
907.441	7594
907.557	7400
907.674	7426
907.79	7396
907.907	7422
908.023	7441
908.139	7407
908.256	7369
908.372	7411
908.488	7350
908.604	7206
908.72	7198
908.836	7251
908.952	7251
909.068	7240
909.184	7312
909.3	7251
909.415	7312
909.531	7217
909.647	7072
909.762	7080
909.878	7050
909.993	7069
910.108	7072
910.224	7076
910.339	7099
910.454	7000
910.57	7031
910.685	6985
910.8	7133
910.915	7095
911.03	7015
911.145	6894
911.259	6818
911.374	6913
911.489	6856
911.604	6745
911.718	6673
911.833	6768
911.947	6627
912.062	6601
912.176	6719
912.291	6692
912.405	6692
912.519	6825
912.633	6844
912.748	6745
912.862	6696
912.976	6665
913.09	6528
913.204	6593
913.318	6627
913.431	6669
913.545	6665
913.659	6734
913.772	6669
913.886	6559
914	6540
914.113	6604
914.226	6616
914.34	6608
914.453	6452
914.566	6532
914.68	6555
914.793	6536
914.906	6483
915.019	6418
915.132	6357
915.245	6361
915.358	6467
915.47	6467
915.583	6456
915.696	6418
915.809	6559
915.921	6536
916.034	6422
916.146	6426
916.259	6391
916.371	6475
916.483	6445
916.595	6365
916.708	6388
916.82	6395
916.932	6296
917.044	6388
917.156	6376
917.268	6289
917.38	6281
917.491	6289
917.603	6296
917.715	6346
917.826	6483
917.938	6331
918.049	6251
918.161	6331
918.272	6418
918.384	6331
918.495	6361
918.606	6285
918.717	6190
918.828	6266
918.939	6209
919.05	6155
919.161	6251
919.272	6133
919.383	6136
919.494	6232
919.604	6437
919.715	6258
919.826	6167
919.936	6262
920.047	6266
920.157	6300
920.267	6452
920.378	6361
920.488	6289
920.598	6437
920.708	6555
920.818	6475
920.928	6502
921.038	6604
921.148	6536
921.258	6327
921.368	6243
921.477	6190
921.587	6129
921.697	6053
921.806	6216
921.916	6038
922.025	5950
922.134	5939
922.244	5882
922.353	5882
922.462	5836
922.571	5775
922.68	5668
922.789	5680
922.898	5748
923.007	5630
923.116	5695
923.224	5680
923.333	5653
923.442	5592
923.55	5566
923.659	5551
923.767	5604
923.876	5528
923.984	5608
924.092	5516
924.201	5600
924.309	5535
924.417	5554
924.525	5524
924.633	5490
924.741	6270
924.849	5307
924.956	5440
925.064	5387
925.172	5303
925.279	5318
925.387	5376
925.494	5296
925.602	5452
925.709	5357
925.816	5296
925.924	5337
926.031	5368
926.138	5246
926.245	5330
926.352	5216
926.459	5357
926.566	5353
926.673	5220
926.779	5124
926.886	5105
926.993	5022
927.099	5037
927.206	4953
927.312	4930
927.419	4949
927.525	4961
927.631	4961
927.737	4881
927.843	4927
927.95	4729
928.056	4835
928.162	4858
928.267	4847
928.373	5216
928.479	4828
928.585	4641
928.69	4725
928.796	4763
928.901	4721
929.007	4596
929.112	4675
929.218	4618
929.323	4615
929.428	4565
929.533	4660
929.638	4516
929.743	4535
929.848	4580
929.953	4519
930.058	4409
930.163	4337
930.267	4322
930.372	4436
930.477	4287
930.581	4440
930.685	4341
930.79	4207
930.894	4287
930.998	4246
931.103	4379
931.207	4109
931.311	4044
931.415	4040
931.519	3915
931.623	3979
