Data from glass_V78500241_781.txt Node
Date: Wed Sep 01 19:19:54 CST 2021
User: usil
Spectrometer: V785-0024
Trigger mode: 0
Integration Time (sec): 4.000000E-1
Scans to average: 1
Nonlinearity correction enabled: false
Boxcar width: 0
Storing dark spectrum: false
XAxis mode: Wavelengths
Number of Pixels in Spectrum: 1024
>>>>>Begin Spectral Data<<<<<
801.071	3789
801.214	3751
801.356	3751
801.499	3759
801.641	3740
801.783	3800
801.926	3838
802.068	3857
802.211	3846
802.353	3911
802.496	3873
802.638	3953
802.78	3899
802.923	3918
803.065	3915
803.208	3873
803.35	3888
803.492	3876
803.635	3911
803.777	3831
803.919	3926
804.061	4150
804.204	3968
804.346	3953
804.488	3934
804.63	4040
804.773	4006
804.915	4055
805.057	4150
805.199	4071
805.341	4139
805.483	4188
805.626	4181
805.768	4120
805.91	4227
806.052	4268
806.194	4200
806.336	4367
806.478	4238
806.62	4150
806.762	4196
806.904	4261
807.046	4333
807.188	4261
807.33	4211
807.472	4261
807.614	4200
807.756	4287
807.898	4246
808.04	4215
808.182	4242
808.324	4322
808.465	4402
808.607	4470
808.749	4447
808.891	4466
809.033	4542
809.174	4409
809.316	4310
809.458	4261
809.6	4147
809.741	4204
809.883	4124
810.025	4192
810.166	4207
810.308	4268
810.45	4287
810.591	4227
810.733	4322
810.875	4538
811.016	4786
811.158	5174
811.299	5292
811.441	5307
811.582	5079
811.724	4740
811.865	4485
812.007	4485
812.148	4443
812.29	4421
812.431	4443
812.573	4428
812.714	4383
812.855	4405
812.997	4478
813.138	4470
813.279	4352
813.421	4394
813.562	4363
813.703	4310
813.845	4363
813.986	4280
814.127	4223
814.268	4234
814.41	4272
814.551	4253
814.692	4329
814.833	4257
814.974	4356
815.115	4386
815.256	4272
815.397	4230
815.539	4276
815.68	4177
815.821	4154
815.962	4348
816.103	4261
816.244	4306
816.385	4246
816.526	4276
816.666	4238
816.807	4135
816.948	4158
817.089	4181
817.23	4139
817.371	4093
817.512	4082
817.653	4105
817.793	4029
817.934	3987
818.075	4078
818.216	4082
818.356	4120
818.497	3979
818.638	3930
818.778	3926
818.919	3941
819.06	3869
819.2	3888
819.341	3876
819.481	3861
819.622	3903
819.762	4006
819.903	3968
820.043	3865
820.184	3857
820.324	3842
820.465	3907
820.605	3911
820.746	3838
820.886	3800
821.026	3949
821.167	3930
821.307	3964
821.447	4025
821.588	3991
821.728	4010
821.868	3934
822.008	3857
822.149	3945
822.289	3907
822.429	3835
822.569	3797
822.709	3823
822.849	3701
822.99	3701
823.13	3747
823.27	3778
823.41	3717
823.55	3732
823.69	3698
823.83	3724
823.97	3690
824.11	3580
824.25	3625
824.389	3652
824.529	3652
824.669	3663
824.809	3728
824.949	3736
825.089	3732
825.228	3720
825.368	3580
825.508	3580
825.648	3622
825.787	3629
825.927	3633
826.067	3656
826.206	3686
826.346	3823
826.485	3884
826.625	3876
826.765	3960
826.904	3854
827.044	3644
827.183	3553
827.323	3424
827.462	3492
827.601	3492
827.741	3428
827.88	3439
828.02	3389
828.159	3439
828.298	3534
828.437	3523
828.577	3481
828.716	3644
828.855	3485
828.994	3424
829.134	3431
829.273	3374
829.412	3397
829.551	3340
829.69	3359
829.829	3469
829.968	3534
830.107	3443
830.246	3450
830.385	3393
830.524	3389
830.663	3348
830.802	3298
830.941	3218
831.08	3241
831.219	3287
831.357	3264
831.496	3405
831.635	3249
831.774	3214
831.913	3222
832.051	3138
832.19	3146
832.329	3230
832.467	3146
832.606	3093
832.744	3173
832.883	3192
833.022	3211
833.16	3249
833.299	3321
833.437	3336
833.576	3374
833.714	3393
833.852	3431
833.991	3462
834.129	3481
834.267	3447
834.406	3401
834.544	3409
834.682	3397
834.821	3420
834.959	3580
835.097	3462
835.235	3572
835.373	3488
835.511	3492
835.65	3492
835.788	3500
835.926	3454
836.064	3393
836.202	3420
836.34	3553
836.478	3633
836.615	3557
836.753	3603
836.891	3637
837.029	3610
837.167	3610
837.305	3564
837.443	3549
837.58	3507
837.718	3606
837.856	3553
837.993	3538
838.131	3644
838.269	3568
838.406	3610
838.544	3553
838.681	3435
838.819	3469
838.956	3389
839.094	3378
839.231	3439
839.369	3515
839.506	3698
839.643	3625
839.781	3485
839.918	3504
840.055	3549
840.193	3549
840.33	3526
840.467	3572
840.604	3625
840.742	3797
840.879	3530
841.016	3572
841.153	3618
841.29	3743
841.427	3740
841.564	3759
841.701	3736
841.838	3701
841.975	3679
842.112	3736
842.249	3694
842.385	3644
842.522	3838
842.659	3705
842.796	3709
842.933	3724
843.069	3717
843.206	3705
843.343	3812
843.479	3819
843.616	3823
843.752	3663
843.889	3686
844.025	3838
844.162	3709
844.298	3884
844.435	3770
844.571	3797
844.708	3968
844.844	3968
844.98	4071
845.117	4006
845.253	3899
845.389	3888
845.525	3956
845.661	4010
845.798	3964
845.934	3983
846.07	3945
846.206	4055
846.342	4158
846.478	4109
846.614	3968
846.75	3949
846.886	3903
847.022	3983
847.158	4055
847.294	4029
847.429	4059
847.565	4029
847.701	4230
847.837	3907
847.972	3907
848.108	3991
848.244	4010
848.379	3842
848.515	3865
848.65	3793
848.786	3838
848.921	3876
849.057	3918
849.192	3930
849.328	3899
849.463	3922
849.598	3915
849.734	3884
849.869	3835
850.004	3812
850.14	3823
850.275	3785
850.41	3747
850.545	3816
850.68	3816
850.815	3797
850.95	3823
851.085	3956
851.22	3857
851.355	3842
851.49	3789
851.625	3774
851.76	3793
851.895	3755
852.03	3759
852.165	3793
852.299	3838
852.434	3930
852.569	3880
852.703	3873
852.838	3922
852.973	3987
853.107	4040
853.242	3884
853.376	3884
853.511	3740
853.645	3892
853.78	3945
853.914	3960
854.048	3899
854.183	3899
854.317	3979
854.451	4067
854.585	3941
854.72	3953
854.854	4021
854.988	3930
855.122	4002
855.256	3922
855.39	4059
855.524	4143
855.658	4109
855.792	4109
855.926	4101
856.06	4166
856.194	4196
856.327	4139
856.461	4086
856.595	4143
856.729	4185
856.862	4291
856.996	4284
857.13	4325
857.263	4367
857.397	4386
857.53	4272
857.664	4325
857.797	4398
857.931	4428
858.064	4409
858.197	4428
858.331	4371
858.464	4379
858.597	4341
858.731	4440
858.864	4462
858.997	4436
859.13	4500
859.263	4580
859.396	4573
859.529	4535
859.662	4569
859.795	4569
859.928	4630
860.061	4721
860.194	4729
860.327	4694
860.46	4675
860.592	4721
860.725	4759
860.858	4740
860.99	4729
861.123	4706
861.256	4687
861.388	4767
861.521	5497
861.653	4702
861.786	4725
861.918	4740
862.05	4820
862.183	4839
862.315	4953
862.447	4987
862.58	4870
862.712	4828
862.844	4816
862.976	4866
863.108	4870
863.24	5246
863.372	4812
863.504	4915
863.636	4900
863.768	5025
863.9	4980
864.032	4942
864.164	4927
864.296	5041
864.428	5105
864.559	5102
864.691	5159
864.823	5071
864.954	5117
865.086	5136
865.217	5174
865.349	5124
865.48	5147
865.612	5178
865.743	5330
865.875	5239
866.006	5151
866.137	5208
866.269	5235
866.4	5258
866.531	5242
866.662	5220
866.793	5258
866.924	5299
867.055	5284
867.186	5311
867.317	5277
867.448	5296
867.579	5406
867.71	5406
867.841	5368
867.972	5478
868.103	5478
868.233	5505
868.364	5558
868.495	5558
868.625	5661
868.756	5760
868.886	5649
869.017	5767
869.147	5904
869.278	5844
869.408	5828
869.539	5889
869.669	5920
869.799	5984
869.929	6003
870.06	6091
870.19	6163
870.32	6194
870.45	6247
870.58	6361
870.71	6422
870.84	6475
870.97	6414
871.1	6498
871.23	6589
871.36	6677
871.489	6642
871.619	6779
871.749	6776
871.879	6878
872.008	6943
872.138	6996
872.267	6989
872.397	7042
872.526	7069
872.656	7088
872.785	7259
872.915	7384
873.044	7616
873.173	7533
873.303	7636
873.432	7769
873.561	7879
873.69	7936
873.819	8035
873.948	8210
874.077	8275
874.206	8366
874.335	8423
874.464	8651
874.593	8857
874.722	8910
874.851	9135
874.979	9302
875.108	9355
875.237	9466
875.365	9526
875.494	9709
875.623	9865
875.751	9804
875.88	9956
876.008	10097
876.136	10318
876.265	10527
876.393	10714
876.521	10656
876.65	10900
876.778	10877
876.906	10858
877.034	11022
877.162	11143
877.29	11159
877.418	11311
877.546	11398
877.674	11360
877.802	11539
877.93	11440
878.058	11573
878.185	11512
878.313	11649
878.441	11779
878.568	11703
878.696	11832
878.824	11912
878.951	11973
879.079	12068
879.206	12087
879.333	12053
879.461	11961
879.588	12038
879.715	12087
879.842	12125
879.97	12102
880.097	11843
880.224	11889
880.351	11828
880.478	11893
880.605	11870
880.732	11809
880.859	12003
880.986	11771
881.112	11866
881.239	11733
881.366	11608
881.493	11684
881.619	11558
881.746	11558
881.872	11516
881.999	11539
882.125	11509
882.252	11551
882.378	11543
882.505	11558
882.631	11406
882.757	11261
882.883	11391
883.01	11277
883.136	11208
883.262	11170
883.388	11140
883.514	11216
883.64	11204
883.766	11117
883.892	10976
884.018	10927
884.143	11094
884.269	11079
884.395	10790
884.52	10809
884.646	10809
884.772	10714
884.897	10679
885.023	10694
885.148	10721
885.274	10740
885.399	10683
885.524	10599
885.65	10592
885.775	10569
885.9	10588
886.025	10603
886.15	10611
886.275	10466
886.4	10432
886.525	10451
886.65	10348
886.775	10409
886.9	10451
887.025	10508
887.149	10382
887.274	10280
887.399	10211
887.523	10211
887.648	10154
887.773	10093
887.897	10207
888.021	10196
888.146	10181
888.27	10234
888.395	10242
888.519	10223
888.643	10211
888.767	10219
888.891	10029
889.015	10063
889.139	10086
889.263	9953
889.387	10204
889.511	10162
889.635	10059
889.759	10002
889.883	9964
890.006	10032
890.13	10063
890.254	9960
890.377	9945
890.501	9857
890.624	9869
890.748	9918
890.871	9759
890.995	9709
891.118	9793
891.241	9838
891.364	9720
891.488	9865
891.611	9766
891.734	9774
891.857	9812
891.98	9717
892.103	9781
892.226	9846
892.349	9644
892.471	9553
892.594	9652
892.717	9641
892.839	9519
892.962	9633
893.085	9629
893.207	9606
893.33	9530
893.452	9584
893.575	9599
893.697	9450
893.819	9568
893.941	9572
894.064	9584
894.186	9428
894.308	9401
894.43	9542
894.552	9591
894.674	9515
894.796	9393
894.918	9363
895.04	9329
895.161	9416
895.283	9450
895.405	9279
895.526	9268
895.648	9249
895.769	9230
895.891	9272
896.012	9237
896.134	9272
896.255	9180
896.376	9154
896.498	9176
896.619	9154
896.74	9116
896.861	9051
896.982	9249
897.103	9329
897.224	9058
897.345	9070
897.466	9020
897.587	8971
897.708	9074
897.828	9062
897.949	8967
898.07	8880
898.19	8925
898.311	9013
898.431	8952
898.552	8826
898.672	8994
898.792	9001
898.913	8883
899.033	8800
899.153	8758
899.273	8705
899.393	8739
899.513	8766
899.633	8754
899.753	8720
899.873	8750
899.993	8807
900.113	8705
900.232	8686
900.352	8659
900.472	8659
900.591	8522
900.711	8579
900.83	8503
900.95	8632
901.069	8773
901.189	8571
901.308	8488
901.427	8408
901.546	8438
901.665	8469
901.784	8526
901.904	8419
902.023	8377
902.141	8244
902.26	8225
902.379	8298
902.498	8206
902.617	8183
902.735	8294
902.854	8279
902.973	8328
903.091	8142
903.21	8180
903.328	8183
903.446	8092
903.565	8077
903.683	8130
903.801	8062
903.919	8096
904.038	8161
904.156	8035
904.274	8134
904.392	8092
904.51	8046
904.627	8046
904.745	8126
904.863	8024
904.981	7913
905.098	7890
905.216	7932
905.334	7868
905.451	7944
905.569	7841
905.686	7925
905.803	7871
905.921	7792
906.038	7951
906.155	7738
906.272	7715
906.389	7788
906.506	7620
906.623	7556
906.74	7613
906.857	7578
906.974	7609
907.091	7685
907.208	7757
907.324	7658
907.441	7616
907.557	7502
907.674	7441
907.79	7373
907.907	7388
908.023	7445
908.139	7491
908.256	7369
908.372	7396
908.488	7396
908.604	7335
908.72	7316
908.836	7285
908.952	7244
909.068	7232
909.184	7289
909.3	7305
909.415	7316
909.531	7282
909.647	7114
909.762	7156
909.878	7107
909.993	7129
910.108	7091
910.224	7076
910.339	7080
910.454	7095
910.57	6954
910.685	6966
910.8	7149
910.915	7149
911.03	7008
911.145	6943
911.259	6837
911.374	6894
911.489	6837
911.604	6848
911.718	6734
911.833	6757
911.947	6707
912.062	6616
912.176	6768
912.291	6684
912.405	6738
912.519	6901
912.633	6821
912.748	6722
912.862	6665
912.976	6612
913.09	6536
913.204	6589
913.318	6665
913.431	6719
913.545	6662
913.659	6757
913.772	6635
913.886	6635
914	6585
914.113	6688
914.226	6601
914.34	6642
914.453	6521
914.566	6555
914.68	6467
914.793	6612
914.906	6391
915.019	6380
915.132	6395
915.245	6357
915.358	6483
915.47	6448
915.583	6486
915.696	6445
915.809	6582
915.921	6593
916.034	6380
916.146	6483
916.259	6448
916.371	6494
916.483	6494
916.595	6372
916.708	6426
916.82	6426
916.932	6399
917.044	6407
917.156	6342
917.268	6342
917.38	6315
917.491	6319
917.603	6357
917.715	6456
917.826	6483
917.938	6361
918.049	6300
918.161	6357
918.272	6452
918.384	6445
918.495	6357
918.606	6243
918.717	6239
918.828	6304
918.939	6311
919.05	6194
919.161	6254
919.272	6144
919.383	6144
919.494	6270
919.604	6452
919.715	6300
919.826	6224
919.936	6308
920.047	6323
920.157	6281
920.267	6471
920.378	6331
920.488	6361
920.598	6422
920.708	6589
920.818	6429
920.928	6456
921.038	6650
921.148	6551
921.258	6350
921.368	6296
921.477	6213
921.587	6213
921.697	6064
921.806	6209
921.916	6057
922.025	6038
922.134	5973
922.244	5893
922.353	5954
922.462	5863
922.571	5821
922.68	5718
922.789	5676
922.898	5714
923.007	5653
923.116	5741
923.224	5722
923.333	5661
923.442	5585
923.55	5623
923.659	5611
923.767	5615
923.876	5562
923.984	5627
924.092	5543
924.201	5589
924.309	5562
924.417	5566
924.525	5520
924.633	5524
924.741	6209
924.849	5425
924.956	5516
925.064	5387
925.172	5330
925.279	5303
925.387	5345
925.494	5292
925.602	5455
925.709	5410
925.816	5250
925.924	5280
926.031	5383
926.138	5288
926.245	5334
926.352	5250
926.459	5326
926.566	5341
926.673	5227
926.779	5174
926.886	5189
926.993	5105
927.099	5003
927.206	5037
927.312	4980
927.419	4995
927.525	4953
927.631	4987
927.737	4877
927.843	4896
927.95	4786
928.056	4767
928.162	4854
928.267	4835
928.373	5345
928.479	4843
928.585	4645
928.69	4839
928.796	4831
928.901	4717
929.007	4622
929.112	4691
929.218	4656
929.323	4618
929.428	4607
929.533	4702
929.638	4538
929.743	4561
929.848	4596
929.953	4542
930.058	4417
930.163	4329
930.267	4352
930.372	4493
930.477	4303
930.581	4474
930.685	4318
930.79	4280
930.894	4306
930.998	4303
931.103	4344
931.207	4090
931.311	4071
931.415	4067
931.519	3911
931.623	3926
