Data from glass_V78500241_1314.txt Node
Date: Wed Sep 01 19:23:36 CST 2021
User: usil
Spectrometer: V785-0024
Trigger mode: 0
Integration Time (sec): 4.000000E-1
Scans to average: 1
Nonlinearity correction enabled: false
Boxcar width: 0
Storing dark spectrum: false
XAxis mode: Wavelengths
Number of Pixels in Spectrum: 1024
>>>>>Begin Spectral Data<<<<<
801.071	3732
801.214	3781
801.356	3728
801.499	3759
801.641	3713
801.783	3823
801.926	3842
802.068	3835
802.211	3854
802.353	3869
802.496	3861
802.638	3930
802.78	3899
802.923	3941
803.065	3915
803.208	3827
803.35	3880
803.492	3896
803.635	3880
803.777	3770
803.919	3869
804.061	4204
804.204	3975
804.346	3934
804.488	3949
804.63	4025
804.773	3979
804.915	4010
805.057	4116
805.199	4055
805.341	4135
805.483	4196
805.626	4135
805.768	4090
805.91	4177
806.052	4211
806.194	4204
806.336	4344
806.478	4207
806.62	4204
806.762	4234
806.904	4287
807.046	4284
807.188	4200
807.33	4204
807.472	4276
807.614	4173
807.756	4261
807.898	4177
808.04	4227
808.182	4341
808.324	4337
808.465	4363
808.607	4462
808.749	4466
808.891	4516
809.033	4546
809.174	4363
809.316	4265
809.458	4272
809.6	4154
809.741	4124
809.883	4211
810.025	4196
810.166	4219
810.308	4234
810.45	4261
810.591	4204
810.733	4306
810.875	4500
811.016	4839
811.158	5147
811.299	5288
811.441	5284
811.582	5098
811.724	4710
811.865	4474
812.007	4459
812.148	4421
812.29	4451
812.431	4470
812.573	4417
812.714	4383
812.855	4417
812.997	4432
813.138	4470
813.279	4440
813.421	4390
813.562	4348
813.703	4344
813.845	4367
813.986	4253
814.127	4204
814.268	4249
814.41	4306
814.551	4284
814.692	4318
814.833	4261
814.974	4280
815.115	4394
815.256	4257
815.397	4238
815.539	4265
815.68	4169
815.821	4227
815.962	4295
816.103	4265
816.244	4234
816.385	4257
816.526	4306
816.666	4196
816.807	4112
816.948	4173
817.089	4181
817.23	4086
817.371	4082
817.512	4029
817.653	4055
817.793	4059
817.934	4040
818.075	4082
818.216	4105
818.356	4101
818.497	3991
818.638	3911
818.778	3911
818.919	3918
819.06	3907
819.2	3899
819.341	3854
819.481	3816
819.622	3922
819.762	4032
819.903	3934
820.043	3876
820.184	3857
820.324	3831
820.465	3926
820.605	3865
820.746	3804
820.886	3816
821.026	3941
821.167	3903
821.307	3937
821.447	3998
821.588	4006
821.728	3979
821.868	3918
822.008	3876
822.149	3903
822.289	3896
822.429	3793
822.569	3812
822.709	3823
822.849	3713
822.99	3701
823.13	3762
823.27	3797
823.41	3717
823.55	3717
823.69	3755
823.83	3747
823.97	3686
824.11	3637
824.25	3656
824.389	3648
824.529	3656
824.669	3656
824.809	3720
824.949	3770
825.089	3709
825.228	3736
825.368	3622
825.508	3584
825.648	3542
825.787	3648
825.927	3656
826.067	3679
826.206	3663
826.346	3808
826.485	3854
826.625	3873
826.765	3972
826.904	3804
827.044	3587
827.183	3530
827.323	3424
827.462	3485
827.601	3409
827.741	3435
827.88	3462
828.02	3374
828.159	3469
828.298	3462
828.437	3519
828.577	3466
828.716	3614
828.855	3477
828.994	3428
829.134	3378
829.273	3386
829.412	3367
829.551	3363
829.69	3374
829.829	3435
829.968	3538
830.107	3454
830.246	3447
830.385	3382
830.524	3370
830.663	3275
830.802	3237
830.941	3207
831.08	3211
831.219	3256
831.357	3306
831.496	3405
831.635	3233
831.774	3207
831.913	3233
832.051	3135
832.19	3127
832.329	3233
832.467	3150
832.606	3093
832.744	3157
832.883	3180
833.022	3214
833.16	3253
833.299	3340
833.437	3355
833.576	3355
833.714	3431
833.852	3420
833.991	3439
834.129	3488
834.267	3477
834.406	3378
834.544	3454
834.682	3409
834.821	3450
834.959	3568
835.097	3473
835.235	3534
835.373	3488
835.511	3485
835.65	3496
835.788	3534
835.926	3412
836.064	3363
836.202	3416
836.34	3576
836.478	3614
836.615	3519
836.753	3584
836.891	3625
837.029	3641
837.167	3568
837.305	3561
837.443	3561
837.58	3534
837.718	3622
837.856	3568
837.993	3568
838.131	3576
838.269	3603
838.406	3591
838.544	3568
838.681	3469
838.819	3462
838.956	3359
839.094	3420
839.231	3488
839.369	3500
839.506	3740
839.643	3637
839.781	3458
839.918	3481
840.055	3553
840.193	3564
840.33	3530
840.467	3576
840.604	3629
840.742	3816
840.879	3561
841.016	3584
841.153	3584
841.29	3751
841.427	3724
841.564	3720
841.701	3732
841.838	3690
841.975	3679
842.112	3759
842.249	3652
842.385	3610
842.522	3812
842.659	3698
842.796	3682
842.933	3690
843.069	3762
843.206	3682
843.343	3812
843.479	3797
843.616	3804
843.752	3671
843.889	3698
844.025	3831
844.162	3701
844.298	3884
844.435	3778
844.571	3781
844.708	3888
844.844	3956
844.98	3998
845.117	4029
845.253	3899
845.389	3896
845.525	3994
845.661	3991
845.798	3945
845.934	3991
846.07	3930
846.206	4120
846.342	4112
846.478	4063
846.614	3953
846.75	3934
846.886	3896
847.022	4048
847.158	4013
847.294	3994
847.429	3998
847.565	4017
847.701	4249
847.837	3930
847.972	3869
848.108	4002
848.244	3968
848.379	3838
848.515	3819
848.65	3797
848.786	3876
848.921	3846
849.057	3915
849.192	3934
849.328	3934
849.463	3903
849.598	3899
849.734	3896
849.869	3888
850.004	3793
850.14	3835
850.275	3838
850.41	3743
850.545	3717
850.68	3789
850.815	3850
850.95	3793
851.085	3930
851.22	3873
851.355	3850
851.49	3812
851.625	3762
851.76	3808
851.895	3751
852.03	3759
852.165	3785
852.299	3835
852.434	3915
852.569	3880
852.703	3892
852.838	3918
852.973	4002
853.107	4029
853.242	3869
853.376	3884
853.511	3831
853.645	3846
853.78	3926
853.914	3915
854.048	3861
854.183	3876
854.317	3975
854.451	4112
854.585	3968
854.72	3945
854.854	4048
854.988	3945
855.122	3979
855.256	3953
855.39	4055
855.524	4128
855.658	4101
855.792	4135
855.926	4185
856.06	4211
856.194	4169
856.327	4162
856.461	4105
856.595	4166
856.729	4204
856.862	4306
856.996	4196
857.13	4257
857.263	4306
857.397	4371
857.53	4291
857.664	4329
857.797	4443
857.931	4436
858.064	4398
858.197	4443
858.331	4405
858.464	4379
858.597	4363
858.731	4413
858.864	4516
858.997	4436
859.13	4489
859.263	4523
859.396	4588
859.529	4504
859.662	4531
859.795	4527
859.928	4611
860.061	4721
860.194	4797
860.327	4656
860.46	4698
860.592	4740
860.725	4702
860.858	4793
860.99	4637
861.123	4672
861.256	4706
861.388	4812
861.521	5368
861.653	4740
861.786	4721
861.918	4805
862.05	4828
862.183	4866
862.315	4892
862.447	4889
862.58	4934
862.712	4797
862.844	4786
862.976	4930
863.108	4839
863.24	5208
863.372	4805
863.504	4938
863.636	4927
863.768	4968
863.9	4968
864.032	4927
864.164	4919
864.296	5033
864.428	5113
864.559	5147
864.691	5102
864.823	5132
864.954	5140
865.086	5128
865.217	5098
865.349	5132
865.48	5201
865.612	5181
865.743	5258
865.875	5227
866.006	5223
866.137	5216
866.269	5242
866.4	5250
866.531	5220
866.662	5254
866.793	5258
866.924	5284
867.055	5334
867.186	5341
867.317	5315
867.448	5337
867.579	5368
867.71	5372
867.841	5383
867.972	5467
868.103	5474
868.233	5478
868.364	5463
868.495	5566
868.625	5619
868.756	5798
868.886	5684
869.017	5760
869.147	5859
869.278	5946
869.408	5840
869.539	5813
869.669	5927
869.799	5855
869.929	6019
870.06	5965
870.19	6258
870.32	6194
870.45	6247
870.58	6353
870.71	6414
870.84	6490
870.97	6471
871.1	6456
871.23	6639
871.36	6738
871.489	6623
871.619	6749
871.749	6795
871.879	6871
872.008	6962
872.138	6977
872.267	7061
872.397	6985
872.526	7061
872.656	7137
872.785	7244
872.915	7381
873.044	7521
873.173	7537
873.303	7693
873.432	7731
873.561	7902
873.69	7913
873.819	8046
873.948	8176
874.077	8221
874.206	8358
874.335	8507
874.464	8667
874.593	8838
874.722	8979
874.851	9192
874.979	9275
875.108	9386
875.237	9488
875.365	9519
875.494	9576
875.623	9831
875.751	9861
875.88	10044
876.008	10139
876.136	10280
876.265	10577
876.393	10637
876.521	10729
876.65	10873
876.778	10885
876.906	10923
877.034	10991
877.162	11041
877.29	11174
877.418	11318
877.546	11440
877.674	11535
877.802	11459
877.93	11524
878.058	11608
878.185	11493
878.313	11634
878.441	11729
878.568	11760
878.696	11805
878.824	11885
878.951	11912
879.079	12015
879.206	12148
879.333	12053
879.461	11973
879.588	12125
879.715	12102
879.842	12251
879.97	12049
880.097	11794
880.224	11878
880.351	11920
880.478	11923
880.605	11885
880.732	11794
880.859	12053
880.986	11824
881.112	11798
881.239	11710
881.366	11604
881.493	11585
881.619	11573
881.746	11630
881.872	11573
881.999	11493
882.125	11516
882.252	11608
882.378	11414
882.505	11558
882.631	11280
882.757	11216
882.883	11311
883.01	11406
883.136	11242
883.262	11109
883.388	11102
883.514	11185
883.64	11102
883.766	11048
883.892	11056
884.018	11048
884.143	11064
884.269	11189
884.395	10866
884.52	10740
884.646	10812
884.772	10729
884.897	10675
885.023	10710
885.148	10634
885.274	10733
885.399	10767
885.524	10637
885.65	10569
885.775	10641
885.9	10535
886.025	10637
886.15	10584
886.275	10455
886.4	10360
886.525	10440
886.65	10367
886.775	10291
886.9	10455
887.025	10493
887.149	10386
887.274	10230
887.399	10230
887.523	10223
887.648	10112
887.773	10128
887.897	10249
888.021	10284
888.146	10139
888.27	10192
888.395	10253
888.519	10253
888.643	10219
888.767	10166
888.891	10082
889.015	9983
889.139	10063
889.263	9956
889.387	9998
889.511	10093
889.635	10010
889.759	9968
889.883	10048
890.006	9983
890.13	10051
890.254	9945
890.377	9987
890.501	9968
890.624	9945
890.748	9918
890.871	9816
890.995	9717
891.118	9701
891.241	9770
891.364	9743
891.488	9827
891.611	9713
891.734	9762
891.857	9732
891.98	9690
892.103	9785
892.226	9823
892.349	9675
892.471	9584
892.594	9599
892.717	9603
892.839	9549
892.962	9606
893.085	9709
893.207	9549
893.33	9519
893.452	9614
893.575	9584
893.697	9496
893.819	9641
893.941	9705
894.064	9637
894.186	9412
894.308	9428
894.43	9523
894.552	9568
894.674	9595
894.796	9424
894.918	9447
895.04	9370
895.161	9389
895.283	9344
895.405	9245
895.526	9348
895.648	9222
895.769	9291
895.891	9336
896.012	9237
896.134	9203
896.255	9287
896.376	9154
896.498	9142
896.619	9157
896.74	9085
896.861	9085
896.982	9279
897.103	9332
897.224	9055
897.345	9085
897.466	8986
897.587	8967
897.708	9085
897.828	8979
897.949	8998
898.07	8899
898.19	8990
898.311	9024
898.431	8937
898.552	8864
898.672	8937
898.792	8948
898.913	8925
899.033	8811
899.153	8788
899.273	8636
899.393	8716
899.513	8743
899.633	8773
899.753	8788
899.873	8655
899.993	8792
900.113	8678
900.232	8735
900.352	8651
900.472	8651
900.591	8610
900.711	8594
900.83	8568
900.95	8636
901.069	8644
901.189	8560
901.308	8415
901.427	8385
901.546	8434
901.665	8530
901.784	8469
901.904	8370
902.023	8358
902.141	8229
902.26	8248
902.379	8252
902.498	8202
902.617	8225
902.735	8282
902.854	8294
902.973	8229
903.091	8138
903.21	8168
903.328	8199
903.446	8149
903.565	8103
903.683	8096
903.801	8039
903.919	8050
904.038	8103
904.156	8020
904.274	8081
904.392	8008
904.51	8062
904.627	8024
904.745	8103
904.863	8100
904.981	7928
905.098	7936
905.216	7868
905.334	7978
905.451	7852
905.569	7864
905.686	8016
905.803	7906
905.921	7746
906.038	7864
906.155	7814
906.272	7708
906.389	7799
906.506	7677
906.623	7582
906.74	7525
906.857	7575
906.974	7601
907.091	7655
907.208	7723
907.324	7636
907.441	7632
907.557	7476
907.674	7438
907.79	7434
907.907	7422
908.023	7495
908.139	7411
908.256	7350
908.372	7350
908.488	7312
908.604	7266
908.72	7209
908.836	7255
908.952	7282
909.068	7259
909.184	7324
909.3	7244
909.415	7320
909.531	7327
909.647	7095
909.762	7156
909.878	7126
909.993	7198
910.108	7069
910.224	7027
910.339	7084
910.454	7015
910.57	6977
910.685	6920
910.8	7209
910.915	7065
911.03	7050
911.145	6939
911.259	6920
911.374	6962
911.489	6848
911.604	6757
911.718	6673
911.833	6738
911.947	6585
912.062	6642
912.176	6715
912.291	6684
912.405	6726
912.519	6818
912.633	6871
912.748	6768
912.862	6639
912.976	6658
913.09	6578
913.204	6544
913.318	6574
913.431	6722
913.545	6692
913.659	6715
913.772	6608
913.886	6544
914	6547
914.113	6578
914.226	6665
914.34	6654
914.453	6528
914.566	6658
914.68	6532
914.793	6475
914.906	6429
915.019	6399
915.132	6372
915.245	6418
915.358	6452
915.47	6464
915.583	6506
915.696	6559
915.809	6608
915.921	6544
916.034	6403
916.146	6407
916.259	6407
916.371	6429
916.483	6437
916.595	6388
916.708	6445
916.82	6388
916.932	6407
917.044	6361
917.156	6372
917.268	6300
917.38	6403
917.491	6380
917.603	6327
917.715	6429
917.826	6414
917.938	6338
918.049	6266
918.161	6300
918.272	6418
918.384	6403
918.495	6315
918.606	6319
918.717	6228
918.828	6292
918.939	6262
919.05	6205
919.161	6296
919.272	6163
919.383	6190
919.494	6285
919.604	6490
919.715	6304
919.826	6190
919.936	6201
920.047	6399
920.157	6235
920.267	6456
920.378	6357
920.488	6296
920.598	6464
920.708	6566
920.818	6467
920.928	6498
921.038	6593
921.148	6620
921.258	6372
921.368	6292
921.477	6201
921.587	6209
921.697	6095
921.806	6182
921.916	6079
922.025	5950
922.134	5920
922.244	5908
922.353	6015
922.462	5851
922.571	5805
922.68	5722
922.789	5726
922.898	5710
923.007	5638
923.116	5688
923.224	5710
923.333	5642
923.442	5570
923.55	5570
923.659	5608
923.767	5691
923.876	5551
923.984	5634
924.092	5524
924.201	5566
924.309	5554
924.417	5474
924.525	5474
924.633	5512
924.741	6277
924.849	5387
924.956	5459
925.064	5334
925.172	5318
925.279	5383
925.387	5383
925.494	5311
925.602	5421
925.709	5387
925.816	5273
925.924	5303
926.031	5368
926.138	5318
926.245	5353
926.352	5242
926.459	5349
926.566	5341
926.673	5216
926.779	5147
926.886	5098
926.993	5014
927.099	4999
927.206	4976
927.312	4980
927.419	4991
927.525	4972
927.631	4976
927.737	4870
927.843	4892
927.95	4767
928.056	4835
928.162	4862
928.267	4835
928.373	5341
928.479	4835
928.585	4752
928.69	4748
928.796	4771
928.901	4702
929.007	4603
929.112	4672
929.218	4626
929.323	4554
929.428	4599
929.533	4618
929.638	4516
929.743	4550
929.848	4531
929.953	4489
930.058	4451
930.163	4337
930.267	4356
930.372	4432
930.477	4337
930.581	4474
930.685	4390
930.79	4280
930.894	4303
930.998	4268
931.103	4360
931.207	4124
931.311	4063
931.415	4029
931.519	3945
931.623	3918
