Data from glass_V78500241_2611.txt Node
Date: Wed Sep 01 19:32:36 CST 2021
User: usil
Spectrometer: V785-0024
Trigger mode: 0
Integration Time (sec): 4.000000E-1
Scans to average: 1
Nonlinearity correction enabled: false
Boxcar width: 0
Storing dark spectrum: false
XAxis mode: Wavelengths
Number of Pixels in Spectrum: 1024
>>>>>Begin Spectral Data<<<<<
801.071	3774
801.214	3736
801.356	3724
801.499	3686
801.641	3679
801.783	3732
801.926	3850
802.068	3797
802.211	3835
802.353	3937
802.496	3831
802.638	3888
802.78	3907
802.923	3937
803.065	3911
803.208	3819
803.35	3838
803.492	3896
803.635	3926
803.777	3800
803.919	3880
804.061	4131
804.204	3949
804.346	3934
804.488	3911
804.63	4017
804.773	3964
804.915	4082
805.057	4128
805.199	3964
805.341	4090
805.483	4158
805.626	4135
805.768	4067
805.91	4162
806.052	4219
806.194	4188
806.336	4318
806.478	4150
806.62	4128
806.762	4158
806.904	4223
807.046	4329
807.188	4185
807.33	4116
807.472	4211
807.614	4169
807.756	4230
807.898	4188
808.04	4207
808.182	4303
808.324	4303
808.465	4356
808.607	4493
808.749	4409
808.891	4470
809.033	4485
809.174	4360
809.316	4257
809.458	4257
809.6	4173
809.741	4150
809.883	4090
810.025	4162
810.166	4200
810.308	4181
810.45	4234
810.591	4276
810.733	4265
810.875	4516
811.016	4805
811.158	5094
811.299	5258
811.441	5284
811.582	5025
811.724	4679
811.865	4417
812.007	4455
812.148	4402
812.29	4390
812.431	4413
812.573	4386
812.714	4383
812.855	4402
812.997	4447
813.138	4459
813.279	4383
813.421	4360
813.562	4405
813.703	4314
813.845	4356
813.986	4238
814.127	4234
814.268	4219
814.41	4299
814.551	4272
814.692	4341
814.833	4261
814.974	4291
815.115	4322
815.256	4234
815.397	4211
815.539	4299
815.68	4200
815.821	4230
815.962	4363
816.103	4200
816.244	4219
816.385	4223
816.526	4261
816.666	4188
816.807	4093
816.948	4158
817.089	4139
817.23	4120
817.371	4090
817.512	4059
817.653	4071
817.793	4048
817.934	3972
818.075	4093
818.216	4044
818.356	4040
818.497	3983
818.638	3903
818.778	3884
818.919	3884
819.06	3861
819.2	3903
819.341	3857
819.481	3800
819.622	3934
819.762	3994
819.903	3930
820.043	3903
820.184	3819
820.324	3804
820.465	3854
820.605	3869
820.746	3865
820.886	3804
821.026	3880
821.167	3899
821.307	3972
821.447	3983
821.588	3956
821.728	3949
821.868	3934
822.008	3827
822.149	3884
822.289	3922
822.429	3774
822.569	3751
822.709	3823
822.849	3675
822.99	3747
823.13	3747
823.27	3755
823.41	3701
823.55	3740
823.69	3732
823.83	3736
823.97	3667
824.11	3591
824.25	3614
824.389	3618
824.529	3633
824.669	3660
824.809	3762
824.949	3717
825.089	3747
825.228	3679
825.368	3568
825.508	3526
825.648	3542
825.787	3599
825.927	3576
826.067	3614
826.206	3637
826.346	3751
826.485	3850
826.625	3842
826.765	3934
826.904	3797
827.044	3644
827.183	3519
827.323	3412
827.462	3454
827.601	3405
827.741	3401
827.88	3443
828.02	3359
828.159	3431
828.298	3485
828.437	3515
828.577	3466
828.716	3564
828.855	3454
828.994	3386
829.134	3374
829.273	3386
829.412	3325
829.551	3294
829.69	3367
829.829	3412
829.968	3504
830.107	3401
830.246	3454
830.385	3355
830.524	3325
830.663	3287
830.802	3253
830.941	3192
831.08	3176
831.219	3237
831.357	3272
831.496	3355
831.635	3218
831.774	3173
831.913	3230
832.051	3116
832.19	3123
832.329	3218
832.467	3138
832.606	3093
832.744	3135
832.883	3142
833.022	3165
833.16	3260
833.299	3336
833.437	3336
833.576	3348
833.714	3405
833.852	3435
833.991	3431
834.129	3416
834.267	3382
834.406	3424
834.544	3374
834.682	3405
834.821	3386
834.959	3542
835.097	3416
835.235	3481
835.373	3481
835.511	3466
835.65	3443
835.788	3473
835.926	3389
836.064	3370
836.202	3389
836.34	3545
836.478	3587
836.615	3511
836.753	3625
836.891	3625
837.029	3606
837.167	3580
837.305	3515
837.443	3534
837.58	3466
837.718	3603
837.856	3549
837.993	3530
838.131	3618
838.269	3530
838.406	3545
838.544	3549
838.681	3469
838.819	3450
838.956	3332
839.094	3382
839.231	3477
839.369	3507
839.506	3679
839.643	3606
839.781	3477
839.918	3458
840.055	3496
840.193	3534
840.33	3504
840.467	3542
840.604	3576
840.742	3770
840.879	3500
841.016	3587
841.153	3545
841.29	3751
841.427	3694
841.564	3682
841.701	3671
841.838	3705
841.975	3701
842.112	3694
842.249	3614
842.385	3656
842.522	3827
842.659	3633
842.796	3686
842.933	3663
843.069	3705
843.206	3698
843.343	3789
843.479	3743
843.616	3831
843.752	3629
843.889	3705
844.025	3819
844.162	3709
844.298	3869
844.435	3778
844.571	3778
844.708	3911
844.844	4021
844.98	4010
845.117	3983
845.253	3922
845.389	3869
845.525	3934
845.661	3941
845.798	3918
845.934	3972
846.07	3915
846.206	4048
846.342	4101
846.478	4048
846.614	3972
846.75	3907
846.886	3953
847.022	4032
847.158	3949
847.294	3953
847.429	4010
847.565	3987
847.701	4234
847.837	3903
847.972	3827
848.108	3945
848.244	3964
848.379	3869
848.515	3819
848.65	3812
848.786	3785
848.921	3804
849.057	3937
849.192	3972
849.328	3907
849.463	3930
849.598	3873
849.734	3827
849.869	3793
850.004	3770
850.14	3823
850.275	3736
850.41	3732
850.545	3728
850.68	3785
850.815	3766
850.95	3751
851.085	3911
851.22	3861
851.355	3827
851.49	3804
851.625	3766
851.76	3770
851.895	3724
852.03	3705
852.165	3785
852.299	3842
852.434	3888
852.569	3831
852.703	3835
852.838	3930
852.973	3994
853.107	3975
853.242	3850
853.376	3880
853.511	3751
853.645	3846
853.78	3968
853.914	3888
854.048	3880
854.183	3861
854.317	3956
854.451	4044
854.585	3926
854.72	3922
854.854	4029
854.988	3918
855.122	4021
855.256	3934
855.39	3987
855.524	4128
855.658	4071
855.792	4090
855.926	4124
856.06	4131
856.194	4204
856.327	4158
856.461	4097
856.595	4128
856.729	4128
856.862	4272
856.996	4242
857.13	4287
857.263	4329
857.397	4360
857.53	4268
857.664	4360
857.797	4394
857.931	4379
858.064	4371
858.197	4459
858.331	4386
858.464	4424
858.597	4352
858.731	4413
858.864	4440
858.997	4428
859.13	4497
859.263	4558
859.396	4580
859.529	4523
859.662	4550
859.795	4516
859.928	4565
860.061	4672
860.194	4714
860.327	4660
860.46	4607
860.592	4748
860.725	4771
860.858	4759
860.99	4668
861.123	4653
861.256	4729
861.388	4687
861.521	5261
861.653	4702
861.786	4714
861.918	4767
862.05	4759
862.183	4820
862.315	4900
862.447	4938
862.58	4870
862.712	4831
862.844	4782
862.976	4858
863.108	4835
863.24	5109
863.372	4778
863.504	4904
863.636	4923
863.768	4976
863.9	4980
864.032	4870
864.164	4972
864.296	5041
864.428	5147
864.559	5067
864.691	5075
864.823	5147
864.954	5197
865.086	5159
865.217	5064
865.349	5105
865.48	5143
865.612	5208
865.743	5277
865.875	5201
866.006	5189
866.137	5250
866.269	5280
866.4	5269
866.531	5189
866.662	5223
866.793	5235
866.924	5318
867.055	5364
867.186	5277
867.317	5341
867.448	5235
867.579	5379
867.71	5376
867.841	5360
867.972	5429
868.103	5406
868.233	5493
868.364	5509
868.495	5547
868.625	5619
868.756	5714
868.886	5623
869.017	5741
869.147	5798
869.278	5805
869.408	5771
869.539	5790
869.669	5954
869.799	5946
869.929	5980
870.06	5996
870.19	6194
870.32	6220
870.45	6228
870.58	6327
870.71	6414
870.84	6448
870.97	6467
871.1	6372
871.23	6635
871.36	6650
871.489	6623
871.619	6707
871.749	6791
871.879	6886
872.008	6958
872.138	6962
872.267	6954
872.397	6939
872.526	7031
872.656	7110
872.785	7202
872.915	7358
873.044	7483
873.173	7529
873.303	7674
873.432	7681
873.561	7944
873.69	7917
873.819	7989
873.948	8218
874.077	8294
874.206	8336
874.335	8507
874.464	8682
874.593	8910
874.722	8902
874.851	9165
874.979	9256
875.108	9275
875.237	9431
875.365	9481
875.494	9625
875.623	9819
875.751	9816
875.88	10006
876.008	10116
876.136	10253
876.265	10497
876.393	10710
876.521	10710
876.65	10782
876.778	10873
876.906	10835
877.034	10911
877.162	11090
877.29	11113
877.418	11307
877.546	11341
877.674	11406
877.802	11482
877.93	11501
878.058	11547
878.185	11547
878.313	11634
878.441	11798
878.568	11634
878.696	11756
878.824	11748
878.951	11855
879.079	12049
879.206	12114
879.333	11996
879.461	11950
879.588	11973
879.715	12057
879.842	12251
879.97	12079
880.097	11904
880.224	11821
880.351	11851
880.478	11916
880.605	11897
880.732	11828
880.859	11935
880.986	11859
881.112	11817
881.239	11809
881.366	11665
881.493	11619
881.619	11520
881.746	11497
881.872	11558
881.999	11459
882.125	11524
882.252	11512
882.378	11406
882.505	11562
882.631	11341
882.757	11311
882.883	11277
883.01	11197
883.136	11151
883.262	11147
883.388	11143
883.514	11220
883.64	11204
883.766	11159
883.892	11045
884.018	10976
884.143	11052
884.269	11041
884.395	10877
884.52	10729
884.646	10694
884.772	10702
884.897	10683
885.023	10752
885.148	10809
885.274	10763
885.399	10675
885.524	10698
885.65	10660
885.775	10580
885.9	10519
886.025	10584
886.15	10546
886.275	10485
886.4	10367
886.525	10421
886.65	10402
886.775	10291
886.9	10523
887.025	10470
887.149	10333
887.274	10261
887.399	10265
887.523	10124
887.648	10071
887.773	10082
887.897	10166
888.021	10131
888.146	10105
888.27	10173
888.395	10200
888.519	10246
888.643	10192
888.767	10154
888.891	10124
889.015	9968
889.139	10082
889.263	9918
889.387	10109
889.511	10013
889.635	10002
889.759	9983
889.883	9998
890.006	9994
890.13	10086
890.254	9876
890.377	9968
890.501	9945
890.624	9831
890.748	9812
890.871	9816
890.995	9816
891.118	9644
891.241	9701
891.364	9774
891.488	9823
891.611	9755
891.734	9755
891.857	9736
891.98	9671
892.103	9740
892.226	9682
892.349	9698
892.471	9492
892.594	9603
892.717	9622
892.839	9553
892.962	9641
893.085	9701
893.207	9561
893.33	9481
893.452	9507
893.575	9656
893.697	9530
893.819	9606
893.941	9591
894.064	9625
894.186	9420
894.308	9424
894.43	9515
894.552	9595
894.674	9526
894.796	9310
894.918	9405
895.04	9317
895.161	9355
895.283	9336
895.405	9256
895.526	9256
895.648	9283
895.769	9218
895.891	9230
896.012	9226
896.134	9256
896.255	9077
896.376	9089
896.498	9131
896.619	9192
896.74	9074
896.861	9089
896.982	9260
897.103	9241
897.224	9108
897.345	9051
897.466	8998
897.587	8990
897.708	9093
897.828	9081
897.949	8956
898.07	8906
898.19	8918
898.311	8952
898.431	8910
898.552	8906
898.672	8990
898.792	8975
898.913	8925
899.033	8834
899.153	8712
899.273	8697
899.393	8659
899.513	8689
899.633	8769
899.753	8659
899.873	8697
899.993	8693
900.113	8712
900.232	8727
900.352	8632
900.472	8655
900.591	8549
900.711	8560
900.83	8549
900.95	8667
901.069	8667
901.189	8552
901.308	8419
901.427	8438
901.546	8431
901.665	8480
901.784	8476
901.904	8400
902.023	8347
902.141	8202
902.26	8195
902.379	8313
902.498	8210
902.617	8183
902.735	8290
902.854	8317
902.973	8282
903.091	8107
903.21	8126
903.328	8145
903.446	8084
903.565	8077
903.683	8115
903.801	7989
903.919	8100
904.038	8119
904.156	8050
904.274	8100
904.392	8039
904.51	7967
904.627	8043
904.745	8153
904.863	8115
904.981	7887
905.098	7868
905.216	7894
905.334	7917
905.451	7909
905.569	7909
905.686	7986
905.803	7932
905.921	7734
906.038	7928
906.155	7814
906.272	7723
906.389	7696
906.506	7636
906.623	7647
906.74	7567
906.857	7559
906.974	7594
907.091	7685
907.208	7658
907.324	7666
907.441	7590
907.557	7449
907.674	7460
907.79	7335
907.907	7438
908.023	7419
908.139	7400
908.256	7396
908.372	7343
908.488	7354
908.604	7217
908.72	7198
908.836	7266
908.952	7263
909.068	7312
909.184	7324
909.3	7255
909.415	7308
909.531	7312
909.647	7099
909.762	7107
909.878	7057
909.993	7038
910.108	7107
910.224	7084
910.339	7103
910.454	7057
910.57	7034
910.685	6859
910.8	7187
910.915	7091
911.03	7019
911.145	6970
911.259	6928
911.374	6890
911.489	6863
911.604	6814
911.718	6730
911.833	6692
911.947	6604
912.062	6532
912.176	6692
912.291	6688
912.405	6692
912.519	6779
912.633	6814
912.748	6681
912.862	6711
912.976	6574
913.09	6544
913.204	6578
913.318	6589
913.431	6642
913.545	6681
913.659	6639
913.772	6646
913.886	6601
914	6566
914.113	6635
914.226	6616
914.34	6528
914.453	6517
914.566	6623
914.68	6486
914.793	6490
914.906	6384
915.019	6418
915.132	6327
915.245	6437
915.358	6384
915.47	6399
915.583	6445
915.696	6433
915.809	6467
915.921	6551
916.034	6380
916.146	6399
916.259	6391
916.371	6464
916.483	6445
916.595	6372
916.708	6384
916.82	6361
916.932	6369
917.044	6376
917.156	6395
917.268	6338
917.38	6338
917.491	6315
917.603	6311
917.715	6399
917.826	6414
917.938	6296
918.049	6213
918.161	6315
918.272	6410
918.384	6410
918.495	6311
918.606	6243
918.717	6243
918.828	6213
918.939	6254
919.05	6178
919.161	6201
919.272	6110
919.383	6117
919.494	6273
919.604	6464
919.715	6304
919.826	6228
919.936	6205
920.047	6357
920.157	6281
920.267	6445
920.378	6319
920.488	6311
920.598	6479
920.708	6521
920.818	6418
920.928	6426
921.038	6597
921.148	6566
921.258	6353
921.368	6338
921.477	6186
921.587	6167
921.697	6129
921.806	6110
921.916	6110
922.025	5904
922.134	5897
922.244	5904
922.353	5912
922.462	5882
922.571	5786
922.68	5684
922.789	5627
922.898	5703
923.007	5619
923.116	5737
923.224	5688
923.333	5665
923.442	5627
923.55	5558
923.659	5585
923.767	5619
923.876	5497
923.984	5592
924.092	5516
924.201	5539
924.309	5505
924.417	5592
924.525	5455
924.633	5512
924.741	6232
924.849	5395
924.956	5478
925.064	5353
925.172	5307
925.279	5277
925.387	5349
925.494	5284
925.602	5440
925.709	5349
925.816	5299
925.924	5303
926.031	5398
926.138	5273
926.245	5284
926.352	5258
926.459	5288
926.566	5322
926.673	5174
926.779	5170
926.886	5102
926.993	5090
927.099	4953
927.206	4957
927.312	4919
927.419	4968
927.525	4942
927.631	4987
927.737	4854
927.843	4854
927.95	4782
928.056	4816
928.162	4797
928.267	4847
928.373	5235
928.479	4824
928.585	4660
928.69	4748
928.796	4714
928.901	4691
929.007	4554
929.112	4618
929.218	4645
929.323	4599
929.428	4577
929.533	4656
929.638	4519
929.743	4554
929.848	4519
929.953	4546
930.058	4462
930.163	4310
930.267	4341
930.372	4394
930.477	4287
930.581	4478
930.685	4356
930.79	4249
930.894	4284
930.998	4246
931.103	4402
931.207	4101
931.311	4063
931.415	4029
931.519	3930
931.623	3979
