Data from glass_V78500241_2229.txt Node
Date: Wed Sep 01 19:29:57 CST 2021
User: usil
Spectrometer: V785-0024
Trigger mode: 0
Integration Time (sec): 4.000000E-1
Scans to average: 1
Nonlinearity correction enabled: false
Boxcar width: 0
Storing dark spectrum: false
XAxis mode: Wavelengths
Number of Pixels in Spectrum: 1024
>>>>>Begin Spectral Data<<<<<
801.071	3701
801.214	3751
801.356	3652
801.499	3751
801.641	3728
801.783	3762
801.926	3884
802.068	3797
802.211	3873
802.353	3880
802.496	3857
802.638	3884
802.78	3880
802.923	3907
803.065	3876
803.208	3846
803.35	3854
803.492	3873
803.635	3873
803.777	3762
803.919	3903
804.061	4128
804.204	3964
804.346	3956
804.488	3888
804.63	4002
804.773	3968
804.915	4025
805.057	4143
805.199	4013
805.341	4112
805.483	4116
805.626	4120
805.768	4105
805.91	4200
806.052	4234
806.194	4196
806.336	4341
806.478	4185
806.62	4192
806.762	4188
806.904	4253
807.046	4367
807.188	4215
807.33	4207
807.472	4261
807.614	4192
807.756	4265
807.898	4215
808.04	4207
808.182	4268
808.324	4295
808.465	4356
808.607	4443
808.749	4443
808.891	4432
809.033	4504
809.174	4424
809.316	4223
809.458	4219
809.6	4135
809.741	4131
809.883	4120
810.025	4204
810.166	4219
810.308	4234
810.45	4204
810.591	4230
810.733	4348
810.875	4516
811.016	4778
811.158	5094
811.299	5265
811.441	5258
811.582	5060
811.724	4717
811.865	4455
812.007	4440
812.148	4451
812.29	4417
812.431	4398
812.573	4405
812.714	4348
812.855	4428
812.997	4443
813.138	4447
813.279	4375
813.421	4375
813.562	4344
813.703	4333
813.845	4325
813.986	4234
814.127	4177
814.268	4238
814.41	4291
814.551	4223
814.692	4291
814.833	4265
814.974	4261
815.115	4344
815.256	4238
815.397	4192
815.539	4196
815.68	4192
815.821	4242
815.962	4348
816.103	4265
816.244	4227
816.385	4234
816.526	4242
816.666	4261
816.807	4105
816.948	4230
817.089	4196
817.23	4101
817.371	4036
817.512	4036
817.653	4082
817.793	4032
817.934	4021
818.075	4082
818.216	4055
818.356	4048
818.497	4017
818.638	3918
818.778	3892
818.919	3888
819.06	3869
819.2	3922
819.341	3873
819.481	3793
819.622	3903
819.762	4010
819.903	3945
820.043	3854
820.184	3838
820.324	3808
820.465	3861
820.605	3861
820.746	3838
820.886	3789
821.026	3892
821.167	3926
821.307	3979
821.447	3987
821.588	3998
821.728	3960
821.868	3937
822.008	3842
822.149	3892
822.289	3880
822.429	3778
822.569	3720
822.709	3793
822.849	3671
822.99	3724
823.13	3743
823.27	3766
823.41	3679
823.55	3740
823.69	3705
823.83	3724
823.97	3625
824.11	3610
824.25	3561
824.389	3610
824.529	3652
824.669	3622
824.809	3682
824.949	3728
825.089	3690
825.228	3724
825.368	3568
825.508	3587
825.648	3614
825.787	3595
825.927	3606
826.067	3629
826.206	3641
826.346	3766
826.485	3823
826.625	3838
826.765	3937
826.904	3838
827.044	3622
827.183	3530
827.323	3462
827.462	3523
827.601	3420
827.741	3443
827.88	3454
828.02	3370
828.159	3439
828.298	3454
828.437	3507
828.577	3443
828.716	3561
828.855	3500
828.994	3367
829.134	3367
829.273	3393
829.412	3355
829.551	3329
829.69	3340
829.829	3431
829.968	3504
830.107	3435
830.246	3443
830.385	3397
830.524	3317
830.663	3287
830.802	3249
830.941	3146
831.08	3207
831.219	3260
831.357	3256
831.496	3454
831.635	3230
831.774	3211
831.913	3230
832.051	3085
832.19	3150
832.329	3180
832.467	3142
832.606	3123
832.744	3142
832.883	3157
833.022	3207
833.16	3253
833.299	3302
833.437	3313
833.576	3397
833.714	3412
833.852	3439
833.991	3458
834.129	3454
834.267	3466
834.406	3370
834.544	3428
834.682	3409
834.821	3416
834.959	3530
835.097	3416
835.235	3538
835.373	3481
835.511	3469
835.65	3435
835.788	3447
835.926	3393
836.064	3336
836.202	3401
836.34	3576
836.478	3603
836.615	3507
836.753	3641
836.891	3675
837.029	3587
837.167	3599
837.305	3599
837.443	3576
837.58	3477
837.718	3618
837.856	3557
837.993	3488
838.131	3580
838.269	3545
838.406	3545
838.544	3572
838.681	3477
838.819	3450
838.956	3363
839.094	3389
839.231	3454
839.369	3500
839.506	3717
839.643	3587
839.781	3473
839.918	3450
840.055	3526
840.193	3481
840.33	3500
840.467	3553
840.604	3603
840.742	3781
840.879	3507
841.016	3549
841.153	3568
841.29	3736
841.427	3724
841.564	3701
841.701	3713
841.838	3701
841.975	3660
842.112	3694
842.249	3656
842.385	3644
842.522	3816
842.659	3698
842.796	3679
842.933	3705
843.069	3720
843.206	3717
843.343	3819
843.479	3778
843.616	3842
843.752	3682
843.889	3671
844.025	3797
844.162	3713
844.298	3835
844.435	3816
844.571	3770
844.708	3956
844.844	3915
844.98	3979
845.117	3991
845.253	3903
845.389	3865
845.525	3949
845.661	3956
845.798	3918
845.934	3937
846.07	3926
846.206	4040
846.342	4120
846.478	4105
846.614	3953
846.75	3903
846.886	3911
847.022	4029
847.158	3960
847.294	4006
847.429	4017
847.565	3979
847.701	4211
847.837	3857
847.972	3880
848.108	3930
848.244	3975
848.379	3865
848.515	3800
848.65	3793
848.786	3835
848.921	3861
849.057	3926
849.192	3941
849.328	3918
849.463	3907
849.598	3907
849.734	3816
849.869	3778
850.004	3781
850.14	3770
850.275	3800
850.41	3743
850.545	3743
850.68	3728
850.815	3797
850.95	3751
851.085	3949
851.22	3838
851.355	3823
851.49	3751
851.625	3793
851.76	3762
851.895	3762
852.03	3720
852.165	3812
852.299	3804
852.434	3854
852.569	3835
852.703	3880
852.838	3888
852.973	3979
853.107	3907
853.242	3915
853.376	3873
853.511	3766
853.645	3831
853.78	3975
853.914	3915
854.048	3903
854.183	3903
854.317	3918
854.451	4082
854.585	3975
854.72	3964
854.854	4017
854.988	3922
855.122	4002
855.256	3922
855.39	3960
855.524	4131
855.658	4059
855.792	4093
855.926	4105
856.06	4131
856.194	4185
856.327	4120
856.461	4124
856.595	4105
856.729	4169
856.862	4249
856.996	4204
857.13	4280
857.263	4295
857.397	4325
857.53	4303
857.664	4367
857.797	4398
857.931	4405
858.064	4333
858.197	4440
858.331	4379
858.464	4356
858.597	4318
858.731	4390
858.864	4455
858.997	4489
859.13	4538
859.263	4569
859.396	4538
859.529	4512
859.662	4493
859.795	4523
859.928	4603
860.061	4679
860.194	4748
860.327	4607
860.46	4618
860.592	4733
860.725	4793
860.858	4778
860.99	4656
861.123	4660
861.256	4653
861.388	4790
861.521	5444
861.653	4714
861.786	4687
861.918	4744
862.05	4759
862.183	4873
862.315	4881
862.447	4915
862.58	4828
862.712	4782
862.844	4744
862.976	4870
863.108	4828
863.24	5201
863.372	4843
863.504	4911
863.636	4889
863.768	4919
863.9	4976
864.032	4957
864.164	4946
864.296	5041
864.428	5117
864.559	5056
864.691	5075
864.823	5124
864.954	5083
865.086	5075
865.217	5121
865.349	5090
865.48	5109
865.612	5189
865.743	5265
865.875	5204
866.006	5220
866.137	5204
866.269	5239
866.4	5193
866.531	5242
866.662	5174
866.793	5296
866.924	5284
867.055	5292
867.186	5364
867.317	5334
867.448	5284
867.579	5398
867.71	5379
867.841	5349
867.972	5463
868.103	5459
868.233	5463
868.364	5516
868.495	5524
868.625	5680
868.756	5779
868.886	5627
869.017	5699
869.147	5817
869.278	5855
869.408	5855
869.539	5844
869.669	5916
869.799	5923
869.929	5984
870.06	5996
870.19	6159
870.32	6182
870.45	6251
870.58	6319
870.71	6407
870.84	6464
870.97	6331
871.1	6433
871.23	6673
871.36	6677
871.489	6658
871.619	6764
871.749	6833
871.879	6909
872.008	6985
872.138	6966
872.267	6996
872.397	7023
872.526	7019
872.656	7038
872.785	7198
872.915	7396
873.044	7567
873.173	7556
873.303	7704
873.432	7666
873.561	7856
873.69	7940
873.819	8001
873.948	8081
874.077	8267
874.206	8309
874.335	8404
874.464	8697
874.593	8906
874.722	8929
874.851	9116
874.979	9241
875.108	9382
875.237	9447
875.365	9458
875.494	9618
875.623	9884
875.751	9785
875.88	10055
876.008	10150
876.136	10303
876.265	10519
876.393	10744
876.521	10702
876.65	10831
876.778	10938
876.906	10847
877.034	10968
877.162	11022
877.29	11181
877.418	11254
877.546	11383
877.674	11474
877.802	11535
877.93	11467
878.058	11524
878.185	11604
878.313	11672
878.441	11764
878.568	11646
878.696	11843
878.824	11817
878.951	12007
879.079	11920
879.206	12072
879.333	12102
879.461	12026
879.588	12087
879.715	12087
879.842	12213
879.97	12060
880.097	11931
880.224	11851
880.351	11843
880.478	11965
880.605	11798
880.732	11786
880.859	12076
880.986	11824
881.112	11828
881.239	11661
881.366	11649
881.493	11604
881.619	11440
881.746	11577
881.872	11566
881.999	11455
882.125	11486
882.252	11532
882.378	11558
882.505	11524
882.631	11391
882.757	11326
882.883	11379
883.01	11318
883.136	11208
883.262	11128
883.388	11140
883.514	11261
883.64	11121
883.766	11117
883.892	11022
884.018	10961
884.143	11052
884.269	11086
884.395	10790
884.52	10778
884.646	10812
884.772	10615
884.897	10672
885.023	10596
885.148	10672
885.274	10736
885.399	10687
885.524	10618
885.65	10558
885.775	10641
885.9	10558
886.025	10599
886.15	10535
886.275	10428
886.4	10394
886.525	10417
886.65	10348
886.775	10413
886.9	10451
887.025	10550
887.149	10352
887.274	10169
887.399	10211
887.523	10234
887.648	10112
887.773	10067
887.897	10303
888.021	10173
888.146	10116
888.27	10246
888.395	10246
888.519	10139
888.643	10135
888.767	10181
888.891	10063
889.015	10036
889.139	9979
889.263	9960
889.387	10116
889.511	10051
889.635	10048
889.759	9972
889.883	10010
890.006	9960
890.13	10055
890.254	9968
890.377	9972
890.501	9907
890.624	9857
890.748	9861
890.871	9789
890.995	9732
891.118	9724
891.241	9759
891.364	9755
891.488	9846
891.611	9690
891.734	9789
891.857	9766
891.98	9671
892.103	9789
892.226	9728
892.349	9652
892.471	9511
892.594	9610
892.717	9618
892.839	9595
892.962	9595
893.085	9606
893.207	9542
893.33	9447
893.452	9568
893.575	9610
893.697	9439
893.819	9614
893.941	9637
894.064	9564
894.186	9363
894.308	9340
894.43	9466
894.552	9507
894.674	9450
894.796	9378
894.918	9439
895.04	9382
895.161	9287
895.283	9359
895.405	9268
895.526	9237
895.648	9279
895.769	9207
895.891	9203
896.012	9275
896.134	9207
896.255	9138
896.376	9093
896.498	9085
896.619	9100
896.74	9066
896.861	9154
896.982	9249
897.103	9253
897.224	9195
897.345	9081
897.466	8929
897.587	9013
897.708	9058
897.828	9043
897.949	8883
898.07	8815
898.19	8948
898.311	8960
898.431	8857
898.552	8872
898.672	8971
898.792	8967
898.913	8910
899.033	8796
899.153	8720
899.273	8766
899.393	8682
899.513	8724
899.633	8708
899.753	8724
899.873	8659
899.993	8781
900.113	8667
900.232	8674
900.352	8629
900.472	8651
900.591	8552
900.711	8579
900.83	8549
900.95	8682
901.069	8739
901.189	8552
901.308	8423
901.427	8404
901.546	8446
901.665	8423
901.784	8450
901.904	8309
902.023	8396
902.141	8275
902.26	8202
902.379	8248
902.498	8218
902.617	8176
902.735	8275
902.854	8263
902.973	8309
903.091	8111
903.21	8050
903.328	8191
903.446	8134
903.565	8084
903.683	8077
903.801	8031
903.919	8077
904.038	8096
904.156	8020
904.274	8020
904.392	7989
904.51	8024
904.627	8058
904.745	8027
904.863	8107
904.981	7963
905.098	7803
905.216	7860
905.334	7925
905.451	7890
905.569	7890
905.686	7951
905.803	7871
905.921	7803
906.038	7833
906.155	7746
906.272	7674
906.389	7761
906.506	7719
906.623	7620
906.74	7616
906.857	7483
906.974	7601
907.091	7693
907.208	7704
907.324	7647
907.441	7548
907.557	7403
907.674	7426
907.79	7388
907.907	7396
908.023	7472
908.139	7453
908.256	7415
908.372	7312
908.488	7343
908.604	7240
908.72	7213
908.836	7289
908.952	7228
909.068	7274
909.184	7320
909.3	7240
909.415	7316
909.531	7263
909.647	7107
909.762	7046
909.878	7080
909.993	7171
910.108	7099
910.224	7076
910.339	7076
910.454	7050
910.57	7034
910.685	6890
910.8	7209
910.915	7099
911.03	7031
911.145	6882
911.259	6882
911.374	6882
911.489	6863
911.604	6863
911.718	6749
911.833	6700
911.947	6719
912.062	6589
912.176	6707
912.291	6707
912.405	6658
912.519	6848
912.633	6791
912.748	6749
912.862	6658
912.976	6604
913.09	6528
913.204	6608
913.318	6574
913.431	6623
913.545	6692
913.659	6719
913.772	6654
913.886	6563
914	6570
914.113	6563
914.226	6627
914.34	6601
914.453	6509
914.566	6585
914.68	6483
914.793	6532
914.906	6456
915.019	6422
915.132	6353
915.245	6433
915.358	6464
915.47	6464
915.583	6410
915.696	6467
915.809	6486
915.921	6559
916.034	6437
916.146	6384
916.259	6395
916.371	6441
916.483	6429
916.595	6410
916.708	6384
916.82	6418
916.932	6384
917.044	6445
917.156	6350
917.268	6273
917.38	6395
917.491	6319
917.603	6315
917.715	6369
917.826	6388
917.938	6308
918.049	6357
918.161	6292
918.272	6388
918.384	6407
918.495	6300
918.606	6228
918.717	6167
918.828	6232
918.939	6315
919.05	6232
919.161	6247
919.272	6091
919.383	6190
919.494	6281
919.604	6365
919.715	6285
919.826	6216
919.936	6258
920.047	6296
920.157	6224
920.267	6388
920.378	6319
920.488	6300
920.598	6467
920.708	6502
920.818	6426
920.928	6380
921.038	6646
921.148	6532
921.258	6338
921.368	6311
921.477	6167
921.587	6213
921.697	6110
921.806	6197
921.916	6057
922.025	5954
922.134	5912
922.244	5893
922.353	5942
922.462	5859
922.571	5764
922.68	5672
922.789	5676
922.898	5653
923.007	5600
923.116	5657
923.224	5672
923.333	5630
923.442	5661
923.55	5592
923.659	5554
923.767	5615
923.876	5497
923.984	5630
924.092	5497
924.201	5554
924.309	5490
924.417	5581
924.525	5516
924.633	5463
924.741	6327
924.849	5341
924.956	5493
925.064	5368
925.172	5296
925.279	5322
925.387	5337
925.494	5277
925.602	5372
925.709	5406
925.816	5254
925.924	5318
926.031	5376
926.138	5277
926.245	5296
926.352	5254
926.459	5322
926.566	5330
926.673	5242
926.779	5162
926.886	5109
926.993	4976
927.099	5037
927.206	4968
927.312	4953
927.419	5025
927.525	4965
927.631	4965
927.737	4896
927.843	4854
927.95	4736
928.056	4816
928.162	4790
928.267	4870
928.373	5326
928.479	4816
928.585	4687
928.69	4759
928.796	4816
928.901	4710
929.007	4538
929.112	4653
929.218	4626
929.323	4634
929.428	4546
929.533	4641
929.638	4523
929.743	4561
929.848	4569
929.953	4493
930.058	4383
930.163	4303
930.267	4299
930.372	4440
930.477	4291
930.581	4443
930.685	4333
930.79	4230
930.894	4306
930.998	4246
931.103	4383
931.207	4112
931.311	4059
931.415	3998
931.519	3930
931.623	3941
