Data from glass_V78500241_2064.txt Node
Date: Wed Sep 01 19:28:48 CST 2021
User: usil
Spectrometer: V785-0024
Trigger mode: 0
Integration Time (sec): 4.000000E-1
Scans to average: 1
Nonlinearity correction enabled: false
Boxcar width: 0
Storing dark spectrum: false
XAxis mode: Wavelengths
Number of Pixels in Spectrum: 1024
>>>>>Begin Spectral Data<<<<<
801.071	3747
801.214	3736
801.356	3690
801.499	3698
801.641	3755
801.783	3740
801.926	3857
802.068	3838
802.211	3827
802.353	3884
802.496	3854
802.638	3888
802.78	3865
802.923	3915
803.065	3857
803.208	3854
803.35	3892
803.492	3880
803.635	3926
803.777	3781
803.919	3915
804.061	4150
804.204	3991
804.346	3972
804.488	3907
804.63	4040
804.773	3991
804.915	4013
805.057	4105
805.199	4082
805.341	4055
805.483	4055
805.626	4101
805.768	4131
805.91	4196
806.052	4249
806.194	4200
806.336	4265
806.478	4257
806.62	4169
806.762	4204
806.904	4234
807.046	4344
807.188	4223
807.33	4211
807.472	4249
807.614	4192
807.756	4295
807.898	4242
808.04	4207
808.182	4230
808.324	4348
808.465	4341
808.607	4436
808.749	4447
808.891	4485
809.033	4508
809.174	4413
809.316	4295
809.458	4192
809.6	4124
809.741	4131
809.883	4128
810.025	4200
810.166	4181
810.308	4227
810.45	4234
810.591	4257
810.733	4272
810.875	4523
811.016	4835
811.158	5155
811.299	5216
811.441	5288
811.582	5094
811.724	4714
811.865	4474
812.007	4470
812.148	4474
812.29	4436
812.431	4424
812.573	4405
812.714	4398
812.855	4379
812.997	4413
813.138	4493
813.279	4367
813.421	4386
813.562	4367
813.703	4306
813.845	4291
813.986	4276
814.127	4265
814.268	4253
814.41	4310
814.551	4261
814.692	4299
814.833	4238
814.974	4299
815.115	4344
815.256	4223
815.397	4234
815.539	4276
815.68	4219
815.821	4200
815.962	4261
816.103	4265
816.244	4200
816.385	4215
816.526	4272
816.666	4230
816.807	4059
816.948	4169
817.089	4196
817.23	4101
817.371	4032
817.512	4059
817.653	4093
817.793	4013
817.934	4013
818.075	4101
818.216	4082
818.356	4120
818.497	3968
818.638	3915
818.778	3934
818.919	3850
819.06	3907
819.2	3892
819.341	3873
819.481	3827
819.622	3937
819.762	4013
819.903	3934
820.043	3873
820.184	3850
820.324	3789
820.465	3876
820.605	3899
820.746	3835
820.886	3770
821.026	3880
821.167	3911
821.307	3953
821.447	3968
821.588	3975
821.728	3945
821.868	3915
822.008	3846
822.149	3899
822.289	3903
822.429	3835
822.569	3751
822.709	3819
822.849	3686
822.99	3713
823.13	3724
823.27	3804
823.41	3724
823.55	3694
823.69	3698
823.83	3717
823.97	3644
824.11	3561
824.25	3625
824.389	3610
824.529	3667
824.669	3622
824.809	3694
824.949	3747
825.089	3717
825.228	3682
825.368	3595
825.508	3557
825.648	3557
825.787	3584
825.927	3625
826.067	3584
826.206	3652
826.346	3789
826.485	3816
826.625	3835
826.765	3922
826.904	3861
827.044	3610
827.183	3519
827.323	3412
827.462	3485
827.601	3420
827.741	3420
827.88	3409
828.02	3348
828.159	3416
828.298	3511
828.437	3523
828.577	3431
828.716	3576
828.855	3485
828.994	3405
829.134	3386
829.273	3443
829.412	3386
829.551	3325
829.69	3370
829.829	3447
829.968	3500
830.107	3450
830.246	3450
830.385	3321
830.524	3363
830.663	3294
830.802	3264
830.941	3192
831.08	3222
831.219	3287
831.357	3256
831.496	3424
831.635	3233
831.774	3188
831.913	3188
832.051	3100
832.19	3104
832.329	3207
832.467	3123
832.606	3146
832.744	3165
832.883	3199
833.022	3188
833.16	3237
833.299	3332
833.437	3344
833.576	3401
833.714	3412
833.852	3443
833.991	3435
834.129	3492
834.267	3405
834.406	3397
834.544	3405
834.682	3386
834.821	3378
834.959	3538
835.097	3424
835.235	3526
835.373	3507
835.511	3466
835.65	3454
835.788	3492
835.926	3370
836.064	3389
836.202	3401
836.34	3591
836.478	3625
836.615	3519
836.753	3576
836.891	3618
837.029	3622
837.167	3553
837.305	3561
837.443	3515
837.58	3519
837.718	3576
837.856	3595
837.993	3557
838.131	3580
838.269	3591
838.406	3564
838.544	3584
838.681	3462
838.819	3443
838.956	3401
839.094	3359
839.231	3473
839.369	3519
839.506	3705
839.643	3625
839.781	3469
839.918	3447
840.055	3519
840.193	3538
840.33	3526
840.467	3576
840.604	3610
840.742	3770
840.879	3545
841.016	3576
841.153	3614
841.29	3732
841.427	3740
841.564	3732
841.701	3736
841.838	3663
841.975	3740
842.112	3717
842.249	3618
842.385	3591
842.522	3854
842.659	3652
842.796	3663
842.933	3705
843.069	3709
843.206	3736
843.343	3781
843.479	3789
843.616	3816
843.752	3648
843.889	3637
844.025	3854
844.162	3709
844.298	3831
844.435	3774
844.571	3816
844.708	3945
844.844	3972
844.98	4013
845.117	3998
845.253	3941
845.389	3869
845.525	3964
845.661	3994
845.798	3903
845.934	3975
846.07	3941
846.206	4097
846.342	4093
846.478	4044
846.614	3945
846.75	3937
846.886	3926
847.022	4013
847.158	3949
847.294	3983
847.429	4006
847.565	3983
847.701	4249
847.837	3930
847.972	3884
848.108	3956
848.244	3998
848.379	3838
848.515	3816
848.65	3842
848.786	3812
848.921	3846
849.057	3934
849.192	3926
849.328	3857
849.463	3915
849.598	3934
849.734	3888
849.869	3808
850.004	3797
850.14	3823
850.275	3816
850.41	3724
850.545	3759
850.68	3743
850.815	3797
850.95	3812
851.085	3896
851.22	3892
851.355	3842
851.49	3785
851.625	3827
851.76	3789
851.895	3736
852.03	3694
852.165	3816
852.299	3846
852.434	3922
852.569	3896
852.703	3884
852.838	3937
852.973	3983
853.107	4029
853.242	3873
853.376	3827
853.511	3781
853.645	3808
853.78	3937
853.914	3907
854.048	3915
854.183	3892
854.317	3918
854.451	4082
854.585	3991
854.72	3956
854.854	4055
854.988	3956
855.122	3998
855.256	3941
855.39	4010
855.524	4105
855.658	4025
855.792	4093
855.926	4131
856.06	4169
856.194	4200
856.327	4181
856.461	4090
856.595	4097
856.729	4169
856.862	4272
856.996	4234
857.13	4306
857.263	4310
857.397	4379
857.53	4230
857.664	4352
857.797	4386
857.931	4428
858.064	4375
858.197	4428
858.331	4386
858.464	4344
858.597	4356
858.731	4440
858.864	4451
858.997	4470
859.13	4474
859.263	4504
859.396	4558
859.529	4519
859.662	4519
859.795	4546
859.928	4622
860.061	4660
860.194	4736
860.327	4668
860.46	4645
860.592	4736
860.725	4698
860.858	4748
860.99	4683
861.123	4679
861.256	4679
861.388	4752
861.521	5318
861.653	4729
861.786	4717
861.918	4733
862.05	4797
862.183	4843
862.315	4892
862.447	4919
862.58	4900
862.712	4790
862.844	4816
862.976	4858
863.108	4862
863.24	5174
863.372	4771
863.504	4843
863.636	4896
863.768	4987
863.9	4999
864.032	4934
864.164	4957
864.296	5029
864.428	5086
864.559	5121
864.691	5075
864.823	5124
864.954	5117
865.086	5121
865.217	5086
865.349	5064
865.48	5239
865.612	5174
865.743	5273
865.875	5212
866.006	5143
866.137	5258
866.269	5231
866.4	5204
866.531	5201
866.662	5227
866.793	5299
866.924	5311
867.055	5299
867.186	5330
867.317	5337
867.448	5277
867.579	5391
867.71	5455
867.841	5353
867.972	5459
868.103	5471
868.233	5459
868.364	5547
868.495	5562
868.625	5661
868.756	5726
868.886	5703
869.017	5737
869.147	5802
869.278	5897
869.408	5786
869.539	5855
869.669	5931
869.799	5866
869.929	5942
870.06	6015
870.19	6167
870.32	6152
870.45	6232
870.58	6365
870.71	6471
870.84	6521
870.97	6410
871.1	6452
871.23	6642
871.36	6673
871.489	6574
871.619	6791
871.749	6833
871.879	6909
872.008	7008
872.138	6932
872.267	7023
872.397	6958
872.526	7053
872.656	7137
872.785	7228
872.915	7381
873.044	7529
873.173	7548
873.303	7620
873.432	7700
873.561	7856
873.69	7921
873.819	8020
873.948	8103
874.077	8218
874.206	8275
874.335	8480
874.464	8686
874.593	8849
874.722	8944
874.851	9142
874.979	9253
875.108	9397
875.237	9389
875.365	9481
875.494	9545
875.623	9823
875.751	9812
875.88	9998
876.008	10162
876.136	10306
876.265	10577
876.393	10694
876.521	10645
876.65	10759
876.778	10885
876.906	10881
877.034	10900
877.162	11094
877.29	11113
877.418	11288
877.546	11349
877.674	11467
877.802	11421
877.93	11512
878.058	11490
878.185	11497
878.313	11680
878.441	11691
878.568	11665
878.696	11824
878.824	11904
878.951	11958
879.079	12019
879.206	12114
879.333	11992
879.461	11969
879.588	12060
879.715	12144
879.842	12209
879.97	12030
880.097	11882
880.224	11859
880.351	11863
880.478	11912
880.605	11855
880.732	11722
880.859	12015
880.986	11756
881.112	11828
881.239	11745
881.366	11688
881.493	11630
881.619	11551
881.746	11570
881.872	11539
881.999	11459
882.125	11520
882.252	11532
882.378	11463
882.505	11581
882.631	11334
882.757	11303
882.883	11334
883.01	11193
883.136	11242
883.262	11098
883.388	11041
883.514	11277
883.64	11185
883.766	11166
883.892	10968
884.018	11010
884.143	11086
884.269	11037
884.395	10820
884.52	10736
884.646	10782
884.772	10725
884.897	10683
885.023	10679
885.148	10714
885.274	10729
885.399	10725
885.524	10592
885.65	10607
885.775	10558
885.9	10561
886.025	10607
886.15	10546
886.275	10421
886.4	10337
886.525	10382
886.65	10352
886.775	10375
886.9	10481
887.025	10508
887.149	10322
887.274	10249
887.399	10097
887.523	10097
887.648	10200
887.773	10101
887.897	10261
888.021	10265
888.146	10109
888.27	10242
888.395	10207
888.519	10147
888.643	10185
888.767	10177
888.891	10139
889.015	10013
889.139	10116
889.263	9991
889.387	10131
889.511	10131
889.635	10032
889.759	9918
889.883	9972
890.006	9994
890.13	10139
890.254	9895
890.377	9949
890.501	9831
890.624	9941
890.748	9819
890.871	9861
890.995	9743
891.118	9732
891.241	9713
891.364	9740
891.488	9808
891.611	9736
891.734	9720
891.857	9804
891.98	9713
892.103	9709
892.226	9682
892.349	9595
892.471	9500
892.594	9576
892.717	9629
892.839	9542
892.962	9637
893.085	9679
893.207	9538
893.33	9523
893.452	9534
893.575	9603
893.697	9500
893.819	9519
893.941	9618
894.064	9568
894.186	9454
894.308	9481
894.43	9526
894.552	9504
894.674	9561
894.796	9359
894.918	9462
895.04	9397
895.161	9344
895.283	9253
895.405	9211
895.526	9268
895.648	9279
895.769	9173
895.891	9256
896.012	9348
896.134	9245
896.255	9135
896.376	9142
896.498	9081
896.619	9055
896.74	9077
896.861	9062
896.982	9260
897.103	9241
897.224	9138
897.345	9028
897.466	9036
897.587	9001
897.708	9062
897.828	9005
897.949	8921
898.07	8956
898.19	8883
898.311	8963
898.431	8910
898.552	8914
898.672	8937
898.792	8838
898.913	8952
899.033	8883
899.153	8724
899.273	8670
899.393	8689
899.513	8712
899.633	8781
899.753	8746
899.873	8659
899.993	8766
900.113	8689
900.232	8773
900.352	8682
900.472	8594
900.591	8518
900.711	8644
900.83	8488
900.95	8629
901.069	8724
901.189	8530
901.308	8415
901.427	8423
901.546	8404
901.665	8415
901.784	8495
901.904	8381
902.023	8282
902.141	8263
902.26	8233
902.379	8282
902.498	8248
902.617	8225
902.735	8328
902.854	8286
902.973	8298
903.091	8084
903.21	8130
903.328	8187
903.446	8115
903.565	8107
903.683	8134
903.801	8103
903.919	8084
904.038	8096
904.156	7997
904.274	8039
904.392	8001
904.51	7997
904.627	8058
904.745	8092
904.863	8065
904.981	7909
905.098	7871
905.216	7856
905.334	7849
905.451	7898
905.569	7913
905.686	7887
905.803	7864
905.921	7788
906.038	7894
906.155	7814
906.272	7689
906.389	7727
906.506	7620
906.623	7597
906.74	7548
906.857	7582
906.974	7556
907.091	7662
907.208	7674
907.324	7613
907.441	7582
907.557	7449
907.674	7445
907.79	7396
907.907	7403
908.023	7476
908.139	7392
908.256	7320
908.372	7316
908.488	7301
908.604	7289
908.72	7247
908.836	7278
908.952	7259
909.068	7266
909.184	7278
909.3	7190
909.415	7312
909.531	7350
909.647	7088
909.762	7152
909.878	7015
909.993	7114
910.108	7095
910.224	7091
910.339	7103
910.454	7072
910.57	7004
910.685	6966
910.8	7141
910.915	7133
911.03	7023
911.145	6875
911.259	6875
911.374	6833
911.489	6821
911.604	6772
911.718	6749
911.833	6741
911.947	6627
912.062	6585
912.176	6722
912.291	6662
912.405	6692
912.519	6871
912.633	6837
912.748	6696
912.862	6730
912.976	6620
913.09	6513
913.204	6612
913.318	6604
913.431	6688
913.545	6654
913.659	6764
913.772	6681
913.886	6559
914	6502
914.113	6585
914.226	6681
914.34	6574
914.453	6460
914.566	6593
914.68	6578
914.793	6566
914.906	6384
915.019	6414
915.132	6357
915.245	6456
915.358	6426
915.47	6448
915.583	6467
915.696	6452
915.809	6494
915.921	6601
916.034	6422
916.146	6407
916.259	6357
916.371	6441
916.483	6429
916.595	6410
916.708	6391
916.82	6361
916.932	6308
917.044	6372
917.156	6445
917.268	6308
917.38	6338
917.491	6258
917.603	6441
917.715	6353
917.826	6403
917.938	6300
918.049	6224
918.161	6323
918.272	6448
918.384	6418
918.495	6380
918.606	6289
918.717	6247
918.828	6315
918.939	6262
919.05	6213
919.161	6311
919.272	6114
919.383	6194
919.494	6281
919.604	6399
919.715	6285
919.826	6209
919.936	6243
920.047	6327
920.157	6235
920.267	6479
920.378	6304
920.488	6311
920.598	6498
920.708	6559
920.818	6429
920.928	6445
921.038	6593
921.148	6532
921.258	6304
921.368	6285
921.477	6209
921.587	6155
921.697	6106
921.806	6197
921.916	6053
922.025	5923
922.134	5958
922.244	5874
922.353	6019
922.462	5878
922.571	5844
922.68	5691
922.789	5680
922.898	5676
923.007	5627
923.116	5718
923.224	5684
923.333	5619
923.442	5585
923.55	5577
923.659	5604
923.767	5611
923.876	5509
923.984	5566
924.092	5524
924.201	5600
924.309	5573
924.417	5509
924.525	5509
924.633	5474
924.741	6270
924.849	5391
924.956	5452
925.064	5387
925.172	5315
925.279	5231
925.387	5349
925.494	5360
925.602	5402
925.709	5398
925.816	5254
925.924	5261
926.031	5273
926.138	5345
926.245	5322
926.352	5231
926.459	5322
926.566	5379
926.673	5185
926.779	5159
926.886	5147
926.993	4999
927.099	4976
927.206	4938
927.312	4949
927.419	5003
927.525	4980
927.631	4957
927.737	4873
927.843	4828
927.95	4759
928.056	4816
928.162	4778
928.267	4824
928.373	5231
928.479	4870
928.585	4668
928.69	4725
928.796	4744
928.901	4630
929.007	4615
929.112	4668
929.218	4630
929.323	4542
929.428	4573
929.533	4634
929.638	4531
929.743	4508
929.848	4550
929.953	4519
930.058	4424
930.163	4310
930.267	4356
930.372	4436
930.477	4280
930.581	4489
930.685	4379
930.79	4246
930.894	4257
930.998	4268
931.103	4367
931.207	4139
931.311	4116
931.415	4040
931.519	3922
931.623	3937
