Data from glass_V78500241_153.txt Node
Date: Wed Sep 01 19:15:33 CST 2021
User: usil
Spectrometer: V785-0024
Trigger mode: 0
Integration Time (sec): 4.000000E-1
Scans to average: 1
Nonlinearity correction enabled: false
Boxcar width: 0
Storing dark spectrum: false
XAxis mode: Wavelengths
Number of Pixels in Spectrum: 1024
>>>>>Begin Spectral Data<<<<<
801.071	3774
801.214	3759
801.356	3709
801.499	3759
801.641	3755
801.783	3793
801.926	3903
802.068	3842
802.211	3884
802.353	3922
802.496	3857
802.638	3915
802.78	3941
802.923	3918
803.065	3896
803.208	3865
803.35	3888
803.492	3903
803.635	3949
803.777	3835
803.919	3934
804.061	4147
804.204	3975
804.346	3960
804.488	3922
804.63	4059
804.773	3987
804.915	4040
805.057	4154
805.199	4055
805.341	4169
805.483	4200
805.626	4173
805.768	4135
805.91	4215
806.052	4261
806.194	4196
806.336	4337
806.478	4265
806.62	4147
806.762	4227
806.904	4261
807.046	4367
807.188	4230
807.33	4196
807.472	4230
807.614	4192
807.756	4242
807.898	4238
808.04	4276
808.182	4280
808.324	4363
808.465	4398
808.607	4459
808.749	4447
808.891	4459
809.033	4512
809.174	4413
809.316	4272
809.458	4200
809.6	4169
809.741	4131
809.883	4128
810.025	4207
810.166	4211
810.308	4215
810.45	4295
810.591	4242
810.733	4272
810.875	4546
811.016	4835
811.158	5121
811.299	5296
811.441	5330
811.582	5071
811.724	4660
811.865	4485
812.007	4489
812.148	4417
812.29	4409
812.431	4432
812.573	4432
812.714	4352
812.855	4459
812.997	4398
813.138	4516
813.279	4466
813.421	4371
813.562	4394
813.703	4348
813.845	4356
813.986	4306
814.127	4219
814.268	4272
814.41	4314
814.551	4291
814.692	4318
814.833	4314
814.974	4329
815.115	4379
815.256	4265
815.397	4207
815.539	4284
815.68	4246
815.821	4223
815.962	4344
816.103	4287
816.244	4238
816.385	4230
816.526	4299
816.666	4207
816.807	4124
816.948	4177
817.089	4192
817.23	4093
817.371	4101
817.512	4013
817.653	4044
817.793	4029
817.934	4055
818.075	4067
818.216	4086
818.356	4131
818.497	4025
818.638	3968
818.778	3945
818.919	3899
819.06	3911
819.2	3880
819.341	3865
819.481	3869
819.622	3937
819.762	4032
819.903	3941
820.043	3861
820.184	3854
820.324	3846
820.465	3884
820.605	3869
820.746	3876
820.886	3816
821.026	3956
821.167	3930
821.307	3941
821.447	4013
821.588	3983
821.728	3983
821.868	3922
822.008	3876
822.149	3884
822.289	3934
822.429	3812
822.569	3759
822.709	3819
822.849	3751
822.99	3755
823.13	3724
823.27	3781
823.41	3762
823.55	3766
823.69	3690
823.83	3774
823.97	3701
824.11	3656
824.25	3633
824.389	3633
824.529	3656
824.669	3618
824.809	3743
824.949	3759
825.089	3736
825.228	3720
825.368	3603
825.508	3576
825.648	3599
825.787	3622
825.927	3633
826.067	3644
826.206	3663
826.346	3812
826.485	3793
826.625	3819
826.765	3930
826.904	3857
827.044	3587
827.183	3561
827.323	3439
827.462	3511
827.601	3443
827.741	3462
827.88	3450
828.02	3409
828.159	3435
828.298	3519
828.437	3603
828.577	3538
828.716	3618
828.855	3496
828.994	3378
829.134	3401
829.273	3401
829.412	3367
829.551	3332
829.69	3420
829.829	3439
829.968	3530
830.107	3458
830.246	3458
830.385	3389
830.524	3329
830.663	3302
830.802	3275
830.941	3226
831.08	3192
831.219	3306
831.357	3272
831.496	3409
831.635	3275
831.774	3199
831.913	3192
832.051	3142
832.19	3169
832.329	3188
832.467	3173
832.606	3146
832.744	3188
832.883	3192
833.022	3222
833.16	3272
833.299	3302
833.437	3370
833.576	3378
833.714	3397
833.852	3492
833.991	3481
834.129	3507
834.267	3488
834.406	3382
834.544	3447
834.682	3409
834.821	3412
834.959	3584
835.097	3454
835.235	3519
835.373	3473
835.511	3519
835.65	3469
835.788	3542
835.926	3420
836.064	3443
836.202	3374
836.34	3553
836.478	3614
836.615	3549
836.753	3641
836.891	3679
837.029	3656
837.167	3599
837.305	3591
837.443	3580
837.58	3519
837.718	3671
837.856	3587
837.993	3606
838.131	3606
838.269	3606
838.406	3625
838.544	3591
838.681	3534
838.819	3477
838.956	3409
839.094	3397
839.231	3481
839.369	3519
839.506	3709
839.643	3648
839.781	3523
839.918	3462
840.055	3530
840.193	3553
840.33	3530
840.467	3584
840.604	3625
840.742	3861
840.879	3564
841.016	3572
841.153	3584
841.29	3766
841.427	3732
841.564	3743
841.701	3770
841.838	3705
841.975	3686
842.112	3755
842.249	3652
842.385	3656
842.522	3816
842.659	3701
842.796	3679
842.933	3740
843.069	3759
843.206	3728
843.343	3850
843.479	3766
843.616	3797
843.752	3709
843.889	3732
844.025	3838
844.162	3751
844.298	3835
844.435	3808
844.571	3797
844.708	3903
844.844	3994
844.98	4055
845.117	4032
845.253	3964
845.389	3926
845.525	4006
845.661	3972
845.798	3994
845.934	4017
846.07	3956
846.206	4067
846.342	4124
846.478	4067
846.614	4013
846.75	3941
846.886	3960
847.022	4010
847.158	3979
847.294	4051
847.429	4006
847.565	4036
847.701	4234
847.837	3941
847.972	3838
848.108	3956
848.244	3975
848.379	3873
848.515	3854
848.65	3831
848.786	3823
848.921	3857
849.057	4017
849.192	3949
849.328	3922
849.463	3968
849.598	3915
849.734	3884
849.869	3896
850.004	3808
850.14	3800
850.275	3789
850.41	3774
850.545	3785
850.68	3793
850.815	3835
850.95	3759
851.085	3987
851.22	3896
851.355	3850
851.49	3808
851.625	3846
851.76	3808
851.895	3770
852.03	3743
852.165	3808
852.299	3861
852.434	3953
852.569	3896
852.703	3918
852.838	3922
852.973	3987
853.107	4002
853.242	3922
853.376	3850
853.511	3774
853.645	3850
853.78	4029
853.914	3873
854.048	3884
854.183	3888
854.317	3968
854.451	4109
854.585	3956
854.72	3949
854.854	4059
854.988	3930
855.122	4017
855.256	3945
855.39	4048
855.524	4131
855.658	4116
855.792	4105
855.926	4150
856.06	4181
856.194	4196
856.327	4124
856.461	4101
856.595	4143
856.729	4162
856.862	4272
856.996	4238
857.13	4310
857.263	4360
857.397	4363
857.53	4344
857.664	4333
857.797	4459
857.931	4383
858.064	4405
858.197	4497
858.331	4421
858.464	4413
858.597	4356
858.731	4421
858.864	4504
858.997	4466
859.13	4516
859.263	4611
859.396	4580
859.529	4565
859.662	4516
859.795	4550
859.928	4637
860.061	4714
860.194	4782
860.327	4683
860.46	4675
860.592	4755
860.725	4778
860.858	4714
860.99	4721
861.123	4710
861.256	4755
861.388	4866
861.521	5474
861.653	4706
861.786	4740
861.918	4759
862.05	4805
862.183	4923
862.315	4885
862.447	4896
862.58	4892
862.712	4820
862.844	4774
862.976	4911
863.108	4908
863.24	5273
863.372	4797
863.504	4885
863.636	4911
863.768	4942
863.9	4938
864.032	4934
864.164	4957
864.296	5045
864.428	5086
864.559	5136
864.691	5128
864.823	5083
864.954	5140
865.086	5174
865.217	5147
865.349	5124
865.48	5162
865.612	5181
865.743	5315
865.875	5212
866.006	5193
866.137	5258
866.269	5299
866.4	5284
866.531	5273
866.662	5235
866.793	5315
866.924	5277
867.055	5311
867.186	5398
867.317	5349
867.448	5318
867.579	5459
867.71	5337
867.841	5376
867.972	5433
868.103	5455
868.233	5516
868.364	5505
868.495	5539
868.625	5688
868.756	5836
868.886	5745
869.017	5733
869.147	5878
869.278	5859
869.408	5904
869.539	5870
869.669	5904
869.799	5946
869.929	6022
870.06	5999
870.19	6197
870.32	6205
870.45	6270
870.58	6388
870.71	6445
870.84	6460
870.97	6391
871.1	6464
871.23	6684
871.36	6684
871.489	6669
871.619	6768
871.749	6829
871.879	6871
872.008	6993
872.138	6985
872.267	7042
872.397	6981
872.526	7069
872.656	7103
872.785	7160
872.915	7434
873.044	7537
873.173	7525
873.303	7647
873.432	7772
873.561	7909
873.69	7951
873.819	8077
873.948	8202
874.077	8248
874.206	8355
874.335	8450
874.464	8629
874.593	8838
874.722	8975
874.851	9165
874.979	9203
875.108	9401
875.237	9397
875.365	9492
875.494	9637
875.623	9827
875.751	9861
875.88	10021
876.008	10135
876.136	10249
876.265	10512
876.393	10771
876.521	10710
876.65	10748
876.778	10824
876.906	10934
877.034	10999
877.162	11083
877.29	11197
877.418	11296
877.546	11277
877.674	11421
877.802	11402
877.93	11505
878.058	11520
878.185	11634
878.313	11726
878.441	11699
878.568	11695
878.696	11863
878.824	11870
878.951	11984
879.079	12007
879.206	12133
879.333	12114
879.461	12060
879.588	12022
879.715	12087
879.842	12247
879.97	12072
880.097	11851
880.224	11885
880.351	11893
880.478	11923
880.605	11855
880.732	11878
880.859	12026
880.986	11878
881.112	11882
881.239	11775
881.366	11707
881.493	11615
881.619	11566
881.746	11505
881.872	11493
881.999	11554
882.125	11474
882.252	11448
882.378	11482
882.505	11573
882.631	11349
882.757	11261
882.883	11330
883.01	11280
883.136	11227
883.262	11159
883.388	11166
883.514	11216
883.64	11250
883.766	11170
883.892	11037
884.018	10987
884.143	11064
884.269	11208
884.395	10885
884.52	10748
884.646	10801
884.772	10645
884.897	10656
885.023	10588
885.148	10706
885.274	10759
885.399	10675
885.524	10596
885.65	10664
885.775	10592
885.9	10481
886.025	10637
886.15	10546
886.275	10440
886.4	10356
886.525	10462
886.65	10394
886.775	10348
886.9	10489
887.025	10554
887.149	10371
887.274	10188
887.399	10276
887.523	10166
887.648	10120
887.773	10112
887.897	10215
888.021	10211
888.146	10150
888.27	10238
888.395	10280
888.519	10234
888.643	10185
888.767	10215
888.891	10131
889.015	9968
889.139	10051
889.263	9983
889.387	10040
889.511	10147
889.635	10071
889.759	9968
889.883	9972
890.006	9975
890.13	10131
890.254	10051
890.377	9956
890.501	9911
890.624	9869
890.748	9838
890.871	9827
890.995	9755
891.118	9709
891.241	9759
891.364	9713
891.488	9873
891.611	9751
891.734	9785
891.857	9816
891.98	9686
892.103	9804
892.226	9785
892.349	9713
892.471	9591
892.594	9492
892.717	9625
892.839	9606
892.962	9644
893.085	9679
893.207	9542
893.33	9519
893.452	9542
893.575	9599
893.697	9549
893.819	9671
893.941	9606
894.064	9614
894.186	9488
894.308	9397
894.43	9587
894.552	9591
894.674	9542
894.796	9405
894.918	9302
895.04	9431
895.161	9386
895.283	9310
895.405	9291
895.526	9275
895.648	9188
895.769	9302
895.891	9241
896.012	9313
896.134	9245
896.255	9184
896.376	9161
896.498	9180
896.619	9142
896.74	9070
896.861	9055
896.982	9329
897.103	9340
897.224	9184
897.345	9100
897.466	8979
897.587	8971
897.708	9146
897.828	9085
897.949	9001
898.07	8838
898.19	8956
898.311	9039
898.431	8937
898.552	8918
898.672	8948
898.792	8960
898.913	8914
899.033	8777
899.153	8796
899.273	8636
899.393	8746
899.513	8758
899.633	8762
899.753	8811
899.873	8655
899.993	8659
900.113	8670
900.232	8724
900.352	8720
900.472	8636
900.591	8552
900.711	8606
900.83	8594
900.95	8613
901.069	8743
901.189	8552
901.308	8518
901.427	8461
901.546	8476
901.665	8522
901.784	8518
901.904	8358
902.023	8339
902.141	8324
902.26	8259
902.379	8233
902.498	8248
902.617	8183
902.735	8286
902.854	8259
902.973	8271
903.091	8161
903.21	8115
903.328	8161
903.446	8119
903.565	8062
903.683	8088
903.801	8001
903.919	8123
904.038	8221
904.156	8039
904.274	8084
904.392	8039
904.51	8081
904.627	8058
904.745	8081
904.863	8107
904.981	7959
905.098	7906
905.216	7852
905.334	8012
905.451	7871
905.569	7906
905.686	7944
905.803	7875
905.921	7811
906.038	7879
906.155	7788
906.272	7723
906.389	7761
906.506	7700
906.623	7636
906.74	7559
906.857	7540
906.974	7605
907.091	7613
907.208	7727
907.324	7685
907.441	7571
907.557	7518
907.674	7445
907.79	7441
907.907	7468
908.023	7487
908.139	7495
908.256	7369
908.372	7403
908.488	7400
908.604	7320
908.72	7217
908.836	7327
908.952	7270
909.068	7324
909.184	7316
909.3	7266
909.415	7266
909.531	7278
909.647	7183
909.762	7152
909.878	7099
909.993	7190
910.108	7137
910.224	7076
910.339	7126
910.454	7031
910.57	7012
910.685	6985
910.8	7198
910.915	7145
911.03	7019
911.145	6897
911.259	6856
911.374	6894
911.489	6867
911.604	6806
911.718	6791
911.833	6707
911.947	6692
912.062	6570
912.176	6703
912.291	6768
912.405	6684
912.519	6814
912.633	6852
912.748	6776
912.862	6696
912.976	6642
913.09	6601
913.204	6627
913.318	6650
913.431	6684
913.545	6734
913.659	6783
913.772	6662
913.886	6563
914	6597
914.113	6604
914.226	6635
914.34	6604
914.453	6532
914.566	6654
914.68	6551
914.793	6483
914.906	6433
915.019	6452
915.132	6357
915.245	6494
915.358	6486
915.47	6479
915.583	6486
915.696	6479
915.809	6563
915.921	6589
916.034	6391
916.146	6441
916.259	6365
916.371	6471
916.483	6452
916.595	6410
916.708	6464
916.82	6399
916.932	6426
917.044	6426
917.156	6429
917.268	6353
917.38	6338
917.491	6331
917.603	6369
917.715	6372
917.826	6460
917.938	6334
918.049	6228
918.161	6403
918.272	6410
918.384	6471
918.495	6365
918.606	6285
918.717	6273
918.828	6266
918.939	6292
919.05	6243
919.161	6300
919.272	6140
919.383	6209
919.494	6281
919.604	6441
919.715	6338
919.826	6254
919.936	6319
920.047	6384
920.157	6262
920.267	6483
920.378	6369
920.488	6346
920.598	6448
920.708	6513
920.818	6475
920.928	6464
921.038	6627
921.148	6608
921.258	6403
921.368	6346
921.477	6228
921.587	6232
921.697	6102
921.806	6243
921.916	6110
922.025	6011
922.134	5897
922.244	5942
922.353	5969
922.462	5882
922.571	5794
922.68	5703
922.789	5729
922.898	5688
923.007	5661
923.116	5741
923.224	5703
923.333	5657
923.442	5672
923.55	5623
923.659	5642
923.767	5638
923.876	5600
923.984	5566
924.092	5554
924.201	5585
924.309	5570
924.417	5520
924.525	5543
924.633	5524
924.741	6098
924.849	5379
924.956	5474
925.064	5406
925.172	5288
925.279	5265
925.387	5284
925.494	5311
925.602	5410
925.709	5383
925.816	5296
925.924	5364
926.031	5349
926.138	5273
926.245	5315
926.352	5273
926.459	5315
926.566	5349
926.673	5261
926.779	5185
926.886	5132
926.993	5029
927.099	5006
927.206	4953
927.312	4965
927.419	4987
927.525	4949
927.631	4968
927.737	4900
927.843	4911
927.95	4805
928.056	4873
928.162	4809
928.267	4854
928.373	5341
928.479	4850
928.585	4702
928.69	4759
928.796	4740
928.901	4714
929.007	4607
929.112	4668
929.218	4653
929.323	4664
929.428	4588
929.533	4656
929.638	4474
929.743	4519
929.848	4538
929.953	4500
930.058	4432
930.163	4386
930.267	4367
930.372	4436
930.477	4344
930.581	4535
930.685	4379
930.79	4268
930.894	4306
930.998	4234
931.103	4409
931.207	4166
931.311	4097
931.415	4078
931.519	3968
931.623	3972
