Data from glass_V78500241_286.txt Node
Date: Wed Sep 01 19:16:28 CST 2021
User: usil
Spectrometer: V785-0024
Trigger mode: 0
Integration Time (sec): 4.000000E-1
Scans to average: 1
Nonlinearity correction enabled: false
Boxcar width: 0
Storing dark spectrum: false
XAxis mode: Wavelengths
Number of Pixels in Spectrum: 1024
>>>>>Begin Spectral Data<<<<<
801.071	3751
801.214	3759
801.356	3720
801.499	3747
801.641	3797
801.783	3789
801.926	3873
802.068	3865
802.211	3876
802.353	3880
802.496	3831
802.638	3896
802.78	3903
802.923	3968
803.065	3880
803.208	3854
803.35	3918
803.492	3945
803.635	3922
803.777	3770
803.919	3911
804.061	4154
804.204	3968
804.346	3983
804.488	3930
804.63	4021
804.773	3964
804.915	4036
805.057	4166
805.199	4097
805.341	4154
805.483	4166
805.626	4124
805.768	4124
805.91	4227
806.052	4276
806.194	4181
806.336	4390
806.478	4215
806.62	4169
806.762	4185
806.904	4242
807.046	4356
807.188	4242
807.33	4207
807.472	4227
807.614	4169
807.756	4272
807.898	4249
808.04	4230
808.182	4284
808.324	4341
808.465	4375
808.607	4497
808.749	4432
808.891	4504
809.033	4466
809.174	4447
809.316	4272
809.458	4261
809.6	4090
809.741	4173
809.883	4150
810.025	4204
810.166	4223
810.308	4268
810.45	4234
810.591	4223
810.733	4303
810.875	4531
811.016	4850
811.158	5136
811.299	5307
811.441	5303
811.582	5098
811.724	4721
811.865	4497
812.007	4447
812.148	4436
812.29	4421
812.431	4436
812.573	4398
812.714	4417
812.855	4424
812.997	4455
813.138	4462
813.279	4424
813.421	4398
813.562	4360
813.703	4318
813.845	4322
813.986	4276
814.127	4234
814.268	4272
814.41	4333
814.551	4261
814.692	4306
814.833	4291
814.974	4314
815.115	4314
815.256	4280
815.397	4257
815.539	4295
815.68	4249
815.821	4227
815.962	4325
816.103	4268
816.244	4276
816.385	4261
816.526	4280
816.666	4253
816.807	4131
816.948	4177
817.089	4200
817.23	4211
817.371	4067
817.512	4082
817.653	4074
817.793	4055
817.934	4048
818.075	4112
818.216	4112
818.356	4082
818.497	3994
818.638	3907
818.778	3945
818.919	3918
819.06	3892
819.2	3937
819.341	3926
819.481	3835
819.622	3941
819.762	4048
819.903	3899
820.043	3861
820.184	3831
820.324	3800
820.465	3892
820.605	3857
820.746	3854
820.886	3831
821.026	3956
821.167	3926
821.307	4010
821.447	4071
821.588	3968
821.728	4013
821.868	3991
822.008	3876
822.149	3926
822.289	3907
822.429	3823
822.569	3740
822.709	3816
822.849	3663
822.99	3736
823.13	3747
823.27	3812
823.41	3747
823.55	3755
823.69	3740
823.83	3713
823.97	3671
824.11	3637
824.25	3614
824.389	3648
824.529	3690
824.669	3633
824.809	3736
824.949	3759
825.089	3751
825.228	3751
825.368	3568
825.508	3572
825.648	3572
825.787	3652
825.927	3663
826.067	3656
826.206	3679
826.346	3793
826.485	3842
826.625	3915
826.765	3964
826.904	3873
827.044	3618
827.183	3534
827.323	3458
827.462	3511
827.601	3454
827.741	3458
827.88	3488
828.02	3378
828.159	3416
828.298	3545
828.437	3542
828.577	3488
828.716	3633
828.855	3530
828.994	3416
829.134	3412
829.273	3431
829.412	3348
829.551	3374
829.69	3389
829.829	3454
829.968	3568
830.107	3447
830.246	3447
830.385	3340
830.524	3382
830.663	3348
830.802	3245
830.941	3203
831.08	3226
831.219	3287
831.357	3283
831.496	3412
831.635	3199
831.774	3203
831.913	3214
832.051	3108
832.19	3112
832.329	3207
832.467	3123
832.606	3123
832.744	3222
832.883	3211
833.022	3207
833.16	3264
833.299	3287
833.437	3348
833.576	3412
833.714	3435
833.852	3458
833.991	3485
834.129	3504
834.267	3481
834.406	3363
834.544	3420
834.682	3458
834.821	3466
834.959	3591
835.097	3450
835.235	3538
835.373	3485
835.511	3519
835.65	3450
835.788	3492
835.926	3412
836.064	3397
836.202	3420
836.34	3603
836.478	3610
836.615	3519
836.753	3603
836.891	3667
837.029	3606
837.167	3587
837.305	3545
837.443	3542
837.58	3504
837.718	3618
837.856	3553
837.993	3557
838.131	3599
838.269	3603
838.406	3614
838.544	3564
838.681	3477
838.819	3454
838.956	3367
839.094	3412
839.231	3462
839.369	3549
839.506	3724
839.643	3629
839.781	3496
839.918	3488
840.055	3511
840.193	3553
840.33	3561
840.467	3557
840.604	3648
840.742	3797
840.879	3572
841.016	3557
841.153	3603
841.29	3728
841.427	3698
841.564	3762
841.701	3785
841.838	3705
841.975	3762
842.112	3705
842.249	3660
842.385	3652
842.522	3896
842.659	3709
842.796	3732
842.933	3713
843.069	3747
843.206	3713
843.343	3861
843.479	3804
843.616	3850
843.752	3686
843.889	3679
844.025	3888
844.162	3709
844.298	3850
844.435	3762
844.571	3831
844.708	3926
844.844	3979
844.98	4051
845.117	4067
845.253	3934
845.389	3930
845.525	3968
845.661	3960
845.798	3991
845.934	4017
846.07	3979
846.206	4071
846.342	4177
846.478	4090
846.614	3975
846.75	3934
846.886	3949
847.022	4109
847.158	3972
847.294	3991
847.429	3998
847.565	4010
847.701	4200
847.837	3915
847.972	3892
848.108	4006
848.244	3972
848.379	3819
848.515	3778
848.65	3781
848.786	3861
848.921	3876
849.057	3964
849.192	3949
849.328	3896
849.463	3918
849.598	3899
849.734	3915
849.869	3865
850.004	3789
850.14	3888
850.275	3816
850.41	3713
850.545	3759
850.68	3800
850.815	3827
850.95	3781
851.085	3918
851.22	3873
851.355	3880
851.49	3789
851.625	3781
851.76	3812
851.895	3751
852.03	3740
852.165	3797
852.299	3861
852.434	3949
852.569	3846
852.703	3884
852.838	3960
852.973	3975
853.107	4051
853.242	3907
853.376	3892
853.511	3747
853.645	3812
853.78	3991
853.914	3915
854.048	3907
854.183	3884
854.317	3945
854.451	4071
854.585	3975
854.72	3998
854.854	4040
854.988	3907
855.122	4025
855.256	3930
855.39	4029
855.524	4101
855.658	4051
855.792	4120
855.926	4147
856.06	4200
856.194	4215
856.327	4162
856.461	4143
856.595	4177
856.729	4150
856.862	4287
856.996	4253
857.13	4291
857.263	4329
857.397	4356
857.53	4337
857.664	4295
857.797	4432
857.931	4413
858.064	4402
858.197	4447
858.331	4379
858.464	4421
858.597	4352
858.731	4462
858.864	4493
858.997	4459
859.13	4546
859.263	4603
859.396	4588
859.529	4531
859.662	4516
859.795	4519
859.928	4630
860.061	4679
860.194	4725
860.327	4683
860.46	4679
860.592	4691
860.725	4702
860.858	4782
860.99	4755
861.123	4691
861.256	4717
861.388	4748
861.521	5265
861.653	4733
861.786	4714
861.918	4733
862.05	4835
862.183	4828
862.315	4919
862.447	4968
862.58	4904
862.712	4793
862.844	4805
862.976	4900
863.108	4839
863.24	5299
863.372	4828
863.504	4938
863.636	4938
863.768	4987
863.9	4999
864.032	4942
864.164	4976
864.296	5014
864.428	5060
864.559	5143
864.691	5159
864.823	5109
864.954	5132
865.086	5166
865.217	5102
865.349	5105
865.48	5151
865.612	5147
865.743	5349
865.875	5261
866.006	5178
866.137	5277
866.269	5250
866.4	5269
866.531	5273
866.662	5246
866.793	5284
866.924	5307
867.055	5402
867.186	5334
867.317	5360
867.448	5345
867.579	5402
867.71	5395
867.841	5398
867.972	5429
868.103	5505
868.233	5532
868.364	5547
868.495	5585
868.625	5657
868.756	5790
868.886	5695
869.017	5752
869.147	5828
869.278	5866
869.408	5836
869.539	5840
869.669	5977
869.799	5931
869.929	6053
870.06	6030
870.19	6197
870.32	6197
870.45	6194
870.58	6308
870.71	6452
870.84	6445
870.97	6486
871.1	6403
871.23	6688
871.36	6711
871.489	6707
871.619	6764
871.749	6833
871.879	6901
872.008	6958
872.138	7038
872.267	7061
872.397	6973
872.526	7057
872.656	7107
872.785	7194
872.915	7339
873.044	7518
873.173	7658
873.303	7636
873.432	7761
873.561	7917
873.69	7852
873.819	8031
873.948	8138
874.077	8286
874.206	8317
874.335	8469
874.464	8739
874.593	8902
874.722	8933
874.851	9157
874.979	9287
875.108	9507
875.237	9481
875.365	9477
875.494	9686
875.623	9888
875.751	9770
875.88	10044
876.008	10090
876.136	10303
876.265	10550
876.393	10660
876.521	10748
876.65	10847
876.778	10923
876.906	10934
877.034	10999
877.162	11067
877.29	11113
877.418	11292
877.546	11364
877.674	11505
877.802	11474
877.93	11535
878.058	11493
878.185	11539
878.313	11634
878.441	11786
878.568	11646
878.696	11821
878.824	11840
878.951	11988
879.079	12011
879.206	12140
879.333	12034
879.461	12072
879.588	12159
879.715	11980
879.842	12152
879.97	12072
880.097	11843
880.224	11843
880.351	11851
880.478	11893
880.605	11783
880.732	11847
880.859	12087
880.986	11786
881.112	11893
881.239	11714
881.366	11589
881.493	11577
881.619	11528
881.746	11532
881.872	11505
881.999	11493
882.125	11482
882.252	11596
882.378	11524
882.505	11615
882.631	11444
882.757	11311
882.883	11376
883.01	11261
883.136	11227
883.262	11166
883.388	11075
883.514	11178
883.64	11143
883.766	11132
883.892	10961
884.018	10942
884.143	11121
884.269	11117
884.395	10896
884.52	10869
884.646	10812
884.772	10706
884.897	10679
885.023	10694
885.148	10755
885.274	10767
885.399	10759
885.524	10626
885.65	10569
885.775	10668
885.9	10558
886.025	10641
886.15	10512
886.275	10478
886.4	10413
886.525	10451
886.65	10333
886.775	10367
886.9	10489
887.025	10542
887.149	10360
887.274	10230
887.399	10207
887.523	10097
887.648	10169
887.773	10150
887.897	10230
888.021	10177
888.146	10196
888.27	10246
888.395	10268
888.519	10162
888.643	10196
888.767	10139
888.891	10063
889.015	9956
889.139	10002
889.263	9930
889.387	10071
889.511	10154
889.635	10055
889.759	9983
889.883	10044
890.006	9975
890.13	10086
890.254	10002
890.377	9934
890.501	9789
890.624	9812
890.748	9888
890.871	9850
890.995	9793
891.118	9819
891.241	9705
891.364	9762
891.488	9880
891.611	9812
891.734	9755
891.857	9720
891.98	9724
892.103	9800
892.226	9720
892.349	9671
892.471	9485
892.594	9656
892.717	9568
892.839	9576
892.962	9644
893.085	9637
893.207	9549
893.33	9515
893.452	9705
893.575	9656
893.697	9466
893.819	9656
893.941	9663
894.064	9648
894.186	9450
894.308	9477
894.43	9515
894.552	9564
894.674	9530
894.796	9431
894.918	9428
895.04	9340
895.161	9397
895.283	9374
895.405	9340
895.526	9283
895.648	9264
895.769	9260
895.891	9313
896.012	9310
896.134	9249
896.255	9207
896.376	9116
896.498	9119
896.619	9176
896.74	9116
896.861	9112
896.982	9336
897.103	9336
897.224	9233
897.345	9032
897.466	9036
897.587	9097
897.708	9074
897.828	9017
897.949	8944
898.07	8872
898.19	8906
898.311	9108
898.431	8933
898.552	8952
898.672	8994
898.792	8933
898.913	8929
899.033	8785
899.153	8769
899.273	8651
899.393	8712
899.513	8788
899.633	8727
899.753	8785
899.873	8659
899.993	8766
900.113	8697
900.232	8663
900.352	8674
900.472	8533
900.591	8602
900.711	8621
900.83	8571
900.95	8739
901.069	8712
901.189	8583
901.308	8461
901.427	8423
901.546	8385
901.665	8499
901.784	8514
901.904	8389
902.023	8328
902.141	8221
902.26	8180
902.379	8286
902.498	8214
902.617	8191
902.735	8324
902.854	8301
902.973	8301
903.091	8123
903.21	8164
903.328	8221
903.446	8111
903.565	8065
903.683	8100
903.801	8134
903.919	8103
904.038	8138
904.156	8020
904.274	8115
904.392	8058
904.51	8008
904.627	8065
904.745	8054
904.863	8130
904.981	7917
905.098	7814
905.216	7837
905.334	7875
905.451	7928
905.569	7845
905.686	7879
905.803	7978
905.921	7738
906.038	7883
906.155	7818
906.272	7765
906.389	7731
906.506	7628
906.623	7662
906.74	7624
906.857	7552
906.974	7578
907.091	7681
907.208	7750
907.324	7651
907.441	7575
907.557	7468
907.674	7476
907.79	7392
907.907	7396
908.023	7388
908.139	7453
908.256	7350
908.372	7415
908.488	7388
908.604	7293
908.72	7270
908.836	7293
908.952	7278
909.068	7228
909.184	7316
909.3	7285
909.415	7316
909.531	7362
909.647	7137
909.762	7149
909.878	7137
909.993	7137
910.108	7118
910.224	7088
910.339	7114
910.454	6993
910.57	7065
910.685	6970
910.8	7179
910.915	7126
911.03	6996
911.145	6913
911.259	6871
911.374	6878
911.489	6829
911.604	6810
911.718	6768
911.833	6768
911.947	6665
912.062	6650
912.176	6715
912.291	6745
912.405	6741
912.519	6852
912.633	6894
912.748	6745
912.862	6696
912.976	6635
913.09	6486
913.204	6566
913.318	6639
913.431	6639
913.545	6658
913.659	6722
913.772	6692
913.886	6513
914	6578
914.113	6608
914.226	6559
914.34	6570
914.453	6547
914.566	6612
914.68	6525
914.793	6517
914.906	6452
915.019	6388
915.132	6418
915.245	6494
915.358	6452
915.47	6460
915.583	6452
915.696	6494
915.809	6540
915.921	6589
916.034	6467
916.146	6426
916.259	6369
916.371	6509
916.483	6456
916.595	6384
916.708	6422
916.82	6418
916.932	6388
917.044	6384
917.156	6407
917.268	6315
917.38	6327
917.491	6300
917.603	6350
917.715	6418
917.826	6479
917.938	6350
918.049	6197
918.161	6395
918.272	6426
918.384	6399
918.495	6365
918.606	6197
918.717	6186
918.828	6251
918.939	6311
919.05	6247
919.161	6273
919.272	6159
919.383	6133
919.494	6323
919.604	6479
919.715	6292
919.826	6243
919.936	6285
920.047	6361
920.157	6262
920.267	6479
920.378	6365
920.488	6338
920.598	6502
920.708	6555
920.818	6509
920.928	6414
921.038	6616
921.148	6620
921.258	6369
921.368	6228
921.477	6235
921.587	6209
921.697	6091
921.806	6201
921.916	6076
922.025	5961
922.134	5923
922.244	5973
922.353	5961
922.462	5901
922.571	5832
922.68	5748
922.789	5741
922.898	5714
923.007	5600
923.116	5741
923.224	5676
923.333	5680
923.442	5672
923.55	5604
923.659	5623
923.767	5611
923.876	5558
923.984	5615
924.092	5520
924.201	5554
924.309	5577
924.417	5535
924.525	5463
924.633	5524
924.741	6239
924.849	5349
924.956	5497
925.064	5406
925.172	5307
925.279	5311
925.387	5368
925.494	5395
925.602	5406
925.709	5391
925.816	5330
925.924	5341
926.031	5349
926.138	5265
926.245	5303
926.352	5265
926.459	5318
926.566	5326
926.673	5231
926.779	5128
926.886	5159
926.993	5113
927.099	4984
927.206	4995
927.312	4965
927.419	5037
927.525	5010
927.631	4980
927.737	4919
927.843	4873
927.95	4786
928.056	4812
928.162	4816
928.267	4831
928.373	5239
928.479	4904
928.585	4736
928.69	4790
928.796	4755
928.901	4733
929.007	4626
929.112	4721
929.218	4675
929.323	4641
929.428	4618
929.533	4668
929.638	4481
929.743	4531
929.848	4558
929.953	4508
930.058	4443
930.163	4295
930.267	4405
930.372	4466
930.477	4306
930.581	4512
930.685	4424
930.79	4295
930.894	4268
930.998	4284
931.103	4432
931.207	4101
931.311	4063
931.415	4082
931.519	3926
931.623	3956
