Data from glass_V78500241_2480.txt Node
Date: Wed Sep 01 19:31:41 CST 2021
User: usil
Spectrometer: V785-0024
Trigger mode: 0
Integration Time (sec): 4.000000E-1
Scans to average: 1
Nonlinearity correction enabled: false
Boxcar width: 0
Storing dark spectrum: false
XAxis mode: Wavelengths
Number of Pixels in Spectrum: 1024
>>>>>Begin Spectral Data<<<<<
801.071	3751
801.214	3770
801.356	3698
801.499	3762
801.641	3747
801.783	3785
801.926	3838
802.068	3812
802.211	3857
802.353	3854
802.496	3800
802.638	3869
802.78	3922
802.923	3922
803.065	3873
803.208	3896
803.35	3861
803.492	3880
803.635	3854
803.777	3823
803.919	3892
804.061	4192
804.204	3968
804.346	3960
804.488	3926
804.63	3994
804.773	3949
804.915	4025
805.057	4131
805.199	4048
805.341	4120
805.483	4112
805.626	4147
805.768	4139
805.91	4204
806.052	4215
806.194	4246
806.336	4310
806.478	4196
806.62	4093
806.762	4207
806.904	4207
807.046	4322
807.188	4166
807.33	4207
807.472	4177
807.614	4162
807.756	4215
807.898	4196
808.04	4188
808.182	4268
808.324	4299
808.465	4394
808.607	4428
808.749	4489
808.891	4462
809.033	4508
809.174	4363
809.316	4223
809.458	4204
809.6	4109
809.741	4154
809.883	4078
810.025	4230
810.166	4150
810.308	4234
810.45	4211
810.591	4173
810.733	4265
810.875	4493
811.016	4797
811.158	5128
811.299	5246
811.441	5250
811.582	5018
811.724	4744
811.865	4447
812.007	4462
812.148	4386
812.29	4394
812.431	4379
812.573	4348
812.714	4344
812.855	4421
812.997	4417
813.138	4478
813.279	4424
813.421	4375
813.562	4344
813.703	4333
813.845	4325
813.986	4287
814.127	4246
814.268	4249
814.41	4318
814.551	4272
814.692	4322
814.833	4280
814.974	4272
815.115	4280
815.256	4261
815.397	4227
815.539	4257
815.68	4173
815.821	4204
815.962	4295
816.103	4291
816.244	4238
816.385	4238
816.526	4287
816.666	4185
816.807	4109
816.948	4181
817.089	4158
817.23	4128
817.371	4006
817.512	4040
817.653	4040
817.793	3998
817.934	4013
818.075	4116
818.216	4071
818.356	4067
818.497	4044
818.638	3941
818.778	3915
818.919	3896
819.06	3896
819.2	3911
819.341	3804
819.481	3850
819.622	3888
819.762	3979
819.903	3972
820.043	3888
820.184	3797
820.324	3793
820.465	3888
820.605	3842
820.746	3873
820.886	3797
821.026	3941
821.167	3907
821.307	3949
821.447	3937
821.588	3926
821.728	3903
821.868	3945
822.008	3846
822.149	3876
822.289	3911
822.429	3785
822.569	3778
822.709	3747
822.849	3751
822.99	3671
823.13	3724
823.27	3785
823.41	3705
823.55	3690
823.69	3736
823.83	3709
823.97	3720
824.11	3622
824.25	3587
824.389	3629
824.529	3675
824.669	3625
824.809	3694
824.949	3709
825.089	3728
825.228	3686
825.368	3580
825.508	3580
825.648	3538
825.787	3606
825.927	3595
826.067	3622
826.206	3644
826.346	3759
826.485	3804
826.625	3838
826.765	3949
826.904	3819
827.044	3603
827.183	3549
827.323	3389
827.462	3507
827.601	3389
827.741	3386
827.88	3431
828.02	3363
828.159	3409
828.298	3481
828.437	3496
828.577	3439
828.716	3587
828.855	3469
828.994	3367
829.134	3355
829.273	3405
829.412	3348
829.551	3336
829.69	3325
829.829	3409
829.968	3530
830.107	3462
830.246	3431
830.385	3397
830.524	3351
830.663	3291
830.802	3272
830.941	3169
831.08	3192
831.219	3214
831.357	3260
831.496	3428
831.635	3249
831.774	3211
831.913	3199
832.051	3138
832.19	3131
832.329	3237
832.467	3142
832.606	3100
832.744	3123
832.883	3154
833.022	3157
833.16	3245
833.299	3241
833.437	3336
833.576	3367
833.714	3370
833.852	3428
833.991	3424
834.129	3481
834.267	3443
834.406	3389
834.544	3412
834.682	3409
834.821	3416
834.959	3561
835.097	3401
835.235	3511
835.373	3488
835.511	3492
835.65	3431
835.788	3485
835.926	3389
836.064	3367
836.202	3412
836.34	3591
836.478	3679
836.615	3504
836.753	3599
836.891	3622
837.029	3584
837.167	3599
837.305	3534
837.443	3572
837.58	3454
837.718	3591
837.856	3564
837.993	3561
838.131	3599
838.269	3553
838.406	3568
838.544	3587
838.681	3450
838.819	3443
838.956	3374
839.094	3393
839.231	3439
839.369	3545
839.506	3679
839.643	3629
839.781	3454
839.918	3496
840.055	3534
840.193	3473
840.33	3519
840.467	3526
840.604	3568
840.742	3759
840.879	3576
841.016	3511
841.153	3587
841.29	3774
841.427	3705
841.564	3690
841.701	3751
841.838	3690
841.975	3633
842.112	3720
842.249	3603
842.385	3641
842.522	3827
842.659	3682
842.796	3641
842.933	3686
843.069	3663
843.206	3686
843.343	3789
843.479	3785
843.616	3800
843.752	3629
843.889	3633
844.025	3888
844.162	3743
844.298	3823
844.435	3812
844.571	3762
844.708	3888
844.844	3994
844.98	4002
845.117	4025
845.253	3911
845.389	3869
845.525	3922
845.661	3960
845.798	3892
845.934	3994
846.07	3964
846.206	4044
846.342	4067
846.478	4029
846.614	3953
846.75	3945
846.886	3911
847.022	3991
847.158	3945
847.294	4010
847.429	4010
847.565	3953
847.701	4268
847.837	3838
847.972	3854
848.108	3953
848.244	3926
848.379	3789
848.515	3800
848.65	3842
848.786	3846
848.921	3873
849.057	3903
849.192	3907
849.328	3907
849.463	3979
849.598	3888
849.734	3827
849.869	3816
850.004	3743
850.14	3759
850.275	3759
850.41	3743
850.545	3740
850.68	3751
850.815	3774
850.95	3797
851.085	3922
851.22	3865
851.355	3819
851.49	3774
851.625	3785
851.76	3774
851.895	3736
852.03	3751
852.165	3804
852.299	3816
852.434	3911
852.569	3854
852.703	3873
852.838	3949
852.973	3949
853.107	4006
853.242	3850
853.376	3838
853.511	3762
853.645	3835
853.78	3937
853.914	3876
854.048	3861
854.183	3880
854.317	3956
854.451	3991
854.585	3953
854.72	3896
854.854	4017
854.988	3930
855.122	3964
855.256	3899
855.39	4059
855.524	4109
855.658	4074
855.792	4105
855.926	4097
856.06	4116
856.194	4196
856.327	4116
856.461	4067
856.595	4124
856.729	4139
856.862	4253
856.996	4223
857.13	4265
857.263	4333
857.397	4379
857.53	4306
857.664	4310
857.797	4386
857.931	4398
858.064	4413
858.197	4443
858.331	4443
858.464	4356
858.597	4356
858.731	4455
858.864	4428
858.997	4451
859.13	4504
859.263	4508
859.396	4554
859.529	4538
859.662	4569
859.795	4531
859.928	4607
860.061	4653
860.194	4733
860.327	4653
860.46	4634
860.592	4721
860.725	4786
860.858	4710
860.99	4637
861.123	4649
861.256	4740
861.388	4725
861.521	5501
861.653	4702
861.786	4721
861.918	4729
862.05	4790
862.183	4782
862.315	4877
862.447	4911
862.58	4900
862.712	4805
862.844	4729
862.976	4862
863.108	4847
863.24	5242
863.372	4778
863.504	4881
863.636	4942
863.768	5010
863.9	4885
864.032	4934
864.164	4953
864.296	5071
864.428	5060
864.559	5105
864.691	5147
864.823	5113
864.954	5079
865.086	5140
865.217	5121
865.349	5071
865.48	5159
865.612	5178
865.743	5246
865.875	5235
866.006	5204
866.137	5208
866.269	5216
866.4	5273
866.531	5147
866.662	5216
866.793	5280
866.924	5307
867.055	5360
867.186	5315
867.317	5296
867.448	5288
867.579	5337
867.71	5368
867.841	5395
867.972	5478
868.103	5463
868.233	5429
868.364	5493
868.495	5528
868.625	5684
868.756	5790
868.886	5691
869.017	5821
869.147	5870
869.278	5809
869.408	5821
869.539	5802
869.669	5931
869.799	5904
869.929	5961
870.06	5984
870.19	6152
870.32	6205
870.45	6247
870.58	6327
870.71	6437
870.84	6471
870.97	6384
871.1	6437
871.23	6620
871.36	6665
871.489	6692
871.619	6741
871.749	6749
871.879	6810
872.008	6920
872.138	6981
872.267	7050
872.397	6970
872.526	7038
872.656	7126
872.785	7175
872.915	7346
873.044	7491
873.173	7552
873.303	7624
873.432	7761
873.561	7902
873.69	7852
873.819	7978
873.948	8107
874.077	8210
874.206	8370
874.335	8503
874.464	8629
874.593	8849
874.722	8891
874.851	9135
874.979	9138
875.108	9344
875.237	9462
875.365	9496
875.494	9660
875.623	9831
875.751	9873
875.88	10025
876.008	10120
876.136	10246
876.265	10531
876.393	10664
876.521	10740
876.65	10873
876.778	10919
876.906	10869
877.034	11014
877.162	11105
877.29	11102
877.418	11258
877.546	11273
877.674	11448
877.802	11528
877.93	11532
878.058	11600
878.185	11520
878.313	11676
878.441	11779
878.568	11585
878.696	11824
878.824	11790
878.951	11870
879.079	12121
879.206	12057
879.333	12011
879.461	11920
879.588	12117
879.715	12079
879.842	12205
879.97	12041
880.097	11874
880.224	11893
880.351	11817
880.478	11950
880.605	11893
880.732	11805
880.859	11939
880.986	11798
881.112	11863
881.239	11707
881.366	11714
881.493	11619
881.619	11490
881.746	11581
881.872	11512
881.999	11482
882.125	11478
882.252	11505
882.378	11539
882.505	11524
882.631	11356
882.757	11356
882.883	11330
883.01	11258
883.136	11189
883.262	11010
883.388	11060
883.514	11151
883.64	11166
883.766	11132
883.892	10927
884.018	11014
884.143	10999
884.269	11102
884.395	10828
884.52	10771
884.646	10763
884.772	10725
884.897	10641
885.023	10672
885.148	10683
885.274	10702
885.399	10615
885.524	10558
885.65	10580
885.775	10611
885.9	10580
886.025	10668
886.15	10466
886.275	10398
886.4	10386
886.525	10402
886.65	10360
886.775	10310
886.9	10402
887.025	10596
887.149	10333
887.274	10223
887.399	10261
887.523	10200
887.648	10150
887.773	10139
887.897	10204
888.021	10207
888.146	10082
888.27	10207
888.395	10207
888.519	10196
888.643	10211
888.767	10109
888.891	10116
889.015	10074
889.139	9949
889.263	9972
889.387	10074
889.511	10071
889.635	10051
889.759	9937
889.883	9979
890.006	9972
890.13	10093
890.254	9964
890.377	9918
890.501	9838
890.624	9789
890.748	9911
890.871	9770
890.995	9793
891.118	9698
891.241	9797
891.364	9728
891.488	9770
891.611	9747
891.734	9774
891.857	9667
891.98	9667
892.103	9808
892.226	9766
892.349	9618
892.471	9507
892.594	9534
892.717	9713
892.839	9614
892.962	9633
893.085	9641
893.207	9629
893.33	9511
893.452	9538
893.575	9591
893.697	9534
893.819	9633
893.941	9576
894.064	9553
894.186	9447
894.308	9389
894.43	9534
894.552	9507
894.674	9504
894.796	9408
894.918	9317
895.04	9313
895.161	9306
895.283	9310
895.405	9203
895.526	9207
895.648	9222
895.769	9207
895.891	9249
896.012	9237
896.134	9161
896.255	9131
896.376	9138
896.498	9135
896.619	9192
896.74	9009
896.861	9138
896.982	9249
897.103	9260
897.224	9112
897.345	9097
897.466	8986
897.587	8967
897.708	9104
897.828	8967
897.949	8986
898.07	8826
898.19	8887
898.311	8960
898.431	8864
898.552	8902
898.672	8948
898.792	8910
898.913	8918
899.033	8796
899.153	8693
899.273	8659
899.393	8655
899.513	8739
899.633	8735
899.753	8701
899.873	8735
899.993	8716
900.113	8663
900.232	8708
900.352	8708
900.472	8632
900.591	8579
900.711	8526
900.83	8533
900.95	8606
901.069	8716
901.189	8606
901.308	8457
901.427	8381
901.546	8438
901.665	8431
901.784	8484
901.904	8301
902.023	8358
902.141	8263
902.26	8229
902.379	8317
902.498	8180
902.617	8240
902.735	8324
902.854	8290
902.973	8237
903.091	8123
903.21	8149
903.328	8191
903.446	8100
903.565	8020
903.683	8058
903.801	8027
903.919	8115
904.038	8119
904.156	8012
904.274	8069
904.392	8035
904.51	8027
904.627	8039
904.745	8138
904.863	8039
904.981	7887
905.098	7860
905.216	7898
905.334	7871
905.451	7868
905.569	7799
905.686	7925
905.803	7814
905.921	7772
906.038	7837
906.155	7795
906.272	7753
906.389	7670
906.506	7601
906.623	7601
906.74	7563
906.857	7594
906.974	7544
907.091	7693
907.208	7689
907.324	7609
907.441	7514
907.557	7415
907.674	7460
907.79	7422
907.907	7388
908.023	7445
908.139	7468
908.256	7316
908.372	7384
908.488	7343
908.604	7308
908.72	7183
908.836	7263
908.952	7194
909.068	7225
909.184	7297
909.3	7274
909.415	7236
909.531	7301
909.647	7183
909.762	7080
909.878	7057
909.993	7076
910.108	7095
910.224	7107
910.339	7088
910.454	7027
910.57	7004
910.685	6954
910.8	7190
910.915	7133
911.03	7027
911.145	6958
911.259	6894
911.374	6886
911.489	6848
911.604	6802
911.718	6692
911.833	6738
911.947	6639
912.062	6601
912.176	6665
912.291	6760
912.405	6669
912.519	6779
912.633	6802
912.748	6677
912.862	6707
912.976	6597
913.09	6506
913.204	6559
913.318	6616
913.431	6623
913.545	6722
913.659	6711
913.772	6597
913.886	6566
914	6642
914.113	6631
914.226	6665
914.34	6536
914.453	6467
914.566	6601
914.68	6509
914.793	6540
914.906	6384
915.019	6388
915.132	6391
915.245	6437
915.358	6464
915.47	6433
915.583	6437
915.696	6433
915.809	6513
915.921	6506
916.034	6395
916.146	6445
916.259	6380
916.371	6403
916.483	6410
916.595	6391
916.708	6369
916.82	6357
916.932	6357
917.044	6414
917.156	6403
917.268	6338
917.38	6304
917.491	6258
917.603	6346
917.715	6361
917.826	6376
917.938	6300
918.049	6266
918.161	6308
918.272	6445
918.384	6437
918.495	6292
918.606	6254
918.717	6209
918.828	6266
918.939	6289
919.05	6178
919.161	6190
919.272	6163
919.383	6140
919.494	6247
919.604	6422
919.715	6289
919.826	6186
919.936	6243
920.047	6323
920.157	6300
920.267	6437
920.378	6353
920.488	6319
920.598	6429
920.708	6559
920.818	6452
920.928	6494
921.038	6623
921.148	6555
921.258	6350
921.368	6300
921.477	6266
921.587	6190
921.697	6068
921.806	6201
921.916	6098
922.025	5920
922.134	5882
922.244	5901
922.353	5939
922.462	5851
922.571	5790
922.68	5714
922.789	5680
922.898	5684
923.007	5604
923.116	5668
923.224	5665
923.333	5646
923.442	5600
923.55	5562
923.659	5551
923.767	5657
923.876	5501
923.984	5566
924.092	5512
924.201	5539
924.309	5539
924.417	5512
924.525	5478
924.633	5501
924.741	6091
924.849	5398
924.956	5474
925.064	5349
925.172	5242
925.279	5337
925.387	5391
925.494	5360
925.602	5406
925.709	5376
925.816	5311
925.924	5277
926.031	5337
926.138	5239
926.245	5307
926.352	5216
926.459	5292
926.566	5280
926.673	5178
926.779	5147
926.886	5102
926.993	5056
927.099	4980
927.206	4968
927.312	4984
927.419	5014
927.525	4984
927.631	4953
927.737	4854
927.843	4900
927.95	4793
928.056	4858
928.162	4801
928.267	4790
928.373	5284
928.479	4835
928.585	4615
928.69	4793
928.796	4782
928.901	4664
929.007	4596
929.112	4687
929.218	4645
929.323	4596
929.428	4523
929.533	4649
929.638	4504
929.743	4508
929.848	4558
929.953	4500
930.058	4440
930.163	4322
930.267	4344
930.372	4409
930.477	4295
930.581	4436
930.685	4299
930.79	4246
930.894	4299
930.998	4223
931.103	4413
931.207	4128
931.311	4051
931.415	3994
931.519	3922
931.623	3926
