Data from glass_V78500241_2151.txt Node
Date: Wed Sep 01 19:29:24 CST 2021
User: usil
Spectrometer: V785-0024
Trigger mode: 0
Integration Time (sec): 4.000000E-1
Scans to average: 1
Nonlinearity correction enabled: false
Boxcar width: 0
Storing dark spectrum: false
XAxis mode: Wavelengths
Number of Pixels in Spectrum: 1024
>>>>>Begin Spectral Data<<<<<
801.071	3717
801.214	3732
801.356	3701
801.499	3705
801.641	3713
801.783	3789
801.926	3865
802.068	3793
802.211	3793
802.353	3888
802.496	3865
802.638	3865
802.78	3888
802.923	3918
803.065	3846
803.208	3857
803.35	3892
803.492	3903
803.635	3903
803.777	3770
803.919	3903
804.061	4158
804.204	3945
804.346	3953
804.488	3888
804.63	4029
804.773	3960
804.915	4006
805.057	4112
805.199	4006
805.341	4078
805.483	4143
805.626	4116
805.768	4093
805.91	4223
806.052	4192
806.194	4211
806.336	4360
806.478	4196
806.62	4185
806.762	4200
806.904	4257
807.046	4352
807.188	4200
807.33	4143
807.472	4200
807.614	4166
807.756	4253
807.898	4219
808.04	4185
808.182	4287
808.324	4303
808.465	4318
808.607	4535
808.749	4512
808.891	4428
809.033	4462
809.174	4394
809.316	4215
809.458	4223
809.6	4154
809.741	4097
809.883	4185
810.025	4166
810.166	4219
810.308	4204
810.45	4284
810.591	4287
810.733	4322
810.875	4481
811.016	4828
811.158	5117
811.299	5254
811.441	5273
811.582	5056
811.724	4725
811.865	4421
812.007	4428
812.148	4424
812.29	4428
812.431	4462
812.573	4383
812.714	4379
812.855	4424
812.997	4394
813.138	4470
813.279	4398
813.421	4424
813.562	4371
813.703	4310
813.845	4299
813.986	4284
814.127	4211
814.268	4238
814.41	4306
814.551	4215
814.692	4329
814.833	4211
814.974	4287
815.115	4356
815.256	4265
815.397	4227
815.539	4280
815.68	4204
815.821	4196
815.962	4276
816.103	4261
816.244	4246
816.385	4215
816.526	4276
816.666	4215
816.807	4097
816.948	4200
817.089	4181
817.23	4097
817.371	4078
817.512	4067
817.653	4086
817.793	4051
817.934	4051
818.075	4063
818.216	4116
818.356	4093
818.497	3991
818.638	3903
818.778	3903
818.919	3907
819.06	3873
819.2	3888
819.341	3884
819.481	3827
819.622	3911
819.762	4010
819.903	3911
820.043	3857
820.184	3819
820.324	3827
820.465	3869
820.605	3846
820.746	3869
820.886	3816
821.026	3945
821.167	3918
821.307	3991
821.447	3998
821.588	3892
821.728	3972
821.868	3907
822.008	3831
822.149	3899
822.289	3964
822.429	3778
822.569	3774
822.709	3709
822.849	3720
822.99	3717
823.13	3755
823.27	3797
823.41	3694
823.55	3720
823.69	3724
823.83	3717
823.97	3660
824.11	3625
824.25	3629
824.389	3614
824.529	3663
824.669	3606
824.809	3679
824.949	3717
825.089	3698
825.228	3705
825.368	3564
825.508	3553
825.648	3545
825.787	3614
825.927	3629
826.067	3625
826.206	3618
826.346	3800
826.485	3804
826.625	3896
826.765	3941
826.904	3873
827.044	3652
827.183	3496
827.323	3439
827.462	3515
827.601	3439
827.741	3424
827.88	3462
828.02	3389
828.159	3431
828.298	3500
828.437	3504
828.577	3492
828.716	3591
828.855	3447
828.994	3348
829.134	3359
829.273	3355
829.412	3409
829.551	3332
829.69	3340
829.829	3439
829.968	3523
830.107	3416
830.246	3450
830.385	3382
830.524	3344
830.663	3310
830.802	3249
830.941	3188
831.08	3165
831.219	3287
831.357	3253
831.496	3416
831.635	3237
831.774	3195
831.913	3176
832.051	3093
832.19	3165
832.329	3169
832.467	3100
832.606	3077
832.744	3161
832.883	3199
833.022	3169
833.16	3275
833.299	3317
833.437	3332
833.576	3317
833.714	3367
833.852	3409
833.991	3424
834.129	3485
834.267	3462
834.406	3389
834.544	3454
834.682	3435
834.821	3393
834.959	3568
835.097	3431
835.235	3523
835.373	3450
835.511	3511
835.65	3466
835.788	3485
835.926	3405
836.064	3378
836.202	3370
836.34	3561
836.478	3603
836.615	3519
836.753	3587
836.891	3610
837.029	3584
837.167	3568
837.305	3553
837.443	3523
837.58	3545
837.718	3584
837.856	3523
837.993	3553
838.131	3606
838.269	3572
838.406	3595
838.544	3542
838.681	3492
838.819	3435
838.956	3382
839.094	3378
839.231	3466
839.369	3504
839.506	3698
839.643	3595
839.781	3477
839.918	3450
840.055	3504
840.193	3584
840.33	3542
840.467	3561
840.604	3587
840.742	3781
840.879	3549
841.016	3591
841.153	3622
841.29	3740
841.427	3728
841.564	3698
841.701	3694
841.838	3644
841.975	3671
842.112	3690
842.249	3656
842.385	3656
842.522	3793
842.659	3698
842.796	3667
842.933	3732
843.069	3671
843.206	3690
843.343	3785
843.479	3808
843.616	3846
843.752	3637
843.889	3641
844.025	3850
844.162	3732
844.298	3823
844.435	3808
844.571	3781
844.708	3930
844.844	3953
844.98	3987
845.117	4010
845.253	3934
845.389	3903
845.525	3937
845.661	3930
845.798	3903
845.934	4017
846.07	3960
846.206	4078
846.342	4135
846.478	4067
846.614	3983
846.75	3918
846.886	3918
847.022	4013
847.158	3945
847.294	3964
847.429	3956
847.565	4006
847.701	4246
847.837	3876
847.972	3831
848.108	4006
848.244	3949
848.379	3842
848.515	3812
848.65	3797
848.786	3816
848.921	3873
849.057	3861
849.192	3896
849.328	3869
849.463	3892
849.598	3857
849.734	3823
849.869	3808
850.004	3781
850.14	3819
850.275	3778
850.41	3728
850.545	3736
850.68	3797
850.815	3819
850.95	3797
851.085	3922
851.22	3857
851.355	3812
851.49	3781
851.625	3808
851.76	3770
851.895	3743
852.03	3724
852.165	3835
852.299	3800
852.434	3884
852.569	3842
852.703	3854
852.838	3968
852.973	3991
853.107	3937
853.242	3876
853.376	3842
853.511	3747
853.645	3827
853.78	3960
853.914	3880
854.048	3922
854.183	3884
854.317	3922
854.451	4105
854.585	3949
854.72	3960
854.854	3994
854.988	3972
855.122	3991
855.256	3876
855.39	4051
855.524	4112
855.658	4071
855.792	4128
855.926	4124
856.06	4204
856.194	4147
856.327	4105
856.461	4082
856.595	4101
856.729	4166
856.862	4223
856.996	4242
857.13	4314
857.263	4337
857.397	4341
857.53	4322
857.664	4398
857.797	4421
857.931	4409
858.064	4394
858.197	4455
858.331	4413
858.464	4363
858.597	4333
858.731	4451
858.864	4440
858.997	4455
859.13	4546
859.263	4497
859.396	4573
859.529	4535
859.662	4535
859.795	4500
859.928	4577
860.061	4664
860.194	4698
860.327	4668
860.46	4672
860.592	4729
860.725	4763
860.858	4740
860.99	4691
861.123	4717
861.256	4656
861.388	4759
861.521	5440
861.653	4725
861.786	4721
861.918	4759
862.05	4778
862.183	4824
862.315	4835
862.447	4915
862.58	4854
862.712	4774
862.844	4744
862.976	4877
863.108	4919
863.24	5143
863.372	4858
863.504	4870
863.636	4892
863.768	4942
863.9	4987
864.032	4908
864.164	4953
864.296	4987
864.428	5037
864.559	5067
864.691	5121
864.823	5132
864.954	5071
865.086	5147
865.217	5132
865.349	5094
865.48	5166
865.612	5151
865.743	5258
865.875	5155
866.006	5185
866.137	5250
866.269	5258
866.4	5246
866.531	5223
866.662	5242
866.793	5227
866.924	5292
867.055	5357
867.186	5307
867.317	5311
867.448	5265
867.579	5322
867.71	5341
867.841	5444
867.972	5471
868.103	5417
868.233	5509
868.364	5532
868.495	5611
868.625	5657
868.756	5790
868.886	5653
869.017	5775
869.147	5870
869.278	5844
869.408	5775
869.539	5828
869.669	5874
869.799	5893
869.929	6022
870.06	6068
870.19	6159
870.32	6216
870.45	6247
870.58	6353
870.71	6384
870.84	6437
870.97	6433
871.1	6456
871.23	6574
871.36	6707
871.489	6703
871.619	6719
871.749	6806
871.879	6859
872.008	6981
872.138	6951
872.267	6993
872.397	6989
872.526	7019
872.656	7019
872.785	7240
872.915	7369
873.044	7556
873.173	7556
873.303	7670
873.432	7734
873.561	7837
873.69	7883
873.819	7974
873.948	8168
874.077	8240
874.206	8358
874.335	8423
874.464	8587
874.593	8883
874.722	8937
874.851	9093
874.979	9237
875.108	9382
875.237	9447
875.365	9477
875.494	9663
875.623	9759
875.751	9827
875.88	10013
876.008	10154
876.136	10246
876.265	10478
876.393	10702
876.521	10714
876.65	10839
876.778	10778
876.906	10953
877.034	10972
877.162	11098
877.29	11124
877.418	11258
877.546	11406
877.674	11429
877.802	11459
877.93	11520
878.058	11524
878.185	11551
878.313	11589
878.441	11775
878.568	11623
878.696	11832
878.824	11901
878.951	11885
879.079	11977
879.206	12087
879.333	11969
879.461	11950
879.588	12045
879.715	12068
879.842	12216
879.97	12030
880.097	11942
880.224	11901
880.351	11847
880.478	11863
880.605	11786
880.732	11863
880.859	12022
880.986	11889
881.112	11863
881.239	11699
881.366	11592
881.493	11570
881.619	11573
881.746	11577
881.872	11535
881.999	11490
882.125	11509
882.252	11547
882.378	11463
882.505	11535
882.631	11398
882.757	11337
882.883	11318
883.01	11254
883.136	11197
883.262	11071
883.388	11185
883.514	11117
883.64	11189
883.766	11197
883.892	10942
884.018	10984
884.143	10987
884.269	11140
884.395	10877
884.52	10809
884.646	10759
884.772	10714
884.897	10653
885.023	10698
885.148	10702
885.274	10752
885.399	10729
885.524	10607
885.65	10641
885.775	10580
885.9	10455
886.025	10569
886.15	10618
886.275	10413
886.4	10348
886.525	10489
886.65	10386
886.775	10329
886.9	10455
887.025	10478
887.149	10341
887.274	10227
887.399	10185
887.523	10162
887.648	10162
887.773	10147
887.897	10200
888.021	10173
888.146	10158
888.27	10230
888.395	10215
888.519	10177
888.643	10169
888.767	10238
888.891	10124
889.015	9934
889.139	9987
889.263	9949
889.387	10150
889.511	10063
889.635	10116
889.759	9937
889.883	9880
890.006	10002
890.13	10071
890.254	9941
890.377	9941
890.501	9846
890.624	9850
890.748	9850
890.871	9766
890.995	9709
891.118	9797
891.241	9789
891.364	9755
891.488	9899
891.611	9747
891.734	9747
891.857	9736
891.98	9698
892.103	9740
892.226	9671
892.349	9698
892.471	9511
892.594	9606
892.717	9603
892.839	9591
892.962	9584
893.085	9618
893.207	9469
893.33	9458
893.452	9500
893.575	9675
893.697	9553
893.819	9622
893.941	9603
894.064	9625
894.186	9447
894.308	9428
894.43	9549
894.552	9561
894.674	9439
894.796	9374
894.918	9374
895.04	9348
895.161	9367
895.283	9321
895.405	9260
895.526	9268
895.648	9245
895.769	9207
895.891	9298
896.012	9298
896.134	9268
896.255	9097
896.376	9070
896.498	9199
896.619	9123
896.74	9093
896.861	9104
896.982	9226
897.103	9249
897.224	9245
897.345	9104
897.466	8990
897.587	9024
897.708	9062
897.828	9108
897.949	8982
898.07	8807
898.19	8921
898.311	8971
898.431	8883
898.552	8891
898.672	8921
898.792	8986
898.913	8914
899.033	8838
899.153	8697
899.273	8629
899.393	8785
899.513	8724
899.633	8750
899.753	8773
899.873	8674
899.993	8724
900.113	8720
900.232	8636
900.352	8587
900.472	8587
900.591	8556
900.711	8602
900.83	8507
900.95	8640
901.069	8667
901.189	8545
901.308	8412
901.427	8339
901.546	8480
901.665	8533
901.784	8518
901.904	8328
902.023	8305
902.141	8218
902.26	8214
902.379	8172
902.498	8244
902.617	8149
902.735	8347
902.854	8279
902.973	8229
903.091	8081
903.21	8145
903.328	8176
903.446	8145
903.565	8012
903.683	8126
903.801	8050
903.919	8077
904.038	8145
904.156	8024
904.274	8050
904.392	8058
904.51	8016
904.627	8058
904.745	8054
904.863	8107
904.981	7852
905.098	7826
905.216	7811
905.334	7902
905.451	7887
905.569	7883
905.686	7940
905.803	7894
905.921	7784
906.038	7871
906.155	7761
906.272	7734
906.389	7750
906.506	7616
906.623	7712
906.74	7613
906.857	7559
906.974	7559
907.091	7685
907.208	7738
907.324	7662
907.441	7628
907.557	7438
907.674	7438
907.79	7468
907.907	7434
908.023	7407
908.139	7468
908.256	7369
908.372	7316
908.488	7392
908.604	7301
908.72	7160
908.836	7225
908.952	7209
909.068	7259
909.184	7350
909.3	7263
909.415	7278
909.531	7312
909.647	7168
909.762	7122
909.878	7031
909.993	7164
910.108	7080
910.224	7088
910.339	7122
910.454	7034
910.57	7023
910.685	6973
910.8	7171
910.915	7061
911.03	7069
911.145	6920
911.259	6882
911.374	6875
911.489	6795
911.604	6764
911.718	6707
911.833	6798
911.947	6658
912.062	6574
912.176	6662
912.291	6684
912.405	6688
912.519	6810
912.633	6798
912.748	6738
912.862	6677
912.976	6658
913.09	6506
913.204	6578
913.318	6623
913.431	6692
913.545	6631
913.659	6700
913.772	6627
913.886	6608
914	6635
914.113	6509
914.226	6627
914.34	6623
914.453	6486
914.566	6604
914.68	6494
914.793	6498
914.906	6399
915.019	6403
915.132	6388
915.245	6399
915.358	6441
915.47	6456
915.583	6437
915.696	6407
915.809	6555
915.921	6604
916.034	6376
916.146	6426
916.259	6426
916.371	6467
916.483	6395
916.595	6395
916.708	6372
916.82	6353
916.932	6369
917.044	6361
917.156	6418
917.268	6369
917.38	6323
917.491	6323
917.603	6369
917.715	6365
917.826	6445
917.938	6300
918.049	6270
918.161	6292
918.272	6403
918.384	6448
918.495	6384
918.606	6235
918.717	6197
918.828	6205
918.939	6251
919.05	6194
919.161	6186
919.272	6121
919.383	6144
919.494	6327
919.604	6319
919.715	6266
919.826	6247
919.936	6216
920.047	6319
920.157	6270
920.267	6410
920.378	6350
920.488	6270
920.598	6452
920.708	6513
920.818	6456
920.928	6410
921.038	6582
921.148	6502
921.258	6361
921.368	6239
921.477	6167
921.587	6159
921.697	6064
921.806	6091
921.916	6106
922.025	5855
922.134	5855
922.244	5908
922.353	5904
922.462	5855
922.571	5832
922.68	5699
922.789	5691
922.898	5684
923.007	5604
923.116	5649
923.224	5707
923.333	5619
923.442	5566
923.55	5539
923.659	5608
923.767	5630
923.876	5562
923.984	5562
924.092	5444
924.201	5570
924.309	5512
924.417	5539
924.525	5444
924.633	5455
924.741	6300
924.849	5349
924.956	5486
925.064	5296
925.172	5334
925.279	5277
925.387	5349
925.494	5330
925.602	5444
925.709	5360
925.816	5261
925.924	5330
926.031	5334
926.138	5330
926.245	5330
926.352	5216
926.459	5315
926.566	5299
926.673	5216
926.779	5193
926.886	5121
926.993	4980
927.099	4995
927.206	4976
927.312	4957
927.419	5022
927.525	4968
927.631	4984
927.737	4904
927.843	4862
927.95	4816
928.056	4839
928.162	4809
928.267	4782
928.373	5391
928.479	4824
928.585	4656
928.69	4774
928.796	4782
928.901	4641
929.007	4596
929.112	4664
929.218	4596
929.323	4573
929.428	4561
929.533	4694
929.638	4485
929.743	4538
929.848	4489
929.953	4485
930.058	4440
930.163	4348
930.267	4356
930.372	4440
930.477	4303
930.581	4443
930.685	4356
930.79	4219
930.894	4318
930.998	4246
931.103	4436
931.207	4124
931.311	4090
931.415	4029
931.519	3915
931.623	3922
