Data from glass_V78500241_2383.txt Node
Date: Wed Sep 01 19:31:01 CST 2021
User: usil
Spectrometer: V785-0024
Trigger mode: 0
Integration Time (sec): 4.000000E-1
Scans to average: 1
Nonlinearity correction enabled: false
Boxcar width: 0
Storing dark spectrum: false
XAxis mode: Wavelengths
Number of Pixels in Spectrum: 1024
>>>>>Begin Spectral Data<<<<<
801.071	3675
801.214	3694
801.356	3713
801.499	3717
801.641	3747
801.783	3774
801.926	3854
802.068	3778
802.211	3857
802.353	3857
802.496	3838
802.638	3903
802.78	3926
802.923	3983
803.065	3892
803.208	3861
803.35	3903
803.492	3930
803.635	3922
803.777	3808
803.919	3880
804.061	4124
804.204	3975
804.346	3941
804.488	3896
804.63	4029
804.773	3953
804.915	4013
805.057	4143
805.199	3991
805.341	4109
805.483	4109
805.626	4112
805.768	4139
805.91	4166
806.052	4215
806.194	4166
806.336	4367
806.478	4246
806.62	4143
806.762	4154
806.904	4268
807.046	4295
807.188	4207
807.33	4162
807.472	4219
807.614	4173
807.756	4276
807.898	4207
808.04	4188
808.182	4272
808.324	4329
808.465	4352
808.607	4451
808.749	4417
808.891	4451
809.033	4516
809.174	4394
809.316	4246
809.458	4192
809.6	4120
809.741	4105
809.883	4158
810.025	4249
810.166	4173
810.308	4185
810.45	4242
810.591	4223
810.733	4280
810.875	4535
811.016	4862
811.158	5090
811.299	5292
811.441	5231
811.582	5037
811.724	4691
811.865	4455
812.007	4462
812.148	4379
812.29	4405
812.431	4402
812.573	4367
812.714	4390
812.855	4398
812.997	4390
813.138	4474
813.279	4440
813.421	4371
813.562	4360
813.703	4303
813.845	4299
813.986	4215
814.127	4204
814.268	4272
814.41	4272
814.551	4299
814.692	4287
814.833	4238
814.974	4325
815.115	4329
815.256	4219
815.397	4204
815.539	4272
815.68	4192
815.821	4215
815.962	4280
816.103	4242
816.244	4246
816.385	4238
816.526	4276
816.666	4185
816.807	4074
816.948	4135
817.089	4166
817.23	4135
817.371	4074
817.512	4032
817.653	4082
817.793	4051
817.934	3983
818.075	4112
818.216	4036
818.356	4044
818.497	3994
818.638	3888
818.778	3876
818.919	3899
819.06	3884
819.2	3930
819.341	3869
819.481	3850
819.622	3930
819.762	3983
819.903	3956
820.043	3873
820.184	3816
820.324	3770
820.465	3903
820.605	3857
820.746	3854
820.886	3819
821.026	3892
821.167	3888
821.307	3960
821.447	3991
821.588	3964
821.728	3915
821.868	3907
822.008	3861
822.149	3926
822.289	3884
822.429	3770
822.569	3774
822.709	3785
822.849	3724
822.99	3701
823.13	3778
823.27	3778
823.41	3724
823.55	3736
823.69	3728
823.83	3694
823.97	3641
824.11	3606
824.25	3564
824.389	3584
824.529	3648
824.669	3641
824.809	3675
824.949	3774
825.089	3709
825.228	3644
825.368	3595
825.508	3542
825.648	3542
825.787	3587
825.927	3606
826.067	3584
826.206	3637
826.346	3732
826.485	3831
826.625	3850
826.765	3934
826.904	3835
827.044	3599
827.183	3545
827.323	3416
827.462	3458
827.601	3435
827.741	3431
827.88	3454
828.02	3409
828.159	3450
828.298	3504
828.437	3496
828.577	3454
828.716	3625
828.855	3477
828.994	3412
829.134	3370
829.273	3351
829.412	3317
829.551	3287
829.69	3386
829.829	3416
829.968	3542
830.107	3428
830.246	3447
830.385	3370
830.524	3340
830.663	3283
830.802	3222
830.941	3241
831.08	3161
831.219	3256
831.357	3287
831.496	3431
831.635	3207
831.774	3157
831.913	3233
832.051	3135
832.19	3165
832.329	3199
832.467	3116
832.606	3108
832.744	3150
832.883	3176
833.022	3222
833.16	3230
833.299	3294
833.437	3355
833.576	3351
833.714	3435
833.852	3439
833.991	3447
834.129	3458
834.267	3447
834.406	3386
834.544	3409
834.682	3458
834.821	3405
834.959	3553
835.097	3397
835.235	3538
835.373	3526
835.511	3447
835.65	3431
835.788	3466
835.926	3348
836.064	3386
836.202	3374
836.34	3553
836.478	3603
836.615	3542
836.753	3561
836.891	3663
837.029	3584
837.167	3610
837.305	3545
837.443	3507
837.58	3534
837.718	3580
837.856	3553
837.993	3507
838.131	3591
838.269	3580
838.406	3545
838.544	3561
838.681	3454
838.819	3443
838.956	3378
839.094	3393
839.231	3412
839.369	3500
839.506	3713
839.643	3610
839.781	3542
839.918	3481
840.055	3500
840.193	3564
840.33	3507
840.467	3542
840.604	3591
840.742	3808
840.879	3515
841.016	3572
841.153	3625
841.29	3774
841.427	3736
841.564	3698
841.701	3682
841.838	3701
841.975	3663
842.112	3698
842.249	3675
842.385	3633
842.522	3831
842.659	3701
842.796	3622
842.933	3698
843.069	3736
843.206	3698
843.343	3819
843.479	3743
843.616	3800
843.752	3675
843.889	3648
844.025	3816
844.162	3743
844.298	3827
844.435	3838
844.571	3816
844.708	3884
844.844	3968
844.98	4002
845.117	4036
845.253	3922
845.389	3892
845.525	3930
845.661	3926
845.798	3937
845.934	3987
846.07	3934
846.206	4090
846.342	4101
846.478	4082
846.614	3941
846.75	3907
846.886	3911
847.022	4040
847.158	3972
847.294	3964
847.429	3987
847.565	3949
847.701	4227
847.837	3884
847.972	3911
848.108	3968
848.244	3983
848.379	3823
848.515	3789
848.65	3785
848.786	3850
848.921	3846
849.057	3876
849.192	3915
849.328	3876
849.463	3880
849.598	3880
849.734	3903
849.869	3831
850.004	3785
850.14	3785
850.275	3743
850.41	3709
850.545	3770
850.68	3789
850.815	3793
850.95	3781
851.085	3930
851.22	3880
851.355	3804
851.49	3789
851.625	3751
851.76	3812
851.895	3728
852.03	3720
852.165	3762
852.299	3846
852.434	3896
852.569	3876
852.703	3907
852.838	3922
852.973	4013
853.107	3987
853.242	3880
853.376	3854
853.511	3755
853.645	3831
853.78	3983
853.914	3896
854.048	3827
854.183	3907
854.317	3949
854.451	4078
854.585	3953
854.72	3956
854.854	4055
854.988	3896
855.122	4002
855.256	3934
855.39	4036
855.524	4082
855.658	4051
855.792	4105
855.926	4128
856.06	4192
856.194	4135
856.327	4101
856.461	4166
856.595	4158
856.729	4230
856.862	4207
856.996	4215
857.13	4253
857.263	4272
857.397	4367
857.53	4249
857.664	4306
857.797	4386
857.931	4443
858.064	4356
858.197	4421
858.331	4314
858.464	4386
858.597	4329
858.731	4421
858.864	4436
858.997	4432
859.13	4497
859.263	4493
859.396	4500
859.529	4527
859.662	4535
859.795	4561
859.928	4577
860.061	4702
860.194	4717
860.327	4653
860.46	4622
860.592	4748
860.725	4691
860.858	4801
860.99	4733
861.123	4641
861.256	4664
861.388	4729
861.521	5490
861.653	4675
861.786	4687
861.918	4725
862.05	4809
862.183	4870
862.315	4885
862.447	4885
862.58	4835
862.712	4774
862.844	4786
862.976	4850
863.108	4843
863.24	5220
863.372	4858
863.504	4911
863.636	4835
863.768	4961
863.9	5018
864.032	4938
864.164	4881
864.296	5029
864.428	5075
864.559	5075
864.691	5086
864.823	5136
864.954	5117
865.086	5098
865.217	5098
865.349	5102
865.48	5124
865.612	5174
865.743	5299
865.875	5143
866.006	5147
866.137	5231
866.269	5246
866.4	5269
866.531	5197
866.662	5204
866.793	5254
866.924	5277
867.055	5254
867.186	5318
867.317	5326
867.448	5269
867.579	5395
867.71	5402
867.841	5402
867.972	5421
868.103	5421
868.233	5512
868.364	5478
868.495	5501
868.625	5672
868.756	5703
868.886	5699
869.017	5672
869.147	5836
869.278	5855
869.408	5824
869.539	5817
869.669	5908
869.799	5859
869.929	5980
870.06	6034
870.19	6182
870.32	6201
870.45	6304
870.58	6346
870.71	6403
870.84	6464
870.97	6403
871.1	6418
871.23	6654
871.36	6662
871.489	6639
871.619	6707
871.749	6787
871.879	6840
872.008	6993
872.138	6935
872.267	7012
872.397	7008
872.526	7023
872.656	7107
872.785	7190
872.915	7388
873.044	7533
873.173	7537
873.303	7578
873.432	7765
873.561	7955
873.69	7974
873.819	7944
873.948	8119
874.077	8168
874.206	8282
874.335	8404
874.464	8655
874.593	8857
874.722	8887
874.851	9138
874.979	9188
875.108	9332
875.237	9408
875.365	9443
875.494	9614
875.623	9827
875.751	9762
875.88	10063
876.008	10105
876.136	10318
876.265	10512
876.393	10698
876.521	10710
876.65	10831
876.778	10858
876.906	10946
877.034	10942
877.162	11060
877.29	11162
877.418	11265
877.546	11288
877.674	11436
877.802	11448
877.93	11520
878.058	11524
878.185	11627
878.313	11630
878.441	11718
878.568	11611
878.696	11794
878.824	11824
878.951	11836
879.079	11980
879.206	12091
879.333	12095
879.461	12038
879.588	12095
879.715	12015
879.842	12163
879.97	12011
880.097	11828
880.224	11878
880.351	11882
880.478	11813
880.605	11901
880.732	11760
880.859	11977
880.986	11802
881.112	11794
881.239	11665
881.366	11699
881.493	11630
881.619	11539
881.746	11562
881.872	11577
881.999	11570
882.125	11452
882.252	11520
882.378	11425
882.505	11592
882.631	11318
882.757	11246
882.883	11337
883.01	11227
883.136	11147
883.262	11041
883.388	11113
883.514	11147
883.64	11204
883.766	11067
883.892	11018
884.018	11006
884.143	11029
884.269	11098
884.395	10831
884.52	10793
884.646	10797
884.772	10645
884.897	10691
885.023	10691
885.148	10717
885.274	10698
885.399	10664
885.524	10561
885.65	10622
885.775	10664
885.9	10527
886.025	10523
886.15	10569
886.275	10466
886.4	10390
886.525	10291
886.65	10367
886.775	10337
886.9	10470
887.025	10508
887.149	10333
887.274	10272
887.399	10105
887.523	10147
887.648	10112
887.773	10120
887.897	10169
888.021	10150
888.146	10147
888.27	10185
888.395	10257
888.519	10109
888.643	10150
888.767	10112
888.891	10097
889.015	9975
889.139	10074
889.263	9964
889.387	10135
889.511	10078
889.635	10010
889.759	9937
889.883	9941
890.006	10029
890.13	10086
890.254	10029
890.377	9964
890.501	9899
890.624	9918
890.748	9911
890.871	9778
890.995	9694
891.118	9785
891.241	9842
891.364	9736
891.488	9869
891.611	9652
891.734	9656
891.857	9751
891.98	9724
892.103	9671
892.226	9705
892.349	9637
892.471	9515
892.594	9671
892.717	9618
892.839	9515
892.962	9603
893.085	9682
893.207	9549
893.33	9496
893.452	9526
893.575	9603
893.697	9458
893.819	9587
893.941	9644
894.064	9523
894.186	9367
894.308	9386
894.43	9519
894.552	9587
894.674	9538
894.796	9336
894.918	9439
895.04	9317
895.161	9405
895.283	9332
895.405	9230
895.526	9351
895.648	9249
895.769	9260
895.891	9241
896.012	9245
896.134	9233
896.255	9161
896.376	9184
896.498	9123
896.619	9058
896.74	9009
896.861	9074
896.982	9214
897.103	9260
897.224	9169
897.345	9077
897.466	8944
897.587	9039
897.708	9047
897.828	9013
897.949	8933
898.07	8899
898.19	8902
898.311	9001
898.431	8849
898.552	8906
898.672	8982
898.792	8929
898.913	8891
899.033	8838
899.153	8773
899.273	8644
899.393	8667
899.513	8716
899.633	8663
899.753	8689
899.873	8670
899.993	8773
900.113	8773
900.232	8682
900.352	8674
900.472	8575
900.591	8594
900.711	8590
900.83	8473
900.95	8625
901.069	8659
901.189	8629
901.308	8442
901.427	8351
901.546	8370
901.665	8476
901.784	8427
901.904	8351
902.023	8370
902.141	8240
902.26	8153
902.379	8263
902.498	8225
902.617	8172
902.735	8252
902.854	8244
902.973	8271
903.091	8081
903.21	8035
903.328	8157
903.446	8126
903.565	8035
903.683	8008
903.801	8065
903.919	8138
904.038	8206
904.156	8012
904.274	8039
904.392	8016
904.51	8100
904.627	8035
904.745	7993
904.863	8058
904.981	7898
905.098	7894
905.216	7852
905.334	7909
905.451	7890
905.569	7849
905.686	7921
905.803	7898
905.921	7799
906.038	7860
906.155	7788
906.272	7681
906.389	7750
906.506	7677
906.623	7620
906.74	7586
906.857	7514
906.974	7590
907.091	7624
907.208	7704
907.324	7609
907.441	7548
907.557	7464
907.674	7384
907.79	7388
907.907	7426
908.023	7400
908.139	7438
908.256	7343
908.372	7327
908.488	7305
908.604	7270
908.72	7225
908.836	7259
908.952	7263
909.068	7228
909.184	7259
909.3	7247
909.415	7247
909.531	7289
909.647	7095
909.762	7095
909.878	7099
909.993	7091
910.108	7027
910.224	7046
910.339	7076
910.454	7053
910.57	7008
910.685	6916
910.8	7145
910.915	7141
911.03	7046
911.145	6905
911.259	6878
911.374	6890
911.489	6825
911.604	6844
911.718	6681
911.833	6757
911.947	6616
912.062	6631
912.176	6669
912.291	6749
912.405	6776
912.519	6738
912.633	6859
912.748	6677
912.862	6684
912.976	6589
913.09	6570
913.204	6608
913.318	6559
913.431	6635
913.545	6669
913.659	6673
913.772	6585
913.886	6521
914	6528
914.113	6593
914.226	6620
914.34	6574
914.453	6490
914.566	6589
914.68	6490
914.793	6540
914.906	6369
915.019	6471
915.132	6342
915.245	6414
915.358	6452
915.47	6399
915.583	6467
915.696	6433
915.809	6490
915.921	6521
916.034	6399
916.146	6395
916.259	6376
916.371	6471
916.483	6479
916.595	6384
916.708	6369
916.82	6304
916.932	6395
917.044	6418
917.156	6350
917.268	6311
917.38	6380
917.491	6281
917.603	6346
917.715	6380
917.826	6395
917.938	6357
918.049	6254
918.161	6311
918.272	6342
918.384	6456
918.495	6323
918.606	6270
918.717	6190
918.828	6304
918.939	6197
919.05	6235
919.161	6201
919.272	6102
919.383	6140
919.494	6289
919.604	6414
919.715	6254
919.826	6224
919.936	6232
920.047	6327
920.157	6311
920.267	6437
920.378	6300
920.488	6331
920.598	6388
920.708	6555
920.818	6445
920.928	6437
921.038	6620
921.148	6498
921.258	6361
921.368	6292
921.477	6155
921.587	6129
921.697	6102
921.806	6152
921.916	6026
922.025	5939
922.134	5904
922.244	5866
922.353	5950
922.462	5817
922.571	5813
922.68	5684
922.789	5661
922.898	5737
923.007	5638
923.116	5672
923.224	5668
923.333	5615
923.442	5581
923.55	5562
923.659	5585
923.767	5665
923.876	5570
923.984	5611
924.092	5501
924.201	5551
924.309	5535
924.417	5589
924.525	5455
924.633	5493
924.741	6277
924.849	5383
924.956	5463
925.064	5337
925.172	5265
925.279	5322
925.387	5337
925.494	5315
925.602	5402
925.709	5406
925.816	5296
925.924	5273
926.031	5315
926.138	5250
926.245	5341
926.352	5193
926.459	5311
926.566	5379
926.673	5212
926.779	5105
926.886	5109
926.993	5045
927.099	5018
927.206	4984
927.312	4930
927.419	5025
927.525	4942
927.631	4984
927.737	4923
927.843	4904
927.95	4740
928.056	4824
928.162	4748
928.267	4866
928.373	5223
928.479	4862
928.585	4668
928.69	4755
928.796	4755
928.901	4637
929.007	4603
929.112	4660
929.218	4618
929.323	4626
929.428	4580
929.533	4660
929.638	4493
929.743	4489
929.848	4554
929.953	4447
930.058	4459
930.163	4322
930.267	4352
930.372	4440
930.477	4299
930.581	4497
930.685	4360
930.79	4242
930.894	4284
930.998	4272
931.103	4363
931.207	4128
931.311	4063
931.415	4036
931.519	3915
931.623	3926
