Data from glass_V78500241_2739.txt Node
Date: Wed Sep 01 19:33:29 CST 2021
User: usil
Spectrometer: V785-0024
Trigger mode: 0
Integration Time (sec): 4.000000E-1
Scans to average: 1
Nonlinearity correction enabled: false
Boxcar width: 0
Storing dark spectrum: false
XAxis mode: Wavelengths
Number of Pixels in Spectrum: 1024
>>>>>Begin Spectral Data<<<<<
801.071	3755
801.214	3762
801.356	3694
801.499	3698
801.641	3740
801.783	3747
801.926	3861
802.068	3823
802.211	3838
802.353	3903
802.496	3793
802.638	3869
802.78	3869
802.923	3899
803.065	3880
803.208	3835
803.35	3876
803.492	3911
803.635	3930
803.777	3778
803.919	3907
804.061	4139
804.204	3926
804.346	3956
804.488	3922
804.63	4021
804.773	3934
804.915	4021
805.057	4097
805.199	4013
805.341	4036
805.483	4131
805.626	4090
805.768	4078
805.91	4192
806.052	4207
806.194	4211
806.336	4333
806.478	4211
806.62	4135
806.762	4158
806.904	4257
807.046	4318
807.188	4192
807.33	4124
807.472	4192
807.614	4158
807.756	4242
807.898	4242
808.04	4192
808.182	4280
808.324	4314
808.465	4379
808.607	4432
808.749	4424
808.891	4497
809.033	4497
809.174	4424
809.316	4200
809.458	4234
809.6	4150
809.741	4154
809.883	4101
810.025	4185
810.166	4207
810.308	4204
810.45	4188
810.591	4227
810.733	4291
810.875	4493
811.016	4729
811.158	5113
811.299	5277
811.441	5299
811.582	5045
811.724	4694
811.865	4485
812.007	4470
812.148	4356
812.29	4447
812.431	4379
812.573	4386
812.714	4405
812.855	4333
812.997	4386
813.138	4470
813.279	4424
813.421	4417
813.562	4329
813.703	4325
813.845	4310
813.986	4265
814.127	4219
814.268	4234
814.41	4265
814.551	4242
814.692	4322
814.833	4303
814.974	4287
815.115	4348
815.256	4227
815.397	4227
815.539	4204
815.68	4154
815.821	4200
815.962	4306
816.103	4314
816.244	4230
816.385	4188
816.526	4230
816.666	4200
816.807	4082
816.948	4166
817.089	4173
817.23	4143
817.371	4013
817.512	4067
817.653	4067
817.793	4029
817.934	3979
818.075	4124
818.216	4017
818.356	4090
818.497	3987
818.638	3945
818.778	3884
818.919	3838
819.06	3873
819.2	3884
819.341	3876
819.481	3751
819.622	3876
819.762	4025
819.903	3888
820.043	3823
820.184	3770
820.324	3781
820.465	3846
820.605	3903
820.746	3850
820.886	3774
821.026	3953
821.167	3918
821.307	3972
821.447	3945
821.588	3991
821.728	3918
821.868	3945
822.008	3850
822.149	3880
822.289	3865
822.429	3804
822.569	3770
822.709	3819
822.849	3595
822.99	3740
823.13	3701
823.27	3728
823.41	3682
823.55	3701
823.69	3686
823.83	3743
823.97	3671
824.11	3595
824.25	3564
824.389	3610
824.529	3637
824.669	3591
824.809	3671
824.949	3770
825.089	3686
825.228	3705
825.368	3595
825.508	3534
825.648	3553
825.787	3564
825.927	3633
826.067	3618
826.206	3663
826.346	3804
826.485	3819
826.625	3861
826.765	3941
826.904	3800
827.044	3576
827.183	3538
827.323	3401
827.462	3485
827.601	3431
827.741	3458
827.88	3420
828.02	3363
828.159	3447
828.298	3481
828.437	3507
828.577	3469
828.716	3553
828.855	3488
828.994	3374
829.134	3363
829.273	3355
829.412	3332
829.551	3302
829.69	3355
829.829	3393
829.968	3462
830.107	3447
830.246	3412
830.385	3389
830.524	3325
830.663	3294
830.802	3241
830.941	3169
831.08	3161
831.219	3241
831.357	3264
831.496	3378
831.635	3230
831.774	3211
831.913	3142
832.051	3116
832.19	3119
832.329	3180
832.467	3135
832.606	3108
832.744	3180
832.883	3161
833.022	3161
833.16	3245
833.299	3302
833.437	3291
833.576	3359
833.714	3393
833.852	3397
833.991	3458
834.129	3458
834.267	3443
834.406	3374
834.544	3397
834.682	3393
834.821	3389
834.959	3553
835.097	3409
835.235	3515
835.373	3500
835.511	3481
835.65	3447
835.788	3519
835.926	3416
836.064	3363
836.202	3424
836.34	3545
836.478	3549
836.615	3549
836.753	3580
836.891	3591
837.029	3553
837.167	3584
837.305	3530
837.443	3492
837.58	3481
837.718	3595
837.856	3515
837.993	3553
838.131	3584
838.269	3557
838.406	3622
838.544	3564
838.681	3443
838.819	3523
838.956	3367
839.094	3382
839.231	3485
839.369	3492
839.506	3717
839.643	3622
839.781	3481
839.918	3428
840.055	3477
840.193	3542
840.33	3504
840.467	3523
840.604	3614
840.742	3781
840.879	3549
841.016	3538
841.153	3576
841.29	3751
841.427	3679
841.564	3717
841.701	3690
841.838	3686
841.975	3698
842.112	3663
842.249	3603
842.385	3660
842.522	3808
842.659	3682
842.796	3656
842.933	3709
843.069	3652
843.206	3698
843.343	3781
843.479	3755
843.616	3804
843.752	3667
843.889	3682
844.025	3812
844.162	3675
844.298	3880
844.435	3793
844.571	3778
844.708	3888
844.844	3960
844.98	3964
845.117	4002
845.253	3899
845.389	3911
845.525	3922
845.661	3941
845.798	3915
845.934	3972
846.07	3934
846.206	4025
846.342	4086
846.478	4040
846.614	3941
846.75	3918
846.886	3903
847.022	4025
847.158	3968
847.294	3968
847.429	3998
847.565	3964
847.701	4207
847.837	3827
847.972	3835
848.108	3987
848.244	3987
848.379	3857
848.515	3804
848.65	3778
848.786	3835
848.921	3854
849.057	3873
849.192	3937
849.328	3888
849.463	3907
849.598	3888
849.734	3842
849.869	3857
850.004	3797
850.14	3823
850.275	3770
850.41	3728
850.545	3740
850.68	3743
850.815	3800
850.95	3755
851.085	3922
851.22	3823
851.355	3857
851.49	3793
851.625	3762
851.76	3774
851.895	3717
852.03	3774
852.165	3812
852.299	3827
852.434	3869
852.569	3865
852.703	3827
852.838	3896
852.973	4006
853.107	3991
853.242	3831
853.376	3861
853.511	3747
853.645	3842
853.78	3949
853.914	3880
854.048	3899
854.183	3835
854.317	3907
854.451	4044
854.585	3953
854.72	3915
854.854	4021
854.988	3896
855.122	3983
855.256	3926
855.39	4017
855.524	4078
855.658	4078
855.792	4158
855.926	4128
856.06	4147
856.194	4166
856.327	4086
856.461	4090
856.595	4181
856.729	4181
856.862	4272
856.996	4257
857.13	4284
857.263	4360
857.397	4329
857.53	4287
857.664	4318
857.797	4363
857.931	4375
858.064	4367
858.197	4527
858.331	4398
858.464	4363
858.597	4299
858.731	4489
858.864	4409
858.997	4440
859.13	4497
859.263	4470
859.396	4573
859.529	4512
859.662	4478
859.795	4535
859.928	4535
860.061	4679
860.194	4679
860.327	4630
860.46	4675
860.592	4710
860.725	4759
860.858	4714
860.99	4691
861.123	4649
861.256	4710
861.388	4683
861.521	5280
861.653	4721
861.786	4675
861.918	4698
862.05	4828
862.183	4824
862.315	4854
862.447	4961
862.58	4820
862.712	4771
862.844	4748
862.976	4831
863.108	4809
863.24	5231
863.372	4820
863.504	4870
863.636	4934
863.768	4976
863.9	4972
864.032	4908
864.164	4900
864.296	5075
864.428	5052
864.559	5102
864.691	5128
864.823	5060
864.954	5094
865.086	5117
865.217	5136
865.349	5067
865.48	5174
865.612	5208
865.743	5223
865.875	5121
866.006	5181
866.137	5227
866.269	5220
866.4	5185
866.531	5223
866.662	5235
866.793	5261
866.924	5284
867.055	5334
867.186	5318
867.317	5315
867.448	5235
867.579	5288
867.71	5311
867.841	5341
867.972	5402
868.103	5444
868.233	5471
868.364	5482
868.495	5520
868.625	5623
868.756	5771
868.886	5665
869.017	5733
869.147	5832
869.278	5817
869.408	5836
869.539	5813
869.669	5916
869.799	5916
869.929	5984
870.06	6011
870.19	6190
870.32	6197
870.45	6224
870.58	6369
870.71	6460
870.84	6490
870.97	6426
871.1	6407
871.23	6551
871.36	6684
871.489	6654
871.619	6741
871.749	6798
871.879	6878
872.008	6943
872.138	6947
872.267	6973
872.397	6993
872.526	7061
872.656	7114
872.785	7202
872.915	7373
873.044	7537
873.173	7548
873.303	7620
873.432	7727
873.561	7879
873.69	7917
873.819	7993
873.948	8161
874.077	8317
874.206	8328
874.335	8469
874.464	8686
874.593	8830
874.722	8941
874.851	9074
874.979	9264
875.108	9424
875.237	9401
875.365	9416
875.494	9584
875.623	9762
875.751	9781
875.88	9956
876.008	10150
876.136	10257
876.265	10489
876.393	10607
876.521	10649
876.65	10782
876.778	10835
876.906	10790
877.034	11003
877.162	11079
877.29	11132
877.418	11208
877.546	11273
877.674	11368
877.802	11455
877.93	11482
878.058	11554
878.185	11581
878.313	11592
878.441	11695
878.568	11630
878.696	11824
878.824	11817
878.951	11874
879.079	11984
879.206	12205
879.333	12136
879.461	11973
879.588	12045
879.715	12019
879.842	12133
879.97	11992
880.097	11904
880.224	11942
880.351	11805
880.478	11859
880.605	11840
880.732	11813
880.859	11988
880.986	11813
881.112	11821
881.239	11649
881.366	11672
881.493	11596
881.619	11532
881.746	11501
881.872	11467
881.999	11505
882.125	11436
882.252	11581
882.378	11459
882.505	11505
882.631	11368
882.757	11330
882.883	11299
883.01	11155
883.136	11197
883.262	11083
883.388	11143
883.514	11162
883.64	11227
883.766	11086
883.892	10927
884.018	10949
884.143	11056
884.269	11010
884.395	10809
884.52	10820
884.646	10820
884.772	10641
884.897	10683
885.023	10664
885.148	10683
885.274	10816
885.399	10634
885.524	10615
885.65	10550
885.775	10569
885.9	10546
886.025	10615
886.15	10580
886.275	10428
886.4	10409
886.525	10371
886.65	10375
886.775	10287
886.9	10485
887.025	10504
887.149	10409
887.274	10116
887.399	10188
887.523	10154
887.648	10116
887.773	10063
887.897	10223
888.021	10135
888.146	10097
888.27	10204
888.395	10246
888.519	10200
888.643	10181
888.767	10253
888.891	10036
889.015	9991
889.139	9994
889.263	9960
889.387	10048
889.511	10090
889.635	9979
889.759	9926
889.883	9926
890.006	9968
890.13	10032
890.254	9918
890.377	9922
890.501	9804
890.624	9785
890.748	9915
890.871	9804
890.995	9728
891.118	9724
891.241	9690
891.364	9724
891.488	9762
891.611	9720
891.734	9701
891.857	9766
891.98	9660
892.103	9766
892.226	9705
892.349	9584
892.471	9485
892.594	9542
892.717	9644
892.839	9587
892.962	9557
893.085	9606
893.207	9614
893.33	9462
893.452	9473
893.575	9549
893.697	9473
893.819	9526
893.941	9549
894.064	9622
894.186	9519
894.308	9435
894.43	9500
894.552	9511
894.674	9507
894.796	9272
894.918	9310
895.04	9306
895.161	9428
895.283	9298
895.405	9241
895.526	9260
895.648	9268
895.769	9188
895.891	9233
896.012	9241
896.134	9222
896.255	9180
896.376	9123
896.498	9028
896.619	9104
896.74	9112
896.861	9131
896.982	9241
897.103	9298
897.224	9142
897.345	9043
897.466	9024
897.587	8986
897.708	9051
897.828	8986
897.949	8944
898.07	8842
898.19	8937
898.311	9036
898.431	8971
898.552	8845
898.672	8925
898.792	8883
898.913	8902
899.033	8701
899.153	8674
899.273	8648
899.393	8667
899.513	8678
899.633	8670
899.753	8689
899.873	8648
899.993	8758
900.113	8621
900.232	8750
900.352	8651
900.472	8564
900.591	8530
900.711	8545
900.83	8568
900.95	8613
901.069	8670
901.189	8518
901.308	8473
901.427	8324
901.546	8423
901.665	8442
901.784	8499
901.904	8336
902.023	8320
902.141	8225
902.26	8210
902.379	8256
902.498	8168
902.617	8218
902.735	8252
902.854	8233
902.973	8195
903.091	8081
903.21	8138
903.328	8069
903.446	8164
903.565	8088
903.683	8107
903.801	8043
903.919	8138
904.038	8111
904.156	7986
904.274	8020
904.392	8008
904.51	8024
904.627	8092
904.745	7970
904.863	8103
904.981	7887
905.098	7902
905.216	7780
905.334	7837
905.451	7917
905.569	7879
905.686	7970
905.803	7902
905.921	7757
906.038	7852
906.155	7761
906.272	7738
906.389	7715
906.506	7658
906.623	7594
906.74	7552
906.857	7537
906.974	7533
907.091	7647
907.208	7708
907.324	7628
907.441	7590
907.557	7510
907.674	7434
907.79	7369
907.907	7384
908.023	7464
908.139	7415
908.256	7373
908.372	7327
908.488	7312
908.604	7228
908.72	7266
908.836	7244
908.952	7202
909.068	7251
909.184	7285
909.3	7179
909.415	7365
909.531	7175
909.647	7099
909.762	7110
909.878	7046
909.993	7126
910.108	7023
910.224	7031
910.339	7095
910.454	6989
910.57	6970
910.685	7015
910.8	7110
910.915	7053
911.03	6966
911.145	6878
911.259	6856
911.374	6844
911.489	6810
911.604	6772
911.718	6688
911.833	6734
911.947	6597
912.062	6608
912.176	6730
912.291	6623
912.405	6673
912.519	6795
912.633	6798
912.748	6684
912.862	6696
912.976	6616
913.09	6521
913.204	6654
913.318	6570
913.431	6642
913.545	6662
913.659	6696
913.772	6616
913.886	6528
914	6563
914.113	6574
914.226	6639
914.34	6612
914.453	6566
914.566	6616
914.68	6578
914.793	6513
914.906	6418
915.019	6361
915.132	6353
915.245	6395
915.358	6403
915.47	6441
915.583	6448
915.696	6475
915.809	6437
915.921	6536
916.034	6380
916.146	6380
916.259	6372
916.371	6441
916.483	6471
916.595	6410
916.708	6365
916.82	6327
916.932	6361
917.044	6403
917.156	6372
917.268	6300
917.38	6388
917.491	6334
917.603	6311
917.715	6376
917.826	6372
917.938	6258
918.049	6201
918.161	6315
918.272	6426
918.384	6410
918.495	6311
918.606	6266
918.717	6129
918.828	6289
918.939	6254
919.05	6155
919.161	6163
919.272	6091
919.383	6125
919.494	6251
919.604	6467
919.715	6239
919.826	6224
919.936	6266
920.047	6270
920.157	6277
920.267	6433
920.378	6258
920.488	6262
920.598	6422
920.708	6547
920.818	6460
920.928	6467
921.038	6593
921.148	6642
921.258	6353
921.368	6273
921.477	6197
921.587	6121
921.697	6068
921.806	6155
921.916	6053
922.025	5977
922.134	5954
922.244	5840
922.353	5961
922.462	5824
922.571	5794
922.68	5699
922.789	5653
922.898	5684
923.007	5608
923.116	5661
923.224	5668
923.333	5676
923.442	5672
923.55	5623
923.659	5596
923.767	5611
923.876	5577
923.984	5604
924.092	5524
924.201	5490
924.309	5539
924.417	5520
924.525	5436
924.633	5474
924.741	6292
924.849	5379
924.956	5474
925.064	5372
925.172	5261
925.279	5273
925.387	5357
925.494	5261
925.602	5364
925.709	5360
925.816	5296
925.924	5239
926.031	5376
926.138	5292
926.245	5322
926.352	5178
926.459	5292
926.566	5311
926.673	5204
926.779	5132
926.886	5075
926.993	5067
927.099	4965
927.206	4930
927.312	4953
927.419	5014
927.525	4942
927.631	4991
927.737	4854
927.843	4824
927.95	4793
928.056	4786
928.162	4812
928.267	4843
928.373	5265
928.479	4889
928.585	4588
928.69	4763
928.796	4763
928.901	4698
929.007	4599
929.112	4649
929.218	4660
929.323	4588
929.428	4523
929.533	4607
929.638	4508
929.743	4497
929.848	4538
929.953	4497
930.058	4455
930.163	4318
930.267	4322
930.372	4443
930.477	4314
930.581	4459
930.685	4344
930.79	4215
930.894	4261
930.998	4227
931.103	4367
931.207	4093
931.311	4063
931.415	4021
931.519	3899
931.623	3918
