Data from glass_V78500241_1067.txt Node
Date: Wed Sep 01 19:21:53 CST 2021
User: usil
Spectrometer: V785-0024
Trigger mode: 0
Integration Time (sec): 4.000000E-1
Scans to average: 1
Nonlinearity correction enabled: false
Boxcar width: 0
Storing dark spectrum: false
XAxis mode: Wavelengths
Number of Pixels in Spectrum: 1024
>>>>>Begin Spectral Data<<<<<
801.071	3781
801.214	3793
801.356	3755
801.499	3720
801.641	3762
801.783	3789
801.926	3846
802.068	3846
802.211	3896
802.353	3911
802.496	3873
802.638	3880
802.78	3949
802.923	3934
803.065	3941
803.208	3861
803.35	3888
803.492	3915
803.635	3915
803.777	3812
803.919	3903
804.061	4154
804.204	3975
804.346	3930
804.488	3941
804.63	4048
804.773	3964
804.915	4010
805.057	4166
805.199	4036
805.341	4093
805.483	4109
805.626	4192
805.768	4128
805.91	4150
806.052	4284
806.194	4265
806.336	4371
806.478	4246
806.62	4173
806.762	4185
806.904	4227
807.046	4318
807.188	4196
807.33	4169
807.472	4246
807.614	4185
807.756	4272
807.898	4207
808.04	4257
808.182	4261
808.324	4337
808.465	4348
808.607	4474
808.749	4455
808.891	4451
809.033	4500
809.174	4390
809.316	4314
809.458	4276
809.6	4154
809.741	4162
809.883	4109
810.025	4234
810.166	4219
810.308	4219
810.45	4246
810.591	4253
810.733	4341
810.875	4512
811.016	4816
811.158	5102
811.299	5261
811.441	5284
811.582	5048
811.724	4721
811.865	4440
812.007	4500
812.148	4436
812.29	4436
812.431	4417
812.573	4413
812.714	4379
812.855	4413
812.997	4424
813.138	4466
813.279	4436
813.421	4421
813.562	4405
813.703	4379
813.845	4367
813.986	4284
814.127	4234
814.268	4303
814.41	4295
814.551	4280
814.692	4325
814.833	4257
814.974	4284
815.115	4325
815.256	4284
815.397	4238
815.539	4246
815.68	4234
815.821	4192
815.962	4299
816.103	4295
816.244	4234
816.385	4238
816.526	4276
816.666	4242
816.807	4105
816.948	4188
817.089	4169
817.23	4105
817.371	4051
817.512	4097
817.653	4101
817.793	4044
817.934	4032
818.075	4135
818.216	4124
818.356	4078
818.497	4002
818.638	3918
818.778	3922
818.919	3884
819.06	3880
819.2	3941
819.341	3918
819.481	3869
819.622	3956
819.762	4059
819.903	3926
820.043	3899
820.184	3823
820.324	3835
820.465	3876
820.605	3873
820.746	3876
820.886	3789
821.026	3907
821.167	3945
821.307	3991
821.447	3994
821.588	3945
821.728	3994
821.868	3960
822.008	3911
822.149	3922
822.289	3934
822.429	3797
822.569	3778
822.709	3793
822.849	3740
822.99	3679
823.13	3759
823.27	3793
823.41	3728
823.55	3781
823.69	3732
823.83	3751
823.97	3694
824.11	3599
824.25	3603
824.389	3660
824.529	3675
824.669	3629
824.809	3709
824.949	3778
825.089	3732
825.228	3724
825.368	3576
825.508	3568
825.648	3561
825.787	3629
825.927	3641
826.067	3637
826.206	3679
826.346	3778
826.485	3797
826.625	3857
826.765	3949
826.904	3838
827.044	3633
827.183	3523
827.323	3454
827.462	3485
827.601	3466
827.741	3466
827.88	3526
828.02	3367
828.159	3435
828.298	3454
828.437	3549
828.577	3507
828.716	3625
828.855	3504
828.994	3355
829.134	3412
829.273	3416
829.412	3382
829.551	3329
829.69	3382
829.829	3447
829.968	3561
830.107	3447
830.246	3462
830.385	3439
830.524	3321
830.663	3298
830.802	3272
830.941	3222
831.08	3222
831.219	3253
831.357	3272
831.496	3409
831.635	3256
831.774	3184
831.913	3207
832.051	3089
832.19	3161
832.329	3218
832.467	3150
832.606	3081
832.744	3207
832.883	3237
833.022	3188
833.16	3241
833.299	3340
833.437	3351
833.576	3401
833.714	3370
833.852	3462
833.991	3450
834.129	3469
834.267	3469
834.406	3363
834.544	3420
834.682	3450
834.821	3424
834.959	3561
835.097	3420
835.235	3534
835.373	3481
835.511	3519
835.65	3462
835.788	3485
835.926	3416
836.064	3340
836.202	3416
836.34	3576
836.478	3580
836.615	3526
836.753	3641
836.891	3644
837.029	3606
837.167	3595
837.305	3561
837.443	3576
837.58	3515
837.718	3618
837.856	3610
837.993	3542
838.131	3599
838.269	3576
838.406	3572
838.544	3606
838.681	3500
838.819	3454
838.956	3397
839.094	3447
839.231	3435
839.369	3515
839.506	3759
839.643	3622
839.781	3481
839.918	3450
840.055	3568
840.193	3587
840.33	3507
840.467	3568
840.604	3641
840.742	3724
840.879	3564
841.016	3599
841.153	3629
841.29	3747
841.427	3679
841.564	3751
841.701	3766
841.838	3732
841.975	3690
842.112	3713
842.249	3675
842.385	3618
842.522	3846
842.659	3663
842.796	3652
842.933	3705
843.069	3705
843.206	3686
843.343	3808
843.479	3778
843.616	3800
843.752	3694
843.889	3679
844.025	3816
844.162	3724
844.298	3873
844.435	3812
844.571	3793
844.708	3903
844.844	4021
844.98	4021
845.117	4048
845.253	3960
845.389	3888
845.525	3998
845.661	3975
845.798	3926
845.934	4025
846.07	3972
846.206	4109
846.342	4128
846.478	4067
846.614	3953
846.75	3956
846.886	3915
847.022	4048
847.158	3987
847.294	4013
847.429	4002
847.565	4017
847.701	4280
847.837	3869
847.972	3903
848.108	4032
848.244	4002
848.379	3899
848.515	3838
848.65	3857
848.786	3842
848.921	3926
849.057	3941
849.192	3953
849.328	3911
849.463	3892
849.598	3918
849.734	3873
849.869	3850
850.004	3793
850.14	3835
850.275	3759
850.41	3781
850.545	3774
850.68	3774
850.815	3797
850.95	3812
851.085	3926
851.22	3884
851.355	3835
851.49	3800
851.625	3812
851.76	3819
851.895	3766
852.03	3755
852.165	3816
852.299	3850
852.434	3945
852.569	3884
852.703	3873
852.838	3949
852.973	4013
853.107	3991
853.242	3918
853.376	3857
853.511	3819
853.645	3838
853.78	3983
853.914	3918
854.048	3899
854.183	3911
854.317	3972
854.451	4090
854.585	3953
854.72	4025
854.854	4059
854.988	3945
855.122	3991
855.256	3922
855.39	4021
855.524	4131
855.658	4071
855.792	4093
855.926	4150
856.06	4185
856.194	4207
856.327	4139
856.461	4131
856.595	4147
856.729	4204
856.862	4325
856.996	4280
857.13	4284
857.263	4318
857.397	4352
857.53	4268
857.664	4383
857.797	4417
857.931	4443
858.064	4402
858.197	4462
858.331	4462
858.464	4409
858.597	4348
858.731	4466
858.864	4421
858.997	4485
859.13	4584
859.263	4504
859.396	4588
859.529	4569
859.662	4519
859.795	4535
859.928	4618
860.061	4687
860.194	4752
860.327	4664
860.46	4618
860.592	4748
860.725	4763
860.858	4797
860.99	4714
861.123	4744
861.256	4733
861.388	4771
861.521	5417
861.653	4752
861.786	4706
861.918	4733
862.05	4805
862.183	4828
862.315	4873
862.447	4900
862.58	4961
862.712	4801
862.844	4801
862.976	4889
863.108	4938
863.24	5216
863.372	4854
863.504	4908
863.636	4915
863.768	4961
863.9	4946
864.032	4946
864.164	4934
864.296	5064
864.428	5071
864.559	5083
864.691	5185
864.823	5140
864.954	5128
865.086	5151
865.217	5159
865.349	5128
865.48	5212
865.612	5239
865.743	5258
865.875	5204
866.006	5189
866.137	5250
866.269	5231
866.4	5242
866.531	5288
866.662	5239
866.793	5307
866.924	5288
867.055	5368
867.186	5368
867.317	5311
867.448	5315
867.579	5383
867.71	5395
867.841	5425
867.972	5429
868.103	5463
868.233	5509
868.364	5512
868.495	5528
868.625	5661
868.756	5790
868.886	5653
869.017	5714
869.147	5840
869.278	5847
869.408	5863
869.539	5786
869.669	5882
869.799	5939
869.929	6019
870.06	6015
870.19	6232
870.32	6254
870.45	6262
870.58	6361
870.71	6429
870.84	6407
870.97	6437
871.1	6418
871.23	6635
871.36	6639
871.489	6738
871.619	6726
871.749	6837
871.879	6882
872.008	6962
872.138	6966
872.267	7042
872.397	7004
872.526	7072
872.656	7107
872.785	7198
872.915	7373
873.044	7537
873.173	7575
873.303	7609
873.432	7677
873.561	7898
873.69	7970
873.819	7967
873.948	8164
874.077	8282
874.206	8301
874.335	8454
874.464	8689
874.593	8918
874.722	8918
874.851	9085
874.979	9287
875.108	9420
875.237	9393
875.365	9477
875.494	9610
875.623	9808
875.751	9956
875.88	10040
876.008	10116
876.136	10284
876.265	10561
876.393	10714
876.521	10714
876.65	10862
876.778	10896
876.906	10839
877.034	10968
877.162	11166
877.29	11223
877.418	11315
877.546	11337
877.674	11433
877.802	11516
877.93	11467
878.058	11600
878.185	11520
878.313	11695
878.441	11809
878.568	11699
878.696	11722
878.824	11878
878.951	11977
879.079	12007
879.206	12114
879.333	12110
879.461	12022
879.588	12041
879.715	12076
879.842	12270
879.97	12102
880.097	11882
880.224	11904
880.351	11969
880.478	11836
880.605	11771
880.732	11897
880.859	12022
880.986	11752
881.112	11840
881.239	11737
881.366	11627
881.493	11585
881.619	11570
881.746	11604
881.872	11505
881.999	11524
882.125	11516
882.252	11497
882.378	11543
882.505	11509
882.631	11440
882.757	11296
882.883	11349
883.01	11296
883.136	11136
883.262	11060
883.388	11067
883.514	11254
883.64	11181
883.766	11113
883.892	10980
884.018	11018
884.143	11094
884.269	11060
884.395	10877
884.52	10873
884.646	10733
884.772	10698
884.897	10675
885.023	10763
885.148	10748
885.274	10698
885.399	10694
885.524	10679
885.65	10565
885.775	10660
885.9	10607
886.025	10626
886.15	10622
886.275	10474
886.4	10386
886.525	10462
886.65	10360
886.775	10306
886.9	10489
887.025	10485
887.149	10261
887.274	10265
887.399	10188
887.523	10192
887.648	10219
887.773	10124
887.897	10348
888.021	10192
888.146	10135
888.27	10177
888.395	10249
888.519	10219
888.643	10139
888.767	10196
888.891	10116
889.015	10044
889.139	10162
889.263	9991
889.387	10093
889.511	10120
889.635	10097
889.759	10032
889.883	9979
890.006	10010
890.13	10112
890.254	9983
890.377	9934
890.501	9953
890.624	9941
890.748	9945
890.871	9759
890.995	9766
891.118	9705
891.241	9755
891.364	9759
891.488	9964
891.611	9701
891.734	9774
891.857	9793
891.98	9698
892.103	9736
892.226	9724
892.349	9644
892.471	9568
892.594	9530
892.717	9572
892.839	9591
892.962	9610
893.085	9675
893.207	9568
893.33	9504
893.452	9500
893.575	9625
893.697	9568
893.819	9660
893.941	9625
894.064	9660
894.186	9397
894.308	9408
894.43	9466
894.552	9591
894.674	9458
894.796	9359
894.918	9363
895.04	9389
895.161	9344
895.283	9382
895.405	9260
895.526	9313
895.648	9226
895.769	9241
895.891	9275
896.012	9256
896.134	9245
896.255	9222
896.376	9108
896.498	9173
896.619	9074
896.74	9047
896.861	9138
896.982	9230
897.103	9302
897.224	9207
897.345	9081
897.466	8960
897.587	9081
897.708	9085
897.828	8963
897.949	8967
898.07	8842
898.19	8883
898.311	8956
898.431	8956
898.552	8960
898.672	8979
898.792	8948
898.913	8918
899.033	8804
899.153	8788
899.273	8648
899.393	8739
899.513	8788
899.633	8769
899.753	8758
899.873	8716
899.993	8792
900.113	8689
900.232	8731
900.352	8682
900.472	8602
900.591	8651
900.711	8659
900.83	8503
900.95	8674
901.069	8648
901.189	8625
901.308	8476
901.427	8423
901.546	8400
901.665	8511
901.784	8564
901.904	8434
902.023	8271
902.141	8248
902.26	8286
902.379	8336
902.498	8180
902.617	8195
902.735	8362
902.854	8233
902.973	8309
903.091	8130
903.21	8233
903.328	8218
903.446	8115
903.565	8123
903.683	8107
903.801	8096
903.919	8176
904.038	8180
904.156	8027
904.274	8126
904.392	8020
904.51	8035
904.627	8062
904.745	8123
904.863	8058
904.981	7944
905.098	7822
905.216	7868
905.334	7921
905.451	7913
905.569	7913
905.686	8046
905.803	7947
905.921	7845
906.038	7883
906.155	7799
906.272	7723
906.389	7704
906.506	7632
906.623	7616
906.74	7628
906.857	7544
906.974	7571
907.091	7719
907.208	7841
907.324	7647
907.441	7567
907.557	7419
907.674	7464
907.79	7453
907.907	7419
908.023	7483
908.139	7411
908.256	7369
908.372	7346
908.488	7396
908.604	7335
908.72	7312
908.836	7259
908.952	7297
909.068	7251
909.184	7289
909.3	7259
909.415	7350
909.531	7343
909.647	7141
909.762	7080
909.878	7080
909.993	7152
910.108	7107
910.224	7156
910.339	7129
910.454	7061
910.57	7038
910.685	6966
910.8	7183
910.915	7133
911.03	7065
911.145	6928
911.259	6867
911.374	6951
911.489	6852
911.604	6844
911.718	6730
911.833	6700
911.947	6635
912.062	6608
912.176	6654
912.291	6760
912.405	6726
912.519	6875
912.633	6863
912.748	6825
912.862	6700
912.976	6631
913.09	6555
913.204	6608
913.318	6631
913.431	6646
913.545	6760
913.659	6715
913.772	6604
913.886	6608
914	6601
914.113	6623
914.226	6650
914.34	6639
914.453	6547
914.566	6566
914.68	6525
914.793	6536
914.906	6350
915.019	6372
915.132	6376
915.245	6429
915.358	6509
915.47	6452
915.583	6464
915.696	6483
915.809	6528
915.921	6616
916.034	6486
916.146	6483
916.259	6441
916.371	6483
916.483	6456
916.595	6399
916.708	6388
916.82	6395
916.932	6395
917.044	6365
917.156	6414
917.268	6285
917.38	6372
917.491	6338
917.603	6395
917.715	6399
917.826	6437
917.938	6289
918.049	6254
918.161	6323
918.272	6395
918.384	6410
918.495	6304
918.606	6232
918.717	6251
918.828	6277
918.939	6270
919.05	6194
919.161	6277
919.272	6209
919.383	6136
919.494	6285
919.604	6490
919.715	6292
919.826	6209
919.936	6262
920.047	6365
920.157	6262
920.267	6475
920.378	6292
920.488	6285
920.598	6486
920.708	6578
920.818	6483
920.928	6513
921.038	6566
921.148	6551
921.258	6388
921.368	6327
921.477	6194
921.587	6163
921.697	6068
921.806	6159
921.916	6102
922.025	5965
922.134	5973
922.244	5893
922.353	5931
922.462	5824
922.571	5832
922.68	5703
922.789	5661
922.898	5726
923.007	5630
923.116	5676
923.224	5592
923.333	5691
923.442	5554
923.55	5585
923.659	5630
923.767	5672
923.876	5604
923.984	5570
924.092	5516
924.201	5623
924.309	5577
924.417	5543
924.525	5497
924.633	5535
924.741	6334
924.849	5421
924.956	5490
925.064	5395
925.172	5303
925.279	5349
925.387	5398
925.494	5337
925.602	5414
925.709	5376
925.816	5318
925.924	5360
926.031	5433
926.138	5337
926.245	5345
926.352	5261
926.459	5318
926.566	5292
926.673	5261
926.779	5140
926.886	5124
926.993	5060
927.099	4980
927.206	4953
927.312	4999
927.419	4968
927.525	5033
927.631	4976
927.737	4900
927.843	4862
927.95	4763
928.056	4850
928.162	4805
928.267	4892
928.373	5395
928.479	4866
928.585	4675
928.69	4771
928.796	4805
928.901	4698
929.007	4573
929.112	4675
929.218	4660
929.323	4588
929.428	4580
929.533	4679
929.638	4580
929.743	4565
929.848	4561
929.953	4561
930.058	4459
930.163	4314
930.267	4329
930.372	4428
930.477	4325
930.581	4470
930.685	4379
930.79	4223
930.894	4299
930.998	4306
931.103	4432
931.207	4139
931.311	4093
931.415	4093
931.519	3941
931.623	3941
