Data from glass_V78500241_365.txt Node
Date: Wed Sep 01 19:17:01 CST 2021
User: usil
Spectrometer: V785-0024
Trigger mode: 0
Integration Time (sec): 4.000000E-1
Scans to average: 1
Nonlinearity correction enabled: false
Boxcar width: 0
Storing dark spectrum: false
XAxis mode: Wavelengths
Number of Pixels in Spectrum: 1024
>>>>>Begin Spectral Data<<<<<
801.071	3747
801.214	3762
801.356	3694
801.499	3728
801.641	3743
801.783	3797
801.926	3911
802.068	3873
802.211	3861
802.353	3907
802.496	3888
802.638	3903
802.78	3918
802.923	3964
803.065	3915
803.208	3880
803.35	3888
803.492	3918
803.635	3922
803.777	3831
803.919	3922
804.061	4196
804.204	3998
804.346	3949
804.488	3953
804.63	4044
804.773	3991
804.915	4017
805.057	4177
805.199	4044
805.341	4112
805.483	4166
805.626	4158
805.768	4139
805.91	4185
806.052	4219
806.194	4249
806.336	4394
806.478	4234
806.62	4169
806.762	4204
806.904	4261
807.046	4386
807.188	4234
807.33	4166
807.472	4249
807.614	4249
807.756	4325
807.898	4234
808.04	4257
808.182	4318
808.324	4348
808.465	4405
808.607	4478
808.749	4474
808.891	4451
809.033	4546
809.174	4402
809.316	4287
809.458	4280
809.6	4177
809.741	4128
809.883	4158
810.025	4268
810.166	4253
810.308	4257
810.45	4238
810.591	4257
810.733	4284
810.875	4542
811.016	4824
811.158	5079
811.299	5277
811.441	5303
811.582	5075
811.724	4706
811.865	4474
812.007	4421
812.148	4428
812.29	4440
812.431	4466
812.573	4428
812.714	4371
812.855	4394
812.997	4428
813.138	4478
813.279	4459
813.421	4394
813.562	4409
813.703	4356
813.845	4333
813.986	4287
814.127	4246
814.268	4272
814.41	4314
814.551	4303
814.692	4367
814.833	4223
814.974	4318
815.115	4310
815.256	4291
815.397	4185
815.539	4299
815.68	4230
815.821	4227
815.962	4337
816.103	4295
816.244	4242
816.385	4204
816.526	4299
816.666	4207
816.807	4074
816.948	4204
817.089	4230
817.23	4143
817.371	4074
817.512	4013
817.653	4032
817.793	3983
817.934	4032
818.075	4093
818.216	4090
818.356	4097
818.497	4013
818.638	3903
818.778	3915
818.919	3861
819.06	3880
819.2	3949
819.341	3888
819.481	3831
819.622	3949
819.762	4078
819.903	3987
820.043	3854
820.184	3854
820.324	3857
820.465	3850
820.605	3892
820.746	3896
820.886	3835
821.026	3972
821.167	3949
821.307	3991
821.447	3987
821.588	3972
821.728	3979
821.868	3930
822.008	3873
822.149	3937
822.289	3915
822.429	3808
822.569	3762
822.709	3854
822.849	3732
822.99	3698
823.13	3770
823.27	3751
823.41	3762
823.55	3747
823.69	3732
823.83	3732
823.97	3682
824.11	3633
824.25	3564
824.389	3648
824.529	3682
824.669	3644
824.809	3728
824.949	3755
825.089	3759
825.228	3759
825.368	3564
825.508	3576
825.648	3530
825.787	3610
825.927	3625
826.067	3614
826.206	3675
826.346	3808
826.485	3869
826.625	3888
826.765	3960
826.904	3838
827.044	3637
827.183	3545
827.323	3469
827.462	3473
827.601	3466
827.741	3458
827.88	3523
828.02	3405
828.159	3462
828.298	3511
828.437	3542
828.577	3500
828.716	3667
828.855	3492
828.994	3412
829.134	3412
829.273	3401
829.412	3382
829.551	3344
829.69	3393
829.829	3412
829.968	3564
830.107	3462
830.246	3504
830.385	3439
830.524	3355
830.663	3348
830.802	3287
830.941	3211
831.08	3218
831.219	3233
831.357	3279
831.496	3412
831.635	3245
831.774	3226
831.913	3195
832.051	3173
832.19	3142
832.329	3241
832.467	3188
832.606	3077
832.744	3169
832.883	3188
833.022	3192
833.16	3272
833.299	3253
833.437	3367
833.576	3397
833.714	3431
833.852	3469
833.991	3477
834.129	3477
834.267	3450
834.406	3428
834.544	3439
834.682	3424
834.821	3466
834.959	3557
835.097	3466
835.235	3561
835.373	3488
835.511	3530
835.65	3462
835.788	3504
835.926	3416
836.064	3405
836.202	3412
836.34	3606
836.478	3606
836.615	3557
836.753	3557
836.891	3641
837.029	3625
837.167	3625
837.305	3568
837.443	3545
837.58	3496
837.718	3610
837.856	3549
837.993	3568
838.131	3618
838.269	3614
838.406	3606
838.544	3625
838.681	3496
838.819	3473
838.956	3367
839.094	3424
839.231	3466
839.369	3496
839.506	3762
839.643	3641
839.781	3473
839.918	3496
840.055	3538
840.193	3549
840.33	3584
840.467	3561
840.604	3656
840.742	3835
840.879	3534
841.016	3572
841.153	3637
841.29	3751
841.427	3701
841.564	3759
841.701	3797
841.838	3724
841.975	3686
842.112	3724
842.249	3633
842.385	3679
842.522	3842
842.659	3694
842.796	3705
842.933	3698
843.069	3713
843.206	3717
843.343	3793
843.479	3740
843.616	3812
843.752	3656
843.889	3720
844.025	3865
844.162	3732
844.298	3876
844.435	3797
844.571	3778
844.708	3934
844.844	4013
844.98	4071
845.117	4006
845.253	3953
845.389	3915
845.525	4010
845.661	4021
845.798	3888
845.934	4051
846.07	3956
846.206	4067
846.342	4101
846.478	4078
846.614	4017
846.75	3930
846.886	3884
847.022	4025
847.158	3979
847.294	4063
847.429	4071
847.565	4040
847.701	4284
847.837	3926
847.972	3873
848.108	3945
848.244	3994
848.379	3888
848.515	3838
848.65	3781
848.786	3861
848.921	3861
849.057	3953
849.192	4002
849.328	3964
849.463	3911
849.598	3869
849.734	3907
849.869	3823
850.004	3762
850.14	3816
850.275	3759
850.41	3743
850.545	3770
850.68	3747
850.815	3869
850.95	3785
851.085	3922
851.22	3888
851.355	3842
851.49	3800
851.625	3789
851.76	3774
851.895	3740
852.03	3781
852.165	3808
852.299	3896
852.434	3911
852.569	3896
852.703	3892
852.838	3972
852.973	3964
853.107	4021
853.242	3911
853.376	3873
853.511	3781
853.645	3865
853.78	3937
853.914	3873
854.048	3911
854.183	3892
854.317	3964
854.451	4082
854.585	3983
854.72	3949
854.854	4048
854.988	3975
855.122	4036
855.256	3953
855.39	4051
855.524	4124
855.658	4124
855.792	4112
855.926	4135
856.06	4177
856.194	4204
856.327	4128
856.461	4131
856.595	4162
856.729	4196
856.862	4295
856.996	4188
857.13	4310
857.263	4341
857.397	4390
857.53	4272
857.664	4402
857.797	4402
857.931	4455
858.064	4398
858.197	4451
858.331	4405
858.464	4390
858.597	4371
858.731	4451
858.864	4493
858.997	4451
859.13	4508
859.263	4531
859.396	4626
859.529	4584
859.662	4538
859.795	4531
859.928	4615
860.061	4733
860.194	4740
860.327	4656
860.46	4683
860.592	4736
860.725	4786
860.858	4755
860.99	4710
861.123	4687
861.256	4687
861.388	4774
861.521	5410
861.653	4725
861.786	4721
861.918	4710
862.05	4797
862.183	4850
862.315	4938
862.447	5022
862.58	4953
862.712	4801
862.844	4786
862.976	4908
863.108	4904
863.24	5269
863.372	4873
863.504	4892
863.636	4942
863.768	4949
863.9	5033
864.032	4927
864.164	4961
864.296	5045
864.428	5113
864.559	5105
864.691	5094
864.823	5166
864.954	5094
865.086	5136
865.217	5121
865.349	5105
865.48	5117
865.612	5189
865.743	5341
865.875	5231
866.006	5166
866.137	5201
866.269	5239
866.4	5261
866.531	5284
866.662	5277
866.793	5284
866.924	5315
867.055	5296
867.186	5322
867.317	5360
867.448	5315
867.579	5376
867.71	5410
867.841	5376
867.972	5467
868.103	5429
868.233	5452
868.364	5497
868.495	5630
868.625	5668
868.756	5775
868.886	5646
869.017	5817
869.147	5817
869.278	5874
869.408	5805
869.539	5794
869.669	5969
869.799	5878
869.929	5996
870.06	6068
870.19	6247
870.32	6163
870.45	6281
870.58	6311
870.71	6483
870.84	6448
870.97	6403
871.1	6426
871.23	6707
871.36	6684
871.489	6692
871.619	6749
871.749	6798
871.879	6833
872.008	6996
872.138	7004
872.267	7061
872.397	7046
872.526	7038
872.656	7072
872.785	7213
872.915	7415
873.044	7495
873.173	7556
873.303	7666
873.432	7769
873.561	7841
873.69	7845
873.819	8008
873.948	8161
874.077	8263
874.206	8328
874.335	8503
874.464	8655
874.593	8849
874.722	9036
874.851	9127
874.979	9249
875.108	9340
875.237	9431
875.365	9420
875.494	9682
875.623	9857
875.751	9831
875.88	10051
876.008	10204
876.136	10295
876.265	10481
876.393	10691
876.521	10672
876.65	10782
876.778	10911
876.906	10919
877.034	10987
877.162	11128
877.29	11143
877.418	11307
877.546	11311
877.674	11452
877.802	11417
877.93	11554
878.058	11592
878.185	11573
878.313	11699
878.441	11745
878.568	11638
878.696	11843
878.824	11847
878.951	11980
879.079	12038
879.206	12266
879.333	11999
879.461	11942
879.588	12076
879.715	12083
879.842	12186
879.97	12106
880.097	11897
880.224	11836
880.351	11958
880.478	11897
880.605	11832
880.732	11878
880.859	12026
880.986	11764
881.112	11882
881.239	11718
881.366	11638
881.493	11638
881.619	11623
881.746	11619
881.872	11467
881.999	11558
882.125	11421
882.252	11509
882.378	11528
882.505	11554
882.631	11402
882.757	11208
882.883	11356
883.01	11235
883.136	11136
883.262	11090
883.388	11098
883.514	11060
883.64	11254
883.766	11102
883.892	11003
884.018	10976
884.143	11086
884.269	11094
884.395	10847
884.52	10740
884.646	10824
884.772	10683
884.897	10664
885.023	10729
885.148	10797
885.274	10736
885.399	10710
885.524	10645
885.65	10554
885.775	10542
885.9	10527
886.025	10577
886.15	10599
886.275	10447
886.4	10402
886.525	10493
886.65	10360
886.775	10367
886.9	10451
887.025	10500
887.149	10356
887.274	10314
887.399	10150
887.523	10166
887.648	10101
887.773	10078
887.897	10230
888.021	10234
888.146	10173
888.27	10246
888.395	10287
888.519	10143
888.643	10219
888.767	10261
888.891	10124
889.015	10040
889.139	9987
889.263	9991
889.387	10097
889.511	10200
889.635	10101
889.759	9983
889.883	9899
890.006	9994
890.13	10158
890.254	10036
890.377	9979
890.501	9823
890.624	9926
890.748	9934
890.871	9911
890.995	9774
891.118	9759
891.241	9778
891.364	9800
891.488	9907
891.611	9717
891.734	9774
891.857	9728
891.98	9698
892.103	9686
892.226	9709
892.349	9629
892.471	9515
892.594	9591
892.717	9603
892.839	9641
892.962	9705
893.085	9663
893.207	9606
893.33	9431
893.452	9553
893.575	9625
893.697	9523
893.819	9603
893.941	9603
894.064	9561
894.186	9504
894.308	9428
894.43	9515
894.552	9561
894.674	9553
894.796	9424
894.918	9374
895.04	9382
895.161	9363
895.283	9279
895.405	9184
895.526	9294
895.648	9287
895.769	9218
895.891	9192
896.012	9241
896.134	9241
896.255	9279
896.376	9131
896.498	9211
896.619	9104
896.74	9161
896.861	9104
896.982	9256
897.103	9325
897.224	9192
897.345	9085
897.466	8975
897.587	9070
897.708	9119
897.828	9097
897.949	8994
898.07	8819
898.19	8895
898.311	9036
898.431	8921
898.552	8933
898.672	9047
898.792	9028
898.913	8902
899.033	8807
899.153	8769
899.273	8716
899.393	8769
899.513	8807
899.633	8762
899.753	8804
899.873	8678
899.993	8785
900.113	8705
900.232	8693
900.352	8632
900.472	8640
900.591	8598
900.711	8571
900.83	8511
900.95	8632
901.069	8712
901.189	8545
901.308	8518
901.427	8465
901.546	8427
901.665	8461
901.784	8488
901.904	8514
902.023	8381
902.141	8244
902.26	8248
902.379	8252
902.498	8237
902.617	8233
902.735	8324
902.854	8282
902.973	8286
903.091	8149
903.21	8153
903.328	8248
903.446	8123
903.565	8142
903.683	8035
903.801	8077
903.919	8107
904.038	8126
904.156	8046
904.274	8069
904.392	7982
904.51	8073
904.627	8031
904.745	8077
904.863	8149
904.981	7917
905.098	7879
905.216	7913
905.334	7887
905.451	7951
905.569	7947
905.686	7936
905.803	7959
905.921	7830
906.038	7890
906.155	7833
906.272	7753
906.389	7715
906.506	7719
906.623	7628
906.74	7639
906.857	7594
906.974	7578
907.091	7651
907.208	7746
907.324	7639
907.441	7597
907.557	7495
907.674	7453
907.79	7335
907.907	7400
908.023	7499
908.139	7445
908.256	7377
908.372	7396
908.488	7327
908.604	7308
908.72	7324
908.836	7339
908.952	7232
909.068	7293
909.184	7339
909.3	7274
909.415	7266
909.531	7339
909.647	7107
909.762	7175
909.878	7114
909.993	7129
910.108	7069
910.224	7080
910.339	7129
910.454	7053
910.57	7072
910.685	6973
910.8	7137
910.915	7099
911.03	7023
911.145	6852
911.259	6802
911.374	6928
911.489	6867
911.604	6867
911.718	6719
911.833	6798
911.947	6639
912.062	6604
912.176	6741
912.291	6677
912.405	6715
912.519	6833
912.633	6875
912.748	6745
912.862	6692
912.976	6608
913.09	6563
913.204	6513
913.318	6650
913.431	6684
913.545	6745
913.659	6738
913.772	6730
913.886	6555
914	6563
914.113	6681
914.226	6669
914.34	6623
914.453	6452
914.566	6620
914.68	6528
914.793	6547
914.906	6479
915.019	6441
915.132	6372
915.245	6460
915.358	6391
915.47	6464
915.583	6399
915.696	6494
915.809	6559
915.921	6544
916.034	6433
916.146	6414
916.259	6357
916.371	6471
916.483	6460
916.595	6429
916.708	6433
916.82	6410
916.932	6331
917.044	6388
917.156	6395
917.268	6361
917.38	6441
917.491	6315
917.603	6391
917.715	6448
917.826	6418
917.938	6353
918.049	6251
918.161	6369
918.272	6448
918.384	6471
918.495	6403
918.606	6258
918.717	6247
918.828	6251
918.939	6311
919.05	6201
919.161	6262
919.272	6117
919.383	6140
919.494	6285
919.604	6414
919.715	6292
919.826	6220
919.936	6285
920.047	6353
920.157	6296
920.267	6544
920.378	6338
920.488	6281
920.598	6479
920.708	6544
920.818	6483
920.928	6426
921.038	6631
921.148	6589
921.258	6376
921.368	6281
921.477	6197
921.587	6155
921.697	6098
921.806	6171
921.916	6102
922.025	5942
922.134	5935
922.244	5805
922.353	5992
922.462	5859
922.571	5824
922.68	5756
922.789	5699
922.898	5695
923.007	5684
923.116	5737
923.224	5619
923.333	5646
923.442	5680
923.55	5638
923.659	5596
923.767	5646
923.876	5589
923.984	5600
924.092	5509
924.201	5630
924.309	5509
924.417	5600
924.525	5497
924.633	5539
924.741	6300
924.849	5417
924.956	5452
925.064	5417
925.172	5322
925.279	5315
925.387	5345
925.494	5353
925.602	5429
925.709	5410
925.816	5277
925.924	5341
926.031	5395
926.138	5334
926.245	5307
926.352	5269
926.459	5330
926.566	5349
926.673	5204
926.779	5216
926.886	5098
926.993	5033
927.099	5045
927.206	5022
927.312	4953
927.419	5056
927.525	4957
927.631	5006
927.737	4904
927.843	4892
927.95	4801
928.056	4828
928.162	4850
928.267	4839
928.373	5273
928.479	4866
928.585	4717
928.69	4755
928.796	4824
928.901	4687
929.007	4622
929.112	4679
929.218	4615
929.323	4679
929.428	4615
929.533	4656
929.638	4512
929.743	4554
929.848	4588
929.953	4569
930.058	4512
930.163	4344
930.267	4375
930.372	4462
930.477	4360
930.581	4500
930.685	4402
930.79	4246
930.894	4352
930.998	4253
931.103	4409
931.207	4109
931.311	4078
931.415	4055
931.519	3941
931.623	3979
