Data from glass_V78500241_1012.txt Node
Date: Wed Sep 01 19:21:30 CST 2021
User: usil
Spectrometer: V785-0024
Trigger mode: 0
Integration Time (sec): 4.000000E-1
Scans to average: 1
Nonlinearity correction enabled: false
Boxcar width: 0
Storing dark spectrum: false
XAxis mode: Wavelengths
Number of Pixels in Spectrum: 1024
>>>>>Begin Spectral Data<<<<<
801.071	3762
801.214	3785
801.356	3713
801.499	3720
801.641	3732
801.783	3797
801.926	3842
802.068	3842
802.211	3835
802.353	3880
802.496	3842
802.638	3884
802.78	3922
802.923	3915
803.065	3880
803.208	3876
803.35	3827
803.492	3899
803.635	3937
803.777	3819
803.919	3907
804.061	4150
804.204	3972
804.346	3960
804.488	3922
804.63	4032
804.773	4006
804.915	4021
805.057	4131
805.199	3983
805.341	4162
805.483	4169
805.626	4120
805.768	4150
805.91	4230
806.052	4249
806.194	4211
806.336	4356
806.478	4196
806.62	4185
806.762	4177
806.904	4280
807.046	4367
807.188	4234
807.33	4207
807.472	4253
807.614	4253
807.756	4303
807.898	4242
808.04	4215
808.182	4306
808.324	4341
808.465	4398
808.607	4512
808.749	4485
808.891	4447
809.033	4538
809.174	4451
809.316	4219
809.458	4238
809.6	4105
809.741	4211
809.883	4169
810.025	4234
810.166	4188
810.308	4211
810.45	4249
810.591	4215
810.733	4291
810.875	4519
811.016	4854
811.158	5132
811.299	5303
811.441	5261
811.582	5079
811.724	4702
811.865	4466
812.007	4481
812.148	4413
812.29	4462
812.431	4455
812.573	4390
812.714	4352
812.855	4424
812.997	4436
813.138	4512
813.279	4409
813.421	4421
813.562	4329
813.703	4341
813.845	4318
813.986	4249
814.127	4257
814.268	4272
814.41	4306
814.551	4314
814.692	4337
814.833	4268
814.974	4341
815.115	4341
815.256	4295
815.397	4272
815.539	4337
815.68	4219
815.821	4227
815.962	4314
816.103	4287
816.244	4242
816.385	4207
816.526	4322
816.666	4253
816.807	4105
816.948	4162
817.089	4181
817.23	4120
817.371	4071
817.512	4051
817.653	4078
817.793	4040
817.934	4051
818.075	4169
818.216	4128
818.356	4105
818.497	3998
818.638	3964
818.778	3922
818.919	3861
819.06	3884
819.2	3892
819.341	3876
819.481	3823
819.622	3903
819.762	4055
819.903	3960
820.043	3854
820.184	3854
820.324	3823
820.465	3884
820.605	3880
820.746	3854
820.886	3804
821.026	3941
821.167	3896
821.307	3960
821.447	4010
821.588	3991
821.728	3930
821.868	3949
822.008	3911
822.149	3922
822.289	3888
822.429	3808
822.569	3766
822.709	3827
822.849	3698
822.99	3740
823.13	3705
823.27	3804
823.41	3709
823.55	3743
823.69	3717
823.83	3766
823.97	3686
824.11	3618
824.25	3587
824.389	3675
824.529	3641
824.669	3679
824.809	3709
824.949	3740
825.089	3770
825.228	3720
825.368	3580
825.508	3595
825.648	3538
825.787	3667
825.927	3660
826.067	3656
826.206	3663
826.346	3808
826.485	3835
826.625	3835
826.765	3972
826.904	3831
827.044	3606
827.183	3534
827.323	3458
827.462	3481
827.601	3447
827.741	3469
827.88	3466
828.02	3405
828.159	3462
828.298	3469
828.437	3515
828.577	3481
828.716	3599
828.855	3492
828.994	3416
829.134	3370
829.273	3428
829.412	3367
829.551	3378
829.69	3363
829.829	3454
829.968	3542
830.107	3435
830.246	3477
830.385	3367
830.524	3355
830.663	3268
830.802	3283
830.941	3253
831.08	3154
831.219	3287
831.357	3272
831.496	3374
831.635	3275
831.774	3199
831.913	3165
832.051	3116
832.19	3176
832.329	3253
832.467	3176
832.606	3112
832.744	3161
832.883	3165
833.022	3192
833.16	3294
833.299	3268
833.437	3370
833.576	3378
833.714	3393
833.852	3435
833.991	3420
834.129	3473
834.267	3409
834.406	3420
834.544	3447
834.682	3450
834.821	3439
834.959	3580
835.097	3477
835.235	3561
835.373	3504
835.511	3492
835.65	3462
835.788	3500
835.926	3405
836.064	3393
836.202	3424
836.34	3625
836.478	3610
836.615	3591
836.753	3625
836.891	3656
837.029	3618
837.167	3599
837.305	3557
837.443	3553
837.58	3515
837.718	3637
837.856	3610
837.993	3557
838.131	3641
838.269	3591
838.406	3580
838.544	3549
838.681	3473
838.819	3469
838.956	3348
839.094	3382
839.231	3473
839.369	3507
839.506	3747
839.643	3622
839.781	3488
839.918	3450
840.055	3561
840.193	3519
840.33	3500
840.467	3572
840.604	3606
840.742	3808
840.879	3564
841.016	3610
841.153	3564
841.29	3720
841.427	3720
841.564	3720
841.701	3766
841.838	3713
841.975	3717
842.112	3717
842.249	3629
842.385	3614
842.522	3835
842.659	3720
842.796	3698
842.933	3743
843.069	3705
843.206	3690
843.343	3797
843.479	3781
843.616	3838
843.752	3705
843.889	3701
844.025	3869
844.162	3709
844.298	3892
844.435	3789
844.571	3793
844.708	3922
844.844	4032
844.98	3991
845.117	4002
845.253	3975
845.389	3896
845.525	3979
845.661	3968
845.798	3972
845.934	4025
846.07	4002
846.206	4051
846.342	4128
846.478	4090
846.614	4002
846.75	3960
846.886	3896
847.022	4013
847.158	3983
847.294	3975
847.429	4029
847.565	4017
847.701	4230
847.837	3880
847.972	3869
848.108	4021
848.244	3979
848.379	3842
848.515	3823
848.65	3793
848.786	3835
848.921	3854
849.057	3926
849.192	3968
849.328	3937
849.463	3987
849.598	3892
849.734	3857
849.869	3793
850.004	3762
850.14	3835
850.275	3789
850.41	3713
850.545	3766
850.68	3785
850.815	3819
850.95	3823
851.085	3934
851.22	3869
851.355	3846
851.49	3793
851.625	3781
851.76	3835
851.895	3759
852.03	3705
852.165	3804
852.299	3880
852.434	3960
852.569	3842
852.703	3880
852.838	3972
852.973	4017
853.107	4010
853.242	3880
853.376	3911
853.511	3793
853.645	3812
853.78	3994
853.914	3922
854.048	3888
854.183	3903
854.317	3918
854.451	4082
854.585	3979
854.72	3979
854.854	4021
854.988	3941
855.122	4025
855.256	3930
855.39	4013
855.524	4109
855.658	4105
855.792	4166
855.926	4139
856.06	4150
856.194	4287
856.327	4109
856.461	4150
856.595	4162
856.729	4207
856.862	4234
856.996	4268
857.13	4348
857.263	4333
857.397	4375
857.53	4306
857.664	4325
857.797	4409
857.931	4443
858.064	4428
858.197	4462
858.331	4375
858.464	4398
858.597	4310
858.731	4447
858.864	4432
858.997	4466
859.13	4542
859.263	4592
859.396	4592
859.529	4523
859.662	4523
859.795	4485
859.928	4630
860.061	4706
860.194	4763
860.327	4683
860.46	4637
860.592	4752
860.725	4790
860.858	4793
860.99	4725
861.123	4675
861.256	4675
861.388	4824
861.521	5493
861.653	4733
861.786	4744
861.918	4748
862.05	4763
862.183	4866
862.315	4911
862.447	4904
862.58	4862
862.712	4805
862.844	4740
862.976	4885
863.108	4904
863.24	5265
863.372	4873
863.504	4919
863.636	4862
863.768	4972
863.9	4946
864.032	4919
864.164	4942
864.296	5109
864.428	5056
864.559	5094
864.691	5132
864.823	5151
864.954	5124
865.086	5189
865.217	5151
865.349	5155
865.48	5197
865.612	5223
865.743	5337
865.875	5254
866.006	5121
866.137	5208
866.269	5235
866.4	5261
866.531	5212
866.662	5250
866.793	5216
866.924	5330
867.055	5334
867.186	5296
867.317	5292
867.448	5345
867.579	5376
867.71	5353
867.841	5391
867.972	5444
868.103	5509
868.233	5490
868.364	5547
868.495	5585
868.625	5695
868.756	5798
868.886	5779
869.017	5703
869.147	5882
869.278	5878
869.408	5828
869.539	5824
869.669	5931
869.799	5931
869.929	5992
870.06	5988
870.19	6216
870.32	6216
870.45	6296
870.58	6372
870.71	6452
870.84	6509
870.97	6506
871.1	6372
871.23	6692
871.36	6715
871.489	6673
871.619	6715
871.749	6844
871.879	6844
872.008	6996
872.138	6977
872.267	7015
872.397	6970
872.526	7027
872.656	7084
872.785	7168
872.915	7327
873.044	7491
873.173	7601
873.303	7601
873.432	7738
873.561	7928
873.69	7940
873.819	8039
873.948	8206
874.077	8244
874.206	8298
874.335	8454
874.464	8648
874.593	8918
874.722	8929
874.851	9131
874.979	9180
875.108	9340
875.237	9439
875.365	9389
875.494	9618
875.623	9884
875.751	9846
875.88	10082
876.008	10173
876.136	10306
876.265	10512
876.393	10622
876.521	10702
876.65	10866
876.778	10965
876.906	10885
877.034	11048
877.162	11208
877.29	11151
877.418	11277
877.546	11376
877.674	11501
877.802	11406
877.93	11509
878.058	11539
878.185	11486
878.313	11707
878.441	11729
878.568	11688
878.696	11824
878.824	11840
878.951	11980
879.079	12079
879.206	12155
879.333	12133
879.461	11961
879.588	12178
879.715	11980
879.842	12323
879.97	12190
880.097	11863
880.224	11931
880.351	11935
880.478	11912
880.605	11836
880.732	11805
880.859	12072
880.986	11863
881.112	11904
881.239	11790
881.366	11684
881.493	11619
881.619	11581
881.746	11486
881.872	11558
881.999	11539
882.125	11455
882.252	11539
882.378	11532
882.505	11562
882.631	11372
882.757	11239
882.883	11330
883.01	11242
883.136	11174
883.262	11140
883.388	11079
883.514	11181
883.64	11117
883.766	11128
883.892	10972
884.018	11018
884.143	11018
884.269	11117
884.395	10877
884.52	10748
884.646	10801
884.772	10759
884.897	10660
885.023	10752
885.148	10763
885.274	10729
885.399	10755
885.524	10653
885.65	10580
885.775	10599
885.9	10573
886.025	10641
886.15	10649
886.275	10470
886.4	10424
886.525	10447
886.65	10390
886.775	10337
886.9	10493
887.025	10561
887.149	10405
887.274	10242
887.399	10162
887.523	10215
887.648	10139
887.773	10063
887.897	10246
888.021	10322
888.146	10124
888.27	10211
888.395	10181
888.519	10268
888.643	10211
888.767	10257
888.891	10131
889.015	10032
889.139	10097
889.263	9994
889.387	10101
889.511	10150
889.635	10109
889.759	10021
889.883	10040
890.006	9964
890.13	10139
890.254	9998
890.377	9991
890.501	9880
890.624	9869
890.748	9918
890.871	9808
890.995	9778
891.118	9762
891.241	9770
891.364	9755
891.488	9808
891.611	9728
891.734	9819
891.857	9793
891.98	9778
892.103	9800
892.226	9705
892.349	9743
892.471	9523
892.594	9568
892.717	9671
892.839	9618
892.962	9614
893.085	9694
893.207	9622
893.33	9466
893.452	9576
893.575	9584
893.697	9568
893.819	9587
893.941	9648
894.064	9580
894.186	9549
894.308	9374
894.43	9545
894.552	9622
894.674	9595
894.796	9332
894.918	9363
895.04	9416
895.161	9382
895.283	9408
895.405	9195
895.526	9313
895.648	9245
895.769	9256
895.891	9237
896.012	9302
896.134	9287
896.255	9169
896.376	9097
896.498	9207
896.619	9127
896.74	9051
896.861	9104
896.982	9245
897.103	9287
897.224	9108
897.345	9104
897.466	9001
897.587	9047
897.708	9062
897.828	9104
897.949	8918
898.07	8899
898.19	8937
898.311	8994
898.431	8880
898.552	8937
898.672	8925
898.792	8902
898.913	8887
899.033	8842
899.153	8758
899.273	8636
899.393	8731
899.513	8773
899.633	8697
899.753	8773
899.873	8743
899.993	8834
900.113	8727
900.232	8682
900.352	8670
900.472	8636
900.591	8545
900.711	8621
900.83	8575
900.95	8648
901.069	8689
901.189	8568
901.308	8412
901.427	8476
901.546	8476
901.665	8438
901.784	8514
901.904	8374
902.023	8400
902.141	8218
902.26	8229
902.379	8298
902.498	8206
902.617	8161
902.735	8358
902.854	8358
902.973	8252
903.091	8119
903.21	8153
903.328	8115
903.446	8187
903.565	8031
903.683	8103
903.801	8054
903.919	8145
904.038	8164
904.156	8043
904.274	8100
904.392	7959
904.51	8016
904.627	8096
904.745	8077
904.863	8100
904.981	7947
905.098	7856
905.216	7841
905.334	7967
905.451	7909
905.569	7845
905.686	7997
905.803	7909
905.921	7871
906.038	7917
906.155	7807
906.272	7734
906.389	7746
906.506	7639
906.623	7643
906.74	7628
906.857	7529
906.974	7548
907.091	7658
907.208	7696
907.324	7590
907.441	7521
907.557	7533
907.674	7487
907.79	7407
907.907	7441
908.023	7419
908.139	7445
908.256	7422
908.372	7369
908.488	7350
908.604	7335
908.72	7297
908.836	7270
908.952	7259
909.068	7266
909.184	7335
909.3	7324
909.415	7350
909.531	7263
909.647	7114
909.762	7122
909.878	7084
909.993	7133
910.108	7057
910.224	7091
910.339	7080
910.454	7019
910.57	7038
910.685	6973
910.8	7206
910.915	7118
911.03	7053
911.145	6913
911.259	6810
911.374	6905
911.489	6848
911.604	6810
911.718	6760
911.833	6760
911.947	6585
912.062	6566
912.176	6745
912.291	6753
912.405	6696
912.519	6878
912.633	6859
912.748	6791
912.862	6760
912.976	6631
913.09	6509
913.204	6604
913.318	6604
913.431	6654
913.545	6696
913.659	6692
913.772	6650
913.886	6574
914	6566
914.113	6700
914.226	6658
914.34	6642
914.453	6532
914.566	6597
914.68	6525
914.793	6585
914.906	6422
915.019	6426
915.132	6365
915.245	6395
915.358	6445
915.47	6483
915.583	6486
915.696	6502
915.809	6536
915.921	6570
916.034	6456
916.146	6395
916.259	6410
916.371	6486
916.483	6437
916.595	6418
916.708	6422
916.82	6422
916.932	6388
917.044	6422
917.156	6433
917.268	6350
917.38	6357
917.491	6296
917.603	6395
917.715	6426
917.826	6456
917.938	6422
918.049	6239
918.161	6414
918.272	6452
918.384	6464
918.495	6361
918.606	6277
918.717	6224
918.828	6262
918.939	6308
919.05	6216
919.161	6247
919.272	6114
919.383	6201
919.494	6266
919.604	6429
919.715	6281
919.826	6281
919.936	6296
920.047	6380
920.157	6304
920.267	6494
920.378	6372
920.488	6346
920.598	6426
920.708	6570
920.818	6456
920.928	6471
921.038	6547
921.148	6620
921.258	6429
921.368	6289
921.477	6186
921.587	6163
921.697	6114
921.806	6220
921.916	6030
922.025	5927
922.134	5923
922.244	5897
922.353	5973
922.462	5863
922.571	5840
922.68	5756
922.789	5661
922.898	5741
923.007	5649
923.116	5729
923.224	5668
923.333	5684
923.442	5589
923.55	5547
923.659	5608
923.767	5604
923.876	5600
923.984	5627
924.092	5543
924.201	5543
924.309	5551
924.417	5596
924.525	5520
924.633	5463
924.741	6262
924.849	5414
924.956	5474
925.064	5318
925.172	5349
925.279	5307
925.387	5349
925.494	5334
925.602	5433
925.709	5372
925.816	5284
925.924	5372
926.031	5376
926.138	5330
926.245	5330
926.352	5220
926.459	5318
926.566	5326
926.673	5216
926.779	5155
926.886	5109
926.993	5067
927.099	4957
927.206	5025
927.312	4938
927.419	5025
927.525	4976
927.631	5003
927.737	4892
927.843	4854
927.95	4809
928.056	4858
928.162	4831
928.267	4831
928.373	5357
928.479	4839
928.585	4698
928.69	4786
928.796	4801
928.901	4733
929.007	4577
929.112	4698
929.218	4558
929.323	4558
929.428	4588
929.533	4702
929.638	4538
929.743	4577
929.848	4527
929.953	4497
930.058	4440
930.163	4333
930.267	4363
930.372	4443
930.477	4318
930.581	4485
930.685	4344
930.79	4249
930.894	4284
930.998	4272
931.103	4424
931.207	4109
931.311	4101
931.415	4010
931.519	3930
931.623	3949
