Data from glass_V78500241_2876.txt Node
Date: Wed Sep 01 19:34:26 CST 2021
User: usil
Spectrometer: V785-0024
Trigger mode: 0
Integration Time (sec): 4.000000E-1
Scans to average: 1
Nonlinearity correction enabled: false
Boxcar width: 0
Storing dark spectrum: false
XAxis mode: Wavelengths
Number of Pixels in Spectrum: 1024
>>>>>Begin Spectral Data<<<<<
801.071	3705
801.214	3732
801.356	3682
801.499	3759
801.641	3675
801.783	3781
801.926	3857
802.068	3808
802.211	3873
802.353	3850
802.496	3816
802.638	3865
802.78	3899
802.923	3861
803.065	3876
803.208	3861
803.35	3835
803.492	3888
803.635	3892
803.777	3762
803.919	3861
804.061	4196
804.204	3972
804.346	3964
804.488	3899
804.63	4006
804.773	3941
804.915	3987
805.057	4097
805.199	4013
805.341	4082
805.483	4135
805.626	4082
805.768	4090
805.91	4177
806.052	4188
806.194	4162
806.336	4341
806.478	4177
806.62	4120
806.762	4162
806.904	4227
807.046	4337
807.188	4158
807.33	4139
807.472	4211
807.614	4227
807.756	4207
807.898	4223
808.04	4204
808.182	4272
808.324	4325
808.465	4341
808.607	4428
808.749	4440
808.891	4421
809.033	4489
809.174	4348
809.316	4314
809.458	4265
809.6	4120
809.741	4143
809.883	4116
810.025	4185
810.166	4150
810.308	4196
810.45	4230
810.591	4223
810.733	4287
810.875	4478
811.016	4790
811.158	5102
811.299	5250
811.441	5258
811.582	5052
811.724	4668
811.865	4470
812.007	4417
812.148	4367
812.29	4394
812.431	4379
812.573	4363
812.714	4348
812.855	4375
812.997	4348
813.138	4489
813.279	4398
813.421	4417
813.562	4356
813.703	4306
813.845	4303
813.986	4249
814.127	4207
814.268	4284
814.41	4276
814.551	4223
814.692	4325
814.833	4280
814.974	4246
815.115	4303
815.256	4204
815.397	4188
815.539	4211
815.68	4139
815.821	4192
815.962	4314
816.103	4246
816.244	4219
816.385	4223
816.526	4230
816.666	4215
816.807	4093
816.948	4162
817.089	4162
817.23	4128
817.371	3991
817.512	4010
817.653	4040
817.793	3994
817.934	4048
818.075	4055
818.216	4032
818.356	4090
818.497	3979
818.638	3960
818.778	3915
818.919	3854
819.06	3823
819.2	3911
819.341	3846
819.481	3808
819.622	3876
819.762	4036
819.903	3975
820.043	3827
820.184	3819
820.324	3797
820.465	3846
820.605	3816
820.746	3838
820.886	3751
821.026	3888
821.167	3903
821.307	3953
821.447	3953
821.588	3892
821.728	3953
821.868	3930
822.008	3880
822.149	3873
822.289	3903
822.429	3743
822.569	3732
822.709	3770
822.849	3675
822.99	3682
823.13	3755
823.27	3774
823.41	3679
823.55	3740
823.69	3713
823.83	3759
823.97	3679
824.11	3610
824.25	3542
824.389	3614
824.529	3641
824.669	3622
824.809	3652
824.949	3740
825.089	3717
825.228	3694
825.368	3584
825.508	3530
825.648	3553
825.787	3557
825.927	3599
826.067	3629
826.206	3652
826.346	3732
826.485	3781
826.625	3804
826.765	3888
826.904	3793
827.044	3614
827.183	3473
827.323	3424
827.462	3462
827.601	3401
827.741	3405
827.88	3424
828.02	3321
828.159	3443
828.298	3473
828.437	3523
828.577	3454
828.716	3572
828.855	3458
828.994	3367
829.134	3359
829.273	3340
829.412	3306
829.551	3317
829.69	3344
829.829	3447
829.968	3523
830.107	3431
830.246	3416
830.385	3340
830.524	3313
830.663	3294
830.802	3226
830.941	3157
831.08	3188
831.219	3241
831.357	3226
831.496	3370
831.635	3157
831.774	3161
831.913	3192
832.051	3131
832.19	3089
832.329	3214
832.467	3142
832.606	3093
832.744	3146
832.883	3138
833.022	3131
833.16	3233
833.299	3279
833.437	3317
833.576	3378
833.714	3397
833.852	3435
833.991	3389
834.129	3435
834.267	3431
834.406	3370
834.544	3412
834.682	3389
834.821	3409
834.959	3553
835.097	3424
835.235	3534
835.373	3488
835.511	3481
835.65	3431
835.788	3447
835.926	3416
836.064	3344
836.202	3382
836.34	3553
836.478	3587
836.615	3553
836.753	3572
836.891	3625
837.029	3591
837.167	3545
837.305	3534
837.443	3500
837.58	3481
837.718	3561
837.856	3507
837.993	3530
838.131	3576
838.269	3606
838.406	3564
838.544	3564
838.681	3447
838.819	3409
838.956	3359
839.094	3393
839.231	3409
839.369	3447
839.506	3709
839.643	3603
839.781	3492
839.918	3488
840.055	3557
840.193	3481
840.33	3519
840.467	3500
840.604	3584
840.742	3774
840.879	3523
841.016	3542
841.153	3584
841.29	3690
841.427	3690
841.564	3724
841.701	3698
841.838	3686
841.975	3679
842.112	3682
842.249	3644
842.385	3568
842.522	3793
842.659	3641
842.796	3637
842.933	3663
843.069	3705
843.206	3690
843.343	3785
843.479	3751
843.616	3800
843.752	3637
843.889	3690
844.025	3835
844.162	3675
844.298	3831
844.435	3766
844.571	3770
844.708	3918
844.844	3979
844.98	3945
845.117	3975
845.253	3892
845.389	3876
845.525	3987
845.661	3918
845.798	3876
845.934	3956
846.07	3949
846.206	4021
846.342	4120
846.478	4017
846.614	4002
846.75	3896
846.886	3892
847.022	3994
847.158	3918
847.294	4010
847.429	3994
847.565	3979
847.701	4215
847.837	3835
847.972	3835
848.108	3991
848.244	3975
848.379	3884
848.515	3759
848.65	3789
848.786	3819
848.921	3854
849.057	3922
849.192	3899
849.328	3884
849.463	3869
849.598	3876
849.734	3838
849.869	3793
850.004	3736
850.14	3797
850.275	3804
850.41	3709
850.545	3720
850.68	3774
850.815	3755
850.95	3789
851.085	3907
851.22	3861
851.355	3835
851.49	3797
851.625	3743
851.76	3808
851.895	3679
852.03	3713
852.165	3755
852.299	3838
852.434	3873
852.569	3876
852.703	3842
852.838	3857
852.973	3926
853.107	3934
853.242	3857
853.376	3838
853.511	3762
853.645	3831
853.78	3972
853.914	3865
854.048	3869
854.183	3892
854.317	3884
854.451	4025
854.585	3922
854.72	3941
854.854	3926
854.988	3903
855.122	4021
855.256	3892
855.39	4010
855.524	4032
855.658	4055
855.792	4097
855.926	4059
856.06	4158
856.194	4185
856.327	4090
856.461	4112
856.595	4112
856.729	4169
856.862	4219
856.996	4181
857.13	4257
857.263	4303
857.397	4280
857.53	4249
857.664	4325
857.797	4390
857.931	4409
858.064	4325
858.197	4402
858.331	4379
858.464	4367
858.597	4333
858.731	4409
858.864	4462
858.997	4424
859.13	4535
859.263	4485
859.396	4554
859.529	4443
859.662	4489
859.795	4478
859.928	4561
860.061	4637
860.194	4664
860.327	4630
860.46	4596
860.592	4778
860.725	4706
860.858	4763
860.99	4683
861.123	4668
861.256	4706
861.388	4748
861.521	5379
861.653	4679
861.786	4694
861.918	4698
862.05	4774
862.183	4801
862.315	4831
862.447	4911
862.58	4858
862.712	4790
862.844	4812
862.976	4854
863.108	4843
863.24	5212
863.372	4782
863.504	4889
863.636	4889
863.768	4972
863.9	4957
864.032	4938
864.164	4908
864.296	4991
864.428	5079
864.559	5090
864.691	5140
864.823	5109
864.954	5105
865.086	5079
865.217	5071
865.349	5045
865.48	5166
865.612	5136
865.743	5269
865.875	5197
866.006	5193
866.137	5212
866.269	5239
866.4	5239
866.531	5235
866.662	5212
866.793	5220
866.924	5239
867.055	5303
867.186	5357
867.317	5299
867.448	5242
867.579	5357
867.71	5322
867.841	5326
867.972	5429
868.103	5448
868.233	5467
868.364	5482
868.495	5516
868.625	5577
868.756	5760
868.886	5615
869.017	5691
869.147	5790
869.278	5882
869.408	5813
869.539	5802
869.669	5897
869.799	5893
869.929	5935
870.06	5984
870.19	6152
870.32	6155
870.45	6254
870.58	6361
870.71	6369
870.84	6407
870.97	6388
871.1	6372
871.23	6616
871.36	6677
871.489	6597
871.619	6757
871.749	6776
871.879	6833
872.008	6924
872.138	6947
872.267	7008
872.397	6962
872.526	7004
872.656	7103
872.785	7240
872.915	7327
873.044	7502
873.173	7537
873.303	7601
873.432	7674
873.561	7849
873.69	7879
873.819	8039
873.948	8187
874.077	8229
874.206	8298
874.335	8415
874.464	8655
874.593	8830
874.722	8876
874.851	9058
874.979	9180
875.108	9287
875.237	9416
875.365	9447
875.494	9591
875.623	9804
875.751	9835
875.88	9903
876.008	10101
876.136	10280
876.265	10519
876.393	10694
876.521	10634
876.65	10744
876.778	10828
876.906	10927
877.034	10987
877.162	11041
877.29	11094
877.418	11296
877.546	11280
877.674	11516
877.802	11379
877.93	11604
878.058	11509
878.185	11547
878.313	11623
878.441	11665
878.568	11691
878.696	11748
878.824	11714
878.951	11889
879.079	12026
879.206	12095
879.333	12019
879.461	11920
879.588	12007
879.715	12083
879.842	12186
879.97	11984
880.097	11923
880.224	11802
880.351	11893
880.478	11935
880.605	11836
880.732	11878
880.859	12022
880.986	11752
881.112	11847
881.239	11691
881.366	11573
881.493	11630
881.619	11520
881.746	11535
881.872	11509
881.999	11501
882.125	11410
882.252	11539
882.378	11444
882.505	11505
882.631	11356
882.757	11197
882.883	11258
883.01	11280
883.136	11162
883.262	11155
883.388	11090
883.514	11140
883.64	11193
883.766	11075
883.892	11029
884.018	10889
884.143	11006
884.269	11075
884.395	10729
884.52	10702
884.646	10752
884.772	10740
884.897	10675
885.023	10645
885.148	10672
885.274	10744
885.399	10649
885.524	10573
885.65	10550
885.775	10508
885.9	10504
886.025	10573
886.15	10474
886.275	10462
886.4	10356
886.525	10375
886.65	10348
886.775	10246
886.9	10451
887.025	10546
887.149	10310
887.274	10234
887.399	10246
887.523	10139
887.648	10109
887.773	10044
887.897	10242
888.021	10303
888.146	10025
888.27	10188
888.395	10227
888.519	10120
888.643	10143
888.767	10200
888.891	10071
889.015	9949
889.139	10074
889.263	9911
889.387	9998
889.511	10078
889.635	10074
889.759	9915
889.883	9956
890.006	9945
890.13	10101
890.254	9915
890.377	9937
890.501	9812
890.624	9800
890.748	9857
890.871	9720
890.995	9679
891.118	9732
891.241	9705
891.364	9785
891.488	9838
891.611	9694
891.734	9762
891.857	9751
891.98	9740
892.103	9675
892.226	9671
892.349	9656
892.471	9523
892.594	9580
892.717	9572
892.839	9568
892.962	9545
893.085	9580
893.207	9553
893.33	9492
893.452	9469
893.575	9622
893.697	9447
893.819	9568
893.941	9584
894.064	9580
894.186	9367
894.308	9363
894.43	9492
894.552	9519
894.674	9485
894.796	9393
894.918	9363
895.04	9325
895.161	9317
895.283	9344
895.405	9161
895.526	9253
895.648	9195
895.769	9188
895.891	9226
896.012	9279
896.134	9283
896.255	9192
896.376	9123
896.498	9127
896.619	9123
896.74	9100
896.861	9051
896.982	9195
897.103	9275
897.224	9154
897.345	9142
897.466	8963
897.587	9013
897.708	9028
897.828	8982
897.949	8880
898.07	8823
898.19	8895
898.311	8967
898.431	8960
898.552	8891
898.672	8948
898.792	8933
898.913	8902
899.033	8804
899.153	8762
899.273	8651
899.393	8720
899.513	8735
899.633	8720
899.753	8792
899.873	8617
899.993	8693
900.113	8712
900.232	8693
900.352	8613
900.472	8575
900.591	8560
900.711	8590
900.83	8575
900.95	8621
901.069	8629
901.189	8537
901.308	8423
901.427	8328
901.546	8415
901.665	8450
901.784	8484
901.904	8377
902.023	8290
902.141	8218
902.26	8183
902.379	8229
902.498	8233
902.617	8149
902.735	8313
902.854	8252
902.973	8252
903.091	8134
903.21	8130
903.328	8161
903.446	8058
903.565	8088
903.683	8084
903.801	8035
903.919	8103
904.038	8096
904.156	8001
904.274	8100
904.392	8031
904.51	7967
904.627	8008
904.745	8043
904.863	8054
904.981	7947
905.098	7860
905.216	7792
905.334	7902
905.451	7826
905.569	7830
905.686	7822
905.803	7906
905.921	7723
906.038	7909
906.155	7677
906.272	7719
906.389	7658
906.506	7605
906.623	7647
906.74	7662
906.857	7480
906.974	7529
907.091	7628
907.208	7658
907.324	7620
907.441	7567
907.557	7438
907.674	7464
907.79	7335
907.907	7384
908.023	7411
908.139	7415
908.256	7388
908.372	7343
908.488	7343
908.604	7228
908.72	7221
908.836	7266
908.952	7221
909.068	7225
909.184	7282
909.3	7228
909.415	7327
909.531	7217
909.647	7133
909.762	7095
909.878	7023
909.993	7114
910.108	7069
910.224	7004
910.339	7080
910.454	7065
910.57	7004
910.685	6916
910.8	7137
910.915	7076
911.03	6977
911.145	6878
911.259	6833
911.374	6871
911.489	6802
911.604	6802
911.718	6719
911.833	6726
911.947	6578
912.062	6635
912.176	6677
912.291	6707
912.405	6681
912.519	6776
912.633	6753
912.748	6677
912.862	6703
912.976	6547
913.09	6540
913.204	6566
913.318	6608
913.431	6669
913.545	6662
913.659	6684
913.772	6574
913.886	6563
914	6544
914.113	6612
914.226	6566
914.34	6578
914.453	6506
914.566	6582
914.68	6464
914.793	6502
914.906	6403
915.019	6399
915.132	6342
915.245	6433
915.358	6418
915.47	6471
915.583	6452
915.696	6506
915.809	6490
915.921	6513
916.034	6361
916.146	6399
916.259	6361
916.371	6441
916.483	6426
916.595	6342
916.708	6369
916.82	6391
916.932	6300
917.044	6388
917.156	6357
917.268	6323
917.38	6311
917.491	6277
917.603	6296
917.715	6369
917.826	6391
917.938	6315
918.049	6254
918.161	6308
918.272	6353
918.384	6350
918.495	6338
918.606	6201
918.717	6216
918.828	6251
918.939	6277
919.05	6201
919.161	6235
919.272	6068
919.383	6098
919.494	6262
919.604	6365
919.715	6289
919.826	6232
919.936	6216
920.047	6342
920.157	6254
920.267	6464
920.378	6315
920.488	6304
920.598	6456
920.708	6498
920.818	6456
920.928	6388
921.038	6574
921.148	6555
921.258	6304
921.368	6247
921.477	6171
921.587	6114
921.697	6030
921.806	6110
921.916	6045
922.025	5946
922.134	5908
922.244	5866
922.353	5927
922.462	5817
922.571	5783
922.68	5718
922.789	5672
922.898	5688
923.007	5680
923.116	5642
923.224	5661
923.333	5657
923.442	5554
923.55	5592
923.659	5600
923.767	5638
923.876	5577
923.984	5596
924.092	5532
924.201	5539
924.309	5562
924.417	5551
924.525	5490
924.633	5459
924.741	6106
924.849	5368
924.956	5433
925.064	5296
925.172	5246
925.279	5273
925.387	5318
925.494	5280
925.602	5349
925.709	5337
925.816	5280
925.924	5292
926.031	5372
926.138	5277
926.245	5299
926.352	5201
926.459	5269
926.566	5254
926.673	5170
926.779	5090
926.886	5041
926.993	5033
927.099	5018
927.206	4938
927.312	4987
927.419	5006
927.525	4946
927.631	4942
927.737	4881
927.843	4797
927.95	4763
928.056	4786
928.162	4820
928.267	4831
928.373	5159
928.479	4759
928.585	4634
928.69	4736
928.796	4698
928.901	4653
929.007	4599
929.112	4653
929.218	4637
929.323	4538
929.428	4577
929.533	4599
929.638	4447
929.743	4546
929.848	4546
929.953	4481
930.058	4417
930.163	4352
930.267	4318
930.372	4417
930.477	4272
930.581	4428
930.685	4390
930.79	4211
930.894	4253
930.998	4173
931.103	4375
931.207	4082
931.311	4017
931.415	4097
931.519	3941
931.623	3953
