Data from glass_V78500241_1634.txt Node
Date: Wed Sep 01 19:25:49 CST 2021
User: usil
Spectrometer: V785-0024
Trigger mode: 0
Integration Time (sec): 4.000000E-1
Scans to average: 1
Nonlinearity correction enabled: false
Boxcar width: 0
Storing dark spectrum: false
XAxis mode: Wavelengths
Number of Pixels in Spectrum: 1024
>>>>>Begin Spectral Data<<<<<
801.071	3736
801.214	3755
801.356	3747
801.499	3713
801.641	3736
801.783	3804
801.926	3827
802.068	3819
802.211	3880
802.353	3869
802.496	3838
802.638	3876
802.78	3869
802.923	3915
803.065	3911
803.208	3846
803.35	3865
803.492	3903
803.635	3915
803.777	3827
803.919	3911
804.061	4109
804.204	3953
804.346	3937
804.488	3903
804.63	4059
804.773	4021
804.915	4032
805.057	4181
805.199	4059
805.341	4059
805.483	4135
805.626	4131
805.768	4105
805.91	4223
806.052	4181
806.194	4177
806.336	4299
806.478	4207
806.62	4169
806.762	4204
806.904	4280
807.046	4287
807.188	4196
807.33	4188
807.472	4223
807.614	4192
807.756	4257
807.898	4166
808.04	4238
808.182	4287
808.324	4310
808.465	4379
808.607	4424
808.749	4436
808.891	4474
809.033	4546
809.174	4405
809.316	4295
809.458	4207
809.6	4177
809.741	4173
809.883	4166
810.025	4219
810.166	4185
810.308	4192
810.45	4223
810.591	4200
810.733	4303
810.875	4558
811.016	4835
811.158	5124
811.299	5254
811.441	5273
811.582	5048
811.724	4672
811.865	4481
812.007	4443
812.148	4455
812.29	4455
812.431	4405
812.573	4443
812.714	4394
812.855	4383
812.997	4405
813.138	4489
813.279	4390
813.421	4413
813.562	4394
813.703	4325
813.845	4352
813.986	4261
814.127	4230
814.268	4249
814.41	4280
814.551	4287
814.692	4303
814.833	4287
814.974	4295
815.115	4310
815.256	4265
815.397	4211
815.539	4253
815.68	4200
815.821	4185
815.962	4341
816.103	4356
816.244	4242
816.385	4242
816.526	4268
816.666	4200
816.807	4097
816.948	4192
817.089	4169
817.23	4074
817.371	4010
817.512	4040
817.653	4006
817.793	4074
817.934	4051
818.075	4101
818.216	4071
818.356	4093
818.497	3953
818.638	3880
818.778	3930
818.919	3896
819.06	3861
819.2	3934
819.341	3838
819.481	3835
819.622	3899
819.762	3968
819.903	3956
820.043	3850
820.184	3800
820.324	3808
820.465	3857
820.605	3888
820.746	3899
820.886	3774
821.026	3926
821.167	3930
821.307	3945
821.447	3945
821.588	3964
821.728	3941
821.868	3934
822.008	3896
822.149	3926
822.289	3979
822.429	3808
822.569	3778
822.709	3781
822.849	3720
822.99	3728
823.13	3808
823.27	3732
823.41	3686
823.55	3743
823.69	3747
823.83	3743
823.97	3751
824.11	3580
824.25	3622
824.389	3633
824.529	3682
824.669	3625
824.809	3740
824.949	3762
825.089	3736
825.228	3663
825.368	3584
825.508	3545
825.648	3584
825.787	3580
825.927	3606
826.067	3614
826.206	3675
826.346	3804
826.485	3854
826.625	3846
826.765	3937
826.904	3816
827.044	3587
827.183	3549
827.323	3439
827.462	3500
827.601	3397
827.741	3435
827.88	3439
828.02	3393
828.159	3389
828.298	3439
828.437	3515
828.577	3481
828.716	3599
828.855	3504
828.994	3370
829.134	3363
829.273	3370
829.412	3351
829.551	3370
829.69	3389
829.829	3462
829.968	3549
830.107	3439
830.246	3435
830.385	3412
830.524	3340
830.663	3313
830.802	3272
830.941	3195
831.08	3203
831.219	3241
831.357	3264
831.496	3393
831.635	3237
831.774	3161
831.913	3169
832.051	3138
832.19	3135
832.329	3207
832.467	3146
832.606	3081
832.744	3165
832.883	3161
833.022	3222
833.16	3260
833.299	3313
833.437	3348
833.576	3359
833.714	3363
833.852	3496
833.991	3435
834.129	3488
834.267	3412
834.406	3393
834.544	3382
834.682	3439
834.821	3431
834.959	3557
835.097	3439
835.235	3515
835.373	3511
835.511	3496
835.65	3454
835.788	3507
835.926	3401
836.064	3374
836.202	3370
836.34	3599
836.478	3599
836.615	3542
836.753	3587
836.891	3663
837.029	3625
837.167	3595
837.305	3572
837.443	3545
837.58	3488
837.718	3648
837.856	3553
837.993	3542
838.131	3561
838.269	3561
838.406	3637
838.544	3564
838.681	3462
838.819	3443
838.956	3386
839.094	3378
839.231	3428
839.369	3523
839.506	3728
839.643	3663
839.781	3481
839.918	3469
840.055	3507
840.193	3549
840.33	3481
840.467	3553
840.604	3595
840.742	3808
840.879	3542
841.016	3576
841.153	3576
841.29	3778
841.427	3717
841.564	3698
841.701	3755
841.838	3679
841.975	3675
842.112	3709
842.249	3660
842.385	3644
842.522	3819
842.659	3713
842.796	3682
842.933	3679
843.069	3686
843.206	3682
843.343	3816
843.479	3755
843.616	3854
843.752	3682
843.889	3705
844.025	3816
844.162	3720
844.298	3823
844.435	3785
844.571	3793
844.708	3899
844.844	3994
844.98	3991
845.117	3998
845.253	3934
845.389	3888
845.525	3949
845.661	3972
845.798	3926
845.934	4006
846.07	3960
846.206	4074
846.342	4093
846.478	4090
846.614	3983
846.75	3926
846.886	3884
847.022	4036
847.158	3972
847.294	4006
847.429	4013
847.565	4017
847.701	4253
847.837	3861
847.972	3846
848.108	3956
848.244	4036
848.379	3857
848.515	3804
848.65	3785
848.786	3808
848.921	3861
849.057	3922
849.192	3934
849.328	3884
849.463	3918
849.598	3907
849.734	3850
849.869	3842
850.004	3785
850.14	3812
850.275	3823
850.41	3770
850.545	3766
850.68	3762
850.815	3800
850.95	3797
851.085	3922
851.22	3873
851.355	3812
851.49	3789
851.625	3793
851.76	3781
851.895	3759
852.03	3701
852.165	3838
852.299	3850
852.434	3903
852.569	3865
852.703	3918
852.838	3972
852.973	4055
853.107	3991
853.242	3873
853.376	3869
853.511	3831
853.645	3857
853.78	3934
853.914	3873
854.048	3865
854.183	3915
854.317	3949
854.451	4059
854.585	3991
854.72	3949
854.854	4032
854.988	3937
855.122	3998
855.256	3899
855.39	4002
855.524	4112
855.658	4074
855.792	4120
855.926	4150
856.06	4135
856.194	4204
856.327	4135
856.461	4109
856.595	4135
856.729	4166
856.862	4287
856.996	4238
857.13	4291
857.263	4322
857.397	4375
857.53	4284
857.664	4394
857.797	4405
857.931	4413
858.064	4386
858.197	4440
858.331	4394
858.464	4375
858.597	4337
858.731	4356
858.864	4466
858.997	4485
859.13	4500
859.263	4535
859.396	4558
859.529	4481
859.662	4554
859.795	4535
859.928	4622
860.061	4717
860.194	4721
860.327	4698
860.46	4637
860.592	4672
860.725	4733
860.858	4710
860.99	4691
861.123	4679
861.256	4664
861.388	4721
861.521	5528
861.653	4702
861.786	4740
861.918	4706
862.05	4790
862.183	4828
862.315	4831
862.447	4953
862.58	4858
862.712	4793
862.844	4733
862.976	4870
863.108	4858
863.24	5181
863.372	4835
863.504	4908
863.636	4904
863.768	4999
863.9	4984
864.032	4908
864.164	4889
864.296	5037
864.428	5083
864.559	5041
864.691	5098
864.823	5151
864.954	5121
865.086	5162
865.217	5098
865.349	5098
865.48	5197
865.612	5159
865.743	5318
865.875	5223
866.006	5117
866.137	5216
866.269	5250
866.4	5269
866.531	5261
866.662	5258
866.793	5239
866.924	5318
867.055	5341
867.186	5296
867.317	5322
867.448	5307
867.579	5402
867.71	5349
867.841	5391
867.972	5471
868.103	5490
868.233	5490
868.364	5486
868.495	5562
868.625	5676
868.756	5813
868.886	5672
869.017	5714
869.147	5897
869.278	5874
869.408	5817
869.539	5859
869.669	5965
869.799	5870
869.929	6022
870.06	6034
870.19	6182
870.32	6220
870.45	6300
870.58	6308
870.71	6353
870.84	6506
870.97	6460
871.1	6399
871.23	6658
871.36	6703
871.489	6665
871.619	6734
871.749	6760
871.879	6814
872.008	6947
872.138	7012
872.267	6958
872.397	6947
872.526	7057
872.656	7160
872.785	7179
872.915	7392
873.044	7533
873.173	7548
873.303	7632
873.432	7841
873.561	7860
873.69	7978
873.819	7978
873.948	8164
874.077	8252
874.206	8298
874.335	8450
874.464	8644
874.593	8800
874.722	8887
874.851	9097
874.979	9253
875.108	9344
875.237	9382
875.365	9481
875.494	9686
875.623	9819
875.751	9766
875.88	10059
876.008	10128
876.136	10261
876.265	10546
876.393	10725
876.521	10744
876.65	10889
876.778	10900
876.906	10869
877.034	11014
877.162	11025
877.29	11151
877.418	11216
877.546	11395
877.674	11368
877.802	11501
877.93	11520
878.058	11558
878.185	11512
878.313	11661
878.441	11745
878.568	11634
878.696	11817
878.824	11931
878.951	11904
879.079	11984
879.206	12053
879.333	12053
879.461	11999
879.588	11973
879.715	12110
879.842	12167
879.97	12064
880.097	11836
880.224	11882
880.351	11920
880.478	11866
880.605	11809
880.732	11775
880.859	11992
880.986	11760
881.112	11840
881.239	11855
881.366	11684
881.493	11638
881.619	11573
881.746	11589
881.872	11596
881.999	11554
882.125	11467
882.252	11577
882.378	11516
882.505	11532
882.631	11379
882.757	11326
882.883	11402
883.01	11273
883.136	11284
883.262	11124
883.388	11083
883.514	11227
883.64	11143
883.766	11025
883.892	11041
884.018	10957
884.143	11041
884.269	11121
884.395	10824
884.52	10782
884.646	10763
884.772	10736
884.897	10687
885.023	10767
885.148	10649
885.274	10774
885.399	10729
885.524	10607
885.65	10603
885.775	10622
885.9	10599
886.025	10679
886.15	10523
886.275	10417
886.4	10356
886.525	10386
886.65	10352
886.775	10295
886.9	10459
887.025	10481
887.149	10363
887.274	10169
887.399	10135
887.523	10185
887.648	10196
887.773	10124
887.897	10253
888.021	10246
888.146	10192
888.27	10246
888.395	10219
888.519	10207
888.643	10234
888.767	10211
888.891	10124
889.015	9998
889.139	10093
889.263	10002
889.387	10040
889.511	10227
889.635	10051
889.759	9960
889.883	9979
890.006	10025
890.13	10162
890.254	9903
890.377	9911
890.501	9876
890.624	9804
890.748	9865
890.871	9789
890.995	9785
891.118	9705
891.241	9759
891.364	9728
891.488	9850
891.611	9671
891.734	9762
891.857	9770
891.98	9709
892.103	9720
892.226	9720
892.349	9705
892.471	9485
892.594	9629
892.717	9671
892.839	9576
892.962	9622
893.085	9637
893.207	9591
893.33	9477
893.452	9568
893.575	9557
893.697	9507
893.819	9553
893.941	9633
894.064	9644
894.186	9435
894.308	9412
894.43	9515
894.552	9553
894.674	9530
894.796	9386
894.918	9386
895.04	9378
895.161	9359
895.283	9363
895.405	9241
895.526	9287
895.648	9268
895.769	9313
895.891	9226
896.012	9237
896.134	9260
896.255	9150
896.376	9116
896.498	9116
896.619	9150
896.74	9066
896.861	9093
896.982	9264
897.103	9302
897.224	9165
897.345	9028
897.466	9070
897.587	8979
897.708	9081
897.828	8979
897.949	8925
898.07	8864
898.19	8887
898.311	9070
898.431	8914
898.552	8891
898.672	8960
898.792	8925
898.913	8883
899.033	8792
899.153	8785
899.273	8644
899.393	8746
899.513	8853
899.633	8686
899.753	8724
899.873	8663
899.993	8701
900.113	8682
900.232	8716
900.352	8602
900.472	8575
900.591	8541
900.711	8610
900.83	8556
900.95	8682
901.069	8686
901.189	8533
901.308	8465
901.427	8332
901.546	8476
901.665	8419
901.784	8473
901.904	8400
902.023	8332
902.141	8267
902.26	8206
902.379	8210
902.498	8218
902.617	8149
902.735	8248
902.854	8240
902.973	8248
903.091	8149
903.21	8153
903.328	8199
903.446	8119
903.565	8081
903.683	8077
903.801	8005
903.919	8149
904.038	8149
904.156	8008
904.274	8077
904.392	8020
904.51	8031
904.627	8012
904.745	8069
904.863	8107
904.981	7947
905.098	7830
905.216	7818
905.334	7982
905.451	7864
905.569	7868
905.686	7925
905.803	7887
905.921	7769
906.038	7868
906.155	7753
906.272	7685
906.389	7731
906.506	7616
906.623	7628
906.74	7616
906.857	7487
906.974	7578
907.091	7712
907.208	7696
907.324	7666
907.441	7571
907.557	7487
907.674	7480
907.79	7381
907.907	7384
908.023	7339
908.139	7499
908.256	7430
908.372	7411
908.488	7384
908.604	7301
908.72	7225
908.836	7236
908.952	7259
909.068	7221
909.184	7293
909.3	7289
909.415	7190
909.531	7312
909.647	7069
909.762	7194
909.878	7110
909.993	7099
910.108	7103
910.224	7122
910.339	7164
910.454	7072
910.57	7023
910.685	6954
910.8	7145
910.915	7099
911.03	6973
911.145	6890
911.259	6871
911.374	6913
911.489	6837
911.604	6878
911.718	6662
911.833	6787
911.947	6681
912.062	6612
912.176	6684
912.291	6681
912.405	6760
912.519	6833
912.633	6825
912.748	6757
912.862	6688
912.976	6597
913.09	6486
913.204	6612
913.318	6642
913.431	6654
913.545	6635
913.659	6753
913.772	6620
913.886	6555
914	6544
914.113	6631
914.226	6642
914.34	6662
914.453	6494
914.566	6528
914.68	6566
914.793	6517
914.906	6403
915.019	6388
915.132	6353
915.245	6391
915.358	6437
915.47	6456
915.583	6471
915.696	6490
915.809	6555
915.921	6570
916.034	6448
916.146	6410
916.259	6403
916.371	6464
916.483	6426
916.595	6376
916.708	6342
916.82	6410
916.932	6361
917.044	6384
917.156	6380
917.268	6323
917.38	6407
917.491	6376
917.603	6414
917.715	6372
917.826	6395
917.938	6327
918.049	6270
918.161	6319
918.272	6372
918.384	6464
918.495	6311
918.606	6243
918.717	6220
918.828	6262
918.939	6251
919.05	6194
919.161	6209
919.272	6098
919.383	6159
919.494	6273
919.604	6391
919.715	6292
919.826	6232
919.936	6300
920.047	6342
920.157	6338
920.267	6429
920.378	6350
920.488	6228
920.598	6437
920.708	6517
920.818	6464
920.928	6426
921.038	6585
921.148	6555
921.258	6380
921.368	6296
921.477	6167
921.587	6190
921.697	6144
921.806	6155
921.916	6087
922.025	5931
922.134	5946
922.244	5927
922.353	5920
922.462	5836
922.571	5764
922.68	5710
922.789	5649
922.898	5676
923.007	5634
923.116	5764
923.224	5680
923.333	5615
923.442	5611
923.55	5562
923.659	5589
923.767	5638
923.876	5558
923.984	5554
924.092	5520
924.201	5558
924.309	5566
924.417	5570
924.525	5444
924.633	5471
924.741	6254
924.849	5334
924.956	5467
925.064	5364
925.172	5311
925.279	5330
925.387	5406
925.494	5311
925.602	5398
925.709	5368
925.816	5269
925.924	5307
926.031	5345
926.138	5296
926.245	5334
926.352	5193
926.459	5318
926.566	5315
926.673	5208
926.779	5181
926.886	5159
926.993	5048
927.099	5056
927.206	5003
927.312	4961
927.419	5045
927.525	4968
927.631	5041
927.737	4900
927.843	4850
927.95	4782
928.056	4824
928.162	4824
928.267	4858
928.373	5391
928.479	4801
928.585	4698
928.69	4793
928.796	4767
928.901	4740
929.007	4611
929.112	4679
929.218	4588
929.323	4580
929.428	4550
929.533	4660
929.638	4554
929.743	4561
929.848	4565
929.953	4554
930.058	4462
930.163	4299
930.267	4325
930.372	4432
930.477	4268
930.581	4481
930.685	4371
930.79	4246
930.894	4268
930.998	4227
931.103	4360
931.207	4124
931.311	4074
931.415	4002
931.519	3949
931.623	3979
