Data from glass_V78500241_926.txt Node
Date: Wed Sep 01 19:20:55 CST 2021
User: usil
Spectrometer: V785-0024
Trigger mode: 0
Integration Time (sec): 4.000000E-1
Scans to average: 1
Nonlinearity correction enabled: false
Boxcar width: 0
Storing dark spectrum: false
XAxis mode: Wavelengths
Number of Pixels in Spectrum: 1024
>>>>>Begin Spectral Data<<<<<
801.071	3747
801.214	3800
801.356	3701
801.499	3751
801.641	3766
801.783	3808
801.926	3896
802.068	3808
802.211	3903
802.353	3888
802.496	3850
802.638	3892
802.78	3937
802.923	3987
803.065	3876
803.208	3876
803.35	3861
803.492	3907
803.635	3926
803.777	3846
803.919	3907
804.061	4143
804.204	3934
804.346	3979
804.488	3899
804.63	4010
804.773	3968
804.915	4044
805.057	4204
805.199	4044
805.341	4078
805.483	4128
805.626	4131
805.768	4166
805.91	4207
806.052	4268
806.194	4230
806.336	4325
806.478	4211
806.62	4166
806.762	4185
806.904	4303
807.046	4306
807.188	4211
807.33	4192
807.472	4223
807.614	4238
807.756	4318
807.898	4242
808.04	4253
808.182	4295
808.324	4306
808.465	4409
808.607	4398
808.749	4447
808.891	4493
809.033	4531
809.174	4405
809.316	4276
809.458	4253
809.6	4181
809.741	4150
809.883	4158
810.025	4230
810.166	4207
810.308	4192
810.45	4272
810.591	4219
810.733	4276
810.875	4561
811.016	4847
811.158	5140
811.299	5315
811.441	5299
811.582	5014
811.724	4694
811.865	4504
812.007	4500
812.148	4440
812.29	4421
812.431	4436
812.573	4409
812.714	4421
812.855	4455
812.997	4432
813.138	4443
813.279	4424
813.421	4405
813.562	4440
813.703	4329
813.845	4363
813.986	4291
814.127	4261
814.268	4276
814.41	4310
814.551	4253
814.692	4268
814.833	4299
814.974	4344
815.115	4379
815.256	4322
815.397	4253
815.539	4268
815.68	4257
815.821	4211
815.962	4337
816.103	4280
816.244	4265
816.385	4272
816.526	4280
816.666	4234
816.807	4112
816.948	4204
817.089	4166
817.23	4154
817.371	4051
817.512	4040
817.653	4074
817.793	4010
817.934	4101
818.075	4131
818.216	4063
818.356	4082
818.497	3968
818.638	3911
818.778	3941
818.919	3926
819.06	3892
819.2	3934
819.341	3873
819.481	3857
819.622	3869
819.762	4013
819.903	3972
820.043	3865
820.184	3835
820.324	3861
820.465	3907
820.605	3884
820.746	3873
820.886	3850
821.026	3903
821.167	3934
821.307	3972
821.447	4013
821.588	3934
821.728	3918
821.868	3964
822.008	3846
822.149	3926
822.289	3911
822.429	3789
822.569	3766
822.709	3819
822.849	3660
822.99	3732
823.13	3766
823.27	3812
823.41	3751
823.55	3701
823.69	3751
823.83	3732
823.97	3743
824.11	3633
824.25	3633
824.389	3614
824.529	3694
824.669	3675
824.809	3747
824.949	3759
825.089	3755
825.228	3705
825.368	3595
825.508	3580
825.648	3572
825.787	3622
825.927	3660
826.067	3690
826.206	3667
826.346	3816
826.485	3819
826.625	3907
826.765	3945
826.904	3842
827.044	3660
827.183	3534
827.323	3450
827.462	3473
827.601	3443
827.741	3401
827.88	3469
828.02	3420
828.159	3473
828.298	3519
828.437	3568
828.577	3523
828.716	3595
828.855	3496
828.994	3405
829.134	3378
829.273	3401
829.412	3355
829.551	3370
829.69	3363
829.829	3424
829.968	3530
830.107	3462
830.246	3447
830.385	3382
830.524	3325
830.663	3272
830.802	3256
830.941	3214
831.08	3203
831.219	3283
831.357	3268
831.496	3416
831.635	3237
831.774	3230
831.913	3230
832.051	3138
832.19	3154
832.329	3214
832.467	3173
832.606	3097
832.744	3207
832.883	3176
833.022	3192
833.16	3283
833.299	3313
833.437	3340
833.576	3420
833.714	3401
833.852	3466
833.991	3450
834.129	3473
834.267	3439
834.406	3378
834.544	3439
834.682	3405
834.821	3420
834.959	3564
835.097	3428
835.235	3515
835.373	3492
835.511	3549
835.65	3447
835.788	3481
835.926	3412
836.064	3401
836.202	3405
836.34	3603
836.478	3629
836.615	3564
836.753	3603
836.891	3629
837.029	3625
837.167	3595
837.305	3572
837.443	3538
837.58	3538
837.718	3595
837.856	3545
837.993	3568
838.131	3625
838.269	3622
838.406	3564
838.544	3561
838.681	3507
838.819	3477
838.956	3344
839.094	3393
839.231	3458
839.369	3523
839.506	3774
839.643	3599
839.781	3507
839.918	3473
840.055	3534
840.193	3515
840.33	3511
840.467	3557
840.604	3584
840.742	3846
840.879	3580
841.016	3549
841.153	3606
841.29	3800
841.427	3740
841.564	3698
841.701	3770
841.838	3690
841.975	3717
842.112	3724
842.249	3641
842.385	3644
842.522	3861
842.659	3724
842.796	3709
842.933	3701
843.069	3740
843.206	3705
843.343	3846
843.479	3789
843.616	3827
843.752	3694
843.889	3671
844.025	3869
844.162	3717
844.298	3865
844.435	3785
844.571	3838
844.708	3922
844.844	3983
844.98	4032
845.117	4025
845.253	3930
845.389	3915
845.525	3888
845.661	3983
845.798	3953
845.934	3983
846.07	3937
846.206	4074
846.342	4086
846.478	4082
846.614	3922
846.75	3960
846.886	3934
847.022	4040
847.158	3991
847.294	4002
847.429	4044
847.565	4010
847.701	4223
847.837	3880
847.972	3838
848.108	3983
848.244	3953
848.379	3865
848.515	3831
848.65	3819
848.786	3846
848.921	3865
849.057	3987
849.192	3968
849.328	3918
849.463	3911
849.598	3854
849.734	3884
849.869	3865
850.004	3823
850.14	3865
850.275	3812
850.41	3766
850.545	3762
850.68	3743
850.815	3816
850.95	3808
851.085	3922
851.22	3888
851.355	3800
851.49	3789
851.625	3789
851.76	3804
851.895	3709
852.03	3705
852.165	3827
852.299	3846
852.434	3861
852.569	3861
852.703	3884
852.838	3907
852.973	4051
853.107	4029
853.242	3873
853.376	3880
853.511	3793
853.645	3854
853.78	3987
853.914	3869
854.048	3884
854.183	3892
854.317	3953
854.451	4051
854.585	3937
854.72	3922
854.854	4086
854.988	3930
855.122	4025
855.256	3945
855.39	4036
855.524	4101
855.658	4067
855.792	4131
855.926	4147
856.06	4200
856.194	4223
856.327	4131
856.461	4112
856.595	4158
856.729	4207
856.862	4265
856.996	4249
857.13	4325
857.263	4284
857.397	4379
857.53	4265
857.664	4375
857.797	4409
857.931	4413
858.064	4424
858.197	4466
858.331	4402
858.464	4375
858.597	4409
858.731	4405
858.864	4535
858.997	4481
859.13	4512
859.263	4580
859.396	4615
859.529	4527
859.662	4523
859.795	4519
859.928	4588
860.061	4687
860.194	4797
860.327	4698
860.46	4622
860.592	4702
860.725	4801
860.858	4797
860.99	4740
861.123	4717
861.256	4763
861.388	4805
861.521	5486
861.653	4755
861.786	4714
861.918	4774
862.05	4820
862.183	4873
862.315	4862
862.447	4957
862.58	4934
862.712	4831
862.844	4763
862.976	4858
863.108	4923
863.24	5197
863.372	4793
863.504	4904
863.636	4915
863.768	5003
863.9	5003
864.032	4919
864.164	4968
864.296	5033
864.428	5102
864.559	5132
864.691	5128
864.823	5086
864.954	5094
865.086	5162
865.217	5159
865.349	5090
865.48	5147
865.612	5197
865.743	5292
865.875	5193
866.006	5174
866.137	5288
866.269	5284
866.4	5261
866.531	5265
866.662	5227
866.793	5265
866.924	5269
867.055	5337
867.186	5318
867.317	5360
867.448	5330
867.579	5402
867.71	5368
867.841	5364
867.972	5474
868.103	5505
868.233	5463
868.364	5501
868.495	5577
868.625	5672
868.756	5878
868.886	5676
869.017	5672
869.147	5851
869.278	5855
869.408	5798
869.539	5908
869.669	5882
869.799	5874
869.929	5984
870.06	5984
870.19	6213
870.32	6175
870.45	6292
870.58	6372
870.71	6403
870.84	6445
870.97	6452
871.1	6365
871.23	6646
871.36	6719
871.489	6696
871.619	6760
871.749	6837
871.879	6844
872.008	7023
872.138	7004
872.267	7057
872.397	6973
872.526	7027
872.656	7175
872.785	7236
872.915	7346
873.044	7476
873.173	7533
873.303	7624
873.432	7803
873.561	7822
873.69	7940
873.819	7993
873.948	8210
874.077	8240
874.206	8324
874.335	8484
874.464	8689
874.593	8895
874.722	8918
874.851	9108
874.979	9214
875.108	9313
875.237	9443
875.365	9439
875.494	9641
875.623	9778
875.751	9876
875.88	9983
876.008	10204
876.136	10303
876.265	10558
876.393	10637
876.521	10679
876.65	10793
876.778	10892
876.906	10900
877.034	11018
877.162	11128
877.29	11086
877.418	11273
877.546	11360
877.674	11440
877.802	11444
877.93	11558
878.058	11573
878.185	11509
878.313	11649
878.441	11718
878.568	11691
878.696	11828
878.824	11874
878.951	11996
879.079	11973
879.206	12235
879.333	12057
879.461	12011
879.588	12114
879.715	12076
879.842	12273
879.97	12030
880.097	11828
880.224	11954
880.351	11882
880.478	11790
880.605	11832
880.732	11855
880.859	12003
880.986	11840
881.112	11771
881.239	11832
881.366	11680
881.493	11592
881.619	11512
881.746	11592
881.872	11554
881.999	11532
882.125	11486
882.252	11604
882.378	11482
882.505	11554
882.631	11307
882.757	11280
882.883	11322
883.01	11239
883.136	11258
883.262	11132
883.388	11109
883.514	11181
883.64	11197
883.766	11121
883.892	11079
884.018	11006
884.143	11071
884.269	11098
884.395	10927
884.52	10786
884.646	10801
884.772	10748
884.897	10706
885.023	10698
885.148	10786
885.274	10771
885.399	10645
885.524	10641
885.65	10599
885.775	10569
885.9	10493
886.025	10630
886.15	10622
886.275	10466
886.4	10375
886.525	10466
886.65	10386
886.775	10382
886.9	10542
887.025	10531
887.149	10337
887.274	10200
887.399	10204
887.523	10223
887.648	10112
887.773	10105
887.897	10223
888.021	10249
888.146	10139
888.27	10215
888.395	10234
888.519	10173
888.643	10192
888.767	10265
888.891	10051
889.015	9998
889.139	10067
889.263	10021
889.387	10051
889.511	10192
889.635	10025
889.759	9956
889.883	10048
890.006	9926
890.13	10211
890.254	9956
890.377	9941
890.501	9857
890.624	9865
890.748	9899
890.871	9804
890.995	9713
891.118	9755
891.241	9755
891.364	9705
891.488	9766
891.611	9717
891.734	9755
891.857	9732
891.98	9762
892.103	9827
892.226	9724
892.349	9701
892.471	9515
892.594	9591
892.717	9625
892.839	9572
892.962	9648
893.085	9637
893.207	9641
893.33	9523
893.452	9538
893.575	9641
893.697	9458
893.819	9595
893.941	9633
894.064	9568
894.186	9504
894.308	9408
894.43	9500
894.552	9637
894.674	9507
894.796	9382
894.918	9397
895.04	9412
895.161	9397
895.283	9370
895.405	9275
895.526	9249
895.648	9233
895.769	9241
895.891	9268
896.012	9344
896.134	9199
896.255	9154
896.376	9173
896.498	9154
896.619	9116
896.74	9108
896.861	9070
896.982	9294
897.103	9321
897.224	9081
897.345	9051
897.466	8979
897.587	9047
897.708	9131
897.828	9070
897.949	8994
898.07	8868
898.19	8948
898.311	9039
898.431	8834
898.552	8899
898.672	9039
898.792	8944
898.913	8891
899.033	8872
899.153	8762
899.273	8686
899.393	8708
899.513	8750
899.633	8746
899.753	8830
899.873	8682
899.993	8716
900.113	8701
900.232	8693
900.352	8667
900.472	8636
900.591	8556
900.711	8648
900.83	8571
900.95	8693
901.069	8701
901.189	8617
901.308	8389
901.427	8374
901.546	8381
901.665	8450
901.784	8469
901.904	8381
902.023	8290
902.141	8214
902.26	8248
902.379	8286
902.498	8183
902.617	8183
902.735	8320
902.854	8374
902.973	8320
903.091	8123
903.21	8115
903.328	8130
903.446	8096
903.565	8073
903.683	8115
903.801	8035
903.919	8046
904.038	8111
904.156	8084
904.274	8103
904.392	8027
904.51	7978
904.627	8081
904.745	8043
904.863	8130
904.981	7909
905.098	7841
905.216	7898
905.334	7814
905.451	7902
905.569	7928
905.686	7902
905.803	7917
905.921	7742
906.038	7856
906.155	7822
906.272	7715
906.389	7750
906.506	7712
906.623	7662
906.74	7639
906.857	7567
906.974	7537
907.091	7727
907.208	7712
907.324	7651
907.441	7563
907.557	7438
907.674	7491
907.79	7419
907.907	7449
908.023	7407
908.139	7434
908.256	7388
908.372	7426
908.488	7384
908.604	7266
908.72	7244
908.836	7278
908.952	7228
909.068	7255
909.184	7301
909.3	7301
909.415	7312
909.531	7331
909.647	7129
909.762	7122
909.878	7103
909.993	7164
910.108	7107
910.224	7110
910.339	7080
910.454	7034
910.57	7038
910.685	6981
910.8	7228
910.915	7156
911.03	6981
911.145	6993
911.259	6856
911.374	6947
911.489	6856
911.604	6798
911.718	6692
911.833	6703
911.947	6658
912.062	6642
912.176	6730
912.291	6673
912.405	6703
912.519	6821
912.633	6795
912.748	6734
912.862	6738
912.976	6627
913.09	6597
913.204	6589
913.318	6696
913.431	6688
913.545	6677
913.659	6692
913.772	6688
913.886	6608
914	6566
914.113	6623
914.226	6681
914.34	6597
914.453	6490
914.566	6574
914.68	6528
914.793	6521
914.906	6399
915.019	6388
915.132	6410
915.245	6410
915.358	6483
915.47	6433
915.583	6445
915.696	6532
915.809	6544
915.921	6525
916.034	6429
916.146	6418
916.259	6380
916.371	6506
916.483	6441
916.595	6437
916.708	6452
916.82	6433
916.932	6357
917.044	6357
917.156	6395
917.268	6361
917.38	6350
917.491	6300
917.603	6319
917.715	6433
917.826	6410
917.938	6338
918.049	6273
918.161	6391
918.272	6448
918.384	6403
918.495	6342
918.606	6270
918.717	6220
918.828	6258
918.939	6292
919.05	6251
919.161	6308
919.272	6106
919.383	6091
919.494	6285
919.604	6467
919.715	6296
919.826	6266
919.936	6296
920.047	6372
920.157	6300
920.267	6448
920.378	6327
920.488	6323
920.598	6521
920.708	6528
920.818	6448
920.928	6464
921.038	6612
921.148	6589
921.258	6376
921.368	6289
921.477	6171
921.587	6144
921.697	6167
921.806	6213
921.916	6083
922.025	5996
922.134	5977
922.244	5931
922.353	5954
922.462	5885
922.571	5836
922.68	5748
922.789	5748
922.898	5726
923.007	5573
923.116	5661
923.224	5733
923.333	5695
923.442	5608
923.55	5611
923.659	5638
923.767	5630
923.876	5539
923.984	5619
924.092	5524
924.201	5566
924.309	5554
924.417	5581
924.525	5478
924.633	5535
924.741	6133
924.849	5387
924.956	5448
925.064	5364
925.172	5288
925.279	5315
925.387	5330
925.494	5364
925.602	5406
925.709	5383
925.816	5288
925.924	5349
926.031	5368
926.138	5360
926.245	5296
926.352	5273
926.459	5337
926.566	5299
926.673	5246
926.779	5178
926.886	5121
926.993	5075
927.099	5041
927.206	4965
927.312	4976
927.419	5083
927.525	4972
927.631	4965
927.737	4927
927.843	4862
927.95	4786
928.056	4812
928.162	4763
928.267	4870
928.373	5391
928.479	4831
928.585	4755
928.69	4816
928.796	4786
928.901	4710
929.007	4641
929.112	4717
929.218	4626
929.323	4580
929.428	4569
929.533	4675
929.638	4497
929.743	4535
929.848	4569
929.953	4558
930.058	4443
930.163	4363
930.267	4314
930.372	4440
930.477	4348
930.581	4478
930.685	4405
930.79	4287
930.894	4299
930.998	4261
931.103	4352
931.207	4120
931.311	4086
931.415	4055
931.519	3915
931.623	3968
