Data from glass_V78500241_368.txt Node
Date: Wed Sep 01 19:17:03 CST 2021
User: usil
Spectrometer: V785-0024
Trigger mode: 0
Integration Time (sec): 4.000000E-1
Scans to average: 1
Nonlinearity correction enabled: false
Boxcar width: 0
Storing dark spectrum: false
XAxis mode: Wavelengths
Number of Pixels in Spectrum: 1024
>>>>>Begin Spectral Data<<<<<
801.071	3751
801.214	3740
801.356	3762
801.499	3743
801.641	3740
801.783	3789
801.926	3915
802.068	3842
802.211	3846
802.353	3915
802.496	3850
802.638	3903
802.78	3930
802.923	3960
803.065	3892
803.208	3850
803.35	3896
803.492	3926
803.635	3922
803.777	3789
803.919	3918
804.061	4154
804.204	3956
804.346	3979
804.488	3907
804.63	4051
804.773	3987
804.915	4002
805.057	4143
805.199	4036
805.341	4101
805.483	4143
805.626	4185
805.768	4131
805.91	4200
806.052	4246
806.194	4268
806.336	4333
806.478	4249
806.62	4238
806.762	4219
806.904	4276
807.046	4341
807.188	4253
807.33	4204
807.472	4268
807.614	4227
807.756	4268
807.898	4204
808.04	4200
808.182	4322
808.324	4306
808.465	4394
808.607	4447
808.749	4462
808.891	4535
809.033	4516
809.174	4394
809.316	4246
809.458	4265
809.6	4150
809.741	4139
809.883	4139
810.025	4211
810.166	4242
810.308	4261
810.45	4284
810.591	4200
810.733	4284
810.875	4508
811.016	4752
811.158	5109
811.299	5284
811.441	5292
811.582	5052
811.724	4714
811.865	4466
812.007	4466
812.148	4413
812.29	4455
812.431	4466
812.573	4432
812.714	4436
812.855	4470
812.997	4451
813.138	4508
813.279	4470
813.421	4390
813.562	4424
813.703	4337
813.845	4371
813.986	4268
814.127	4227
814.268	4303
814.41	4299
814.551	4261
814.692	4325
814.833	4246
814.974	4379
815.115	4390
815.256	4272
815.397	4242
815.539	4280
815.68	4188
815.821	4242
815.962	4318
816.103	4333
816.244	4265
816.385	4257
816.526	4295
816.666	4223
816.807	4128
816.948	4143
817.089	4181
817.23	4139
817.371	4097
817.512	4063
817.653	4086
817.793	4013
817.934	4051
818.075	4135
818.216	4093
818.356	4116
818.497	4006
818.638	3903
818.778	3930
818.919	3918
819.06	3873
819.2	3949
819.341	3869
819.481	3869
819.622	3903
819.762	3994
819.903	4002
820.043	3915
820.184	3884
820.324	3812
820.465	3892
820.605	3865
820.746	3918
820.886	3804
821.026	3922
821.167	3956
821.307	4006
821.447	3994
821.588	3941
821.728	3979
821.868	3964
822.008	3896
822.149	3949
822.289	3941
822.429	3808
822.569	3789
822.709	3827
822.849	3671
822.99	3728
823.13	3831
823.27	3770
823.41	3720
823.55	3774
823.69	3797
823.83	3740
823.97	3656
824.11	3599
824.25	3587
824.389	3591
824.529	3713
824.669	3622
824.809	3724
824.949	3774
825.089	3774
825.228	3694
825.368	3610
825.508	3572
825.648	3595
825.787	3614
825.927	3679
826.067	3633
826.206	3705
826.346	3816
826.485	3857
826.625	3861
826.765	3937
826.904	3842
827.044	3667
827.183	3553
827.323	3450
827.462	3492
827.601	3443
827.741	3450
827.88	3477
828.02	3386
828.159	3424
828.298	3469
828.437	3523
828.577	3519
828.716	3622
828.855	3507
828.994	3401
829.134	3378
829.273	3428
829.412	3370
829.551	3355
829.69	3389
829.829	3431
829.968	3500
830.107	3466
830.246	3469
830.385	3355
830.524	3378
830.663	3313
830.802	3264
830.941	3192
831.08	3222
831.219	3317
831.357	3279
831.496	3374
831.635	3230
831.774	3188
831.913	3241
832.051	3138
832.19	3169
832.329	3192
832.467	3142
832.606	3112
832.744	3184
832.883	3214
833.022	3199
833.16	3260
833.299	3310
833.437	3355
833.576	3405
833.714	3466
833.852	3447
833.991	3462
834.129	3469
834.267	3435
834.406	3393
834.544	3416
834.682	3443
834.821	3409
834.959	3591
835.097	3439
835.235	3561
835.373	3504
835.511	3530
835.65	3469
835.788	3515
835.926	3416
836.064	3370
836.202	3409
836.34	3584
836.478	3622
836.615	3557
836.753	3568
836.891	3698
837.029	3618
837.167	3576
837.305	3549
837.443	3526
837.58	3500
837.718	3648
837.856	3580
837.993	3542
838.131	3633
838.269	3610
838.406	3603
838.544	3580
838.681	3477
838.819	3466
838.956	3340
839.094	3374
839.231	3431
839.369	3530
839.506	3747
839.643	3660
839.781	3492
839.918	3466
840.055	3492
840.193	3561
840.33	3534
840.467	3576
840.604	3618
840.742	3823
840.879	3564
841.016	3530
841.153	3595
841.29	3819
841.427	3713
841.564	3682
841.701	3770
841.838	3682
841.975	3717
842.112	3800
842.249	3660
842.385	3682
842.522	3816
842.659	3682
842.796	3686
842.933	3751
843.069	3713
843.206	3705
843.343	3842
843.479	3835
843.616	3827
843.752	3633
843.889	3740
844.025	3819
844.162	3751
844.298	3838
844.435	3823
844.571	3816
844.708	3888
844.844	4010
844.98	3998
845.117	4036
845.253	3983
845.389	3915
845.525	3941
845.661	3956
845.798	3907
845.934	4051
846.07	3987
846.206	4025
846.342	4109
846.478	4105
846.614	4013
846.75	3930
846.886	3930
847.022	4063
847.158	3975
847.294	3975
847.429	4025
847.565	3994
847.701	4280
847.837	3918
847.972	3869
848.108	3983
848.244	3945
848.379	3857
848.515	3869
848.65	3831
848.786	3861
848.921	3842
849.057	3945
849.192	3937
849.328	3949
849.463	3960
849.598	3896
849.734	3884
849.869	3827
850.004	3800
850.14	3835
850.275	3816
850.41	3755
850.545	3778
850.68	3781
850.815	3808
850.95	3774
851.085	3937
851.22	3926
851.355	3869
851.49	3816
851.625	3766
851.76	3831
851.895	3759
852.03	3728
852.165	3789
852.299	3827
852.434	3880
852.569	3915
852.703	3926
852.838	3934
852.973	4040
853.107	4002
853.242	3930
853.376	3869
853.511	3778
853.645	3865
853.78	3983
853.914	3899
854.048	3888
854.183	3926
854.317	3930
854.451	4067
854.585	3964
854.72	3972
854.854	4071
854.988	3926
855.122	3987
855.256	3892
855.39	4078
855.524	4093
855.658	4093
855.792	4128
855.926	4128
856.06	4162
856.194	4223
856.327	4135
856.461	4188
856.595	4150
856.729	4181
856.862	4287
856.996	4276
857.13	4276
857.263	4341
857.397	4333
857.53	4318
857.664	4322
857.797	4451
857.931	4432
858.064	4421
858.197	4478
858.331	4405
858.464	4375
858.597	4375
858.731	4466
858.864	4485
858.997	4470
859.13	4538
859.263	4561
859.396	4584
859.529	4519
859.662	4508
859.795	4516
859.928	4607
860.061	4759
860.194	4790
860.327	4630
860.46	4694
860.592	4752
860.725	4771
860.858	4797
860.99	4714
861.123	4725
861.256	4694
861.388	4801
861.521	5398
861.653	4748
861.786	4702
861.918	4744
862.05	4801
862.183	4896
862.315	4896
862.447	4919
862.58	4908
862.712	4835
862.844	4809
862.976	4915
863.108	4831
863.24	5265
863.372	4847
863.504	4949
863.636	4904
863.768	4934
863.9	5003
864.032	4915
864.164	4980
864.296	4987
864.428	5098
864.559	5105
864.691	5128
864.823	5124
864.954	5147
865.086	5189
865.217	5124
865.349	5162
865.48	5201
865.612	5254
865.743	5296
865.875	5189
866.006	5178
866.137	5239
866.269	5227
866.4	5201
866.531	5239
866.662	5204
866.793	5273
866.924	5334
867.055	5311
867.186	5345
867.317	5334
867.448	5299
867.579	5398
867.71	5372
867.841	5448
867.972	5471
868.103	5452
868.233	5474
868.364	5505
868.495	5596
868.625	5684
868.756	5790
868.886	5638
869.017	5729
869.147	5866
869.278	5866
869.408	5790
869.539	5821
869.669	5939
869.799	5908
869.929	6003
870.06	5954
870.19	6224
870.32	6232
870.45	6273
870.58	6350
870.71	6410
870.84	6448
870.97	6376
871.1	6407
871.23	6608
871.36	6741
871.489	6673
871.619	6764
871.749	6833
871.879	6920
872.008	6989
872.138	6951
872.267	7027
872.397	7141
872.526	7046
872.656	7099
872.785	7190
872.915	7369
873.044	7639
873.173	7586
873.303	7681
873.432	7761
873.561	7898
873.69	7887
873.819	8024
873.948	8172
874.077	8317
874.206	8347
874.335	8446
874.464	8640
874.593	8792
874.722	8929
874.851	9173
874.979	9275
875.108	9363
875.237	9397
875.365	9466
875.494	9682
875.623	9732
875.751	9869
875.88	10006
876.008	10143
876.136	10242
876.265	10481
876.393	10759
876.521	10748
876.65	10835
876.778	10885
876.906	10949
877.034	10968
877.162	11117
877.29	11151
877.418	11269
877.546	11398
877.674	11429
877.802	11406
877.93	11543
878.058	11573
878.185	11532
878.313	11699
878.441	11794
878.568	11642
878.696	11866
878.824	11790
878.951	11973
879.079	12038
879.206	12144
879.333	12060
879.461	11973
879.588	12106
879.715	12022
879.842	12152
879.97	12011
880.097	11821
880.224	11935
880.351	11878
880.478	11939
880.605	11920
880.732	11832
880.859	12068
880.986	11783
881.112	11866
881.239	11783
881.366	11642
881.493	11566
881.619	11520
881.746	11581
881.872	11573
881.999	11638
882.125	11448
882.252	11611
882.378	11554
882.505	11509
882.631	11440
882.757	11250
882.883	11353
883.01	11277
883.136	11216
883.262	11060
883.388	11117
883.514	11193
883.64	11124
883.766	11136
883.892	11075
884.018	10957
884.143	11117
884.269	11181
884.395	10908
884.52	10797
884.646	10854
884.772	10759
884.897	10618
885.023	10645
885.148	10736
885.274	10873
885.399	10672
885.524	10637
885.65	10558
885.775	10618
885.9	10561
886.025	10588
886.15	10561
886.275	10459
886.4	10379
886.525	10424
886.65	10405
886.775	10337
886.9	10558
887.025	10508
887.149	10379
887.274	10196
887.399	10188
887.523	10188
887.648	10147
887.773	10112
887.897	10291
888.021	10230
888.146	10177
888.27	10234
888.395	10234
888.519	10169
888.643	10238
888.767	10249
888.891	10074
889.015	10017
889.139	10059
889.263	9998
889.387	10101
889.511	10112
889.635	10131
889.759	9983
889.883	9930
890.006	10029
890.13	10090
890.254	9975
890.377	9953
890.501	9956
890.624	9819
890.748	9880
890.871	9778
890.995	9736
891.118	9717
891.241	9728
891.364	9755
891.488	9797
891.611	9720
891.734	9751
891.857	9861
891.98	9644
892.103	9865
892.226	9797
892.349	9694
892.471	9534
892.594	9614
892.717	9561
892.839	9610
892.962	9629
893.085	9629
893.207	9606
893.33	9504
893.452	9587
893.575	9584
893.697	9580
893.819	9545
893.941	9610
894.064	9606
894.186	9405
894.308	9412
894.43	9561
894.552	9549
894.674	9477
894.796	9332
894.918	9397
895.04	9294
895.161	9405
895.283	9397
895.405	9256
895.526	9256
895.648	9256
895.769	9294
895.891	9294
896.012	9264
896.134	9264
896.255	9230
896.376	9169
896.498	9138
896.619	9192
896.74	9081
896.861	9127
896.982	9264
897.103	9336
897.224	9169
897.345	9013
897.466	8998
897.587	8956
897.708	9127
897.828	9039
897.949	8960
898.07	8872
898.19	8960
898.311	9009
898.431	8883
898.552	8933
898.672	8986
898.792	8975
898.913	8902
899.033	8796
899.153	8834
899.273	8644
899.393	8632
899.513	8754
899.633	8773
899.753	8769
899.873	8727
899.993	8758
900.113	8708
900.232	8716
900.352	8659
900.472	8651
900.591	8590
900.711	8606
900.83	8583
900.95	8640
901.069	8670
901.189	8587
901.308	8419
901.427	8427
901.546	8415
901.665	8438
901.784	8492
901.904	8370
902.023	8396
902.141	8279
902.26	8145
902.379	8259
902.498	8191
902.617	8210
902.735	8309
902.854	8347
902.973	8240
903.091	8123
903.21	8180
903.328	8199
903.446	8142
903.565	8058
903.683	8092
903.801	8054
903.919	8164
904.038	8164
904.156	8016
904.274	8115
904.392	8077
904.51	8008
904.627	8084
904.745	8103
904.863	8081
904.981	7967
905.098	7932
905.216	7925
905.334	7974
905.451	7951
905.569	7909
905.686	7959
905.803	7978
905.921	7746
906.038	7849
906.155	7776
906.272	7731
906.389	7734
906.506	7597
906.623	7624
906.74	7639
906.857	7571
906.974	7601
907.091	7723
907.208	7685
907.324	7655
907.441	7556
907.557	7415
907.674	7510
907.79	7407
907.907	7384
908.023	7422
908.139	7453
908.256	7388
908.372	7403
908.488	7403
908.604	7274
908.72	7236
908.836	7289
908.952	7263
909.068	7244
909.184	7305
909.3	7255
909.415	7308
909.531	7346
909.647	7141
909.762	7152
909.878	7107
909.993	7103
910.108	7103
910.224	7129
910.339	7126
910.454	7065
910.57	7008
910.685	6962
910.8	7168
910.915	7019
911.03	6993
911.145	6935
911.259	6875
911.374	6897
911.489	6852
911.604	6821
911.718	6738
911.833	6703
911.947	6707
912.062	6604
912.176	6726
912.291	6753
912.405	6703
912.519	6863
912.633	6795
912.748	6776
912.862	6764
912.976	6627
913.09	6540
913.204	6642
913.318	6604
913.431	6772
913.545	6681
913.659	6749
913.772	6639
913.886	6631
914	6578
914.113	6642
914.226	6658
914.34	6604
914.453	6521
914.566	6654
914.68	6521
914.793	6544
914.906	6407
915.019	6441
915.132	6380
915.245	6414
915.358	6426
915.47	6471
915.583	6456
915.696	6532
915.809	6528
915.921	6547
916.034	6464
916.146	6475
916.259	6350
916.371	6494
916.483	6452
916.595	6357
916.708	6464
916.82	6403
916.932	6410
917.044	6353
917.156	6441
917.268	6353
917.38	6319
917.491	6365
917.603	6323
917.715	6372
917.826	6410
917.938	6323
918.049	6281
918.161	6365
918.272	6395
918.384	6460
918.495	6315
918.606	6270
918.717	6224
918.828	6270
918.939	6285
919.05	6163
919.161	6197
919.272	6140
919.383	6163
919.494	6380
919.604	6422
919.715	6273
919.826	6254
919.936	6228
920.047	6331
920.157	6319
920.267	6441
920.378	6346
920.488	6262
920.598	6506
920.708	6578
920.818	6559
920.928	6540
921.038	6635
921.148	6627
921.258	6277
921.368	6395
921.477	6239
921.587	6152
921.697	6053
921.806	6216
921.916	6102
922.025	5973
922.134	5923
922.244	5901
922.353	5927
922.462	5851
922.571	5813
922.68	5680
922.789	5703
922.898	5756
923.007	5638
923.116	5737
923.224	5668
923.333	5608
923.442	5623
923.55	5570
923.659	5532
923.767	5642
923.876	5592
923.984	5623
924.092	5509
924.201	5547
924.309	5592
924.417	5554
924.525	5535
924.633	5532
924.741	6315
924.849	5402
924.956	5448
925.064	5410
925.172	5307
925.279	5311
925.387	5364
925.494	5357
925.602	5391
925.709	5357
925.816	5277
925.924	5360
926.031	5349
926.138	5315
926.245	5368
926.352	5254
926.459	5299
926.566	5292
926.673	5246
926.779	5185
926.886	5170
926.993	5079
927.099	5025
927.206	4972
927.312	4972
927.419	4987
927.525	5006
927.631	5006
927.737	4915
927.843	4858
927.95	4816
928.056	4873
928.162	4892
928.267	4847
928.373	5280
928.479	4877
928.585	4710
928.69	4790
928.796	4774
928.901	4717
929.007	4622
929.112	4679
929.218	4672
929.323	4618
929.428	4599
929.533	4660
929.638	4542
929.743	4588
929.848	4554
929.953	4508
930.058	4436
930.163	4329
930.267	4356
930.372	4459
930.477	4325
930.581	4489
930.685	4394
930.79	4265
930.894	4280
930.998	4249
931.103	4379
931.207	4120
931.311	4090
931.415	4078
931.519	3918
931.623	3915
