Data from glass_V78500241_278.txt Node
Date: Wed Sep 01 19:16:25 CST 2021
User: usil
Spectrometer: V785-0024
Trigger mode: 0
Integration Time (sec): 4.000000E-1
Scans to average: 1
Nonlinearity correction enabled: false
Boxcar width: 0
Storing dark spectrum: false
XAxis mode: Wavelengths
Number of Pixels in Spectrum: 1024
>>>>>Begin Spectral Data<<<<<
801.071	3743
801.214	3736
801.356	3740
801.499	3800
801.641	3755
801.783	3797
801.926	3865
802.068	3831
802.211	3869
802.353	3880
802.496	3831
802.638	3922
802.78	3915
802.923	3937
803.065	3941
803.208	3884
803.35	3899
803.492	3945
803.635	3907
803.777	3816
803.919	3892
804.061	4177
804.204	3972
804.346	3972
804.488	3937
804.63	4025
804.773	3994
804.915	4067
805.057	4158
805.199	4040
805.341	4093
805.483	4173
805.626	4120
805.768	4143
805.91	4230
806.052	4234
806.194	4181
806.336	4356
806.478	4219
806.62	4177
806.762	4204
806.904	4246
807.046	4325
807.188	4230
807.33	4242
807.472	4246
807.614	4219
807.756	4280
807.898	4223
808.04	4268
808.182	4299
808.324	4348
808.465	4390
808.607	4440
808.749	4455
808.891	4455
809.033	4512
809.174	4424
809.316	4287
809.458	4246
809.6	4120
809.741	4128
809.883	4173
810.025	4211
810.166	4188
810.308	4223
810.45	4230
810.591	4253
810.733	4272
810.875	4550
811.016	4782
811.158	5132
811.299	5269
811.441	5273
811.582	5048
811.724	4710
811.865	4462
812.007	4497
812.148	4424
812.29	4436
812.431	4428
812.573	4440
812.714	4363
812.855	4432
812.997	4394
813.138	4508
813.279	4424
813.421	4421
813.562	4432
813.703	4367
813.845	4386
813.986	4333
814.127	4257
814.268	4223
814.41	4314
814.551	4257
814.692	4344
814.833	4284
814.974	4303
815.115	4284
815.256	4303
815.397	4230
815.539	4211
815.68	4246
815.821	4238
815.962	4303
816.103	4280
816.244	4272
816.385	4257
816.526	4322
816.666	4196
816.807	4131
816.948	4181
817.089	4162
817.23	4154
817.371	4086
817.512	4032
817.653	4055
817.793	4036
817.934	4040
818.075	4097
818.216	4093
818.356	4055
818.497	4010
818.638	3937
818.778	3930
818.919	3873
819.06	3880
819.2	3915
819.341	3869
819.481	3838
819.622	3949
819.762	3994
819.903	3949
820.043	3850
820.184	3854
820.324	3838
820.465	3884
820.605	3907
820.746	3857
820.886	3819
821.026	3956
821.167	3949
821.307	3937
821.447	3983
821.588	3987
821.728	3964
821.868	3956
822.008	3838
822.149	3945
822.289	3930
822.429	3827
822.569	3774
822.709	3789
822.849	3705
822.99	3724
823.13	3778
823.27	3812
823.41	3747
823.55	3755
823.69	3759
823.83	3762
823.97	3660
824.11	3618
824.25	3580
824.389	3698
824.529	3690
824.669	3728
824.809	3705
824.949	3793
825.089	3698
825.228	3648
825.368	3618
825.508	3595
825.648	3599
825.787	3595
825.927	3686
826.067	3671
826.206	3705
826.346	3823
826.485	3835
826.625	3896
826.765	3972
826.904	3880
827.044	3641
827.183	3580
827.323	3412
827.462	3492
827.601	3431
827.741	3409
827.88	3443
828.02	3389
828.159	3469
828.298	3447
828.437	3523
828.577	3515
828.716	3561
828.855	3492
828.994	3409
829.134	3370
829.273	3424
829.412	3351
829.551	3374
829.69	3363
829.829	3454
829.968	3481
830.107	3431
830.246	3428
830.385	3462
830.524	3370
830.663	3336
830.802	3211
830.941	3226
831.08	3203
831.219	3298
831.357	3294
831.496	3393
831.635	3245
831.774	3169
831.913	3207
832.051	3138
832.19	3173
832.329	3230
832.467	3154
832.606	3157
832.744	3135
832.883	3176
833.022	3218
833.16	3291
833.299	3317
833.437	3325
833.576	3397
833.714	3428
833.852	3431
833.991	3424
834.129	3496
834.267	3454
834.406	3450
834.544	3424
834.682	3431
834.821	3466
834.959	3599
835.097	3443
835.235	3511
835.373	3500
835.511	3469
835.65	3443
835.788	3561
835.926	3412
836.064	3412
836.202	3382
836.34	3587
836.478	3614
836.615	3568
836.753	3614
836.891	3671
837.029	3648
837.167	3629
837.305	3572
837.443	3538
837.58	3545
837.718	3599
837.856	3584
837.993	3599
838.131	3603
838.269	3587
838.406	3576
838.544	3599
838.681	3511
838.819	3500
838.956	3401
839.094	3393
839.231	3466
839.369	3523
839.506	3736
839.643	3618
839.781	3473
839.918	3515
840.055	3519
840.193	3538
840.33	3549
840.467	3572
840.604	3637
840.742	3808
840.879	3553
841.016	3606
841.153	3610
841.29	3717
841.427	3755
841.564	3740
841.701	3747
841.838	3686
841.975	3709
842.112	3747
842.249	3667
842.385	3637
842.522	3808
842.659	3690
842.796	3667
842.933	3740
843.069	3713
843.206	3705
843.343	3850
843.479	3819
843.616	3800
843.752	3690
843.889	3698
844.025	3861
844.162	3724
844.298	3876
844.435	3789
844.571	3781
844.708	3899
844.844	3987
844.98	4021
845.117	3998
845.253	3930
845.389	3907
845.525	3987
845.661	3994
845.798	3907
845.934	3987
846.07	3960
846.206	4074
846.342	4097
846.478	4086
846.614	3953
846.75	3949
846.886	3922
847.022	4029
847.158	3975
847.294	4006
847.429	4010
847.565	4025
847.701	4230
847.837	3888
847.972	3896
848.108	3994
848.244	4048
848.379	3850
848.515	3857
848.65	3800
848.786	3869
848.921	3884
849.057	3941
849.192	3960
849.328	3907
849.463	3968
849.598	3884
849.734	3918
849.869	3880
850.004	3842
850.14	3869
850.275	3778
850.41	3743
850.545	3781
850.68	3804
850.815	3766
850.95	3808
851.085	3964
851.22	3899
851.355	3861
851.49	3831
851.625	3797
851.76	3808
851.895	3762
852.03	3755
852.165	3842
852.299	3896
852.434	3941
852.569	3892
852.703	3896
852.838	3896
852.973	4017
853.107	3983
853.242	3930
853.376	3880
853.511	3804
853.645	3876
853.78	4021
853.914	3896
854.048	3922
854.183	3907
854.317	3964
854.451	4109
854.585	4013
854.72	3956
854.854	4055
854.988	3987
855.122	4055
855.256	3926
855.39	4048
855.524	4120
855.658	4128
855.792	4154
855.926	4128
856.06	4173
856.194	4230
856.327	4185
856.461	4150
856.595	4162
856.729	4204
856.862	4272
856.996	4234
857.13	4314
857.263	4386
857.397	4383
857.53	4310
857.664	4363
857.797	4421
857.931	4421
858.064	4424
858.197	4417
858.331	4459
858.464	4386
858.597	4390
858.731	4466
858.864	4440
858.997	4481
859.13	4489
859.263	4561
859.396	4588
859.529	4596
859.662	4523
859.795	4546
859.928	4668
860.061	4725
860.194	4721
860.327	4683
860.46	4660
860.592	4774
860.725	4771
860.858	4782
860.99	4729
861.123	4702
861.256	4679
861.388	4759
861.521	5239
861.653	4793
861.786	4733
861.918	4752
862.05	4843
862.183	4854
862.315	4862
862.447	4953
862.58	4904
862.712	4854
862.844	4767
862.976	4873
863.108	4877
863.24	5246
863.372	4835
863.504	4946
863.636	4930
863.768	4965
863.9	4976
864.032	4946
864.164	4965
864.296	5033
864.428	5075
864.559	5132
864.691	5102
864.823	5147
864.954	5140
865.086	5155
865.217	5109
865.349	5124
865.48	5193
865.612	5220
865.743	5330
865.875	5220
866.006	5197
866.137	5280
866.269	5235
866.4	5250
866.531	5280
866.662	5246
866.793	5311
866.924	5296
867.055	5337
867.186	5330
867.317	5334
867.448	5376
867.579	5417
867.71	5360
867.841	5421
867.972	5425
868.103	5486
868.233	5490
868.364	5482
868.495	5596
868.625	5642
868.756	5802
868.886	5672
869.017	5741
869.147	5863
869.278	5863
869.408	5813
869.539	5863
869.669	5935
869.799	5920
869.929	6007
870.06	6022
870.19	6163
870.32	6235
870.45	6296
870.58	6346
870.71	6441
870.84	6509
870.97	6422
871.1	6475
871.23	6669
871.36	6753
871.489	6669
871.619	6764
871.749	6779
871.879	6909
872.008	6985
872.138	6958
872.267	7042
872.397	7019
872.526	7053
872.656	7076
872.785	7244
872.915	7384
873.044	7578
873.173	7567
873.303	7632
873.432	7757
873.561	7871
873.69	7955
873.819	8069
873.948	8202
874.077	8248
874.206	8290
874.335	8492
874.464	8617
874.593	8925
874.722	8948
874.851	9146
874.979	9283
875.108	9458
875.237	9481
875.365	9511
875.494	9656
875.623	9884
875.751	9793
875.88	9983
876.008	10131
876.136	10299
876.265	10550
876.393	10656
876.521	10759
876.65	10816
876.778	10900
876.906	10938
877.034	11025
877.162	11128
877.29	11162
877.418	11231
877.546	11349
877.674	11452
877.802	11425
877.93	11482
878.058	11653
878.185	11558
878.313	11703
878.441	11809
878.568	11668
878.696	11824
878.824	11824
878.951	11927
879.079	12064
879.206	12083
879.333	12129
879.461	12098
879.588	12117
879.715	12076
879.842	12292
879.97	12053
880.097	11882
880.224	11760
880.351	11851
880.478	11878
880.605	11821
880.732	11828
880.859	12030
880.986	11798
881.112	11923
881.239	11764
881.366	11623
881.493	11672
881.619	11585
881.746	11547
881.872	11535
881.999	11509
882.125	11547
882.252	11486
882.378	11554
882.505	11535
882.631	11448
882.757	11280
882.883	11273
883.01	11250
883.136	11132
883.262	11136
883.388	11086
883.514	11121
883.64	11159
883.766	11117
883.892	11113
884.018	11079
884.143	11052
884.269	11159
884.395	10858
884.52	10797
884.646	10797
884.772	10744
884.897	10694
885.023	10729
885.148	10706
885.274	10744
885.399	10694
885.524	10592
885.65	10611
885.775	10698
885.9	10580
886.025	10672
886.15	10538
886.275	10462
886.4	10386
886.525	10402
886.65	10367
886.775	10303
886.9	10440
887.025	10531
887.149	10390
887.274	10249
887.399	10196
887.523	10086
887.648	10166
887.773	10109
887.897	10272
888.021	10219
888.146	10101
888.27	10246
888.395	10185
888.519	10192
888.643	10188
888.767	10185
888.891	10128
889.015	10025
889.139	10090
889.263	9968
889.387	10192
889.511	10025
889.635	10071
889.759	10029
889.883	9975
890.006	10032
890.13	10078
890.254	9926
890.377	9937
890.501	9873
890.624	9899
890.748	9918
890.871	9762
890.995	9842
891.118	9774
891.241	9743
891.364	9728
891.488	9812
891.611	9717
891.734	9743
891.857	9682
891.98	9701
892.103	9842
892.226	9720
892.349	9701
892.471	9485
892.594	9580
892.717	9591
892.839	9587
892.962	9584
893.085	9682
893.207	9568
893.33	9488
893.452	9572
893.575	9587
893.697	9458
893.819	9656
893.941	9690
894.064	9663
894.186	9420
894.308	9450
894.43	9557
894.552	9572
894.674	9538
894.796	9443
894.918	9439
895.04	9382
895.161	9370
895.283	9370
895.405	9233
895.526	9283
895.648	9245
895.769	9336
895.891	9264
896.012	9256
896.134	9298
896.255	9123
896.376	9157
896.498	9218
896.619	9157
896.74	8998
896.861	9085
896.982	9226
897.103	9317
897.224	9176
897.345	9100
897.466	9108
897.587	9047
897.708	9165
897.828	9165
897.949	9001
898.07	8864
898.19	8921
898.311	9081
898.431	8872
898.552	8910
898.672	9024
898.792	8960
898.913	8876
899.033	8773
899.153	8754
899.273	8651
899.393	8724
899.513	8777
899.633	8750
899.753	8758
899.873	8648
899.993	8705
900.113	8674
900.232	8667
900.352	8716
900.472	8651
900.591	8457
900.711	8659
900.83	8556
900.95	8617
901.069	8667
901.189	8678
901.308	8423
901.427	8415
901.546	8419
901.665	8423
901.784	8446
901.904	8339
902.023	8309
902.141	8298
902.26	8229
902.379	8313
902.498	8279
902.617	8244
902.735	8336
902.854	8355
902.973	8237
903.091	8088
903.21	8123
903.328	8183
903.446	8187
903.565	8084
903.683	8058
903.801	8062
903.919	8130
904.038	8149
904.156	8119
904.274	8119
904.392	8031
904.51	8062
904.627	8043
904.745	8100
904.863	8103
904.981	7947
905.098	7898
905.216	7875
905.334	7932
905.451	7898
905.569	7894
905.686	8016
905.803	7951
905.921	7864
906.038	7963
906.155	7734
906.272	7788
906.389	7700
906.506	7628
906.623	7674
906.74	7601
906.857	7540
906.974	7582
907.091	7658
907.208	7795
907.324	7685
907.441	7620
907.557	7476
907.674	7468
907.79	7510
907.907	7415
908.023	7441
908.139	7480
908.256	7381
908.372	7331
908.488	7453
908.604	7270
908.72	7259
908.836	7316
908.952	7285
909.068	7282
909.184	7373
909.3	7270
909.415	7339
909.531	7240
909.647	7145
909.762	7110
909.878	7118
909.993	7160
910.108	7107
910.224	7091
910.339	7042
910.454	7110
910.57	7027
910.685	6977
910.8	7247
910.915	7118
911.03	7057
911.145	6916
911.259	6897
911.374	6943
911.489	6913
911.604	6844
911.718	6703
911.833	6783
911.947	6684
912.062	6612
912.176	6681
912.291	6753
912.405	6722
912.519	6821
912.633	6852
912.748	6734
912.862	6707
912.976	6608
913.09	6525
913.204	6578
913.318	6639
913.431	6692
913.545	6658
913.659	6730
913.772	6646
913.886	6566
914	6578
914.113	6566
914.226	6646
914.34	6589
914.453	6479
914.566	6692
914.68	6528
914.793	6513
914.906	6441
915.019	6350
915.132	6399
915.245	6460
915.358	6437
915.47	6479
915.583	6467
915.696	6475
915.809	6490
915.921	6532
916.034	6426
916.146	6460
916.259	6418
916.371	6460
916.483	6467
916.595	6384
916.708	6502
916.82	6403
916.932	6422
917.044	6452
917.156	6395
917.268	6327
917.38	6353
917.491	6300
917.603	6357
917.715	6418
917.826	6437
917.938	6304
918.049	6311
918.161	6292
918.272	6433
918.384	6471
918.495	6319
918.606	6266
918.717	6232
918.828	6273
918.939	6273
919.05	6213
919.161	6258
919.272	6175
919.383	6148
919.494	6319
919.604	6410
919.715	6308
919.826	6216
919.936	6273
920.047	6323
920.157	6262
920.267	6456
920.378	6334
920.488	6277
920.598	6494
920.708	6616
920.818	6479
920.928	6445
921.038	6642
921.148	6627
921.258	6353
921.368	6327
921.477	6262
921.587	6224
921.697	6159
921.806	6209
921.916	6159
922.025	5969
922.134	5950
922.244	5923
922.353	5965
922.462	5851
922.571	5790
922.68	5684
922.789	5691
922.898	5726
923.007	5634
923.116	5710
923.224	5710
923.333	5646
923.442	5646
923.55	5558
923.659	5611
923.767	5615
923.876	5528
923.984	5638
924.092	5539
924.201	5535
924.309	5532
924.417	5581
924.525	5543
924.633	5528
924.741	6319
924.849	5436
924.956	5543
925.064	5387
925.172	5372
925.279	5299
925.387	5337
925.494	5337
925.602	5474
925.709	5379
925.816	5296
925.924	5341
926.031	5364
926.138	5337
926.245	5334
926.352	5231
926.459	5326
926.566	5341
926.673	5223
926.779	5178
926.886	5155
926.993	5003
927.099	4984
927.206	5003
927.312	4942
927.419	5041
927.525	4995
927.631	4984
927.737	4915
927.843	4911
927.95	4828
928.056	4854
928.162	4854
928.267	4843
928.373	5299
928.479	4923
928.585	4763
928.69	4774
928.796	4786
928.901	4710
929.007	4599
929.112	4656
929.218	4618
929.323	4577
929.428	4558
929.533	4702
929.638	4516
929.743	4599
929.848	4592
929.953	4462
930.058	4432
930.163	4348
930.267	4371
930.372	4432
930.477	4261
930.581	4508
930.685	4344
930.79	4257
930.894	4360
930.998	4276
931.103	4352
931.207	4093
931.311	4093
931.415	4059
931.519	3949
931.623	3956
