Data from glass_V78500241_1211.txt Node
Date: Wed Sep 01 19:22:53 CST 2021
User: usil
Spectrometer: V785-0024
Trigger mode: 0
Integration Time (sec): 4.000000E-1
Scans to average: 1
Nonlinearity correction enabled: false
Boxcar width: 0
Storing dark spectrum: false
XAxis mode: Wavelengths
Number of Pixels in Spectrum: 1024
>>>>>Begin Spectral Data<<<<<
801.071	3759
801.214	3720
801.356	3732
801.499	3743
801.641	3743
801.783	3850
801.926	3876
802.068	3857
802.211	3842
802.353	3884
802.496	3865
802.638	3873
802.78	3926
802.923	3911
803.065	3911
803.208	3804
803.35	3907
803.492	3896
803.635	3930
803.777	3774
803.919	3949
804.061	4154
804.204	3949
804.346	3956
804.488	3922
804.63	3994
804.773	3991
804.915	4029
805.057	4124
805.199	4044
805.341	4150
805.483	4131
805.626	4139
805.768	4109
805.91	4204
806.052	4287
806.194	4188
806.336	4344
806.478	4211
806.62	4185
806.762	4200
806.904	4287
807.046	4344
807.188	4234
807.33	4223
807.472	4223
807.614	4185
807.756	4268
807.898	4207
808.04	4196
808.182	4257
808.324	4398
808.465	4417
808.607	4466
808.749	4485
808.891	4443
809.033	4519
809.174	4405
809.316	4303
809.458	4211
809.6	4162
809.741	4135
809.883	4150
810.025	4242
810.166	4211
810.308	4177
810.45	4280
810.591	4196
810.733	4268
810.875	4535
811.016	4839
811.158	5147
811.299	5261
811.441	5326
811.582	5033
811.724	4748
811.865	4485
812.007	4478
812.148	4402
812.29	4436
812.431	4394
812.573	4402
812.714	4413
812.855	4394
812.997	4386
813.138	4516
813.279	4409
813.421	4367
813.562	4383
813.703	4341
813.845	4318
813.986	4268
814.127	4207
814.268	4284
814.41	4299
814.551	4287
814.692	4306
814.833	4265
814.974	4314
815.115	4383
815.256	4261
815.397	4257
815.539	4268
815.68	4169
815.821	4234
815.962	4318
816.103	4284
816.244	4238
816.385	4242
816.526	4253
816.666	4207
816.807	4078
816.948	4223
817.089	4223
817.23	4128
817.371	4048
817.512	4063
817.653	4128
817.793	4063
817.934	4074
818.075	4120
818.216	4090
818.356	4097
818.497	3994
818.638	3934
818.778	3918
818.919	3896
819.06	3907
819.2	3945
819.341	3838
819.481	3819
819.622	3896
819.762	4006
819.903	3922
820.043	3903
820.184	3854
820.324	3831
820.465	3869
820.605	3857
820.746	3861
820.886	3827
821.026	3953
821.167	3964
821.307	3972
821.447	3979
821.588	3937
821.728	3968
821.868	3934
822.008	3907
822.149	3953
822.289	3945
822.429	3793
822.569	3770
822.709	3827
822.849	3743
822.99	3736
823.13	3747
823.27	3785
823.41	3736
823.55	3751
823.69	3720
823.83	3766
823.97	3679
824.11	3641
824.25	3629
824.389	3667
824.529	3675
824.669	3663
824.809	3774
824.949	3743
825.089	3751
825.228	3720
825.368	3591
825.508	3523
825.648	3568
825.787	3595
825.927	3637
826.067	3656
826.206	3682
826.346	3823
826.485	3850
826.625	3857
826.765	3941
826.904	3888
827.044	3641
827.183	3519
827.323	3462
827.462	3561
827.601	3431
827.741	3374
827.88	3458
828.02	3416
828.159	3450
828.298	3485
828.437	3515
828.577	3492
828.716	3644
828.855	3469
828.994	3393
829.134	3405
829.273	3374
829.412	3344
829.551	3367
829.69	3363
829.829	3443
829.968	3519
830.107	3447
830.246	3496
830.385	3336
830.524	3378
830.663	3291
830.802	3256
830.941	3199
831.08	3188
831.219	3313
831.357	3249
831.496	3401
831.635	3207
831.774	3173
831.913	3199
832.051	3161
832.19	3097
832.329	3253
832.467	3119
832.606	3119
832.744	3154
832.883	3211
833.022	3188
833.16	3264
833.299	3310
833.437	3374
833.576	3367
833.714	3435
833.852	3466
833.991	3420
834.129	3485
834.267	3447
834.406	3405
834.544	3466
834.682	3439
834.821	3416
834.959	3572
835.097	3428
835.235	3606
835.373	3488
835.511	3511
835.65	3511
835.788	3473
835.926	3397
836.064	3367
836.202	3401
836.34	3534
836.478	3625
836.615	3564
836.753	3584
836.891	3648
837.029	3633
837.167	3614
837.305	3584
837.443	3538
837.58	3519
837.718	3629
837.856	3576
837.993	3519
838.131	3587
838.269	3629
838.406	3603
838.544	3557
838.681	3496
838.819	3488
838.956	3348
839.094	3454
839.231	3435
839.369	3542
839.506	3755
839.643	3660
839.781	3511
839.918	3447
840.055	3515
840.193	3553
840.33	3576
840.467	3587
840.604	3545
840.742	3778
840.879	3584
841.016	3572
841.153	3610
841.29	3770
841.427	3736
841.564	3728
841.701	3705
841.838	3709
841.975	3701
842.112	3747
842.249	3618
842.385	3656
842.522	3800
842.659	3698
842.796	3682
842.933	3720
843.069	3705
843.206	3709
843.343	3797
843.479	3781
843.616	3800
843.752	3633
843.889	3686
844.025	3865
844.162	3743
844.298	3831
844.435	3785
844.571	3781
844.708	3945
844.844	4013
844.98	4036
845.117	4040
845.253	3934
845.389	3865
845.525	3934
845.661	3972
845.798	3937
845.934	3983
846.07	3945
846.206	4048
846.342	4097
846.478	4101
846.614	4002
846.75	3937
846.886	3903
847.022	4040
847.158	3975
847.294	3972
847.429	4021
847.565	4006
847.701	4265
847.837	3907
847.972	3865
848.108	3979
848.244	3994
848.379	3861
848.515	3823
848.65	3850
848.786	3861
848.921	3850
849.057	3911
849.192	3953
849.328	3968
849.463	3937
849.598	3888
849.734	3869
849.869	3861
850.004	3827
850.14	3846
850.275	3842
850.41	3686
850.545	3789
850.68	3789
850.815	3876
850.95	3781
851.085	3945
851.22	3869
851.355	3827
851.49	3816
851.625	3789
851.76	3804
851.895	3755
852.03	3740
852.165	3774
852.299	3857
852.434	3949
852.569	3869
852.703	3865
852.838	3956
852.973	4040
853.107	3994
853.242	3892
853.376	3892
853.511	3789
853.645	3911
853.78	3937
853.914	3903
854.048	3956
854.183	3865
854.317	3975
854.451	4044
854.585	3972
854.72	3922
854.854	4078
854.988	3956
855.122	3994
855.256	3964
855.39	4048
855.524	4093
855.658	4078
855.792	4086
855.926	4143
856.06	4192
856.194	4207
856.327	4154
856.461	4074
856.595	4166
856.729	4185
856.862	4306
856.996	4303
857.13	4306
857.263	4363
857.397	4356
857.53	4333
857.664	4356
857.797	4398
857.931	4398
858.064	4432
858.197	4478
858.331	4405
858.464	4417
858.597	4356
858.731	4405
858.864	4451
858.997	4470
859.13	4519
859.263	4554
859.396	4550
859.529	4622
859.662	4603
859.795	4538
859.928	4618
860.061	4664
860.194	4694
860.327	4683
860.46	4660
860.592	4733
860.725	4774
860.858	4755
860.99	4664
861.123	4702
861.256	4721
861.388	4767
861.521	5345
861.653	4694
861.786	4736
861.918	4744
862.05	4816
862.183	4835
862.315	4934
862.447	4949
862.58	4892
862.712	4831
862.844	4778
862.976	4831
863.108	4828
863.24	5208
863.372	4843
863.504	4915
863.636	4900
863.768	4999
863.9	4957
864.032	4938
864.164	5010
864.296	5037
864.428	5079
864.559	5159
864.691	5067
864.823	5151
864.954	5067
865.086	5140
865.217	5086
865.349	5124
865.48	5178
865.612	5216
865.743	5326
865.875	5174
866.006	5208
866.137	5250
866.269	5269
866.4	5250
866.531	5254
866.662	5284
866.793	5265
866.924	5288
867.055	5353
867.186	5330
867.317	5341
867.448	5292
867.579	5398
867.71	5318
867.841	5360
867.972	5467
868.103	5459
868.233	5463
868.364	5547
868.495	5497
868.625	5688
868.756	5844
868.886	5665
869.017	5729
869.147	5866
869.278	5802
869.408	5836
869.539	5851
869.669	5950
869.799	5874
869.929	6019
870.06	5996
870.19	6178
870.32	6205
870.45	6232
870.58	6331
870.71	6403
870.84	6456
870.97	6407
871.1	6486
871.23	6654
871.36	6696
871.489	6711
871.619	6741
871.749	6802
871.879	6848
872.008	7034
872.138	6973
872.267	6996
872.397	6996
872.526	7061
872.656	7053
872.785	7202
872.915	7369
873.044	7491
873.173	7613
873.303	7715
873.432	7719
873.561	7860
873.69	7902
873.819	8012
873.948	8172
874.077	8282
874.206	8328
874.335	8434
874.464	8689
874.593	8868
874.722	8986
874.851	9108
874.979	9207
875.108	9272
875.237	9408
875.365	9485
875.494	9595
875.623	9819
875.751	9846
875.88	10010
876.008	10124
876.136	10215
876.265	10588
876.393	10710
876.521	10744
876.65	10847
876.778	10839
876.906	10927
877.034	11022
877.162	11079
877.29	11094
877.418	11337
877.546	11299
877.674	11490
877.802	11505
877.93	11471
878.058	11566
878.185	11589
878.313	11623
878.441	11748
878.568	11695
878.696	11779
878.824	11874
878.951	11954
879.079	11980
879.206	12121
879.333	12041
879.461	11980
879.588	12053
879.715	12049
879.842	12167
879.97	12117
880.097	11878
880.224	11885
880.351	11889
880.478	11847
880.605	11805
880.732	11927
880.859	12003
880.986	11840
881.112	11745
881.239	11722
881.366	11737
881.493	11589
881.619	11619
881.746	11562
881.872	11573
881.999	11547
882.125	11490
882.252	11661
882.378	11528
882.505	11558
882.631	11402
882.757	11391
882.883	11322
883.01	11170
883.136	11296
883.262	11143
883.388	11181
883.514	11178
883.64	11208
883.766	11067
883.892	11029
884.018	11003
884.143	11064
884.269	11113
884.395	10797
884.52	10755
884.646	10858
884.772	10790
884.897	10607
885.023	10660
885.148	10740
885.274	10828
885.399	10736
885.524	10691
885.65	10611
885.775	10641
885.9	10535
886.025	10516
886.15	10516
886.275	10481
886.4	10440
886.525	10306
886.65	10398
886.775	10299
886.9	10527
887.025	10550
887.149	10417
887.274	10185
887.399	10219
887.523	10181
887.648	10078
887.773	10097
887.897	10299
888.021	10169
888.146	10090
888.27	10295
888.395	10200
888.519	10242
888.643	10131
888.767	10192
888.891	10112
889.015	10051
889.139	9991
889.263	10040
889.387	10067
889.511	10158
889.635	10112
889.759	9994
889.883	9994
890.006	9960
890.13	10063
890.254	9975
890.377	10017
890.501	9956
890.624	9888
890.748	9911
890.871	9793
890.995	9854
891.118	9724
891.241	9812
891.364	9789
891.488	9812
891.611	9770
891.734	9682
891.857	9789
891.98	9656
892.103	9740
892.226	9709
892.349	9675
892.471	9530
892.594	9549
892.717	9663
892.839	9572
892.962	9625
893.085	9679
893.207	9637
893.33	9477
893.452	9530
893.575	9610
893.697	9431
893.819	9564
893.941	9603
894.064	9545
894.186	9469
894.308	9374
894.43	9382
894.552	9614
894.674	9557
894.796	9412
894.918	9420
895.04	9317
895.161	9336
895.283	9367
895.405	9306
895.526	9211
895.648	9222
895.769	9275
895.891	9249
896.012	9275
896.134	9245
896.255	9165
896.376	9146
896.498	9138
896.619	9165
896.74	9051
896.861	9089
896.982	9222
897.103	9272
897.224	9173
897.345	9070
897.466	9009
897.587	8948
897.708	9081
897.828	9055
897.949	8986
898.07	8902
898.19	8948
898.311	8982
898.431	8887
898.552	8925
898.672	9032
898.792	8937
898.913	8971
899.033	8788
899.153	8762
899.273	8667
899.393	8788
899.513	8708
899.633	8777
899.753	8781
899.873	8743
899.993	8762
900.113	8674
900.232	8640
900.352	8678
900.472	8621
900.591	8602
900.711	8606
900.83	8579
900.95	8705
901.069	8640
901.189	8602
901.308	8446
901.427	8431
901.546	8389
901.665	8488
901.784	8499
901.904	8412
902.023	8332
902.141	8237
902.26	8183
902.379	8233
902.498	8218
902.617	8237
902.735	8328
902.854	8339
902.973	8263
903.091	8138
903.21	8062
903.328	8180
903.446	8107
903.565	8088
903.683	8142
903.801	8115
903.919	8062
904.038	8111
904.156	8043
904.274	8088
904.392	7982
904.51	8043
904.627	8016
904.745	8081
904.863	8081
904.981	7978
905.098	7906
905.216	7833
905.334	7921
905.451	7932
905.569	7993
905.686	7947
905.803	7894
905.921	7803
906.038	7871
906.155	7837
906.272	7731
906.389	7723
906.506	7651
906.623	7609
906.74	7666
906.857	7552
906.974	7616
907.091	7632
907.208	7723
907.324	7658
907.441	7582
907.557	7487
907.674	7449
907.79	7407
907.907	7407
908.023	7411
908.139	7415
908.256	7362
908.372	7426
908.488	7369
908.604	7282
908.72	7225
908.836	7320
908.952	7209
909.068	7194
909.184	7365
909.3	7293
909.415	7362
909.531	7285
909.647	7137
909.762	7156
909.878	7069
909.993	7164
910.108	7072
910.224	7046
910.339	7080
910.454	7053
910.57	7027
910.685	6924
910.8	7156
910.915	7145
911.03	7000
911.145	6954
911.259	6867
911.374	6886
911.489	6882
911.604	6894
911.718	6707
911.833	6768
911.947	6650
912.062	6585
912.176	6707
912.291	6658
912.405	6757
912.519	6814
912.633	6810
912.748	6726
912.862	6745
912.976	6658
913.09	6498
913.204	6559
913.318	6593
913.431	6627
913.545	6707
913.659	6757
913.772	6665
913.886	6555
914	6540
914.113	6658
914.226	6658
914.34	6662
914.453	6517
914.566	6604
914.68	6532
914.793	6566
914.906	6448
915.019	6479
915.132	6372
915.245	6445
915.358	6361
915.47	6471
915.583	6513
915.696	6540
915.809	6563
915.921	6506
916.034	6460
916.146	6410
916.259	6414
916.371	6502
916.483	6464
916.595	6414
916.708	6414
916.82	6410
916.932	6403
917.044	6403
917.156	6391
917.268	6353
917.38	6395
917.491	6281
917.603	6315
917.715	6433
917.826	6429
917.938	6308
918.049	6270
918.161	6350
918.272	6384
918.384	6456
918.495	6315
918.606	6232
918.717	6289
918.828	6285
918.939	6289
919.05	6186
919.161	6213
919.272	6167
919.383	6114
919.494	6300
919.604	6418
919.715	6266
919.826	6216
919.936	6273
920.047	6331
920.157	6281
920.267	6407
920.378	6319
920.488	6213
920.598	6448
920.708	6589
920.818	6490
920.928	6498
921.038	6582
921.148	6612
921.258	6327
921.368	6273
921.477	6247
921.587	6228
921.697	6026
921.806	6205
921.916	6041
922.025	5969
922.134	5931
922.244	5912
922.353	5916
922.462	5904
922.571	5798
922.68	5714
922.789	5695
922.898	5688
923.007	5634
923.116	5699
923.224	5623
923.333	5638
923.442	5592
923.55	5535
923.659	5634
923.767	5608
923.876	5547
923.984	5562
924.092	5505
924.201	5581
924.309	5528
924.417	5547
924.525	5471
924.633	5520
924.741	6251
924.849	5406
924.956	5474
925.064	5357
925.172	5261
925.279	5288
925.387	5292
925.494	5376
925.602	5410
925.709	5364
925.816	5277
925.924	5296
926.031	5337
926.138	5334
926.245	5326
926.352	5170
926.459	5299
926.566	5296
926.673	5208
926.779	5155
926.886	5140
926.993	5067
927.099	5014
927.206	4915
927.312	4930
927.419	4984
927.525	4976
927.631	4984
927.737	4896
927.843	4908
927.95	4790
928.056	4854
928.162	4771
928.267	4786
928.373	5311
928.479	4866
928.585	4675
928.69	4744
928.796	4809
928.901	4694
929.007	4611
929.112	4694
929.218	4622
929.323	4584
929.428	4580
929.533	4679
929.638	4538
929.743	4588
929.848	4519
929.953	4561
930.058	4500
930.163	4363
930.267	4333
930.372	4455
930.477	4310
930.581	4451
930.685	4417
930.79	4253
930.894	4303
930.998	4234
931.103	4390
931.207	4147
931.311	4090
931.415	4017
931.519	3960
931.623	3934
