Data from glass_V78500241_891.txt Node
Date: Wed Sep 01 19:20:40 CST 2021
User: usil
Spectrometer: V785-0024
Trigger mode: 0
Integration Time (sec): 4.000000E-1
Scans to average: 1
Nonlinearity correction enabled: false
Boxcar width: 0
Storing dark spectrum: false
XAxis mode: Wavelengths
Number of Pixels in Spectrum: 1024
>>>>>Begin Spectral Data<<<<<
801.071	3747
801.214	3759
801.356	3709
801.499	3747
801.641	3728
801.783	3816
801.926	3911
802.068	3861
802.211	3842
802.353	3857
802.496	3884
802.638	3873
802.78	3922
802.923	3930
803.065	3915
803.208	3861
803.35	3888
803.492	3922
803.635	3953
803.777	3789
803.919	3911
804.061	4158
804.204	4029
804.346	3960
804.488	3930
804.63	4044
804.773	4002
804.915	4036
805.057	4227
805.199	4051
805.341	4128
805.483	4185
805.626	4169
805.768	4120
805.91	4204
806.052	4242
806.194	4253
806.336	4375
806.478	4223
806.62	4185
806.762	4223
806.904	4295
807.046	4322
807.188	4230
807.33	4204
807.472	4219
807.614	4192
807.756	4295
807.898	4249
808.04	4230
808.182	4325
808.324	4352
808.465	4379
808.607	4497
808.749	4455
808.891	4516
809.033	4535
809.174	4409
809.316	4276
809.458	4287
809.6	4147
809.741	4131
809.883	4177
810.025	4196
810.166	4272
810.308	4207
810.45	4238
810.591	4253
810.733	4352
810.875	4550
811.016	4854
811.158	5105
811.299	5269
811.441	5280
811.582	5018
811.724	4729
811.865	4455
812.007	4489
812.148	4386
812.29	4394
812.431	4390
812.573	4443
812.714	4383
812.855	4421
812.997	4462
813.138	4558
813.279	4428
813.421	4459
813.562	4405
813.703	4344
813.845	4371
813.986	4333
814.127	4291
814.268	4276
814.41	4318
814.551	4280
814.692	4337
814.833	4284
814.974	4310
815.115	4356
815.256	4257
815.397	4257
815.539	4215
815.68	4188
815.821	4242
815.962	4363
816.103	4287
816.244	4261
816.385	4242
816.526	4253
816.666	4196
816.807	4055
816.948	4192
817.089	4158
817.23	4105
817.371	4048
817.512	4101
817.653	4093
817.793	4044
817.934	4055
818.075	4105
818.216	4124
818.356	4044
818.497	3987
818.638	3926
818.778	3922
818.919	3861
819.06	3899
819.2	3926
819.341	3888
819.481	3857
819.622	3861
819.762	4040
819.903	3915
820.043	3850
820.184	3846
820.324	3838
820.465	3896
820.605	3846
820.746	3823
820.886	3804
821.026	3975
821.167	3934
821.307	3968
821.447	4002
821.588	3987
821.728	3968
821.868	3941
822.008	3873
822.149	3945
822.289	3937
822.429	3781
822.569	3759
822.709	3793
822.849	3717
822.99	3694
823.13	3747
823.27	3800
823.41	3732
823.55	3690
823.69	3724
823.83	3751
823.97	3682
824.11	3618
824.25	3603
824.389	3637
824.529	3641
824.669	3660
824.809	3686
824.949	3759
825.089	3751
825.228	3736
825.368	3603
825.508	3557
825.648	3564
825.787	3568
825.927	3633
826.067	3656
826.206	3679
826.346	3781
826.485	3850
826.625	3876
826.765	3972
826.904	3850
827.044	3667
827.183	3492
827.323	3462
827.462	3526
827.601	3447
827.741	3435
827.88	3477
828.02	3397
828.159	3454
828.298	3534
828.437	3526
828.577	3462
828.716	3622
828.855	3496
828.994	3389
829.134	3382
829.273	3439
829.412	3325
829.551	3332
829.69	3382
829.829	3409
829.968	3553
830.107	3447
830.246	3397
830.385	3367
830.524	3359
830.663	3321
830.802	3302
830.941	3218
831.08	3245
831.219	3287
831.357	3287
831.496	3439
831.635	3291
831.774	3199
831.913	3237
832.051	3123
832.19	3150
832.329	3226
832.467	3146
832.606	3131
832.744	3176
832.883	3154
833.022	3211
833.16	3264
833.299	3272
833.437	3363
833.576	3397
833.714	3405
833.852	3435
833.991	3454
834.129	3435
834.267	3454
834.406	3424
834.544	3431
834.682	3454
834.821	3424
834.959	3587
835.097	3435
835.235	3538
835.373	3492
835.511	3519
835.65	3447
835.788	3428
835.926	3412
836.064	3420
836.202	3424
836.34	3561
836.478	3625
836.615	3576
836.753	3622
836.891	3698
837.029	3614
837.167	3591
837.305	3549
837.443	3526
837.58	3530
837.718	3614
837.856	3561
837.993	3511
838.131	3618
838.269	3580
838.406	3564
838.544	3568
838.681	3469
838.819	3469
838.956	3378
839.094	3405
839.231	3519
839.369	3523
839.506	3736
839.643	3648
839.781	3553
839.918	3447
840.055	3504
840.193	3580
840.33	3523
840.467	3629
840.604	3599
840.742	3774
840.879	3568
841.016	3564
841.153	3625
841.29	3736
841.427	3705
841.564	3747
841.701	3778
841.838	3717
841.975	3679
842.112	3759
842.249	3656
842.385	3629
842.522	3892
842.659	3705
842.796	3690
842.933	3740
843.069	3705
843.206	3747
843.343	3785
843.479	3762
843.616	3823
843.752	3701
843.889	3705
844.025	3869
844.162	3720
844.298	3842
844.435	3846
844.571	3774
844.708	3888
844.844	3998
844.98	4002
845.117	3979
845.253	3926
845.389	3873
845.525	3998
845.661	3964
845.798	3888
845.934	3998
846.07	4002
846.206	4090
846.342	4116
846.478	4078
846.614	3991
846.75	3907
846.886	3926
847.022	4059
847.158	4010
847.294	4002
847.429	4044
847.565	3994
847.701	4234
847.837	3911
847.972	3899
848.108	4044
848.244	4002
848.379	3857
848.515	3831
848.65	3842
848.786	3827
848.921	3835
849.057	3937
849.192	3937
849.328	3926
849.463	3907
849.598	3896
849.734	3865
849.869	3876
850.004	3838
850.14	3819
850.275	3755
850.41	3747
850.545	3751
850.68	3819
850.815	3835
850.95	3800
851.085	3934
851.22	3869
851.355	3842
851.49	3804
851.625	3797
851.76	3789
851.895	3717
852.03	3808
852.165	3781
852.299	3789
852.434	3937
852.569	3888
852.703	3869
852.838	3896
852.973	4044
853.107	4051
853.242	3934
853.376	3850
853.511	3781
853.645	3808
853.78	3975
853.914	3915
854.048	3926
854.183	3876
854.317	3975
854.451	4071
854.585	3960
854.72	3949
854.854	4044
854.988	3972
855.122	3998
855.256	3945
855.39	4021
855.524	4120
855.658	4048
855.792	4116
855.926	4124
856.06	4192
856.194	4227
856.327	4181
856.461	4158
856.595	4169
856.729	4158
856.862	4287
856.996	4246
857.13	4344
857.263	4344
857.397	4314
857.53	4306
857.664	4344
857.797	4428
857.931	4459
858.064	4424
858.197	4455
858.331	4398
858.464	4398
858.597	4405
858.731	4451
858.864	4504
858.997	4470
859.13	4512
859.263	4546
859.396	4622
859.529	4508
859.662	4535
859.795	4519
859.928	4656
860.061	4710
860.194	4744
860.327	4664
860.46	4637
860.592	4736
860.725	4771
860.858	4755
860.99	4691
861.123	4714
861.256	4698
861.388	4763
861.521	5551
861.653	4763
861.786	4694
861.918	4744
862.05	4812
862.183	4816
862.315	4835
862.447	4946
862.58	4870
862.712	4790
862.844	4736
862.976	4911
863.108	4900
863.24	5201
863.372	4835
863.504	4949
863.636	4858
863.768	4923
863.9	4957
864.032	4949
864.164	4972
864.296	5094
864.428	5041
864.559	5117
864.691	5109
864.823	5117
864.954	5086
865.086	5105
865.217	5136
865.349	5102
865.48	5155
865.612	5193
865.743	5292
865.875	5193
866.006	5189
866.137	5239
866.269	5181
866.4	5265
866.531	5212
866.662	5220
866.793	5265
866.924	5280
867.055	5383
867.186	5334
867.317	5337
867.448	5311
867.579	5337
867.71	5406
867.841	5425
867.972	5493
868.103	5505
868.233	5524
868.364	5493
868.495	5608
868.625	5699
868.756	5809
868.886	5684
869.017	5752
869.147	5851
869.278	5851
869.408	5813
869.539	5901
869.669	5927
869.799	5980
869.929	6053
870.06	5977
870.19	6159
870.32	6201
870.45	6273
870.58	6369
870.71	6494
870.84	6429
870.97	6407
871.1	6448
871.23	6635
871.36	6700
871.489	6700
871.619	6738
871.749	6779
871.879	6890
872.008	7015
872.138	7012
872.267	7031
872.397	6985
872.526	7015
872.656	7145
872.785	7198
872.915	7415
873.044	7518
873.173	7575
873.303	7693
873.432	7666
873.561	7871
873.69	7887
873.819	8012
873.948	8176
874.077	8233
874.206	8343
874.335	8465
874.464	8659
874.593	8887
874.722	9017
874.851	9150
874.979	9260
875.108	9412
875.237	9412
875.365	9561
875.494	9667
875.623	9831
875.751	9857
875.88	10017
876.008	10109
876.136	10268
876.265	10478
876.393	10656
876.521	10771
876.65	10828
876.778	10953
876.906	10904
877.034	10961
877.162	11045
877.29	11155
877.418	11250
877.546	11410
877.674	11395
877.802	11520
877.93	11543
878.058	11543
878.185	11615
878.313	11710
878.441	11737
878.568	11646
878.696	11832
878.824	11866
878.951	11935
879.079	11996
879.206	12175
879.333	12045
879.461	11996
879.588	12102
879.715	12182
879.842	12232
879.97	12064
880.097	11893
880.224	11866
880.351	11855
880.478	11847
880.605	11828
880.732	11866
880.859	12011
880.986	11756
881.112	11897
881.239	11752
881.366	11695
881.493	11634
881.619	11532
881.746	11509
881.872	11512
881.999	11532
882.125	11425
882.252	11653
882.378	11535
882.505	11501
882.631	11387
882.757	11296
882.883	11349
883.01	11254
883.136	11193
883.262	11128
883.388	11045
883.514	11124
883.64	11166
883.766	11178
883.892	11029
884.018	10961
884.143	11006
884.269	11117
884.395	10858
884.52	10755
884.646	10862
884.772	10706
884.897	10645
885.023	10706
885.148	10729
885.274	10824
885.399	10786
885.524	10592
885.65	10561
885.775	10569
885.9	10542
886.025	10546
886.15	10459
886.275	10500
886.4	10382
886.525	10436
886.65	10447
886.775	10356
886.9	10436
887.025	10508
887.149	10356
887.274	10230
887.399	10162
887.523	10147
887.648	10158
887.773	10090
887.897	10265
888.021	10238
888.146	10169
888.27	10299
888.395	10276
888.519	10158
888.643	10207
888.767	10139
888.891	10105
889.015	10010
889.139	9994
889.263	9968
889.387	10090
889.511	10120
889.635	10017
889.759	10013
889.883	9968
890.006	9987
890.13	10044
890.254	9945
890.377	9968
890.501	9846
890.624	9956
890.748	9907
890.871	9804
890.995	9755
891.118	9671
891.241	9766
891.364	9762
891.488	9827
891.611	9705
891.734	9675
891.857	9831
891.98	9766
892.103	9743
892.226	9713
892.349	9641
892.471	9549
892.594	9618
892.717	9580
892.839	9580
892.962	9561
893.085	9648
893.207	9507
893.33	9511
893.452	9530
893.575	9595
893.697	9477
893.819	9682
893.941	9660
894.064	9629
894.186	9466
894.308	9420
894.43	9526
894.552	9542
894.674	9572
894.796	9431
894.918	9340
895.04	9370
895.161	9374
895.283	9428
895.405	9275
895.526	9306
895.648	9287
895.769	9188
895.891	9195
896.012	9218
896.134	9203
896.255	9176
896.376	9112
896.498	9180
896.619	9093
896.74	9097
896.861	9104
896.982	9253
897.103	9405
897.224	9165
897.345	9089
897.466	9028
897.587	9051
897.708	9192
897.828	9047
897.949	8979
898.07	8880
898.19	8880
898.311	9036
898.431	8899
898.552	8880
898.672	8975
898.792	8979
898.913	8921
899.033	8864
899.153	8750
899.273	8701
899.393	8758
899.513	8746
899.633	8716
899.753	8724
899.873	8689
899.993	8731
900.113	8689
900.232	8674
900.352	8629
900.472	8568
900.591	8602
900.711	8575
900.83	8560
900.95	8682
901.069	8773
901.189	8541
901.308	8442
901.427	8381
901.546	8434
901.665	8484
901.784	8450
901.904	8320
902.023	8339
902.141	8275
902.26	8221
902.379	8263
902.498	8240
902.617	8161
902.735	8343
902.854	8233
902.973	8229
903.091	8145
903.21	8202
903.328	8180
903.446	8149
903.565	8073
903.683	8100
903.801	8062
903.919	8100
904.038	8195
904.156	8077
904.274	8065
904.392	8027
904.51	8027
904.627	8046
904.745	8077
904.863	8092
904.981	7989
905.098	7852
905.216	7890
905.334	7902
905.451	7974
905.569	7845
905.686	7913
905.803	7875
905.921	7841
906.038	7826
906.155	7822
906.272	7765
906.389	7738
906.506	7632
906.623	7655
906.74	7651
906.857	7514
906.974	7537
907.091	7689
907.208	7769
907.324	7655
907.441	7632
907.557	7480
907.674	7525
907.79	7403
907.907	7434
908.023	7407
908.139	7476
908.256	7396
908.372	7373
908.488	7381
908.604	7263
908.72	7312
908.836	7282
908.952	7301
909.068	7289
909.184	7373
909.3	7266
909.415	7278
909.531	7293
909.647	7164
909.762	7137
909.878	7091
909.993	7171
910.108	7076
910.224	7091
910.339	7080
910.454	7061
910.57	7031
910.685	7000
910.8	7209
910.915	7110
911.03	6989
911.145	6886
911.259	6894
911.374	6867
911.489	6810
911.604	6818
911.718	6730
911.833	6776
911.947	6658
912.062	6616
912.176	6772
912.291	6741
912.405	6681
912.519	6867
912.633	6840
912.748	6707
912.862	6688
912.976	6563
913.09	6566
913.204	6593
913.318	6566
913.431	6673
913.545	6673
913.659	6734
913.772	6635
913.886	6563
914	6506
914.113	6593
914.226	6654
914.34	6597
914.453	6464
914.566	6601
914.68	6471
914.793	6525
914.906	6395
915.019	6384
915.132	6471
915.245	6410
915.358	6384
915.47	6410
915.583	6475
915.696	6528
915.809	6566
915.921	6490
916.034	6403
916.146	6437
916.259	6376
916.371	6464
916.483	6437
916.595	6418
916.708	6410
916.82	6357
916.932	6380
917.044	6395
917.156	6380
917.268	6308
917.38	6353
917.491	6338
917.603	6380
917.715	6422
917.826	6506
917.938	6357
918.049	6266
918.161	6342
918.272	6422
918.384	6464
918.495	6395
918.606	6247
918.717	6224
918.828	6300
918.939	6247
919.05	6205
919.161	6228
919.272	6205
919.383	6182
919.494	6300
919.604	6353
919.715	6228
919.826	6190
919.936	6292
920.047	6289
920.157	6266
920.267	6460
920.378	6369
920.488	6285
920.598	6479
920.708	6597
920.818	6433
920.928	6502
921.038	6582
921.148	6601
921.258	6357
921.368	6300
921.477	6186
921.587	6235
921.697	6087
921.806	6205
921.916	6057
922.025	5992
922.134	5912
922.244	5901
922.353	5954
922.462	5832
922.571	5840
922.68	5726
922.789	5695
922.898	5726
923.007	5573
923.116	5691
923.224	5661
923.333	5710
923.442	5566
923.55	5562
923.659	5539
923.767	5657
923.876	5551
923.984	5646
924.092	5566
924.201	5649
924.309	5570
924.417	5577
924.525	5467
924.633	5566
924.741	6167
924.849	5402
924.956	5501
925.064	5330
925.172	5311
925.279	5250
925.387	5406
925.494	5349
925.602	5455
925.709	5455
925.816	5239
925.924	5311
926.031	5376
926.138	5357
926.245	5296
926.352	5246
926.459	5368
926.566	5360
926.673	5212
926.779	5128
926.886	5132
926.993	5029
927.099	5010
927.206	5006
927.312	4980
927.419	5014
927.525	4991
927.631	4976
927.737	4915
927.843	4843
927.95	4805
928.056	4820
928.162	4835
928.267	4828
928.373	5391
928.479	4862
928.585	4675
928.69	4850
928.796	4801
928.901	4679
929.007	4577
929.112	4664
929.218	4664
929.323	4611
929.428	4622
929.533	4683
929.638	4550
929.743	4535
929.848	4573
929.953	4531
930.058	4405
930.163	4272
930.267	4375
930.372	4432
930.477	4348
930.581	4470
930.685	4367
930.79	4284
930.894	4299
930.998	4287
931.103	4402
931.207	4143
931.311	4074
931.415	4063
931.519	3945
931.623	3960
