Data from glass_V78500241_29.txt Node
Date: Wed Sep 01 19:14:42 CST 2021
User: usil
Spectrometer: V785-0024
Trigger mode: 0
Integration Time (sec): 4.000000E-1
Scans to average: 1
Nonlinearity correction enabled: false
Boxcar width: 0
Storing dark spectrum: false
XAxis mode: Wavelengths
Number of Pixels in Spectrum: 1024
>>>>>Begin Spectral Data<<<<<
801.071	3793
801.214	3778
801.356	3701
801.499	3747
801.641	3720
801.783	3778
801.926	3892
802.068	3835
802.211	3873
802.353	3922
802.496	3869
802.638	3907
802.78	3880
802.923	3987
803.065	3915
803.208	3857
803.35	3911
803.492	3876
803.635	3945
803.777	3823
803.919	3937
804.061	4162
804.204	3994
804.346	3949
804.488	3922
804.63	4021
804.773	4017
804.915	3998
805.057	4128
805.199	4082
805.341	4078
805.483	4109
805.626	4116
805.768	4128
805.91	4196
806.052	4249
806.194	4276
806.336	4375
806.478	4219
806.62	4196
806.762	4196
806.904	4272
807.046	4344
807.188	4227
807.33	4230
807.472	4276
807.614	4230
807.756	4265
807.898	4215
808.04	4230
808.182	4284
808.324	4303
808.465	4428
808.607	4451
808.749	4459
808.891	4459
809.033	4531
809.174	4398
809.316	4325
809.458	4284
809.6	4169
809.741	4173
809.883	4109
810.025	4242
810.166	4223
810.308	4280
810.45	4272
810.591	4188
810.733	4344
810.875	4565
811.016	4801
811.158	5143
811.299	5261
811.441	5299
811.582	5098
811.724	4721
811.865	4447
812.007	4497
812.148	4447
812.29	4440
812.431	4424
812.573	4432
812.714	4352
812.855	4402
812.997	4390
813.138	4451
813.279	4432
813.421	4398
813.562	4383
813.703	4352
813.845	4352
813.986	4287
814.127	4234
814.268	4272
814.41	4344
814.551	4306
814.692	4329
814.833	4249
814.974	4356
815.115	4352
815.256	4253
815.397	4181
815.539	4253
815.68	4188
815.821	4230
815.962	4363
816.103	4287
816.244	4249
816.385	4276
816.526	4280
816.666	4253
816.807	4097
816.948	4200
817.089	4154
817.23	4128
817.371	4059
817.512	4086
817.653	4135
817.793	4097
817.934	4097
818.075	4101
818.216	4078
818.356	4078
818.497	4040
818.638	3953
818.778	3934
818.919	3941
819.06	3880
819.2	3915
819.341	3888
819.481	3846
819.622	3922
819.762	4025
819.903	3975
820.043	3903
820.184	3823
820.324	3838
820.465	3899
820.605	3873
820.746	3884
820.886	3819
821.026	3968
821.167	3960
821.307	3975
821.447	3964
821.588	3968
821.728	3964
821.868	3960
822.008	3926
822.149	3983
822.289	3983
822.429	3812
822.569	3762
822.709	3804
822.849	3717
822.99	3720
823.13	3804
823.27	3808
823.41	3785
823.55	3720
823.69	3694
823.83	3778
823.97	3751
824.11	3625
824.25	3625
824.389	3656
824.529	3717
824.669	3644
824.809	3709
824.949	3759
825.089	3766
825.228	3740
825.368	3618
825.508	3576
825.648	3561
825.787	3584
825.927	3679
826.067	3648
826.206	3675
826.346	3812
826.485	3865
826.625	3873
826.765	3968
826.904	3838
827.044	3610
827.183	3545
827.323	3462
827.462	3500
827.601	3458
827.741	3431
827.88	3454
828.02	3382
828.159	3477
828.298	3492
828.437	3557
828.577	3481
828.716	3641
828.855	3500
828.994	3416
829.134	3386
829.273	3397
829.412	3374
829.551	3389
829.69	3351
829.829	3439
829.968	3545
830.107	3450
830.246	3473
830.385	3382
830.524	3355
830.663	3374
830.802	3260
830.941	3207
831.08	3211
831.219	3256
831.357	3294
831.496	3435
831.635	3275
831.774	3188
831.913	3226
832.051	3131
832.19	3184
832.329	3237
832.467	3097
832.606	3108
832.744	3161
832.883	3169
833.022	3199
833.16	3256
833.299	3287
833.437	3317
833.576	3367
833.714	3428
833.852	3439
833.991	3458
834.129	3450
834.267	3431
834.406	3397
834.544	3412
834.682	3431
834.821	3428
834.959	3561
835.097	3447
835.235	3553
835.373	3492
835.511	3515
835.65	3443
835.788	3488
835.926	3412
836.064	3428
836.202	3439
836.34	3561
836.478	3629
836.615	3580
836.753	3633
836.891	3679
837.029	3641
837.167	3618
837.305	3584
837.443	3530
837.58	3557
837.718	3618
837.856	3568
837.993	3564
838.131	3637
838.269	3587
838.406	3610
838.544	3633
838.681	3447
838.819	3485
838.956	3393
839.094	3405
839.231	3447
839.369	3553
839.506	3747
839.643	3656
839.781	3519
839.918	3485
840.055	3553
840.193	3515
840.33	3568
840.467	3523
840.604	3606
840.742	3857
840.879	3538
841.016	3553
841.153	3584
841.29	3793
841.427	3686
841.564	3720
841.701	3766
841.838	3698
841.975	3717
842.112	3736
842.249	3644
842.385	3618
842.522	3838
842.659	3724
842.796	3705
842.933	3724
843.069	3732
843.206	3740
843.343	3854
843.479	3789
843.616	3823
843.752	3682
843.889	3698
844.025	3876
844.162	3747
844.298	3869
844.435	3774
844.571	3800
844.708	3918
844.844	4010
844.98	4040
845.117	4029
845.253	3949
845.389	3915
845.525	3960
845.661	3979
845.798	3968
845.934	4025
846.07	3998
846.206	4071
846.342	4162
846.478	4040
846.614	3987
846.75	3949
846.886	3922
847.022	4074
847.158	4017
847.294	4036
847.429	4032
847.565	3998
847.701	4230
847.837	3896
847.972	3842
848.108	3964
848.244	4025
848.379	3876
848.515	3838
848.65	3838
848.786	3831
848.921	3869
849.057	3899
849.192	3941
849.328	3941
849.463	3930
849.598	3934
849.734	3903
849.869	3861
850.004	3812
850.14	3838
850.275	3797
850.41	3774
850.545	3766
850.68	3770
850.815	3842
850.95	3812
851.085	3915
851.22	3956
851.355	3842
851.49	3785
851.625	3781
851.76	3842
851.895	3743
852.03	3720
852.165	3831
852.299	3869
852.434	3964
852.569	3892
852.703	3861
852.838	3941
852.973	3991
853.107	4017
853.242	3922
853.376	3888
853.511	3835
853.645	3857
853.78	4036
853.914	3937
854.048	3915
854.183	3880
854.317	4002
854.451	4093
854.585	3922
854.72	3972
854.854	4032
854.988	3983
855.122	4044
855.256	3945
855.39	4055
855.524	4147
855.658	4124
855.792	4169
855.926	4147
856.06	4215
856.194	4246
856.327	4139
856.461	4143
856.595	4162
856.729	4223
856.862	4314
856.996	4257
857.13	4276
857.263	4341
857.397	4402
857.53	4333
857.664	4352
857.797	4413
857.931	4455
858.064	4474
858.197	4470
858.331	4493
858.464	4379
858.597	4291
858.731	4417
858.864	4436
858.997	4500
859.13	4561
859.263	4573
859.396	4603
859.529	4550
859.662	4561
859.795	4565
859.928	4626
860.061	4706
860.194	4778
860.327	4634
860.46	4679
860.592	4733
860.725	4740
860.858	4812
860.99	4698
861.123	4714
861.256	4683
861.388	4816
861.521	5433
861.653	4698
861.786	4763
861.918	4790
862.05	4805
862.183	4850
862.315	4885
862.447	4972
862.58	4942
862.712	4816
862.844	4733
862.976	4870
863.108	4896
863.24	5269
863.372	4835
863.504	4965
863.636	4850
863.768	4946
863.9	4961
864.032	4949
864.164	4927
864.296	5029
864.428	5102
864.559	5128
864.691	5143
864.823	5147
864.954	5124
865.086	5132
865.217	5159
865.349	5124
865.48	5178
865.612	5166
865.743	5261
865.875	5235
866.006	5212
866.137	5273
866.269	5208
866.4	5280
866.531	5265
866.662	5250
866.793	5273
866.924	5307
867.055	5364
867.186	5360
867.317	5330
867.448	5311
867.579	5303
867.71	5448
867.841	5421
867.972	5478
868.103	5463
868.233	5463
868.364	5516
868.495	5573
868.625	5646
868.756	5836
868.886	5714
869.017	5752
869.147	5904
869.278	5878
869.408	5844
869.539	5840
869.669	5920
869.799	5950
869.929	5977
870.06	6041
870.19	6213
870.32	6197
870.45	6262
870.58	6384
870.71	6479
870.84	6433
870.97	6441
871.1	6456
871.23	6715
871.36	6707
871.489	6669
871.619	6760
871.749	6878
871.879	6875
872.008	7004
872.138	6920
872.267	7031
872.397	6996
872.526	7034
872.656	7145
872.785	7202
872.915	7392
873.044	7483
873.173	7556
873.303	7712
873.432	7811
873.561	7845
873.69	7944
873.819	8081
873.948	8164
874.077	8267
874.206	8377
874.335	8484
874.464	8651
874.593	8800
874.722	8937
874.851	9192
874.979	9294
875.108	9378
875.237	9382
875.365	9504
875.494	9648
875.623	9838
875.751	9918
875.88	9991
876.008	10185
876.136	10303
876.265	10558
876.393	10729
876.521	10694
876.65	10831
876.778	10847
876.906	10869
877.034	11010
877.162	11189
877.29	11155
877.418	11273
877.546	11337
877.674	11516
877.802	11524
877.93	11528
878.058	11570
878.185	11551
878.313	11672
878.441	11798
878.568	11642
878.696	11931
878.824	11885
878.951	11992
879.079	11980
879.206	12133
879.333	12057
879.461	11977
879.588	12152
879.715	12171
879.842	12247
879.97	12079
880.097	11912
880.224	11859
880.351	11882
880.478	11874
880.605	11843
880.732	11786
880.859	12022
880.986	11745
881.112	11897
881.239	11695
881.366	11703
881.493	11623
881.619	11535
881.746	11524
881.872	11528
881.999	11532
882.125	11436
882.252	11562
882.378	11490
882.505	11573
882.631	11368
882.757	11364
882.883	11273
883.01	11330
883.136	11208
883.262	11166
883.388	11117
883.514	11155
883.64	11181
883.766	11064
883.892	10957
884.018	10999
884.143	11022
884.269	11136
884.395	10869
884.52	10843
884.646	10782
884.772	10744
884.897	10717
885.023	10683
885.148	10714
885.274	10778
885.399	10698
885.524	10733
885.65	10603
885.775	10584
885.9	10592
886.025	10656
886.15	10550
886.275	10428
886.4	10428
886.525	10432
886.65	10405
886.775	10382
886.9	10554
887.025	10565
887.149	10333
887.274	10299
887.399	10173
887.523	10215
887.648	10223
887.773	10196
887.897	10268
888.021	10249
888.146	10177
888.27	10268
888.395	10219
888.519	10215
888.643	10207
888.767	10154
888.891	10055
889.015	10010
889.139	10051
889.263	10002
889.387	10090
889.511	10097
889.635	10097
889.759	9907
889.883	9934
890.006	10006
890.13	10135
890.254	10040
890.377	9956
890.501	9819
890.624	9873
890.748	9903
890.871	9728
890.995	9804
891.118	9751
891.241	9793
891.364	9743
891.488	9850
891.611	9785
891.734	9766
891.857	9762
891.98	9751
892.103	9778
892.226	9713
892.349	9660
892.471	9450
892.594	9576
892.717	9667
892.839	9610
892.962	9644
893.085	9682
893.207	9584
893.33	9526
893.452	9496
893.575	9572
893.697	9507
893.819	9648
893.941	9656
894.064	9679
894.186	9374
894.308	9428
894.43	9530
894.552	9557
894.674	9526
894.796	9450
894.918	9439
895.04	9279
895.161	9389
895.283	9348
895.405	9192
895.526	9237
895.648	9211
895.769	9195
895.891	9226
896.012	9348
896.134	9184
896.255	9104
896.376	9154
896.498	9165
896.619	9138
896.74	9108
896.861	9100
896.982	9321
897.103	9374
897.224	9192
897.345	9123
897.466	9036
897.587	9013
897.708	9116
897.828	9013
897.949	8971
898.07	8849
898.19	8994
898.311	9039
898.431	8918
898.552	8933
898.672	8986
898.792	9013
898.913	8944
899.033	8762
899.153	8792
899.273	8743
899.393	8766
899.513	8781
899.633	8727
899.753	8777
899.873	8735
899.993	8762
900.113	8655
900.232	8705
900.352	8621
900.472	8613
900.591	8621
900.711	8663
900.83	8552
900.95	8746
901.069	8788
901.189	8533
901.308	8415
901.427	8400
901.546	8476
901.665	8457
901.784	8514
901.904	8393
902.023	8320
902.141	8225
902.26	8180
902.379	8358
902.498	8240
902.617	8180
902.735	8370
902.854	8259
902.973	8263
903.091	8142
903.21	8153
903.328	8119
903.446	8096
903.565	8103
903.683	8111
903.801	8031
903.919	8191
904.038	8119
904.156	8058
904.274	8214
904.392	8096
904.51	8077
904.627	8031
904.745	8073
904.863	8103
904.981	7932
905.098	7837
905.216	7864
905.334	7963
905.451	7967
905.569	7940
905.686	7909
905.803	7974
905.921	7723
906.038	7890
906.155	7818
906.272	7719
906.389	7731
906.506	7590
906.623	7597
906.74	7616
906.857	7548
906.974	7567
907.091	7693
907.208	7742
907.324	7616
907.441	7601
907.557	7464
907.674	7495
907.79	7460
907.907	7422
908.023	7525
908.139	7468
908.256	7445
908.372	7411
908.488	7373
908.604	7236
908.72	7255
908.836	7301
908.952	7278
909.068	7232
909.184	7362
909.3	7217
909.415	7343
909.531	7343
909.647	7088
909.762	7168
909.878	7088
909.993	7084
910.108	7164
910.224	7110
910.339	7069
910.454	7095
910.57	7027
910.685	7015
910.8	7175
910.915	7118
911.03	7023
911.145	6871
911.259	6909
911.374	6973
911.489	6833
911.604	6821
911.718	6738
911.833	6696
911.947	6700
912.062	6642
912.176	6753
912.291	6719
912.405	6711
912.519	6837
912.633	6848
912.748	6715
912.862	6734
912.976	6650
913.09	6517
913.204	6513
913.318	6665
913.431	6703
913.545	6669
913.659	6669
913.772	6620
913.886	6589
914	6578
914.113	6623
914.226	6658
914.34	6654
914.453	6464
914.566	6665
914.68	6532
914.793	6540
914.906	6452
915.019	6384
915.132	6380
915.245	6441
915.358	6407
915.47	6418
915.583	6464
915.696	6437
915.809	6574
915.921	6536
916.034	6414
916.146	6479
916.259	6361
916.371	6494
916.483	6460
916.595	6376
916.708	6437
916.82	6395
916.932	6399
917.044	6445
917.156	6403
917.268	6327
917.38	6353
917.491	6319
917.603	6315
917.715	6429
917.826	6418
917.938	6365
918.049	6289
918.161	6399
918.272	6426
918.384	6426
918.495	6331
918.606	6254
918.717	6304
918.828	6292
918.939	6304
919.05	6239
919.161	6270
919.272	6140
919.383	6144
919.494	6323
919.604	6452
919.715	6319
919.826	6254
919.936	6323
920.047	6391
920.157	6311
920.267	6452
920.378	6300
920.488	6327
920.598	6429
920.708	6593
920.818	6502
920.928	6513
921.038	6593
921.148	6665
921.258	6372
921.368	6311
921.477	6228
921.587	6228
921.697	6098
921.806	6235
921.916	6079
922.025	5931
922.134	5927
922.244	5950
922.353	5939
922.462	5840
922.571	5832
922.68	5748
922.789	5691
922.898	5672
923.007	5649
923.116	5729
923.224	5695
923.333	5646
923.442	5627
923.55	5577
923.659	5623
923.767	5653
923.876	5589
923.984	5589
924.092	5539
924.201	5608
924.309	5547
924.417	5566
924.525	5554
924.633	5455
924.741	6327
924.849	5421
924.956	5493
925.064	5368
925.172	5330
925.279	5318
925.387	5353
925.494	5379
925.602	5433
925.709	5364
925.816	5318
925.924	5307
926.031	5383
926.138	5341
926.245	5345
926.352	5258
926.459	5349
926.566	5364
926.673	5223
926.779	5159
926.886	5155
926.993	5064
927.099	4999
927.206	4980
927.312	4942
927.419	5075
927.525	5033
927.631	4999
927.737	4915
927.843	4885
927.95	4805
928.056	4850
928.162	4847
928.267	4896
928.373	5395
928.479	4881
928.585	4729
928.69	4774
928.796	4797
928.901	4759
929.007	4637
929.112	4683
929.218	4664
929.323	4656
929.428	4558
929.533	4717
929.638	4516
929.743	4584
929.848	4580
929.953	4535
930.058	4447
930.163	4322
930.267	4325
930.372	4481
930.477	4318
930.581	4470
930.685	4375
930.79	4246
930.894	4306
930.998	4276
931.103	4379
931.207	4105
931.311	4067
931.415	4063
931.519	3907
931.623	3953
