Data from glass_V78500241_2508.txt Node
Date: Wed Sep 01 19:31:53 CST 2021
User: usil
Spectrometer: V785-0024
Trigger mode: 0
Integration Time (sec): 4.000000E-1
Scans to average: 1
Nonlinearity correction enabled: false
Boxcar width: 0
Storing dark spectrum: false
XAxis mode: Wavelengths
Number of Pixels in Spectrum: 1024
>>>>>Begin Spectral Data<<<<<
801.071	3701
801.214	3724
801.356	3698
801.499	3694
801.641	3732
801.783	3797
801.926	3850
802.068	3835
802.211	3835
802.353	3896
802.496	3831
802.638	3857
802.78	3937
802.923	3884
803.065	3846
803.208	3865
803.35	3876
803.492	3888
803.635	3911
803.777	3766
803.919	3903
804.061	4143
804.204	3953
804.346	3991
804.488	3880
804.63	4025
804.773	3937
804.915	4021
805.057	4135
805.199	4032
805.341	4055
805.483	4143
805.626	4139
805.768	4116
805.91	4223
806.052	4227
806.194	4211
806.336	4287
806.478	4135
806.62	4169
806.762	4169
806.904	4246
807.046	4249
807.188	4196
807.33	4166
807.472	4211
807.614	4177
807.756	4253
807.898	4207
808.04	4238
808.182	4314
808.324	4314
808.465	4379
808.607	4447
808.749	4443
808.891	4489
809.033	4459
809.174	4371
809.316	4261
809.458	4211
809.6	4166
809.741	4135
809.883	4116
810.025	4238
810.166	4200
810.308	4200
810.45	4230
810.591	4249
810.733	4272
810.875	4527
811.016	4847
811.158	5105
811.299	5235
811.441	5277
811.582	5037
811.724	4664
811.865	4462
812.007	4447
812.148	4398
812.29	4402
812.431	4417
812.573	4386
812.714	4363
812.855	4386
812.997	4379
813.138	4478
813.279	4352
813.421	4394
813.562	4371
813.703	4325
813.845	4295
813.986	4215
814.127	4215
814.268	4249
814.41	4272
814.551	4223
814.692	4344
814.833	4268
814.974	4306
815.115	4322
815.256	4211
815.397	4227
815.539	4291
815.68	4219
815.821	4196
815.962	4276
816.103	4234
816.244	4246
816.385	4230
816.526	4272
816.666	4219
816.807	4120
816.948	4173
817.089	4124
817.23	4051
817.371	4055
817.512	4040
817.653	4048
817.793	4006
817.934	3983
818.075	4013
818.216	4109
818.356	4112
818.497	3972
818.638	3896
818.778	3972
818.919	3854
819.06	3884
819.2	3896
819.341	3846
819.481	3800
819.622	3934
819.762	3979
819.903	3953
820.043	3873
820.184	3827
820.324	3804
820.465	3880
820.605	3869
820.746	3884
820.886	3789
821.026	3945
821.167	3903
821.307	3960
821.447	3937
821.588	3911
821.728	3956
821.868	3922
822.008	3892
822.149	3899
822.289	3876
822.429	3778
822.569	3812
822.709	3797
822.849	3701
822.99	3690
823.13	3732
823.27	3797
823.41	3732
823.55	3724
823.69	3698
823.83	3751
823.97	3682
824.11	3561
824.25	3587
824.389	3648
824.529	3679
824.669	3671
824.809	3648
824.949	3770
825.089	3781
825.228	3694
825.368	3542
825.508	3534
825.648	3545
825.787	3580
825.927	3603
826.067	3610
826.206	3663
826.346	3766
826.485	3808
826.625	3865
826.765	3926
826.904	3797
827.044	3625
827.183	3538
827.323	3431
827.462	3469
827.601	3424
827.741	3431
827.88	3473
828.02	3374
828.159	3412
828.298	3466
828.437	3523
828.577	3485
828.716	3564
828.855	3477
828.994	3378
829.134	3355
829.273	3367
829.412	3272
829.551	3283
829.69	3370
829.829	3393
829.968	3515
830.107	3412
830.246	3458
830.385	3370
830.524	3363
830.663	3283
830.802	3188
830.941	3192
831.08	3188
831.219	3291
831.357	3226
831.496	3386
831.635	3211
831.774	3195
831.913	3207
832.051	3127
832.19	3150
832.329	3211
832.467	3138
832.606	3058
832.744	3161
832.883	3203
833.022	3207
833.16	3260
833.299	3279
833.437	3321
833.576	3355
833.714	3393
833.852	3424
833.991	3420
834.129	3477
834.267	3462
834.406	3386
834.544	3389
834.682	3405
834.821	3416
834.959	3591
835.097	3405
835.235	3561
835.373	3485
835.511	3488
835.65	3447
835.788	3462
835.926	3412
836.064	3359
836.202	3412
836.34	3568
836.478	3576
836.615	3511
836.753	3553
836.891	3633
837.029	3614
837.167	3564
837.305	3545
837.443	3530
837.58	3496
837.718	3576
837.856	3561
837.993	3515
838.131	3553
838.269	3515
838.406	3580
838.544	3545
838.681	3462
838.819	3454
838.956	3363
839.094	3382
839.231	3412
839.369	3526
839.506	3682
839.643	3603
839.781	3534
839.918	3450
840.055	3538
840.193	3515
840.33	3553
840.467	3561
840.604	3599
840.742	3793
840.879	3561
841.016	3591
841.153	3549
841.29	3755
841.427	3663
841.564	3690
841.701	3747
841.838	3705
841.975	3656
842.112	3728
842.249	3587
842.385	3637
842.522	3816
842.659	3652
842.796	3675
842.933	3667
843.069	3675
843.206	3694
843.343	3774
843.479	3743
843.616	3823
843.752	3686
843.889	3652
844.025	3846
844.162	3690
844.298	3785
844.435	3781
844.571	3789
844.708	3888
844.844	3941
844.98	3987
845.117	4017
845.253	3896
845.389	3903
845.525	3937
845.661	3941
845.798	3934
845.934	3994
846.07	3941
846.206	4063
846.342	4097
846.478	4059
846.614	3934
846.75	3926
846.886	3888
847.022	4036
847.158	3975
847.294	3987
847.429	4040
847.565	3994
847.701	4253
847.837	3888
847.972	3854
848.108	3960
848.244	3979
848.379	3876
848.515	3816
848.65	3827
848.786	3812
848.921	3880
849.057	3896
849.192	3930
849.328	3880
849.463	3903
849.598	3857
849.734	3850
849.869	3804
850.004	3793
850.14	3831
850.275	3804
850.41	3747
850.545	3728
850.68	3812
850.815	3762
850.95	3800
851.085	3926
851.22	3846
851.355	3831
851.49	3740
851.625	3819
851.76	3789
851.895	3747
852.03	3747
852.165	3785
852.299	3850
852.434	3873
852.569	3835
852.703	3888
852.838	3926
852.973	3903
853.107	3968
853.242	3854
853.376	3835
853.511	3755
853.645	3800
853.78	3953
853.914	3873
854.048	3869
854.183	3880
854.317	3968
854.451	4063
854.585	3941
854.72	3972
854.854	4029
854.988	3937
855.122	3968
855.256	3949
855.39	3979
855.524	4032
855.658	4112
855.792	4082
855.926	4097
856.06	4162
856.194	4204
856.327	4158
856.461	4109
856.595	4131
856.729	4177
856.862	4303
856.996	4227
857.13	4299
857.263	4329
857.397	4337
857.53	4257
857.664	4318
857.797	4341
857.931	4394
858.064	4367
858.197	4428
858.331	4337
858.464	4363
858.597	4310
858.731	4402
858.864	4417
858.997	4493
859.13	4523
859.263	4485
859.396	4588
859.529	4523
859.662	4535
859.795	4554
859.928	4577
860.061	4683
860.194	4774
860.327	4668
860.46	4634
860.592	4664
860.725	4733
860.858	4771
860.99	4626
861.123	4714
861.256	4683
861.388	4778
861.521	5421
861.653	4706
861.786	4687
861.918	4767
862.05	4786
862.183	4839
862.315	4870
862.447	4885
862.58	4835
862.712	4755
862.844	4771
862.976	4816
863.108	4892
863.24	5231
863.372	4835
863.504	4892
863.636	4862
863.768	4995
863.9	4938
864.032	4930
864.164	4965
864.296	5018
864.428	5064
864.559	5067
864.691	5098
864.823	5098
864.954	5132
865.086	5162
865.217	5132
865.349	5109
865.48	5102
865.612	5102
865.743	5269
865.875	5204
866.006	5147
866.137	5235
866.269	5227
866.4	5280
866.531	5216
866.662	5216
866.793	5280
866.924	5307
867.055	5318
867.186	5307
867.317	5349
867.448	5292
867.579	5345
867.71	5341
867.841	5406
867.972	5448
868.103	5440
868.233	5486
868.364	5528
868.495	5520
868.625	5638
868.756	5737
868.886	5623
869.017	5779
869.147	5809
869.278	5885
869.408	5760
869.539	5844
869.669	5882
869.799	5939
869.929	6007
870.06	5996
870.19	6197
870.32	6133
870.45	6239
870.58	6346
870.71	6429
870.84	6475
870.97	6414
871.1	6433
871.23	6608
871.36	6669
871.489	6681
871.619	6783
871.749	6837
871.879	6753
872.008	6924
872.138	6947
872.267	6996
872.397	6985
872.526	7084
872.656	7042
872.785	7152
872.915	7411
873.044	7556
873.173	7556
873.303	7605
873.432	7772
873.561	7811
873.69	7860
873.819	7982
873.948	8180
874.077	8229
874.206	8332
874.335	8427
874.464	8682
874.593	8781
874.722	8918
874.851	9100
874.979	9165
875.108	9378
875.237	9386
875.365	9424
875.494	9568
875.623	9873
875.751	9911
875.88	10013
876.008	10128
876.136	10200
876.265	10516
876.393	10622
876.521	10717
876.65	10790
876.778	10854
876.906	10881
877.034	10904
877.162	11159
877.29	11189
877.418	11315
877.546	11387
877.674	11459
877.802	11452
877.93	11486
878.058	11512
878.185	11539
878.313	11627
878.441	11809
878.568	11691
878.696	11737
878.824	11779
878.951	11920
879.079	12064
879.206	12068
879.333	12083
879.461	12015
879.588	12034
879.715	12133
879.842	12136
879.97	12091
880.097	11840
880.224	11954
880.351	11916
880.478	11866
880.605	11767
880.732	11851
880.859	11984
880.986	11809
881.112	11847
881.239	11695
881.366	11707
881.493	11653
881.619	11474
881.746	11604
881.872	11452
881.999	11532
882.125	11391
882.252	11512
882.378	11512
882.505	11543
882.631	11341
882.757	11292
882.883	11261
883.01	11239
883.136	11239
883.262	11124
883.388	11090
883.514	11227
883.64	11155
883.766	11143
883.892	10991
884.018	10984
884.143	10980
884.269	11166
884.395	10866
884.52	10797
884.646	10786
884.772	10683
884.897	10729
885.023	10660
885.148	10698
885.274	10816
885.399	10698
885.524	10584
885.65	10565
885.775	10504
885.9	10546
886.025	10649
886.15	10630
886.275	10428
886.4	10367
886.525	10455
886.65	10337
886.775	10363
886.9	10489
887.025	10497
887.149	10409
887.274	10227
887.399	10150
887.523	10196
887.648	10090
887.773	10135
887.897	10158
888.021	10181
888.146	10055
888.27	10295
888.395	10268
888.519	10238
888.643	10166
888.767	10173
888.891	10093
889.015	9945
889.139	10013
889.263	9968
889.387	10097
889.511	10032
889.635	10086
889.759	9918
889.883	9991
890.006	10048
890.13	10040
890.254	9915
890.377	10010
890.501	9831
890.624	9857
890.748	9892
890.871	9774
890.995	9793
891.118	9705
891.241	9728
891.364	9675
891.488	9819
891.611	9785
891.734	9720
891.857	9751
891.98	9747
892.103	9846
892.226	9656
892.349	9751
892.471	9542
892.594	9576
892.717	9568
892.839	9557
892.962	9667
893.085	9656
893.207	9519
893.33	9515
893.452	9462
893.575	9595
893.697	9439
893.819	9530
893.941	9637
894.064	9641
894.186	9416
894.308	9348
894.43	9515
894.552	9507
894.674	9542
894.796	9348
894.918	9416
895.04	9355
895.161	9439
895.283	9294
895.405	9180
895.526	9298
895.648	9367
895.769	9275
895.891	9233
896.012	9325
896.134	9222
896.255	9180
896.376	9047
896.498	9104
896.619	9150
896.74	9047
896.861	9116
896.982	9310
897.103	9249
897.224	9230
897.345	9131
897.466	9001
897.587	8994
897.708	9055
897.828	8994
897.949	8902
898.07	8914
898.19	8899
898.311	8937
898.431	8941
898.552	8925
898.672	8895
898.792	8979
898.913	8899
899.033	8743
899.153	8838
899.273	8659
899.393	8629
899.513	8735
899.633	8766
899.753	8693
899.873	8667
899.993	8766
900.113	8819
900.232	8689
900.352	8587
900.472	8522
900.591	8514
900.711	8552
900.83	8632
900.95	8663
901.069	8697
901.189	8541
901.308	8393
901.427	8366
901.546	8396
901.665	8450
901.784	8530
901.904	8400
902.023	8339
902.141	8218
902.26	8218
902.379	8240
902.498	8263
902.617	8206
902.735	8218
902.854	8248
902.973	8286
903.091	8130
903.21	8142
903.328	8168
903.446	8073
903.565	8058
903.683	8062
903.801	8043
903.919	8172
904.038	8142
904.156	7997
904.274	8001
904.392	8054
904.51	8024
904.627	8008
904.745	8103
904.863	8100
904.981	7902
905.098	7833
905.216	7849
905.334	7871
905.451	7894
905.569	7814
905.686	7936
905.803	7917
905.921	7765
906.038	7856
906.155	7833
906.272	7727
906.389	7750
906.506	7666
906.623	7624
906.74	7643
906.857	7563
906.974	7624
907.091	7674
907.208	7704
907.324	7605
907.441	7502
907.557	7483
907.674	7491
907.79	7400
907.907	7419
908.023	7464
908.139	7369
908.256	7335
908.372	7316
908.488	7339
908.604	7278
908.72	7232
908.836	7247
908.952	7293
909.068	7270
909.184	7308
909.3	7240
909.415	7324
909.531	7247
909.647	7103
909.762	7091
909.878	7015
909.993	7069
910.108	7072
910.224	7053
910.339	7080
910.454	6985
910.57	6985
910.685	6935
910.8	7114
910.915	7103
911.03	7004
911.145	6859
911.259	6802
911.374	6802
911.489	6844
911.604	6757
911.718	6753
911.833	6707
911.947	6700
912.062	6612
912.176	6700
912.291	6715
912.405	6639
912.519	6810
912.633	6844
912.748	6760
912.862	6669
912.976	6570
913.09	6532
913.204	6563
913.318	6570
913.431	6650
913.545	6677
913.659	6669
913.772	6601
913.886	6544
914	6486
914.113	6650
914.226	6650
914.34	6585
914.453	6479
914.566	6635
914.68	6467
914.793	6532
914.906	6460
915.019	6433
915.132	6369
915.245	6426
915.358	6403
915.47	6460
915.583	6456
915.696	6456
915.809	6521
915.921	6547
916.034	6441
916.146	6399
916.259	6391
916.371	6460
916.483	6429
916.595	6418
916.708	6395
916.82	6410
916.932	6369
917.044	6395
917.156	6342
917.268	6311
917.38	6350
917.491	6308
917.603	6346
917.715	6384
917.826	6353
917.938	6319
918.049	6239
918.161	6304
918.272	6391
918.384	6388
918.495	6365
918.606	6182
918.717	6159
918.828	6254
918.939	6178
919.05	6243
919.161	6266
919.272	6114
919.383	6144
919.494	6270
919.604	6365
919.715	6243
919.826	6232
919.936	6262
920.047	6331
920.157	6232
920.267	6422
920.378	6304
920.488	6254
920.598	6429
920.708	6570
920.818	6414
920.928	6479
921.038	6547
921.148	6555
921.258	6323
921.368	6292
921.477	6239
921.587	6148
921.697	6079
921.806	6136
921.916	6057
922.025	5935
922.134	5920
922.244	5836
922.353	5954
922.462	5851
922.571	5824
922.68	5661
922.789	5680
922.898	5726
923.007	5680
923.116	5634
923.224	5661
923.333	5661
923.442	5634
923.55	5551
923.659	5577
923.767	5554
923.876	5512
923.984	5604
924.092	5493
924.201	5520
924.309	5524
924.417	5524
924.525	5524
924.633	5471
924.741	6243
924.849	5345
924.956	5474
925.064	5315
925.172	5322
925.279	5280
925.387	5406
925.494	5315
925.602	5440
925.709	5383
925.816	5303
925.924	5318
926.031	5357
926.138	5296
926.245	5357
926.352	5178
926.459	5341
926.566	5288
926.673	5174
926.779	5143
926.886	5143
926.993	5041
927.099	5029
927.206	4946
927.312	4980
927.419	5018
927.525	4984
927.631	4980
927.737	4892
927.843	4858
927.95	4763
928.056	4801
928.162	4805
928.267	4820
928.373	5246
928.479	4828
928.585	4660
928.69	4740
928.796	4782
928.901	4656
929.007	4558
929.112	4668
929.218	4637
929.323	4580
929.428	4504
929.533	4634
929.638	4531
929.743	4512
929.848	4577
929.953	4474
930.058	4424
930.163	4325
930.267	4333
930.372	4405
930.477	4310
930.581	4470
930.685	4322
930.79	4276
930.894	4265
930.998	4272
931.103	4398
931.207	4166
931.311	4086
931.415	4071
931.519	3953
931.623	3949
