Data from glass_V78500241_1573.txt Node
Date: Wed Sep 01 19:25:24 CST 2021
User: usil
Spectrometer: V785-0024
Trigger mode: 0
Integration Time (sec): 4.000000E-1
Scans to average: 1
Nonlinearity correction enabled: false
Boxcar width: 0
Storing dark spectrum: false
XAxis mode: Wavelengths
Number of Pixels in Spectrum: 1024
>>>>>Begin Spectral Data<<<<<
801.071	3724
801.214	3751
801.356	3694
801.499	3740
801.641	3701
801.783	3778
801.926	3861
802.068	3835
802.211	3861
802.353	3854
802.496	3842
802.638	3873
802.78	3892
802.923	3934
803.065	3926
803.208	3827
803.35	3880
803.492	3911
803.635	3896
803.777	3789
803.919	3873
804.061	4158
804.204	3979
804.346	3941
804.488	3911
804.63	4059
804.773	3979
804.915	4044
805.057	4131
805.199	4059
805.341	4124
805.483	4139
805.626	4131
805.768	4135
805.91	4234
806.052	4215
806.194	4177
806.336	4363
806.478	4211
806.62	4116
806.762	4207
806.904	4310
807.046	4341
807.188	4192
807.33	4173
807.472	4280
807.614	4185
807.756	4268
807.898	4207
808.04	4223
808.182	4268
808.324	4303
808.465	4398
808.607	4497
808.749	4436
808.891	4440
809.033	4508
809.174	4394
809.316	4230
809.458	4223
809.6	4166
809.741	4139
809.883	4063
810.025	4196
810.166	4192
810.308	4204
810.45	4242
810.591	4268
810.733	4314
810.875	4546
811.016	4790
811.158	5151
811.299	5288
811.441	5296
811.582	5090
811.724	4683
811.865	4462
812.007	4428
812.148	4459
812.29	4375
812.431	4394
812.573	4440
812.714	4367
812.855	4428
812.997	4428
813.138	4455
813.279	4409
813.421	4371
813.562	4394
813.703	4367
813.845	4329
813.986	4242
814.127	4204
814.268	4249
814.41	4299
814.551	4219
814.692	4348
814.833	4268
814.974	4314
815.115	4348
815.256	4246
815.397	4253
815.539	4261
815.68	4192
815.821	4204
815.962	4329
816.103	4337
816.244	4249
816.385	4246
816.526	4310
816.666	4188
816.807	4116
816.948	4162
817.089	4207
817.23	4086
817.371	4013
817.512	4032
817.653	4071
817.793	4036
817.934	4025
818.075	4124
818.216	4086
818.356	4082
818.497	3991
818.638	3892
818.778	3911
818.919	3915
819.06	3861
819.2	3907
819.341	3857
819.481	3842
819.622	3911
819.762	4025
819.903	3937
820.043	3797
820.184	3854
820.324	3873
820.465	3850
820.605	3842
820.746	3873
820.886	3819
821.026	3918
821.167	3903
821.307	4025
821.447	3956
821.588	3941
821.728	3922
821.868	3892
822.008	3888
822.149	3915
822.289	3934
822.429	3797
822.569	3800
822.709	3808
822.849	3740
822.99	3740
823.13	3774
823.27	3755
823.41	3736
823.55	3740
823.69	3743
823.83	3720
823.97	3675
824.11	3625
824.25	3603
824.389	3633
824.529	3682
824.669	3584
824.809	3766
824.949	3732
825.089	3740
825.228	3705
825.368	3545
825.508	3576
825.648	3576
825.787	3637
825.927	3641
826.067	3606
826.206	3625
826.346	3789
826.485	3865
826.625	3869
826.765	3937
826.904	3797
827.044	3633
827.183	3568
827.323	3431
827.462	3454
827.601	3378
827.741	3431
827.88	3428
828.02	3363
828.159	3447
828.298	3466
828.437	3561
828.577	3435
828.716	3652
828.855	3488
828.994	3389
829.134	3397
829.273	3409
829.412	3370
829.551	3351
829.69	3397
829.829	3424
829.968	3507
830.107	3458
830.246	3439
830.385	3378
830.524	3378
830.663	3302
830.802	3249
830.941	3188
831.08	3214
831.219	3287
831.357	3283
831.496	3431
831.635	3214
831.774	3184
831.913	3184
832.051	3127
832.19	3138
832.329	3195
832.467	3142
832.606	3108
832.744	3184
832.883	3203
833.022	3169
833.16	3256
833.299	3298
833.437	3298
833.576	3409
833.714	3393
833.852	3424
833.991	3492
834.129	3454
834.267	3424
834.406	3378
834.544	3447
834.682	3416
834.821	3393
834.959	3622
835.097	3450
835.235	3511
835.373	3507
835.511	3511
835.65	3496
835.788	3511
835.926	3393
836.064	3344
836.202	3389
836.34	3580
836.478	3576
836.615	3564
836.753	3587
836.891	3660
837.029	3633
837.167	3572
837.305	3580
837.443	3530
837.58	3507
837.718	3606
837.856	3511
837.993	3545
838.131	3584
838.269	3576
838.406	3625
838.544	3576
838.681	3462
838.819	3458
838.956	3405
839.094	3428
839.231	3443
839.369	3542
839.506	3686
839.643	3625
839.781	3511
839.918	3424
840.055	3534
840.193	3519
840.33	3526
840.467	3545
840.604	3622
840.742	3785
840.879	3538
841.016	3584
841.153	3603
841.29	3732
841.427	3698
841.564	3701
841.701	3732
841.838	3698
841.975	3648
842.112	3663
842.249	3644
842.385	3603
842.522	3857
842.659	3671
842.796	3648
842.933	3709
843.069	3724
843.206	3713
843.343	3865
843.479	3751
843.616	3865
843.752	3679
843.889	3701
844.025	3865
844.162	3717
844.298	3850
844.435	3785
844.571	3770
844.708	3899
844.844	3994
844.98	3975
845.117	3991
845.253	3918
845.389	3899
845.525	3964
845.661	3960
845.798	3922
845.934	3998
846.07	3915
846.206	4097
846.342	4128
846.478	4055
846.614	4017
846.75	3911
846.886	3896
847.022	4032
847.158	3975
847.294	4025
847.429	3998
847.565	4002
847.701	4227
847.837	3888
847.972	3850
848.108	3975
848.244	3956
848.379	3884
848.515	3804
848.65	3804
848.786	3831
848.921	3857
849.057	3888
849.192	3979
849.328	3918
849.463	3934
849.598	3831
849.734	3880
849.869	3846
850.004	3800
850.14	3827
850.275	3774
850.41	3762
850.545	3751
850.68	3785
850.815	3797
850.95	3835
851.085	3949
851.22	3842
851.355	3869
851.49	3797
851.625	3762
851.76	3789
851.895	3724
852.03	3747
852.165	3785
852.299	3854
852.434	3922
852.569	3831
852.703	3892
852.838	3945
852.973	3979
853.107	3972
853.242	3892
853.376	3842
853.511	3762
853.645	3846
853.78	3956
853.914	3903
854.048	3888
854.183	3876
854.317	3911
854.451	4090
854.585	3953
854.72	3930
854.854	4071
854.988	3941
855.122	3991
855.256	3888
855.39	4002
855.524	4124
855.658	4101
855.792	4093
855.926	4135
856.06	4188
856.194	4173
856.327	4101
856.461	4192
856.595	4139
856.729	4204
856.862	4227
856.996	4207
857.13	4291
857.263	4314
857.397	4371
857.53	4284
857.664	4360
857.797	4390
857.931	4432
858.064	4379
858.197	4413
858.331	4398
858.464	4394
858.597	4337
858.731	4413
858.864	4424
858.997	4424
859.13	4508
859.263	4531
859.396	4599
859.529	4527
859.662	4512
859.795	4504
859.928	4577
860.061	4679
860.194	4740
860.327	4660
860.46	4698
860.592	4763
860.725	4721
860.858	4748
860.99	4664
861.123	4653
861.256	4717
861.388	4759
861.521	5543
861.653	4717
861.786	4714
861.918	4801
862.05	4820
862.183	4812
862.315	4873
862.447	4862
862.58	4839
862.712	4767
862.844	4820
862.976	4911
863.108	4809
863.24	5216
863.372	4847
863.504	4877
863.636	4889
863.768	4972
863.9	4965
864.032	4980
864.164	4999
864.296	5006
864.428	5067
864.559	5086
864.691	5056
864.823	5124
864.954	5102
865.086	5117
865.217	5105
865.349	5102
865.48	5124
865.612	5201
865.743	5296
865.875	5197
866.006	5185
866.137	5212
866.269	5227
866.4	5250
866.531	5208
866.662	5227
866.793	5292
866.924	5326
867.055	5357
867.186	5307
867.317	5307
867.448	5284
867.579	5391
867.71	5395
867.841	5433
867.972	5433
868.103	5474
868.233	5482
868.364	5486
868.495	5619
868.625	5653
868.756	5741
868.886	5661
869.017	5676
869.147	5878
869.278	5851
869.408	5832
869.539	5863
869.669	5912
869.799	5893
869.929	5935
870.06	6019
870.19	6205
870.32	6167
870.45	6281
870.58	6357
870.71	6521
870.84	6441
870.97	6399
871.1	6422
871.23	6673
871.36	6715
871.489	6696
871.619	6772
871.749	6814
871.879	6844
872.008	6958
872.138	6962
872.267	7072
872.397	6962
872.526	7042
872.656	7107
872.785	7183
872.915	7415
873.044	7483
873.173	7544
873.303	7693
873.432	7727
873.561	7887
873.69	7936
873.819	8027
873.948	8183
874.077	8191
874.206	8370
874.335	8381
874.464	8625
874.593	8842
874.722	8937
874.851	9180
874.979	9233
875.108	9370
875.237	9473
875.365	9488
875.494	9648
875.623	9774
875.751	9865
875.88	10051
876.008	10215
876.136	10325
876.265	10508
876.393	10630
876.521	10675
876.65	10839
876.778	10847
876.906	10843
877.034	11056
877.162	11094
877.29	11166
877.418	11265
877.546	11254
877.674	11436
877.802	11463
877.93	11604
878.058	11505
878.185	11642
878.313	11649
878.441	11680
878.568	11649
878.696	11859
878.824	11863
878.951	11923
879.079	12095
879.206	12106
879.333	12030
879.461	11939
879.588	12030
879.715	12117
879.842	12205
879.97	12045
880.097	11847
880.224	11866
880.351	11908
880.478	12026
880.605	11817
880.732	11863
880.859	12034
880.986	11813
881.112	11904
881.239	11752
881.366	11688
881.493	11642
881.619	11547
881.746	11524
881.872	11520
881.999	11440
882.125	11520
882.252	11566
882.378	11566
882.505	11630
882.631	11376
882.757	11368
882.883	11364
883.01	11311
883.136	11132
883.262	11189
883.388	11128
883.514	11212
883.64	11140
883.766	11086
883.892	10915
884.018	10999
884.143	11071
884.269	11083
884.395	10850
884.52	10828
884.646	10858
884.772	10698
884.897	10641
885.023	10721
885.148	10687
885.274	10831
885.399	10675
885.524	10687
885.65	10565
885.775	10607
885.9	10538
886.025	10592
886.15	10603
886.275	10481
886.4	10451
886.525	10489
886.65	10428
886.775	10375
886.9	10516
887.025	10455
887.149	10291
887.274	10116
887.399	10192
887.523	10124
887.648	10166
887.773	10112
887.897	10287
888.021	10306
888.146	10135
888.27	10204
888.395	10185
888.519	10158
888.643	10234
888.767	10139
888.891	10029
889.015	9991
889.139	10017
889.263	10051
889.387	10109
889.511	10109
889.635	9941
889.759	9960
889.883	9968
890.006	10021
890.13	10139
890.254	9937
890.377	9979
890.501	9789
890.624	9865
890.748	9854
890.871	9778
890.995	9827
891.118	9800
891.241	9705
891.364	9694
891.488	9850
891.611	9728
891.734	9736
891.857	9778
891.98	9797
892.103	9789
892.226	9671
892.349	9713
892.471	9485
892.594	9625
892.717	9553
892.839	9595
892.962	9614
893.085	9690
893.207	9603
893.33	9473
893.452	9587
893.575	9564
893.697	9553
893.819	9629
893.941	9584
894.064	9606
894.186	9439
894.308	9378
894.43	9496
894.552	9641
894.674	9545
894.796	9397
894.918	9462
895.04	9260
895.161	9348
895.283	9298
895.405	9302
895.526	9272
895.648	9214
895.769	9195
895.891	9222
896.012	9188
896.134	9279
896.255	9135
896.376	9199
896.498	9218
896.619	9184
896.74	9070
896.861	9097
896.982	9268
897.103	9325
897.224	9169
897.345	9047
897.466	8910
897.587	9047
897.708	9062
897.828	9089
897.949	8944
898.07	8819
898.19	8937
898.311	9062
898.431	8979
898.552	8956
898.672	8952
898.792	8925
898.913	8944
899.033	8792
899.153	8804
899.273	8667
899.393	8746
899.513	8720
899.633	8708
899.753	8735
899.873	8693
899.993	8762
900.113	8686
900.232	8743
900.352	8606
900.472	8560
900.591	8564
900.711	8606
900.83	8610
900.95	8655
901.069	8682
901.189	8556
901.308	8484
901.427	8438
901.546	8415
901.665	8465
901.784	8541
901.904	8358
902.023	8389
902.141	8206
902.26	8191
902.379	8290
902.498	8244
902.617	8210
902.735	8263
902.854	8229
902.973	8221
903.091	8096
903.21	8126
903.328	8195
903.446	8103
903.565	8020
903.683	8096
903.801	8020
903.919	8092
904.038	8218
904.156	8065
904.274	8096
904.392	8024
904.51	8039
904.627	8084
904.745	8126
904.863	8073
904.981	7921
905.098	7841
905.216	7940
905.334	7894
905.451	7974
905.569	7890
905.686	7963
905.803	7917
905.921	7814
906.038	7856
906.155	7757
906.272	7677
906.389	7734
906.506	7655
906.623	7620
906.74	7624
906.857	7575
906.974	7552
907.091	7708
907.208	7727
907.324	7685
907.441	7533
907.557	7518
907.674	7407
907.79	7400
907.907	7381
908.023	7445
908.139	7460
908.256	7346
908.372	7407
908.488	7339
908.604	7266
908.72	7289
908.836	7209
908.952	7228
909.068	7285
909.184	7354
909.3	7209
909.415	7301
909.531	7305
909.647	7114
909.762	7145
909.878	7084
909.993	7091
910.108	7164
910.224	7095
910.339	7103
910.454	7034
910.57	7019
910.685	6897
910.8	7198
910.915	7114
911.03	7027
911.145	6897
911.259	6886
911.374	6882
911.489	6806
911.604	6760
911.718	6741
911.833	6700
911.947	6620
912.062	6616
912.176	6700
912.291	6738
912.405	6681
912.519	6787
912.633	6840
912.748	6760
912.862	6719
912.976	6582
913.09	6544
913.204	6620
913.318	6623
913.431	6715
913.545	6730
913.659	6627
913.772	6578
913.886	6563
914	6525
914.113	6593
914.226	6696
914.34	6608
914.453	6525
914.566	6654
914.68	6525
914.793	6544
914.906	6433
915.019	6327
915.132	6331
915.245	6445
915.358	6418
915.47	6418
915.583	6502
915.696	6391
915.809	6513
915.921	6566
916.034	6441
916.146	6456
916.259	6376
916.371	6498
916.483	6445
916.595	6433
916.708	6429
916.82	6456
916.932	6338
917.044	6407
917.156	6380
917.268	6292
917.38	6376
917.491	6308
917.603	6407
917.715	6353
917.826	6361
917.938	6277
918.049	6247
918.161	6350
918.272	6304
918.384	6365
918.495	6426
918.606	6232
918.717	6220
918.828	6228
918.939	6289
919.05	6220
919.161	6209
919.272	6114
919.383	6148
919.494	6273
919.604	6422
919.715	6331
919.826	6220
919.936	6262
920.047	6266
920.157	6266
920.267	6391
920.378	6369
920.488	6331
920.598	6445
920.708	6589
920.818	6460
920.928	6452
921.038	6578
921.148	6612
921.258	6369
921.368	6327
921.477	6209
921.587	6167
921.697	6102
921.806	6121
921.916	5999
922.025	5980
922.134	5870
922.244	5904
922.353	5969
922.462	5866
922.571	5817
922.68	5756
922.789	5688
922.898	5691
923.007	5589
923.116	5745
923.224	5699
923.333	5623
923.442	5627
923.55	5581
923.659	5592
923.767	5592
923.876	5532
923.984	5562
924.092	5543
924.201	5581
924.309	5551
924.417	5577
924.525	5524
924.633	5562
924.741	6133
924.849	5357
924.956	5486
925.064	5322
925.172	5315
925.279	5337
925.387	5376
925.494	5334
925.602	5429
925.709	5345
925.816	5284
925.924	5296
926.031	5326
926.138	5326
926.245	5330
926.352	5212
926.459	5360
926.566	5357
926.673	5216
926.779	5147
926.886	5132
926.993	4987
927.099	4991
927.206	4949
927.312	4984
927.419	5079
927.525	4942
927.631	5025
927.737	4889
927.843	4835
927.95	4801
928.056	4835
928.162	4820
928.267	4801
928.373	5303
928.479	4831
928.585	4698
928.69	4793
928.796	4782
928.901	4687
929.007	4577
929.112	4656
929.218	4592
929.323	4599
929.428	4603
929.533	4634
929.638	4512
929.743	4504
929.848	4508
929.953	4550
930.058	4436
930.163	4352
930.267	4337
930.372	4447
930.477	4314
930.581	4504
930.685	4329
930.79	4249
930.894	4272
930.998	4242
931.103	4402
931.207	4158
931.311	4071
931.415	4010
931.519	3979
931.623	3930
