Data from glass_V78500241_2448.txt Node
Date: Wed Sep 01 19:31:28 CST 2021
User: usil
Spectrometer: V785-0024
Trigger mode: 0
Integration Time (sec): 4.000000E-1
Scans to average: 1
Nonlinearity correction enabled: false
Boxcar width: 0
Storing dark spectrum: false
XAxis mode: Wavelengths
Number of Pixels in Spectrum: 1024
>>>>>Begin Spectral Data<<<<<
801.071	3766
801.214	3717
801.356	3709
801.499	3728
801.641	3743
801.783	3759
801.926	3865
802.068	3766
802.211	3850
802.353	3884
802.496	3861
802.638	3899
802.78	3865
802.923	3911
803.065	3903
803.208	3816
803.35	3857
803.492	3850
803.635	3876
803.777	3793
803.919	3869
804.061	4124
804.204	3975
804.346	3972
804.488	3930
804.63	4048
804.773	3953
804.915	3991
805.057	4158
805.199	4029
805.341	4093
805.483	4223
805.626	4109
805.768	4139
805.91	4219
806.052	4177
806.194	4211
806.336	4333
806.478	4196
806.62	4147
806.762	4185
806.904	4268
807.046	4367
807.188	4169
807.33	4169
807.472	4200
807.614	4192
807.756	4253
807.898	4181
808.04	4192
808.182	4295
808.324	4284
808.465	4424
808.607	4455
808.749	4462
808.891	4455
809.033	4550
809.174	4409
809.316	4261
809.458	4253
809.6	4131
809.741	4158
809.883	4124
810.025	4192
810.166	4143
810.308	4227
810.45	4242
810.591	4162
810.733	4314
810.875	4527
811.016	4805
811.158	5105
811.299	5254
811.441	5296
811.582	5056
811.724	4710
811.865	4497
812.007	4478
812.148	4440
812.29	4451
812.431	4398
812.573	4402
812.714	4371
812.855	4379
812.997	4451
813.138	4451
813.279	4405
813.421	4367
813.562	4344
813.703	4291
813.845	4329
813.986	4242
814.127	4192
814.268	4242
814.41	4257
814.551	4253
814.692	4295
814.833	4238
814.974	4257
815.115	4356
815.256	4246
815.397	4200
815.539	4249
815.68	4120
815.821	4185
815.962	4360
816.103	4318
816.244	4215
816.385	4215
816.526	4268
816.666	4246
816.807	4093
816.948	4188
817.089	4188
817.23	4059
817.371	4055
817.512	4032
817.653	4055
817.793	3998
817.934	4032
818.075	4067
818.216	4048
818.356	4086
818.497	3975
818.638	3930
818.778	3907
818.919	3888
819.06	3876
819.2	3926
819.341	3880
819.481	3793
819.622	3915
819.762	4017
819.903	3972
820.043	3850
820.184	3835
820.324	3800
820.465	3896
820.605	3880
820.746	3850
820.886	3785
821.026	3892
821.167	3937
821.307	3949
821.447	3975
821.588	3915
821.728	3945
821.868	3926
822.008	3861
822.149	3911
822.289	3907
822.429	3781
822.569	3770
822.709	3835
822.849	3698
822.99	3671
823.13	3774
823.27	3774
823.41	3732
823.55	3736
823.69	3755
823.83	3774
823.97	3663
824.11	3576
824.25	3622
824.389	3671
824.529	3675
824.669	3648
824.809	3720
824.949	3720
825.089	3717
825.228	3675
825.368	3591
825.508	3561
825.648	3530
825.787	3595
825.927	3633
826.067	3614
826.206	3667
826.346	3743
826.485	3838
826.625	3854
826.765	3945
826.904	3789
827.044	3641
827.183	3488
827.323	3389
827.462	3496
827.601	3424
827.741	3428
827.88	3435
828.02	3344
828.159	3428
828.298	3466
828.437	3496
828.577	3477
828.716	3595
828.855	3477
828.994	3348
829.134	3332
829.273	3367
829.412	3363
829.551	3348
829.69	3359
829.829	3454
829.968	3485
830.107	3416
830.246	3420
830.385	3336
830.524	3351
830.663	3340
830.802	3249
830.941	3207
831.08	3203
831.219	3272
831.357	3218
831.496	3397
831.635	3222
831.774	3195
831.913	3150
832.051	3127
832.19	3150
832.329	3211
832.467	3100
832.606	3081
832.744	3161
832.883	3218
833.022	3169
833.16	3218
833.299	3264
833.437	3355
833.576	3367
833.714	3405
833.852	3409
833.991	3439
834.129	3424
834.267	3443
834.406	3405
834.544	3424
834.682	3420
834.821	3363
834.959	3572
835.097	3447
835.235	3515
835.373	3477
835.511	3500
835.65	3454
835.788	3473
835.926	3359
836.064	3370
836.202	3386
836.34	3572
836.478	3561
836.615	3538
836.753	3603
836.891	3591
837.029	3572
837.167	3561
837.305	3545
837.443	3538
837.58	3496
837.718	3553
837.856	3557
837.993	3534
838.131	3564
838.269	3545
838.406	3576
838.544	3557
838.681	3473
838.819	3428
838.956	3367
839.094	3374
839.231	3424
839.369	3530
839.506	3701
839.643	3625
839.781	3485
839.918	3496
840.055	3496
840.193	3523
840.33	3534
840.467	3526
840.604	3622
840.742	3800
840.879	3526
841.016	3557
841.153	3511
841.29	3740
841.427	3709
841.564	3713
841.701	3743
841.838	3709
841.975	3671
842.112	3713
842.249	3633
842.385	3610
842.522	3793
842.659	3648
842.796	3633
842.933	3740
843.069	3682
843.206	3679
843.343	3781
843.479	3751
843.616	3823
843.752	3656
843.889	3648
844.025	3816
844.162	3682
844.298	3869
844.435	3819
844.571	3785
844.708	3876
844.844	3991
844.98	4040
845.117	4006
845.253	3896
845.389	3884
845.525	3903
845.661	3926
845.798	3922
845.934	3968
846.07	3892
846.206	4013
846.342	4074
846.478	4036
846.614	3953
846.75	3926
846.886	3937
847.022	4036
847.158	3964
847.294	3926
847.429	4002
847.565	3991
847.701	4204
847.837	3907
847.972	3865
848.108	3972
848.244	3983
848.379	3873
848.515	3800
848.65	3819
848.786	3865
848.921	3892
849.057	3987
849.192	3911
849.328	3922
849.463	3918
849.598	3888
849.734	3846
849.869	3827
850.004	3816
850.14	3793
850.275	3808
850.41	3686
850.545	3686
850.68	3781
850.815	3774
850.95	3774
851.085	3930
851.22	3850
851.355	3812
851.49	3747
851.625	3800
851.76	3781
851.895	3713
852.03	3720
852.165	3800
852.299	3842
852.434	3850
852.569	3865
852.703	3857
852.838	3915
852.973	3975
853.107	3994
853.242	3869
853.376	3857
853.511	3762
853.645	3812
853.78	3975
853.914	3857
854.048	3918
854.183	3850
854.317	3975
854.451	4059
854.585	3915
854.72	3937
854.854	4059
854.988	3930
855.122	3972
855.256	3880
855.39	4048
855.524	4101
855.658	4082
855.792	4097
855.926	4120
856.06	4177
856.194	4181
856.327	4112
856.461	4135
856.595	4162
856.729	4188
856.862	4272
856.996	4223
857.13	4276
857.263	4341
857.397	4348
857.53	4268
857.664	4303
857.797	4379
857.931	4413
858.064	4375
858.197	4440
858.331	4375
858.464	4405
858.597	4303
858.731	4383
858.864	4459
858.997	4462
859.13	4493
859.263	4542
859.396	4626
859.529	4523
859.662	4573
859.795	4481
859.928	4550
860.061	4679
860.194	4702
860.327	4698
860.46	4656
860.592	4717
860.725	4828
860.858	4759
860.99	4691
861.123	4729
861.256	4710
861.388	4763
861.521	5493
861.653	4752
861.786	4694
861.918	4717
862.05	4759
862.183	4858
862.315	4870
862.447	4866
862.58	4881
862.712	4771
862.844	4809
862.976	4854
863.108	4892
863.24	5170
863.372	4820
863.504	4923
863.636	4889
863.768	4968
863.9	4915
864.032	4908
864.164	4984
864.296	5045
864.428	5132
864.559	5102
864.691	5159
864.823	5197
864.954	5128
865.086	5140
865.217	5102
865.349	5060
865.48	5151
865.612	5159
865.743	5303
865.875	5204
866.006	5197
866.137	5235
866.269	5189
866.4	5269
866.531	5212
866.662	5261
866.793	5269
866.924	5269
867.055	5379
867.186	5357
867.317	5307
867.448	5288
867.579	5349
867.71	5349
867.841	5337
867.972	5421
868.103	5452
868.233	5493
868.364	5433
868.495	5490
868.625	5676
868.756	5771
868.886	5630
869.017	5737
869.147	5855
869.278	5798
869.408	5767
869.539	5897
869.669	5912
869.799	5920
869.929	6019
870.06	5931
870.19	6178
870.32	6136
870.45	6281
870.58	6334
870.71	6467
870.84	6460
870.97	6445
871.1	6372
871.23	6642
871.36	6673
871.489	6631
871.619	6757
871.749	6863
871.879	6856
872.008	6943
872.138	6970
872.267	6996
872.397	6966
872.526	7050
872.656	7076
872.785	7202
872.915	7346
873.044	7514
873.173	7559
873.303	7605
873.432	7700
873.561	7818
873.69	7890
873.819	8031
873.948	8145
874.077	8225
874.206	8290
874.335	8450
874.464	8613
874.593	8845
874.722	8861
874.851	9127
874.979	9260
875.108	9291
875.237	9469
875.365	9378
875.494	9595
875.623	9781
875.751	9892
875.88	9911
876.008	10162
876.136	10287
876.265	10459
876.393	10710
876.521	10698
876.65	10816
876.778	10839
876.906	10900
877.034	10999
877.162	11014
877.29	11121
877.418	11212
877.546	11387
877.674	11444
877.802	11452
877.93	11528
878.058	11512
878.185	11535
878.313	11604
878.441	11771
878.568	11684
878.696	11786
878.824	11786
878.951	11954
879.079	11999
879.206	12155
879.333	12038
879.461	11954
879.588	12026
879.715	12007
879.842	12194
879.97	12079
880.097	11878
880.224	11893
880.351	11859
880.478	11866
880.605	11897
880.732	11904
880.859	12019
880.986	11779
881.112	11798
881.239	11623
881.366	11642
881.493	11661
881.619	11539
881.746	11543
881.872	11558
881.999	11619
882.125	11493
882.252	11486
882.378	11512
882.505	11589
882.631	11406
882.757	11330
882.883	11315
883.01	11201
883.136	11098
883.262	11143
883.388	11140
883.514	11231
883.64	11113
883.766	11124
883.892	10934
884.018	11056
884.143	11029
884.269	11083
884.395	10908
884.52	10809
884.646	10774
884.772	10687
884.897	10607
885.023	10710
885.148	10710
885.274	10771
885.399	10637
885.524	10577
885.65	10592
885.775	10634
885.9	10516
886.025	10561
886.15	10554
886.275	10447
886.4	10360
886.525	10295
886.65	10405
886.775	10402
886.9	10432
887.025	10462
887.149	10352
887.274	10230
887.399	10181
887.523	10162
887.648	10143
887.773	10082
887.897	10181
888.021	10207
888.146	10124
888.27	10299
888.395	10215
888.519	10207
888.643	10139
888.767	10109
888.891	10006
889.015	9960
889.139	10078
889.263	9968
889.387	10082
889.511	10055
889.635	10059
889.759	9941
889.883	9915
890.006	10044
890.13	10036
890.254	9930
890.377	10017
890.501	9854
890.624	9869
890.748	9869
890.871	9823
890.995	9701
891.118	9686
891.241	9781
891.364	9759
891.488	9835
891.611	9694
891.734	9667
891.857	9808
891.98	9732
892.103	9740
892.226	9766
892.349	9671
892.471	9504
892.594	9580
892.717	9625
892.839	9557
892.962	9610
893.085	9705
893.207	9500
893.33	9549
893.452	9519
893.575	9553
893.697	9447
893.819	9679
893.941	9671
894.064	9572
894.186	9473
894.308	9329
894.43	9526
894.552	9530
894.674	9481
894.796	9401
894.918	9336
895.04	9359
895.161	9363
895.283	9351
895.405	9230
895.526	9230
895.648	9214
895.769	9230
895.891	9253
896.012	9203
896.134	9203
896.255	9199
896.376	9119
896.498	9127
896.619	9157
896.74	9032
896.861	9062
896.982	9256
897.103	9253
897.224	9123
897.345	9077
897.466	8975
897.587	9058
897.708	9119
897.828	9051
897.949	8918
898.07	8910
898.19	8864
898.311	8986
898.431	8902
898.552	8880
898.672	8895
898.792	8994
898.913	8906
899.033	8724
899.153	8739
899.273	8689
899.393	8674
899.513	8769
899.633	8727
899.753	8727
899.873	8682
899.993	8724
900.113	8663
900.232	8697
900.352	8610
900.472	8571
900.591	8511
900.711	8552
900.83	8526
900.95	8625
901.069	8686
901.189	8526
901.308	8415
901.427	8412
901.546	8396
901.665	8473
901.784	8461
901.904	8355
902.023	8328
902.141	8248
902.26	8168
902.379	8244
902.498	8164
902.617	8180
902.735	8237
902.854	8271
902.973	8279
903.091	8111
903.21	8111
903.328	8134
903.446	8081
903.565	8035
903.683	8123
903.801	8092
903.919	8107
904.038	8103
904.156	8027
904.274	8103
904.392	8043
904.51	8100
904.627	8039
904.745	8046
904.863	8096
904.981	7909
905.098	7799
905.216	7837
905.334	7967
905.451	7898
905.569	7826
905.686	7879
905.803	7967
905.921	7761
906.038	7852
906.155	7772
906.272	7803
906.389	7685
906.506	7624
906.623	7658
906.74	7620
906.857	7525
906.974	7563
907.091	7685
907.208	7795
907.324	7620
907.441	7537
907.557	7426
907.674	7430
907.79	7411
907.907	7346
908.023	7331
908.139	7438
908.256	7324
908.372	7373
908.488	7308
908.604	7247
908.72	7183
908.836	7247
908.952	7217
909.068	7209
909.184	7297
909.3	7289
909.415	7293
909.531	7247
909.647	7171
909.762	7118
909.878	7069
909.993	7137
910.108	7084
910.224	7095
910.339	7099
910.454	7053
910.57	6943
910.685	6928
910.8	7187
910.915	7107
911.03	6973
911.145	6871
911.259	6852
911.374	6897
911.489	6814
911.604	6798
911.718	6677
911.833	6658
911.947	6677
912.062	6631
912.176	6711
912.291	6703
912.405	6688
912.519	6753
912.633	6818
912.748	6722
912.862	6696
912.976	6555
913.09	6555
913.204	6585
913.318	6582
913.431	6570
913.545	6730
913.659	6741
913.772	6601
913.886	6506
914	6574
914.113	6620
914.226	6623
914.34	6623
914.453	6456
914.566	6525
914.68	6578
914.793	6544
914.906	6365
915.019	6418
915.132	6369
915.245	6395
915.358	6407
915.47	6464
915.583	6452
915.696	6475
915.809	6517
915.921	6517
916.034	6407
916.146	6376
916.259	6376
916.371	6475
916.483	6483
916.595	6369
916.708	6376
916.82	6376
916.932	6357
917.044	6399
917.156	6388
917.268	6251
917.38	6292
917.491	6304
917.603	6372
917.715	6399
917.826	6357
917.938	6315
918.049	6232
918.161	6285
918.272	6403
918.384	6426
918.495	6308
918.606	6266
918.717	6197
918.828	6232
918.939	6224
919.05	6239
919.161	6209
919.272	6114
919.383	6136
919.494	6296
919.604	6361
919.715	6262
919.826	6209
919.936	6220
920.047	6372
920.157	6300
920.267	6426
920.378	6311
920.488	6247
920.598	6388
920.708	6532
920.818	6475
920.928	6475
921.038	6566
921.148	6532
921.258	6319
921.368	6262
921.477	6190
921.587	6159
921.697	6064
921.806	6201
921.916	6072
922.025	5942
922.134	5870
922.244	5897
922.353	5965
922.462	5866
922.571	5798
922.68	5699
922.789	5680
922.898	5752
923.007	5570
923.116	5752
923.224	5695
923.333	5680
923.442	5592
923.55	5551
923.659	5589
923.767	5596
923.876	5493
923.984	5570
924.092	5459
924.201	5566
924.309	5577
924.417	5558
924.525	5516
924.633	5482
924.741	6285
924.849	5360
924.956	5486
925.064	5341
925.172	5322
925.279	5307
925.387	5353
925.494	5315
925.602	5379
925.709	5402
925.816	5242
925.924	5322
926.031	5345
926.138	5288
926.245	5360
926.352	5212
926.459	5284
926.566	5334
926.673	5220
926.779	5174
926.886	5128
926.993	4984
927.099	5052
927.206	4987
927.312	4980
927.419	5006
927.525	4911
927.631	4980
927.737	4885
927.843	4797
927.95	4801
928.056	4790
928.162	4752
928.267	4824
928.373	5258
928.479	4805
928.585	4714
928.69	4729
928.796	4740
928.901	4668
929.007	4577
929.112	4687
929.218	4702
929.323	4592
929.428	4535
929.533	4672
929.638	4500
929.743	4512
929.848	4580
929.953	4478
930.058	4413
930.163	4314
930.267	4367
930.372	4459
930.477	4314
930.581	4440
930.685	4337
930.79	4265
930.894	4238
930.998	4291
931.103	4428
931.207	4101
931.311	4074
931.415	4036
931.519	3934
931.623	3975
