Data from glass_V78500241_778.txt Node
Date: Wed Sep 01 19:19:53 CST 2021
User: usil
Spectrometer: V785-0024
Trigger mode: 0
Integration Time (sec): 4.000000E-1
Scans to average: 1
Nonlinearity correction enabled: false
Boxcar width: 0
Storing dark spectrum: false
XAxis mode: Wavelengths
Number of Pixels in Spectrum: 1024
>>>>>Begin Spectral Data<<<<<
801.071	3720
801.214	3736
801.356	3705
801.499	3736
801.641	3743
801.783	3774
801.926	3842
802.068	3835
802.211	3842
802.353	3892
802.496	3831
802.638	3941
802.78	3884
802.923	3922
803.065	3918
803.208	3865
803.35	3857
803.492	3899
803.635	3945
803.777	3865
803.919	3953
804.061	4169
804.204	3945
804.346	3975
804.488	3926
804.63	4059
804.773	4013
804.915	4029
805.057	4177
805.199	4055
805.341	4090
805.483	4166
805.626	4101
805.768	4147
805.91	4242
806.052	4227
806.194	4207
806.336	4367
806.478	4265
806.62	4188
806.762	4169
806.904	4276
807.046	4310
807.188	4238
807.33	4192
807.472	4295
807.614	4192
807.756	4257
807.898	4234
808.04	4234
808.182	4253
808.324	4291
808.465	4367
808.607	4440
808.749	4474
808.891	4428
809.033	4500
809.174	4398
809.316	4295
809.458	4227
809.6	4188
809.741	4181
809.883	4177
810.025	4230
810.166	4196
810.308	4272
810.45	4276
810.591	4242
810.733	4272
810.875	4481
811.016	4839
811.158	5124
811.299	5223
811.441	5235
811.582	5075
811.724	4725
811.865	4500
812.007	4443
812.148	4470
812.29	4443
812.431	4394
812.573	4409
812.714	4402
812.855	4451
812.997	4402
813.138	4508
813.279	4466
813.421	4394
813.562	4360
813.703	4348
813.845	4356
813.986	4265
814.127	4261
814.268	4276
814.41	4276
814.551	4230
814.692	4348
814.833	4303
814.974	4318
815.115	4356
815.256	4249
815.397	4219
815.539	4303
815.68	4204
815.821	4230
815.962	4306
816.103	4295
816.244	4280
816.385	4261
816.526	4280
816.666	4204
816.807	4101
816.948	4227
817.089	4200
817.23	4116
817.371	4036
817.512	4082
817.653	4086
817.793	4059
817.934	4025
818.075	4101
818.216	4097
818.356	4093
818.497	4010
818.638	3915
818.778	3915
818.919	3896
819.06	3899
819.2	3945
819.341	3873
819.481	3816
819.622	3953
819.762	4021
819.903	3956
820.043	3861
820.184	3808
820.324	3850
820.465	3884
820.605	3861
820.746	3876
820.886	3857
821.026	3937
821.167	3907
821.307	4013
821.447	3994
821.588	3975
821.728	3972
821.868	3949
822.008	3873
822.149	3941
822.289	3972
822.429	3835
822.569	3797
822.709	3835
822.849	3751
822.99	3705
823.13	3751
823.27	3808
823.41	3701
823.55	3747
823.69	3755
823.83	3774
823.97	3720
824.11	3603
824.25	3633
824.389	3610
824.529	3743
824.669	3663
824.809	3759
824.949	3747
825.089	3770
825.228	3736
825.368	3587
825.508	3564
825.648	3584
825.787	3644
825.927	3633
826.067	3622
826.206	3690
826.346	3816
826.485	3816
826.625	3873
826.765	3987
826.904	3846
827.044	3599
827.183	3545
827.323	3473
827.462	3511
827.601	3420
827.741	3450
827.88	3466
828.02	3370
828.159	3466
828.298	3500
828.437	3538
828.577	3504
828.716	3610
828.855	3485
828.994	3416
829.134	3412
829.273	3382
829.412	3359
829.551	3336
829.69	3389
829.829	3443
829.968	3504
830.107	3439
830.246	3439
830.385	3359
830.524	3370
830.663	3332
830.802	3268
830.941	3192
831.08	3207
831.219	3245
831.357	3283
831.496	3416
831.635	3222
831.774	3195
831.913	3203
832.051	3127
832.19	3165
832.329	3192
832.467	3131
832.606	3097
832.744	3214
832.883	3157
833.022	3226
833.16	3249
833.299	3348
833.437	3355
833.576	3367
833.714	3412
833.852	3428
833.991	3454
834.129	3473
834.267	3469
834.406	3416
834.544	3420
834.682	3409
834.821	3431
834.959	3584
835.097	3443
835.235	3572
835.373	3496
835.511	3500
835.65	3450
835.788	3462
835.926	3405
836.064	3428
836.202	3416
836.34	3542
836.478	3618
836.615	3545
836.753	3606
836.891	3637
837.029	3641
837.167	3576
837.305	3584
837.443	3534
837.58	3504
837.718	3599
837.856	3568
837.993	3530
838.131	3572
838.269	3568
838.406	3580
838.544	3614
838.681	3458
838.819	3481
838.956	3405
839.094	3393
839.231	3462
839.369	3542
839.506	3713
839.643	3656
839.781	3545
839.918	3485
840.055	3542
840.193	3530
840.33	3561
840.467	3572
840.604	3599
840.742	3770
840.879	3557
841.016	3557
841.153	3633
841.29	3759
841.427	3747
841.564	3743
841.701	3778
841.838	3724
841.975	3724
842.112	3663
842.249	3629
842.385	3633
842.522	3850
842.659	3694
842.796	3717
842.933	3698
843.069	3770
843.206	3660
843.343	3774
843.479	3774
843.616	3861
843.752	3652
843.889	3679
844.025	3869
844.162	3720
844.298	3842
844.435	3751
844.571	3785
844.708	3884
844.844	4006
844.98	4029
845.117	3991
845.253	3937
845.389	3941
845.525	3998
845.661	3975
845.798	3903
845.934	4029
846.07	3953
846.206	4029
846.342	4112
846.478	4086
846.614	3956
846.75	3941
846.886	3907
847.022	4006
847.158	4051
847.294	3968
847.429	4071
847.565	4032
847.701	4257
847.837	3865
847.972	3903
848.108	3994
848.244	3987
848.379	3892
848.515	3846
848.65	3861
848.786	3816
848.921	3884
849.057	3968
849.192	3956
849.328	3922
849.463	3979
849.598	3899
849.734	3857
849.869	3838
850.004	3793
850.14	3857
850.275	3785
850.41	3766
850.545	3770
850.68	3759
850.815	3827
850.95	3785
851.085	3934
851.22	3892
851.355	3854
851.49	3838
851.625	3800
851.76	3774
851.895	3705
852.03	3762
852.165	3850
852.299	3846
852.434	3953
852.569	3896
852.703	3865
852.838	3926
852.973	4032
853.107	3964
853.242	3892
853.376	3880
853.511	3781
853.645	3835
853.78	3998
853.914	3907
854.048	3911
854.183	3903
854.317	3949
854.451	4093
854.585	3922
854.72	3934
854.854	4006
854.988	3937
855.122	3998
855.256	3899
855.39	4013
855.524	4101
855.658	4093
855.792	4135
855.926	4204
856.06	4196
856.194	4177
856.327	4120
856.461	4131
856.595	4158
856.729	4200
856.862	4234
856.996	4227
857.13	4306
857.263	4341
857.397	4337
857.53	4276
857.664	4390
857.797	4424
857.931	4432
858.064	4405
858.197	4447
858.331	4379
858.464	4379
858.597	4402
858.731	4485
858.864	4500
858.997	4455
859.13	4500
859.263	4592
859.396	4660
859.529	4538
859.662	4580
859.795	4538
859.928	4603
860.061	4744
860.194	4744
860.327	4660
860.46	4645
860.592	4733
860.725	4755
860.858	4763
860.99	4714
861.123	4710
861.256	4702
861.388	4767
861.521	5455
861.653	4755
861.786	4740
861.918	4782
862.05	4812
862.183	4782
862.315	4862
862.447	4938
862.58	4892
862.712	4774
862.844	4767
862.976	4957
863.108	4923
863.24	5265
863.372	4877
863.504	4908
863.636	4915
863.768	4930
863.9	4923
864.032	4915
864.164	4934
864.296	5022
864.428	5121
864.559	5136
864.691	5117
864.823	5132
864.954	5174
865.086	5147
865.217	5067
865.349	5079
865.48	5166
865.612	5197
865.743	5277
865.875	5216
866.006	5178
866.137	5220
866.269	5273
866.4	5318
866.531	5246
866.662	5280
866.793	5239
866.924	5303
867.055	5383
867.186	5360
867.317	5353
867.448	5318
867.579	5406
867.71	5368
867.841	5429
867.972	5452
868.103	5474
868.233	5448
868.364	5554
868.495	5558
868.625	5642
868.756	5790
868.886	5653
869.017	5741
869.147	5927
869.278	5874
869.408	5790
869.539	5851
869.669	5984
869.799	5923
869.929	6045
870.06	6019
870.19	6148
870.32	6190
870.45	6323
870.58	6407
870.71	6460
870.84	6486
870.97	6426
871.1	6441
871.23	6642
871.36	6681
871.489	6673
871.619	6768
871.749	6760
871.879	6852
872.008	6928
872.138	6939
872.267	7057
872.397	7042
872.526	6973
872.656	7103
872.785	7228
872.915	7415
873.044	7597
873.173	7578
873.303	7647
873.432	7753
873.561	7837
873.69	7947
873.819	7978
873.948	8142
874.077	8301
874.206	8336
874.335	8507
874.464	8735
874.593	8883
874.722	8906
874.851	9051
874.979	9230
875.108	9401
875.237	9485
875.365	9473
875.494	9686
875.623	9819
875.751	9823
875.88	10029
876.008	10093
876.136	10196
876.265	10542
876.393	10717
876.521	10714
876.65	10904
876.778	10900
876.906	10908
877.034	10976
877.162	11098
877.29	11143
877.418	11261
877.546	11322
877.674	11448
877.802	11455
877.93	11463
878.058	11554
878.185	11623
878.313	11649
878.441	11779
878.568	11684
878.696	11817
878.824	11859
878.951	11908
879.079	12068
879.206	12163
879.333	12026
879.461	12034
879.588	12064
879.715	12019
879.842	12175
879.97	12003
880.097	11920
880.224	11935
880.351	11851
880.478	11889
880.605	11897
880.732	11794
880.859	12053
880.986	11870
881.112	11885
881.239	11786
881.366	11585
881.493	11710
881.619	11493
881.746	11551
881.872	11512
881.999	11558
882.125	11459
882.252	11535
882.378	11528
882.505	11581
882.631	11395
882.757	11311
882.883	11341
883.01	11326
883.136	11250
883.262	11048
883.388	11083
883.514	11242
883.64	11113
883.766	11109
883.892	11037
884.018	10949
884.143	11071
884.269	11136
884.395	10889
884.52	10740
884.646	10740
884.772	10664
884.897	10634
885.023	10675
885.148	10793
885.274	10820
885.399	10679
885.524	10607
885.65	10626
885.775	10580
885.9	10569
886.025	10599
886.15	10626
886.275	10493
886.4	10341
886.525	10402
886.65	10394
886.775	10352
886.9	10466
887.025	10538
887.149	10367
887.274	10211
887.399	10268
887.523	10196
887.648	10223
887.773	10169
887.897	10284
888.021	10253
888.146	10135
888.27	10215
888.395	10169
888.519	10162
888.643	10139
888.767	10166
888.891	10120
889.015	10063
889.139	10067
889.263	10017
889.387	10074
889.511	10181
889.635	10086
889.759	9991
889.883	10006
890.006	9941
890.13	10143
890.254	9964
890.377	9983
890.501	9895
890.624	9880
890.748	9892
890.871	9869
890.995	9705
891.118	9759
891.241	9770
891.364	9823
891.488	9873
891.611	9732
891.734	9774
891.857	9835
891.98	9686
892.103	9785
892.226	9705
892.349	9679
892.471	9511
892.594	9572
892.717	9576
892.839	9580
892.962	9682
893.085	9606
893.207	9625
893.33	9504
893.452	9500
893.575	9633
893.697	9572
893.819	9629
893.941	9629
894.064	9641
894.186	9523
894.308	9401
894.43	9458
894.552	9584
894.674	9530
894.796	9397
894.918	9351
895.04	9382
895.161	9344
895.283	9332
895.405	9287
895.526	9245
895.648	9291
895.769	9230
895.891	9298
896.012	9272
896.134	9207
896.255	9226
896.376	9176
896.498	9150
896.619	9157
896.74	9074
896.861	9058
896.982	9260
897.103	9329
897.224	9192
897.345	9081
897.466	9017
897.587	9055
897.708	9135
897.828	9001
897.949	9001
898.07	8785
898.19	8956
898.311	9074
898.431	8880
898.552	8937
898.672	9017
898.792	8944
898.913	8925
899.033	8819
899.153	8762
899.273	8701
899.393	8682
899.513	8750
899.633	8804
899.753	8807
899.873	8663
899.993	8796
900.113	8727
900.232	8716
900.352	8579
900.472	8629
900.591	8617
900.711	8594
900.83	8533
900.95	8667
901.069	8743
901.189	8606
901.308	8427
901.427	8427
901.546	8393
901.665	8503
901.784	8423
901.904	8431
902.023	8328
902.141	8259
902.26	8248
902.379	8298
902.498	8214
902.617	8210
902.735	8362
902.854	8320
902.973	8221
903.091	8172
903.21	8111
903.328	8237
903.446	8134
903.565	8035
903.683	8103
903.801	8043
903.919	8115
904.038	8115
904.156	8062
904.274	8058
904.392	8050
904.51	8035
904.627	8111
904.745	8115
904.863	8126
904.981	7982
905.098	7868
905.216	7849
905.334	7936
905.451	7841
905.569	7940
905.686	7898
905.803	7894
905.921	7772
906.038	7852
906.155	7765
906.272	7731
906.389	7719
906.506	7655
906.623	7674
906.74	7601
906.857	7540
906.974	7567
907.091	7632
907.208	7757
907.324	7639
907.441	7575
907.557	7502
907.674	7445
907.79	7373
907.907	7441
908.023	7468
908.139	7476
908.256	7396
908.372	7422
908.488	7358
908.604	7266
908.72	7331
908.836	7217
908.952	7240
909.068	7331
909.184	7293
909.3	7270
909.415	7324
909.531	7324
909.647	7110
909.762	7160
909.878	7110
909.993	7072
910.108	7084
910.224	7118
910.339	7118
910.454	7050
910.57	7000
910.685	6966
910.8	7221
910.915	7053
911.03	6989
911.145	6935
911.259	6798
911.374	6867
911.489	6901
911.604	6772
911.718	6749
911.833	6681
911.947	6719
912.062	6604
912.176	6703
912.291	6711
912.405	6711
912.519	6856
912.633	6859
912.748	6707
912.862	6677
912.976	6616
913.09	6559
913.204	6570
913.318	6631
913.431	6700
913.545	6688
913.659	6692
913.772	6654
913.886	6631
914	6536
914.113	6646
914.226	6627
914.34	6597
914.453	6456
914.566	6627
914.68	6528
914.793	6593
914.906	6467
915.019	6448
915.132	6376
915.245	6422
915.358	6407
915.47	6464
915.583	6490
915.696	6513
915.809	6506
915.921	6574
916.034	6391
916.146	6433
916.259	6475
916.371	6486
916.483	6433
916.595	6441
916.708	6410
916.82	6429
916.932	6414
917.044	6361
917.156	6376
917.268	6281
917.38	6334
917.491	6353
917.603	6350
917.715	6357
917.826	6460
917.938	6372
918.049	6270
918.161	6353
918.272	6464
918.384	6403
918.495	6292
918.606	6239
918.717	6228
918.828	6273
918.939	6334
919.05	6178
919.161	6258
919.272	6133
919.383	6175
919.494	6308
919.604	6433
919.715	6273
919.826	6235
919.936	6235
920.047	6395
920.157	6258
920.267	6448
920.378	6334
920.488	6281
920.598	6445
920.708	6540
920.818	6460
920.928	6464
921.038	6604
921.148	6616
921.258	6380
921.368	6357
921.477	6178
921.587	6121
921.697	6102
921.806	6155
921.916	6114
922.025	5992
922.134	5969
922.244	5893
922.353	5939
922.462	5904
922.571	5798
922.68	5775
922.789	5676
922.898	5733
923.007	5642
923.116	5691
923.224	5688
923.333	5676
923.442	5627
923.55	5581
923.659	5512
923.767	5642
923.876	5524
923.984	5573
924.092	5535
924.201	5558
924.309	5554
924.417	5600
924.525	5490
924.633	5512
924.741	6106
924.849	5402
924.956	5474
925.064	5345
925.172	5360
925.279	5277
925.387	5379
925.494	5326
925.602	5459
925.709	5417
925.816	5318
925.924	5239
926.031	5360
926.138	5296
926.245	5376
926.352	5250
926.459	5330
926.566	5303
926.673	5254
926.779	5193
926.886	5113
926.993	5006
927.099	4980
927.206	4968
927.312	4934
927.419	5025
927.525	4984
927.631	4987
927.737	4915
927.843	4862
927.95	4828
928.056	4793
928.162	4835
928.267	4858
928.373	5402
928.479	4858
928.585	4706
928.69	4820
928.796	4782
928.901	4664
929.007	4599
929.112	4675
929.218	4622
929.323	4603
929.428	4535
929.533	4691
929.638	4538
929.743	4596
929.848	4554
929.953	4500
930.058	4421
930.163	4322
930.267	4413
930.372	4421
930.477	4333
930.581	4504
930.685	4398
930.79	4230
930.894	4284
930.998	4253
931.103	4386
931.207	4162
931.311	4109
931.415	4082
931.519	3941
931.623	3937
