Data from glass_V78500241_1334.txt Node
Date: Wed Sep 01 19:23:44 CST 2021
User: usil
Spectrometer: V785-0024
Trigger mode: 0
Integration Time (sec): 4.000000E-1
Scans to average: 1
Nonlinearity correction enabled: false
Boxcar width: 0
Storing dark spectrum: false
XAxis mode: Wavelengths
Number of Pixels in Spectrum: 1024
>>>>>Begin Spectral Data<<<<<
801.071	3728
801.214	3759
801.356	3682
801.499	3736
801.641	3701
801.783	3751
801.926	3861
802.068	3835
802.211	3827
802.353	3896
802.496	3831
802.638	3899
802.78	3854
802.923	3926
803.065	3915
803.208	3873
803.35	3869
803.492	3899
803.635	3896
803.777	3797
803.919	3903
804.061	4139
804.204	3968
804.346	3930
804.488	3930
804.63	4025
804.773	3972
804.915	3998
805.057	4158
805.199	4036
805.341	4051
805.483	4143
805.626	4173
805.768	4097
805.91	4192
806.052	4223
806.194	4207
806.336	4360
806.478	4227
806.62	4200
806.762	4211
806.904	4257
807.046	4367
807.188	4249
807.33	4207
807.472	4234
807.614	4181
807.756	4249
807.898	4192
808.04	4230
808.182	4280
808.324	4363
808.465	4344
808.607	4462
808.749	4443
808.891	4481
809.033	4497
809.174	4390
809.316	4265
809.458	4219
809.6	4192
809.741	4131
809.883	4154
810.025	4219
810.166	4257
810.308	4249
810.45	4227
810.591	4238
810.733	4306
810.875	4550
811.016	4854
811.158	5159
811.299	5280
811.441	5284
811.582	5075
811.724	4706
811.865	4443
812.007	4500
812.148	4443
812.29	4440
812.431	4413
812.573	4394
812.714	4405
812.855	4421
812.997	4390
813.138	4493
813.279	4440
813.421	4394
813.562	4402
813.703	4314
813.845	4371
813.986	4303
814.127	4238
814.268	4253
814.41	4306
814.551	4265
814.692	4341
814.833	4272
814.974	4314
815.115	4356
815.256	4268
815.397	4295
815.539	4238
815.68	4131
815.821	4169
815.962	4280
816.103	4299
816.244	4215
816.385	4249
816.526	4280
816.666	4196
816.807	4074
816.948	4185
817.089	4166
817.23	4147
817.371	4082
817.512	4097
817.653	4048
817.793	4051
817.934	4029
818.075	4109
818.216	4071
818.356	4071
818.497	3979
818.638	3937
818.778	3926
818.919	3945
819.06	3861
819.2	3975
819.341	3869
819.481	3857
819.622	3865
819.762	4040
819.903	3975
820.043	3854
820.184	3865
820.324	3823
820.465	3884
820.605	3869
820.746	3854
820.886	3835
821.026	3926
821.167	3926
821.307	4010
821.447	4006
821.588	3968
821.728	3979
821.868	3941
822.008	3876
822.149	3907
822.289	3922
822.429	3819
822.569	3800
822.709	3838
822.849	3698
822.99	3751
823.13	3759
823.27	3785
823.41	3690
823.55	3751
823.69	3717
823.83	3732
823.97	3724
824.11	3595
824.25	3584
824.389	3629
824.529	3652
824.669	3633
824.809	3736
824.949	3778
825.089	3698
825.228	3713
825.368	3572
825.508	3553
825.648	3599
825.787	3625
825.927	3625
826.067	3648
826.206	3622
826.346	3846
826.485	3846
826.625	3869
826.765	3945
826.904	3785
827.044	3622
827.183	3553
827.323	3424
827.462	3469
827.601	3431
827.741	3454
827.88	3481
828.02	3374
828.159	3431
828.298	3462
828.437	3545
828.577	3481
828.716	3629
828.855	3515
828.994	3389
829.134	3393
829.273	3382
829.412	3397
829.551	3367
829.69	3370
829.829	3416
829.968	3511
830.107	3481
830.246	3450
830.385	3370
830.524	3370
830.663	3351
830.802	3291
830.941	3195
831.08	3203
831.219	3256
831.357	3294
831.496	3405
831.635	3222
831.774	3180
831.913	3192
832.051	3150
832.19	3165
832.329	3218
832.467	3165
832.606	3081
832.744	3161
832.883	3176
833.022	3214
833.16	3279
833.299	3287
833.437	3313
833.576	3374
833.714	3382
833.852	3428
833.991	3424
834.129	3439
834.267	3443
834.406	3401
834.544	3447
834.682	3412
834.821	3348
834.959	3625
835.097	3386
835.235	3549
835.373	3477
835.511	3530
835.65	3424
835.788	3507
835.926	3393
836.064	3370
836.202	3412
836.34	3564
836.478	3576
836.615	3580
836.753	3587
836.891	3637
837.029	3603
837.167	3584
837.305	3568
837.443	3542
837.58	3519
837.718	3603
837.856	3591
837.993	3572
838.131	3648
838.269	3564
838.406	3603
838.544	3595
838.681	3447
838.819	3447
838.956	3374
839.094	3378
839.231	3431
839.369	3473
839.506	3736
839.643	3637
839.781	3462
839.918	3424
840.055	3530
840.193	3523
840.33	3526
840.467	3610
840.604	3603
840.742	3808
840.879	3538
841.016	3568
841.153	3584
841.29	3785
841.427	3724
841.564	3747
841.701	3755
841.838	3663
841.975	3690
842.112	3778
842.249	3633
842.385	3644
842.522	3819
842.659	3652
842.796	3667
842.933	3698
843.069	3667
843.206	3728
843.343	3808
843.479	3816
843.616	3861
843.752	3671
843.889	3686
844.025	3838
844.162	3728
844.298	3857
844.435	3781
844.571	3789
844.708	3930
844.844	3991
844.98	4017
845.117	4002
845.253	3949
845.389	3888
845.525	3987
845.661	3968
845.798	3945
845.934	3991
846.07	3953
846.206	4006
846.342	4131
846.478	4044
846.614	3968
846.75	3937
846.886	3926
847.022	4044
847.158	3991
847.294	3994
847.429	4063
847.565	3994
847.701	4276
847.837	3876
847.972	3869
848.108	3998
848.244	4002
848.379	3835
848.515	3800
848.65	3808
848.786	3835
848.921	3861
849.057	3934
849.192	3949
849.328	3922
849.463	3960
849.598	3876
849.734	3838
849.869	3819
850.004	3785
850.14	3850
850.275	3827
850.41	3766
850.545	3778
850.68	3808
850.815	3808
850.95	3781
851.085	3956
851.22	3835
851.355	3842
851.49	3823
851.625	3781
851.76	3797
851.895	3759
852.03	3728
852.165	3797
852.299	3857
852.434	3945
852.569	3854
852.703	3888
852.838	3922
852.973	4010
853.107	3994
853.242	3873
853.376	3846
853.511	3778
853.645	3819
853.78	3953
853.914	3888
854.048	3941
854.183	3907
854.317	3918
854.451	4090
854.585	3983
854.72	3994
854.854	4029
854.988	3930
855.122	3987
855.256	3899
855.39	4044
855.524	4112
855.658	4097
855.792	4105
855.926	4150
856.06	4177
856.194	4234
856.327	4150
856.461	4162
856.595	4154
856.729	4188
856.862	4265
856.996	4227
857.13	4318
857.263	4265
857.397	4398
857.53	4276
857.664	4322
857.797	4383
857.931	4436
858.064	4436
858.197	4394
858.331	4375
858.464	4394
858.597	4348
858.731	4436
858.864	4432
858.997	4466
859.13	4474
859.263	4558
859.396	4561
859.529	4573
859.662	4542
859.795	4565
859.928	4561
860.061	4649
860.194	4771
860.327	4679
860.46	4668
860.592	4736
860.725	4755
860.858	4790
860.99	4736
861.123	4706
861.256	4725
861.388	4755
861.521	5528
861.653	4706
861.786	4706
861.918	4740
862.05	4752
862.183	4866
862.315	4908
862.447	4946
862.58	4946
862.712	4809
862.844	4786
862.976	4919
863.108	4866
863.24	5185
863.372	4858
863.504	4816
863.636	4885
863.768	4972
863.9	4984
864.032	4919
864.164	4991
864.296	5003
864.428	5098
864.559	5105
864.691	5121
864.823	5155
864.954	5181
865.086	5155
865.217	5117
865.349	5105
865.48	5124
865.612	5197
865.743	5299
865.875	5208
866.006	5193
866.137	5223
866.269	5223
866.4	5250
866.531	5280
866.662	5284
866.793	5341
866.924	5250
867.055	5345
867.186	5345
867.317	5318
867.448	5307
867.579	5376
867.71	5322
867.841	5376
867.972	5452
868.103	5471
868.233	5463
868.364	5505
868.495	5554
868.625	5649
868.756	5756
868.886	5668
869.017	5760
869.147	5923
869.278	5912
869.408	5836
869.539	5802
869.669	5920
869.799	5980
869.929	5954
870.06	6083
870.19	6209
870.32	6171
870.45	6289
870.58	6445
870.71	6429
870.84	6467
870.97	6418
871.1	6433
871.23	6612
871.36	6684
871.489	6722
871.619	6757
871.749	6745
871.879	6905
872.008	6993
872.138	6993
872.267	7057
872.397	7034
872.526	6981
872.656	7110
872.785	7202
872.915	7388
873.044	7506
873.173	7601
873.303	7647
873.432	7742
873.561	7864
873.69	7883
873.819	7986
873.948	8161
874.077	8244
874.206	8336
874.335	8514
874.464	8758
874.593	8792
874.722	8895
874.851	9100
874.979	9214
875.108	9401
875.237	9408
875.365	9511
875.494	9667
875.623	9884
875.751	9846
875.88	10021
876.008	10154
876.136	10306
876.265	10462
876.393	10698
876.521	10767
876.65	10816
876.778	10908
876.906	10877
877.034	11041
877.162	11105
877.29	11181
877.418	11250
877.546	11318
877.674	11463
877.802	11459
877.93	11512
878.058	11558
878.185	11543
878.313	11657
878.441	11722
878.568	11707
878.696	11767
878.824	11813
878.951	11961
879.079	12022
879.206	12087
879.333	12171
879.461	11942
879.588	12026
879.715	12057
879.842	12243
879.97	12114
880.097	11843
880.224	11836
880.351	11786
880.478	11893
880.605	11832
880.732	11832
880.859	12098
880.986	11817
881.112	11794
881.239	11775
881.366	11596
881.493	11615
881.619	11482
881.746	11573
881.872	11653
881.999	11551
882.125	11421
882.252	11570
882.378	11440
882.505	11497
882.631	11395
882.757	11284
882.883	11273
883.01	11341
883.136	11185
883.262	11117
883.388	11128
883.514	11162
883.64	11181
883.766	11094
883.892	11025
884.018	11003
884.143	11060
884.269	11174
884.395	10942
884.52	10763
884.646	10809
884.772	10733
884.897	10645
885.023	10702
885.148	10733
885.274	10847
885.399	10592
885.524	10584
885.65	10596
885.775	10603
885.9	10546
886.025	10649
886.15	10546
886.275	10436
886.4	10466
886.525	10409
886.65	10356
886.775	10337
886.9	10500
887.025	10485
887.149	10325
887.274	10265
887.399	10185
887.523	10181
887.648	10150
887.773	10139
887.897	10299
888.021	10169
888.146	10185
888.27	10238
888.395	10192
888.519	10287
888.643	10173
888.767	10253
888.891	10010
889.015	10006
889.139	10071
889.263	9975
889.387	10090
889.511	10093
889.635	10029
889.759	9983
889.883	10025
890.006	10071
890.13	10116
890.254	9956
890.377	9911
890.501	9819
890.624	9842
890.748	9926
890.871	9717
890.995	9766
891.118	9641
891.241	9774
891.364	9778
891.488	9846
891.611	9778
891.734	9736
891.857	9804
891.98	9732
892.103	9766
892.226	9816
892.349	9663
892.471	9564
892.594	9652
892.717	9694
892.839	9618
892.962	9580
893.085	9584
893.207	9610
893.33	9515
893.452	9492
893.575	9500
893.697	9428
893.819	9610
893.941	9519
894.064	9591
894.186	9500
894.308	9408
894.43	9507
894.552	9561
894.674	9545
894.796	9359
894.918	9351
895.04	9367
895.161	9344
895.283	9336
895.405	9294
895.526	9291
895.648	9264
895.769	9249
895.891	9264
896.012	9291
896.134	9253
896.255	9176
896.376	9127
896.498	9195
896.619	9131
896.74	9112
896.861	9032
896.982	9291
897.103	9211
897.224	9108
897.345	9009
897.466	9024
897.587	9039
897.708	9062
897.828	9077
897.949	8956
898.07	8864
898.19	8891
898.311	8963
898.431	8941
898.552	8963
898.672	8982
898.792	8944
898.913	8887
899.033	8769
899.153	8705
899.273	8678
899.393	8785
899.513	8811
899.633	8792
899.753	8727
899.873	8716
899.993	8766
900.113	8686
900.232	8720
900.352	8560
900.472	8587
900.591	8545
900.711	8579
900.83	8533
900.95	8625
901.069	8746
901.189	8556
901.308	8431
901.427	8438
901.546	8412
901.665	8431
901.784	8419
901.904	8408
902.023	8309
902.141	8218
902.26	8221
902.379	8271
902.498	8164
902.617	8172
902.735	8301
902.854	8267
902.973	8267
903.091	8096
903.21	8180
903.328	8115
903.446	8142
903.565	8065
903.683	8069
903.801	8073
903.919	8081
904.038	8092
904.156	8024
904.274	8073
904.392	8058
904.51	7993
904.627	8065
904.745	8065
904.863	8050
904.981	8005
905.098	7917
905.216	7841
905.334	7890
905.451	7909
905.569	7856
905.686	7879
905.803	7902
905.921	7818
906.038	7826
906.155	7849
906.272	7750
906.389	7818
906.506	7609
906.623	7662
906.74	7597
906.857	7559
906.974	7616
907.091	7639
907.208	7731
907.324	7594
907.441	7567
907.557	7430
907.674	7445
907.79	7453
907.907	7426
908.023	7438
908.139	7415
908.256	7411
908.372	7346
908.488	7335
908.604	7324
908.72	7209
908.836	7278
908.952	7305
909.068	7270
909.184	7293
909.3	7320
909.415	7274
909.531	7320
909.647	7091
909.762	7076
909.878	7099
909.993	7114
910.108	7145
910.224	7099
910.339	7118
910.454	7061
910.57	7027
910.685	6924
910.8	7168
910.915	7069
911.03	6996
911.145	6935
911.259	6840
911.374	6897
911.489	6863
911.604	6810
911.718	6715
911.833	6806
911.947	6642
912.062	6639
912.176	6734
912.291	6749
912.405	6688
912.519	6783
912.633	6924
912.748	6700
912.862	6696
912.976	6620
913.09	6559
913.204	6574
913.318	6574
913.431	6612
913.545	6696
913.659	6738
913.772	6627
913.886	6631
914	6589
914.113	6631
914.226	6635
914.34	6593
914.453	6555
914.566	6604
914.68	6536
914.793	6509
914.906	6517
915.019	6437
915.132	6376
915.245	6437
915.358	6452
915.47	6429
915.583	6407
915.696	6475
915.809	6509
915.921	6547
916.034	6490
916.146	6456
916.259	6429
916.371	6506
916.483	6448
916.595	6380
916.708	6445
916.82	6483
916.932	6403
917.044	6422
917.156	6395
917.268	6289
917.38	6323
917.491	6277
917.603	6391
917.715	6414
917.826	6403
917.938	6342
918.049	6266
918.161	6342
918.272	6448
918.384	6388
918.495	6361
918.606	6247
918.717	6209
918.828	6285
918.939	6304
919.05	6213
919.161	6239
919.272	6114
919.383	6163
919.494	6304
919.604	6372
919.715	6338
919.826	6239
919.936	6247
920.047	6357
920.157	6243
920.267	6456
920.378	6376
920.488	6300
920.598	6429
920.708	6540
920.818	6483
920.928	6506
921.038	6597
921.148	6570
921.258	6346
921.368	6273
921.477	6197
921.587	6194
921.697	6091
921.806	6224
921.916	6110
922.025	5958
922.134	5950
922.244	5977
922.353	5958
922.462	5866
922.571	5794
922.68	5699
922.789	5676
922.898	5688
923.007	5570
923.116	5710
923.224	5668
923.333	5691
923.442	5577
923.55	5600
923.659	5604
923.767	5573
923.876	5535
923.984	5627
924.092	5524
924.201	5554
924.309	5562
924.417	5543
924.525	5459
924.633	5528
924.741	6270
924.849	5421
924.956	5512
925.064	5417
925.172	5345
925.279	5303
925.387	5315
925.494	5353
925.602	5402
925.709	5376
925.816	5242
925.924	5311
926.031	5391
926.138	5284
926.245	5311
926.352	5197
926.459	5280
926.566	5296
926.673	5220
926.779	5143
926.886	5124
926.993	5006
927.099	5056
927.206	4953
927.312	4965
927.419	5018
927.525	4991
927.631	4987
927.737	4900
927.843	4854
927.95	4755
928.056	4812
928.162	4843
928.267	4870
928.373	5417
928.479	4831
928.585	4641
928.69	4774
928.796	4774
928.901	4683
929.007	4569
929.112	4683
929.218	4653
929.323	4622
929.428	4565
929.533	4717
929.638	4508
929.743	4516
929.848	4554
929.953	4535
930.058	4470
930.163	4337
930.267	4318
930.372	4436
930.477	4257
930.581	4470
930.685	4356
930.79	4242
930.894	4265
930.998	4314
931.103	4386
931.207	4147
931.311	4059
931.415	4086
931.519	3945
931.623	3949
