Data from glass_V78500241_1440.txt Node
Date: Wed Sep 01 19:24:28 CST 2021
User: usil
Spectrometer: V785-0024
Trigger mode: 0
Integration Time (sec): 4.000000E-1
Scans to average: 1
Nonlinearity correction enabled: false
Boxcar width: 0
Storing dark spectrum: false
XAxis mode: Wavelengths
Number of Pixels in Spectrum: 1024
>>>>>Begin Spectral Data<<<<<
801.071	3747
801.214	3766
801.356	3724
801.499	3762
801.641	3736
801.783	3762
801.926	3850
802.068	3831
802.211	3888
802.353	3892
802.496	3876
802.638	3880
802.78	3880
802.923	3937
803.065	3876
803.208	3892
803.35	3876
803.492	3937
803.635	3884
803.777	3793
803.919	3876
804.061	4166
804.204	3983
804.346	3991
804.488	3907
804.63	3972
804.773	4006
804.915	4021
805.057	4154
805.199	4036
805.341	4105
805.483	4181
805.626	4124
805.768	4128
805.91	4272
806.052	4238
806.194	4204
806.336	4337
806.478	4246
806.62	4207
806.762	4154
806.904	4295
807.046	4322
807.188	4181
807.33	4173
807.472	4219
807.614	4230
807.756	4284
807.898	4211
808.04	4234
808.182	4257
808.324	4344
808.465	4348
808.607	4470
808.749	4481
808.891	4474
809.033	4535
809.174	4379
809.316	4322
809.458	4234
809.6	4150
809.741	4139
809.883	4181
810.025	4215
810.166	4211
810.308	4230
810.45	4253
810.591	4227
810.733	4291
810.875	4500
811.016	4843
811.158	5140
811.299	5315
811.441	5357
811.582	5064
811.724	4714
811.865	4489
812.007	4466
812.148	4413
812.29	4455
812.431	4428
812.573	4383
812.714	4379
812.855	4360
812.997	4405
813.138	4474
813.279	4440
813.421	4402
813.562	4409
813.703	4413
813.845	4333
813.986	4287
814.127	4223
814.268	4280
814.41	4246
814.551	4268
814.692	4360
814.833	4261
814.974	4280
815.115	4386
815.256	4211
815.397	4253
815.539	4227
815.68	4181
815.821	4215
815.962	4291
816.103	4219
816.244	4261
816.385	4253
816.526	4314
816.666	4246
816.807	4112
816.948	4169
817.089	4185
817.23	4105
817.371	4082
817.512	4048
817.653	4082
817.793	4036
817.934	4017
818.075	4086
818.216	4090
818.356	4116
818.497	3979
818.638	3907
818.778	3907
818.919	3854
819.06	3888
819.2	3964
819.341	3899
819.481	3846
819.622	3896
819.762	4036
819.903	3949
820.043	3880
820.184	3850
820.324	3842
820.465	3846
820.605	3846
820.746	3869
820.886	3819
821.026	3960
821.167	3922
821.307	3987
821.447	3968
821.588	3968
821.728	3934
821.868	3937
822.008	3861
822.149	3907
822.289	3892
822.429	3743
822.569	3759
822.709	3774
822.849	3644
822.99	3743
823.13	3728
823.27	3781
823.41	3705
823.55	3736
823.69	3709
823.83	3755
823.97	3686
824.11	3633
824.25	3572
824.389	3591
824.529	3694
824.669	3641
824.809	3740
824.949	3743
825.089	3751
825.228	3709
825.368	3595
825.508	3572
825.648	3538
825.787	3629
825.927	3675
826.067	3633
826.206	3675
826.346	3781
826.485	3861
826.625	3903
826.765	3899
826.904	3835
827.044	3614
827.183	3526
827.323	3401
827.462	3485
827.601	3473
827.741	3447
827.88	3439
828.02	3363
828.159	3431
828.298	3477
828.437	3496
828.577	3473
828.716	3587
828.855	3542
828.994	3397
829.134	3386
829.273	3359
829.412	3332
829.551	3329
829.69	3374
829.829	3412
829.968	3530
830.107	3431
830.246	3439
830.385	3370
830.524	3340
830.663	3332
830.802	3256
830.941	3184
831.08	3150
831.219	3241
831.357	3268
831.496	3389
831.635	3230
831.774	3195
831.913	3233
832.051	3089
832.19	3176
832.329	3207
832.467	3142
832.606	3123
832.744	3161
832.883	3203
833.022	3230
833.16	3253
833.299	3302
833.437	3325
833.576	3389
833.714	3393
833.852	3454
833.991	3462
834.129	3473
834.267	3454
834.406	3420
834.544	3405
834.682	3393
834.821	3416
834.959	3557
835.097	3443
835.235	3553
835.373	3473
835.511	3488
835.65	3496
835.788	3466
835.926	3363
836.064	3336
836.202	3386
836.34	3557
836.478	3629
836.615	3568
836.753	3633
836.891	3618
837.029	3606
837.167	3568
837.305	3568
837.443	3580
837.58	3450
837.718	3591
837.856	3561
837.993	3549
838.131	3591
838.269	3606
838.406	3580
838.544	3504
838.681	3469
838.819	3447
838.956	3363
839.094	3393
839.231	3454
839.369	3496
839.506	3701
839.643	3671
839.781	3492
839.918	3454
840.055	3515
840.193	3530
840.33	3564
840.467	3542
840.604	3603
840.742	3888
840.879	3542
841.016	3538
841.153	3625
841.29	3774
841.427	3701
841.564	3690
841.701	3797
841.838	3675
841.975	3701
842.112	3720
842.249	3671
842.385	3614
842.522	3800
842.659	3713
842.796	3709
842.933	3732
843.069	3671
843.206	3686
843.343	3816
843.479	3770
843.616	3755
843.752	3675
843.889	3694
844.025	3857
844.162	3728
844.298	3842
844.435	3842
844.571	3797
844.708	3869
844.844	3998
844.98	4006
845.117	4032
845.253	3922
845.389	3911
845.525	3953
845.661	3930
845.798	3983
845.934	4017
846.07	3979
846.206	4063
846.342	4143
846.478	4059
846.614	3983
846.75	3953
846.886	3911
847.022	4017
847.158	3964
847.294	4025
847.429	4029
847.565	3975
847.701	4249
847.837	3876
847.972	3842
848.108	3953
848.244	3968
848.379	3823
848.515	3838
848.65	3823
848.786	3835
848.921	3869
849.057	3918
849.192	3960
849.328	3884
849.463	3911
849.598	3827
849.734	3846
849.869	3819
850.004	3778
850.14	3808
850.275	3789
850.41	3755
850.545	3728
850.68	3743
850.815	3812
850.95	3812
851.085	3941
851.22	3876
851.355	3835
851.49	3774
851.625	3736
851.76	3778
851.895	3789
852.03	3740
852.165	3774
852.299	3888
852.434	3911
852.569	3854
852.703	3880
852.838	3896
852.973	4002
853.107	4010
853.242	3857
853.376	3892
853.511	3770
853.645	3835
853.78	3979
853.914	3926
854.048	3911
854.183	3907
854.317	4002
854.451	4036
854.585	4002
854.72	3994
854.854	4017
854.988	3956
855.122	4025
855.256	3911
855.39	4036
855.524	4116
855.658	4086
855.792	4135
855.926	4124
856.06	4169
856.194	4238
856.327	4150
856.461	4112
856.595	4211
856.729	4173
856.862	4284
856.996	4219
857.13	4291
857.263	4341
857.397	4352
857.53	4322
857.664	4341
857.797	4421
857.931	4402
858.064	4440
858.197	4443
858.331	4405
858.464	4356
858.597	4344
858.731	4447
858.864	4485
858.997	4455
859.13	4523
859.263	4542
859.396	4569
859.529	4500
859.662	4527
859.795	4497
859.928	4584
860.061	4668
860.194	4733
860.327	4599
860.46	4592
860.592	4778
860.725	4733
860.858	4809
860.99	4717
861.123	4710
861.256	4672
861.388	4793
861.521	5334
861.653	4733
861.786	4675
861.918	4755
862.05	4797
862.183	4824
862.315	4923
862.447	4957
862.58	4911
862.712	4816
862.844	4786
862.976	4881
863.108	4866
863.24	5223
863.372	4831
863.504	4892
863.636	4896
863.768	4995
863.9	4972
864.032	4900
864.164	4953
864.296	5071
864.428	5067
864.559	5098
864.691	5132
864.823	5098
864.954	5151
865.086	5140
865.217	5083
865.349	5083
865.48	5162
865.612	5155
865.743	5288
865.875	5140
866.006	5124
866.137	5242
866.269	5254
866.4	5250
866.531	5254
866.662	5220
866.793	5258
866.924	5277
867.055	5311
867.186	5299
867.317	5353
867.448	5292
867.579	5417
867.71	5368
867.841	5395
867.972	5433
868.103	5471
868.233	5459
868.364	5512
868.495	5535
868.625	5665
868.756	5840
868.886	5661
869.017	5737
869.147	5870
869.278	5882
869.408	5817
869.539	5840
869.669	5988
869.799	5942
869.929	6038
870.06	6015
870.19	6155
870.32	6194
870.45	6262
870.58	6308
870.71	6399
870.84	6475
870.97	6464
871.1	6429
871.23	6684
871.36	6711
871.489	6642
871.619	6760
871.749	6821
871.879	6825
872.008	6993
872.138	6954
872.267	7027
872.397	7031
872.526	7046
872.656	7069
872.785	7156
872.915	7339
873.044	7518
873.173	7533
873.303	7689
873.432	7761
873.561	7856
873.69	7887
873.819	8008
873.948	8180
874.077	8195
874.206	8309
874.335	8461
874.464	8640
874.593	8826
874.722	8960
874.851	9135
874.979	9188
875.108	9405
875.237	9393
875.365	9420
875.494	9637
875.623	9854
875.751	9812
875.88	10029
876.008	10109
876.136	10207
876.265	10508
876.393	10729
876.521	10698
876.65	10820
876.778	10877
876.906	10850
877.034	10991
877.162	11117
877.29	11178
877.418	11288
877.546	11322
877.674	11455
877.802	11474
877.93	11547
878.058	11585
878.185	11539
878.313	11581
878.441	11638
878.568	11707
878.696	11764
878.824	11847
878.951	11908
879.079	12098
879.206	12136
879.333	12117
879.461	12030
879.588	12095
879.715	12053
879.842	12205
879.97	12034
880.097	11901
880.224	11824
880.351	11832
880.478	11863
880.605	11889
880.732	11813
880.859	12076
880.986	11836
881.112	11904
881.239	11771
881.366	11630
881.493	11596
881.619	11539
881.746	11490
881.872	11623
881.999	11429
882.125	11516
882.252	11562
882.378	11516
882.505	11467
882.631	11376
882.757	11284
882.883	11239
883.01	11292
883.136	11212
883.262	11201
883.388	11102
883.514	11265
883.64	11189
883.766	11113
883.892	11105
884.018	11006
884.143	11105
884.269	11029
884.395	10866
884.52	10759
884.646	10790
884.772	10675
884.897	10729
885.023	10634
885.148	10725
885.274	10736
885.399	10714
885.524	10656
885.65	10592
885.775	10573
885.9	10569
886.025	10626
886.15	10565
886.275	10523
886.4	10394
886.525	10455
886.65	10371
886.775	10402
886.9	10519
887.025	10523
887.149	10428
887.274	10249
887.399	10200
887.523	10234
887.648	10192
887.773	10120
887.897	10230
888.021	10215
888.146	10173
888.27	10276
888.395	10196
888.519	10135
888.643	10086
888.767	10181
888.891	10055
889.015	10036
889.139	10063
889.263	10078
889.387	10086
889.511	10128
889.635	9979
889.759	9972
889.883	10032
890.006	9964
890.13	10112
890.254	9888
890.377	9930
890.501	9850
890.624	9945
890.748	9880
890.871	9797
890.995	9698
891.118	9774
891.241	9819
891.364	9804
891.488	9759
891.611	9781
891.734	9785
891.857	9808
891.98	9663
892.103	9770
892.226	9732
892.349	9705
892.471	9542
892.594	9656
892.717	9637
892.839	9542
892.962	9606
893.085	9584
893.207	9580
893.33	9504
893.452	9568
893.575	9606
893.697	9488
893.819	9606
893.941	9641
894.064	9542
894.186	9485
894.308	9439
894.43	9542
894.552	9553
894.674	9523
894.796	9378
894.918	9393
895.04	9348
895.161	9382
895.283	9355
895.405	9253
895.526	9321
895.648	9211
895.769	9313
895.891	9207
896.012	9264
896.134	9249
896.255	9146
896.376	9131
896.498	9199
896.619	9112
896.74	9081
896.861	9123
896.982	9260
897.103	9294
897.224	9146
897.345	9074
897.466	9017
897.587	8998
897.708	9131
897.828	9017
897.949	8921
898.07	8857
898.19	8902
898.311	8914
898.431	8876
898.552	8880
898.672	9036
898.792	8906
898.913	8864
899.033	8724
899.153	8735
899.273	8651
899.393	8716
899.513	8731
899.633	8686
899.753	8735
899.873	8670
899.993	8746
900.113	8750
900.232	8724
900.352	8659
900.472	8587
900.591	8522
900.711	8610
900.83	8552
900.95	8659
901.069	8640
901.189	8625
901.308	8461
901.427	8396
901.546	8412
901.665	8492
901.784	8556
901.904	8442
902.023	8320
902.141	8298
902.26	8164
902.379	8282
902.498	8256
902.617	8191
902.735	8294
902.854	8298
902.973	8355
903.091	8145
903.21	8149
903.328	8214
903.446	8100
903.565	8065
903.683	8119
903.801	8073
903.919	8054
904.038	8126
904.156	7967
904.274	8145
904.392	8016
904.51	8016
904.627	8077
904.745	8084
904.863	8096
904.981	7928
905.098	7871
905.216	7967
905.334	7894
905.451	7902
905.569	7890
905.686	7974
905.803	7917
905.921	7780
906.038	7898
906.155	7769
906.272	7628
906.389	7689
906.506	7639
906.623	7685
906.74	7651
906.857	7540
906.974	7582
907.091	7632
907.208	7708
907.324	7605
907.441	7556
907.557	7419
907.674	7457
907.79	7480
907.907	7434
908.023	7403
908.139	7396
908.256	7354
908.372	7362
908.488	7327
908.604	7301
908.72	7202
908.836	7327
908.952	7263
909.068	7327
909.184	7327
909.3	7305
909.415	7301
909.531	7308
909.647	7072
909.762	7069
909.878	7065
909.993	7141
910.108	7110
910.224	7019
910.339	7107
910.454	7004
910.57	7000
910.685	6947
910.8	7217
910.915	7118
911.03	7027
911.145	6875
911.259	6856
911.374	6924
911.489	6791
911.604	6875
911.718	6741
911.833	6722
911.947	6692
912.062	6650
912.176	6635
912.291	6673
912.405	6662
912.519	6875
912.633	6890
912.748	6711
912.862	6722
912.976	6601
913.09	6566
913.204	6635
913.318	6642
913.431	6631
913.545	6684
913.659	6741
913.772	6642
913.886	6616
914	6582
914.113	6646
914.226	6650
914.34	6631
914.453	6464
914.566	6711
914.68	6547
914.793	6494
914.906	6460
915.019	6426
915.132	6395
915.245	6422
915.358	6471
915.47	6376
915.583	6399
915.696	6506
915.809	6578
915.921	6555
916.034	6441
916.146	6346
916.259	6365
916.371	6498
916.483	6445
916.595	6380
916.708	6410
916.82	6353
916.932	6399
917.044	6380
917.156	6391
917.268	6296
917.38	6315
917.491	6285
917.603	6384
917.715	6407
917.826	6433
917.938	6361
918.049	6228
918.161	6369
918.272	6418
918.384	6407
918.495	6376
918.606	6273
918.717	6273
918.828	6220
918.939	6350
919.05	6136
919.161	6209
919.272	6136
919.383	6152
919.494	6205
919.604	6414
919.715	6350
919.826	6251
919.936	6216
920.047	6346
920.157	6289
920.267	6486
920.378	6327
920.488	6292
920.598	6490
920.708	6506
920.818	6441
920.928	6464
921.038	6604
921.148	6498
921.258	6342
921.368	6300
921.477	6209
921.587	6232
921.697	6034
921.806	6152
921.916	6076
922.025	5961
922.134	5958
922.244	5935
922.353	5950
922.462	5847
922.571	5745
922.68	5707
922.789	5642
922.898	5680
923.007	5611
923.116	5665
923.224	5688
923.333	5684
923.442	5630
923.55	5585
923.659	5623
923.767	5627
923.876	5493
923.984	5608
924.092	5493
924.201	5562
924.309	5596
924.417	5581
924.525	5577
924.633	5505
924.741	6155
924.849	5421
924.956	5467
925.064	5326
925.172	5258
925.279	5303
925.387	5391
925.494	5391
925.602	5452
925.709	5395
925.816	5242
925.924	5357
926.031	5357
926.138	5326
926.245	5326
926.352	5170
926.459	5387
926.566	5349
926.673	5197
926.779	5136
926.886	5121
926.993	5025
927.099	5006
927.206	5014
927.312	4961
927.419	5003
927.525	4984
927.631	4987
927.737	4900
927.843	4847
927.95	4752
928.056	4801
928.162	4824
928.267	4854
928.373	5223
928.479	4831
928.585	4653
928.69	4805
928.796	4774
928.901	4653
929.007	4645
929.112	4630
929.218	4622
929.323	4618
929.428	4596
929.533	4645
929.638	4550
929.743	4478
929.848	4527
929.953	4531
930.058	4447
930.163	4356
930.267	4287
930.372	4474
930.477	4310
930.581	4459
930.685	4337
930.79	4253
930.894	4310
930.998	4265
931.103	4402
931.207	4150
931.311	4051
931.415	4010
931.519	3892
931.623	3960
