Data from glass_V78500241_1734.txt Node
Date: Wed Sep 01 19:26:31 CST 2021
User: usil
Spectrometer: V785-0024
Trigger mode: 0
Integration Time (sec): 4.000000E-1
Scans to average: 1
Nonlinearity correction enabled: false
Boxcar width: 0
Storing dark spectrum: false
XAxis mode: Wavelengths
Number of Pixels in Spectrum: 1024
>>>>>Begin Spectral Data<<<<<
801.071	3755
801.214	3766
801.356	3667
801.499	3743
801.641	3705
801.783	3747
801.926	3842
802.068	3842
802.211	3823
802.353	3907
802.496	3846
802.638	3880
802.78	3903
802.923	3915
803.065	3903
803.208	3865
803.35	3838
803.492	3884
803.635	3884
803.777	3774
803.919	3888
804.061	4128
804.204	3949
804.346	3922
804.488	3934
804.63	4017
804.773	4010
804.915	4040
805.057	4173
805.199	4048
805.341	4097
805.483	4154
805.626	4128
805.768	4074
805.91	4268
806.052	4253
806.194	4192
806.336	4333
806.478	4238
806.62	4154
806.762	4154
806.904	4265
807.046	4322
807.188	4253
807.33	4143
807.472	4223
807.614	4207
807.756	4280
807.898	4234
808.04	4227
808.182	4284
808.324	4375
808.465	4356
808.607	4455
808.749	4500
808.891	4523
809.033	4489
809.174	4383
809.316	4215
809.458	4257
809.6	4120
809.741	4143
809.883	4131
810.025	4211
810.166	4158
810.308	4223
810.45	4291
810.591	4211
810.733	4303
810.875	4523
811.016	4801
811.158	5124
811.299	5231
811.441	5250
811.582	5083
811.724	4714
811.865	4443
812.007	4428
812.148	4409
812.29	4455
812.431	4390
812.573	4390
812.714	4352
812.855	4409
812.997	4443
813.138	4470
813.279	4405
813.421	4432
813.562	4348
813.703	4329
813.845	4360
813.986	4227
814.127	4253
814.268	4253
814.41	4344
814.551	4230
814.692	4322
814.833	4249
814.974	4314
815.115	4390
815.256	4268
815.397	4253
815.539	4272
815.68	4207
815.821	4211
815.962	4314
816.103	4272
816.244	4227
816.385	4234
816.526	4314
816.666	4242
816.807	4093
816.948	4227
817.089	4200
817.23	4078
817.371	4051
817.512	4063
817.653	4074
817.793	4059
817.934	4074
818.075	4086
818.216	4109
818.356	4082
818.497	4006
818.638	3884
818.778	3865
818.919	3922
819.06	3861
819.2	3903
819.341	3850
819.481	3835
819.622	3876
819.762	4029
819.903	3915
820.043	3869
820.184	3819
820.324	3823
820.465	3876
820.605	3861
820.746	3850
820.886	3812
821.026	3964
821.167	3899
821.307	3972
821.447	3975
821.588	3915
821.728	3979
821.868	3937
822.008	3892
822.149	3949
822.289	3884
822.429	3778
822.569	3800
822.709	3770
822.849	3713
822.99	3675
823.13	3770
823.27	3781
823.41	3724
823.55	3724
823.69	3728
823.83	3770
823.97	3656
824.11	3629
824.25	3576
824.389	3591
824.529	3694
824.669	3618
824.809	3747
824.949	3766
825.089	3663
825.228	3679
825.368	3584
825.508	3564
825.648	3603
825.787	3564
825.927	3622
826.067	3622
826.206	3667
826.346	3819
826.485	3857
826.625	3896
826.765	3975
826.904	3819
827.044	3637
827.183	3504
827.323	3401
827.462	3473
827.601	3469
827.741	3435
827.88	3447
828.02	3389
828.159	3431
828.298	3507
828.437	3515
828.577	3477
828.716	3584
828.855	3538
828.994	3359
829.134	3389
829.273	3367
829.412	3405
829.551	3344
829.69	3397
829.829	3412
829.968	3507
830.107	3450
830.246	3447
830.385	3344
830.524	3348
830.663	3283
830.802	3245
830.941	3211
831.08	3192
831.219	3222
831.357	3264
831.496	3397
831.635	3245
831.774	3207
831.913	3173
832.051	3150
832.19	3131
832.329	3214
832.467	3138
832.606	3104
832.744	3135
832.883	3157
833.022	3214
833.16	3275
833.299	3302
833.437	3317
833.576	3397
833.714	3374
833.852	3409
833.991	3420
834.129	3488
834.267	3370
834.406	3412
834.544	3420
834.682	3416
834.821	3386
834.959	3591
835.097	3450
835.235	3526
835.373	3462
835.511	3485
835.65	3443
835.788	3488
835.926	3363
836.064	3412
836.202	3420
836.34	3538
836.478	3610
836.615	3587
836.753	3591
836.891	3637
837.029	3599
837.167	3576
837.305	3534
837.443	3549
837.58	3511
837.718	3599
837.856	3549
837.993	3561
838.131	3603
838.269	3576
838.406	3591
838.544	3587
838.681	3488
838.819	3473
838.956	3389
839.094	3378
839.231	3424
839.369	3504
839.506	3720
839.643	3580
839.781	3454
839.918	3466
840.055	3507
840.193	3538
840.33	3496
840.467	3564
840.604	3591
840.742	3778
840.879	3534
841.016	3603
841.153	3606
841.29	3740
841.427	3724
841.564	3641
841.701	3759
841.838	3679
841.975	3701
842.112	3724
842.249	3629
842.385	3599
842.522	3797
842.659	3660
842.796	3701
842.933	3698
843.069	3690
843.206	3698
843.343	3808
843.479	3819
843.616	3797
843.752	3682
843.889	3667
844.025	3865
844.162	3724
844.298	3831
844.435	3808
844.571	3747
844.708	3888
844.844	4036
844.98	3975
845.117	4013
845.253	3953
845.389	3972
845.525	3945
845.661	3956
845.798	3911
845.934	3998
846.07	3926
846.206	4021
846.342	4120
846.478	4036
846.614	3956
846.75	3903
846.886	3899
847.022	4025
847.158	4017
847.294	3960
847.429	3998
847.565	3956
847.701	4215
847.837	3930
847.972	3842
848.108	3983
848.244	3941
848.379	3915
848.515	3842
848.65	3842
848.786	3857
848.921	3873
849.057	3880
849.192	3911
849.328	3907
849.463	3934
849.598	3865
849.734	3812
849.869	3850
850.004	3819
850.14	3793
850.275	3854
850.41	3717
850.545	3755
850.68	3770
850.815	3759
850.95	3785
851.085	3953
851.22	3842
851.355	3827
851.49	3816
851.625	3812
851.76	3778
851.895	3770
852.03	3762
852.165	3797
852.299	3873
852.434	3880
852.569	3854
852.703	3926
852.838	3949
852.973	3983
853.107	3964
853.242	3896
853.376	3861
853.511	3781
853.645	3865
853.78	3968
853.914	3915
854.048	3915
854.183	3876
854.317	3915
854.451	4112
854.585	3934
854.72	3956
854.854	4013
854.988	3972
855.122	4006
855.256	3945
855.39	4025
855.524	4124
855.658	4093
855.792	4078
855.926	4105
856.06	4150
856.194	4215
856.327	4128
856.461	4105
856.595	4128
856.729	4150
856.862	4265
856.996	4207
857.13	4306
857.263	4310
857.397	4348
857.53	4223
857.664	4379
857.797	4394
857.931	4383
858.064	4375
858.197	4462
858.331	4413
858.464	4356
858.597	4356
858.731	4459
858.864	4443
858.997	4447
859.13	4485
859.263	4535
859.396	4554
859.529	4546
859.662	4554
859.795	4508
859.928	4554
860.061	4698
860.194	4740
860.327	4687
860.46	4649
860.592	4752
860.725	4763
860.858	4786
860.99	4675
861.123	4691
861.256	4668
861.388	4801
861.521	5402
861.653	4729
861.786	4721
861.918	4725
862.05	4809
862.183	4820
862.315	4831
862.447	4938
862.58	4885
862.712	4774
862.844	4725
862.976	4835
863.108	4801
863.24	5239
863.372	4831
863.504	4885
863.636	4930
863.768	4984
863.9	4972
864.032	4930
864.164	4908
864.296	4995
864.428	5086
864.559	5124
864.691	5113
864.823	5140
864.954	5113
865.086	5132
865.217	5159
865.349	5075
865.48	5174
865.612	5223
865.743	5254
865.875	5204
866.006	5166
866.137	5246
866.269	5216
866.4	5261
866.531	5235
866.662	5235
866.793	5318
866.924	5265
867.055	5315
867.186	5318
867.317	5311
867.448	5273
867.579	5398
867.71	5376
867.841	5360
867.972	5471
868.103	5455
868.233	5482
868.364	5532
868.495	5532
868.625	5703
868.756	5855
868.886	5634
869.017	5741
869.147	5824
869.278	5863
869.408	5813
869.539	5790
869.669	5950
869.799	5920
869.929	5996
870.06	5980
870.19	6167
870.32	6209
870.45	6224
870.58	6369
870.71	6437
870.84	6479
870.97	6433
871.1	6384
871.23	6631
871.36	6707
871.489	6654
871.619	6764
871.749	6798
871.879	6859
872.008	7015
872.138	7050
872.267	6966
872.397	7000
872.526	7065
872.656	7057
872.785	7194
872.915	7365
873.044	7510
873.173	7544
873.303	7658
873.432	7738
873.561	7871
873.69	7925
873.819	8008
873.948	8161
874.077	8271
874.206	8362
874.335	8438
874.464	8636
874.593	8887
874.722	8952
874.851	9161
874.979	9226
875.108	9336
875.237	9405
875.365	9447
875.494	9610
875.623	9861
875.751	9812
875.88	10055
876.008	10109
876.136	10295
876.265	10504
876.393	10710
876.521	10694
876.65	10927
876.778	10862
876.906	10896
877.034	10972
877.162	11090
877.29	11109
877.418	11280
877.546	11337
877.674	11402
877.802	11433
877.93	11482
878.058	11665
878.185	11554
878.313	11733
878.441	11752
878.568	11707
878.696	11722
878.824	11893
878.951	11885
879.079	12136
879.206	12178
879.333	12140
879.461	11988
879.588	12136
879.715	12102
879.842	12254
879.97	12041
880.097	11897
880.224	11901
880.351	11855
880.478	11901
880.605	11851
880.732	11904
880.859	11984
880.986	11733
881.112	11855
881.239	11726
881.366	11627
881.493	11615
881.619	11520
881.746	11570
881.872	11581
881.999	11566
882.125	11509
882.252	11589
882.378	11490
882.505	11535
882.631	11425
882.757	11303
882.883	11360
883.01	11269
883.136	11212
883.262	11109
883.388	11075
883.514	11261
883.64	11117
883.766	11109
883.892	10995
884.018	11029
884.143	11109
884.269	11094
884.395	10797
884.52	10729
884.646	10748
884.772	10714
884.897	10660
885.023	10694
885.148	10660
885.274	10702
885.399	10725
885.524	10641
885.65	10626
885.775	10603
885.9	10603
886.025	10664
886.15	10535
886.275	10459
886.4	10344
886.525	10443
886.65	10394
886.775	10360
886.9	10409
887.025	10580
887.149	10398
887.274	10211
887.399	10253
887.523	10185
887.648	10192
887.773	10128
887.897	10265
888.021	10196
888.146	10101
888.27	10185
888.395	10192
888.519	10303
888.643	10211
888.767	10238
888.891	10048
889.015	9975
889.139	10116
889.263	9960
889.387	10116
889.511	10093
889.635	10063
889.759	9994
889.883	10055
890.006	9953
890.13	10097
890.254	9907
890.377	9930
890.501	9854
890.624	9880
890.748	9884
890.871	9800
890.995	9797
891.118	9747
891.241	9812
891.364	9743
891.488	9717
891.611	9709
891.734	9652
891.857	9812
891.98	9755
892.103	9793
892.226	9694
892.349	9724
892.471	9488
892.594	9572
892.717	9625
892.839	9629
892.962	9667
893.085	9618
893.207	9557
893.33	9515
893.452	9553
893.575	9622
893.697	9473
893.819	9568
893.941	9644
894.064	9557
894.186	9431
894.308	9458
894.43	9492
894.552	9618
894.674	9523
894.796	9397
894.918	9382
895.04	9325
895.161	9450
895.283	9294
895.405	9336
895.526	9165
895.648	9245
895.769	9226
895.891	9249
896.012	9283
896.134	9264
896.255	9169
896.376	9104
896.498	9154
896.619	9135
896.74	9005
896.861	9043
896.982	9313
897.103	9279
897.224	9093
897.345	9081
897.466	9013
897.587	8986
897.708	9146
897.828	9036
897.949	8933
898.07	8872
898.19	8872
898.311	9043
898.431	8925
898.552	8895
898.672	8986
898.792	9005
898.913	8937
899.033	8800
899.153	8655
899.273	8670
899.393	8712
899.513	8667
899.633	8735
899.753	8720
899.873	8712
899.993	8705
900.113	8659
900.232	8720
900.352	8632
900.472	8613
900.591	8492
900.711	8610
900.83	8571
900.95	8659
901.069	8648
901.189	8590
901.308	8434
901.427	8415
901.546	8377
901.665	8465
901.784	8434
901.904	8309
902.023	8313
902.141	8202
902.26	8221
902.379	8279
902.498	8199
902.617	8214
902.735	8263
902.854	8202
902.973	8294
903.091	8126
903.21	8180
903.328	8069
903.446	8149
903.565	8001
903.683	8058
903.801	8073
903.919	8126
904.038	8130
904.156	8092
904.274	8119
904.392	7970
904.51	8043
904.627	8027
904.745	8035
904.863	8100
904.981	7928
905.098	7909
905.216	7909
905.334	7864
905.451	7860
905.569	7875
905.686	8001
905.803	7963
905.921	7761
906.038	7932
906.155	7765
906.272	7727
906.389	7647
906.506	7563
906.623	7605
906.74	7655
906.857	7510
906.974	7605
907.091	7636
907.208	7780
907.324	7594
907.441	7518
907.557	7514
907.674	7411
907.79	7434
907.907	7480
908.023	7445
908.139	7457
908.256	7350
908.372	7327
908.488	7365
908.604	7255
908.72	7209
908.836	7217
908.952	7278
909.068	7236
909.184	7263
909.3	7232
909.415	7285
909.531	7263
909.647	7110
909.762	7149
909.878	7069
909.993	7118
910.108	7099
910.224	7107
910.339	7126
910.454	7034
910.57	6989
910.685	6970
910.8	7168
910.915	7122
911.03	7031
911.145	6844
911.259	6890
911.374	6932
911.489	6882
911.604	6829
911.718	6715
911.833	6711
911.947	6658
912.062	6631
912.176	6684
912.291	6753
912.405	6635
912.519	6833
912.633	6852
912.748	6715
912.862	6711
912.976	6639
913.09	6498
913.204	6616
913.318	6574
913.431	6726
913.545	6684
913.659	6684
913.772	6635
913.886	6525
914	6585
914.113	6566
914.226	6650
914.34	6631
914.453	6464
914.566	6574
914.68	6506
914.793	6544
914.906	6410
915.019	6467
915.132	6384
915.245	6365
915.358	6441
915.47	6498
915.583	6452
915.696	6456
915.809	6532
915.921	6551
916.034	6399
916.146	6410
916.259	6403
916.371	6456
916.483	6433
916.595	6418
916.708	6369
916.82	6445
916.932	6391
917.044	6452
917.156	6391
917.268	6285
917.38	6361
917.491	6277
917.603	6281
917.715	6353
917.826	6429
917.938	6357
918.049	6194
918.161	6281
918.272	6365
918.384	6456
918.495	6376
918.606	6296
918.717	6148
918.828	6304
918.939	6273
919.05	6220
919.161	6262
919.272	6148
919.383	6136
919.494	6251
919.604	6380
919.715	6296
919.826	6201
919.936	6285
920.047	6296
920.157	6304
920.267	6350
920.378	6369
920.488	6281
920.598	6395
920.708	6601
920.818	6506
920.928	6403
921.038	6585
921.148	6582
921.258	6376
921.368	6296
921.477	6247
921.587	6140
921.697	6106
921.806	6171
921.916	6068
922.025	5954
922.134	5912
922.244	5885
922.353	5965
922.462	5824
922.571	5855
922.68	5699
922.789	5661
922.898	5729
923.007	5577
923.116	5688
923.224	5653
923.333	5619
923.442	5608
923.55	5611
923.659	5543
923.767	5672
923.876	5551
923.984	5596
924.092	5528
924.201	5608
924.309	5551
924.417	5558
924.525	5471
924.633	5509
924.741	6350
924.849	5299
924.956	5471
925.064	5402
925.172	5330
925.279	5307
925.387	5357
925.494	5364
925.602	5417
925.709	5368
925.816	5284
925.924	5337
926.031	5387
926.138	5277
926.245	5330
926.352	5246
926.459	5303
926.566	5345
926.673	5201
926.779	5136
926.886	5121
926.993	5064
927.099	5010
927.206	5014
927.312	4957
927.419	5033
927.525	4942
927.631	5010
927.737	4908
927.843	4835
927.95	4759
928.056	4847
928.162	4877
928.267	4835
928.373	5330
928.479	4870
928.585	4675
928.69	4763
928.796	4774
928.901	4702
929.007	4588
929.112	4641
929.218	4664
929.323	4611
929.428	4550
929.533	4645
929.638	4489
929.743	4516
929.848	4531
929.953	4504
930.058	4451
930.163	4341
930.267	4356
930.372	4428
930.477	4360
930.581	4405
930.685	4329
930.79	4242
930.894	4280
930.998	4276
931.103	4383
931.207	4124
931.311	4116
931.415	4029
931.519	3937
931.623	3968
