Data from glass_V78500241_1984.txt Node
Date: Wed Sep 01 19:28:15 CST 2021
User: usil
Spectrometer: V785-0024
Trigger mode: 0
Integration Time (sec): 4.000000E-1
Scans to average: 1
Nonlinearity correction enabled: false
Boxcar width: 0
Storing dark spectrum: false
XAxis mode: Wavelengths
Number of Pixels in Spectrum: 1024
>>>>>Begin Spectral Data<<<<<
801.071	3728
801.214	3743
801.356	3713
801.499	3762
801.641	3701
801.783	3743
801.926	3857
802.068	3827
802.211	3880
802.353	3876
802.496	3838
802.638	3896
802.78	3930
802.923	3930
803.065	3873
803.208	3876
803.35	3850
803.492	3899
803.635	3941
803.777	3778
803.919	3907
804.061	4181
804.204	3975
804.346	3915
804.488	3915
804.63	4002
804.773	3930
804.915	4006
805.057	4131
805.199	4074
805.341	4059
805.483	4154
805.626	4128
805.768	4078
805.91	4196
806.052	4234
806.194	4219
806.336	4303
806.478	4242
806.62	4154
806.762	4238
806.904	4230
807.046	4352
807.188	4192
807.33	4169
807.472	4211
807.614	4200
807.756	4268
807.898	4143
808.04	4173
808.182	4268
808.324	4291
808.465	4322
808.607	4455
808.749	4405
808.891	4447
809.033	4546
809.174	4417
809.316	4261
809.458	4234
809.6	4181
809.741	4109
809.883	4158
810.025	4185
810.166	4227
810.308	4230
810.45	4299
810.591	4196
810.733	4268
810.875	4516
811.016	4824
811.158	5155
811.299	5265
811.441	5299
811.582	5121
811.724	4729
811.865	4447
812.007	4470
812.148	4383
812.29	4500
812.431	4379
812.573	4428
812.714	4398
812.855	4394
812.997	4466
813.138	4485
813.279	4402
813.421	4402
813.562	4398
813.703	4322
813.845	4314
813.986	4280
814.127	4219
814.268	4230
814.41	4284
814.551	4242
814.692	4306
814.833	4253
814.974	4287
815.115	4318
815.256	4276
815.397	4261
815.539	4276
815.68	4196
815.821	4188
815.962	4314
816.103	4284
816.244	4234
816.385	4253
816.526	4284
816.666	4181
816.807	4086
816.948	4177
817.089	4139
817.23	4147
817.371	4002
817.512	4044
817.653	4021
817.793	3983
817.934	4040
818.075	4090
818.216	4063
818.356	4051
818.497	3937
818.638	3915
818.778	3926
818.919	3899
819.06	3838
819.2	3857
819.341	3854
819.481	3797
819.622	3918
819.762	4029
819.903	3922
820.043	3857
820.184	3861
820.324	3812
820.465	3857
820.605	3869
820.746	3846
820.886	3797
821.026	3937
821.167	3899
821.307	3930
821.447	3991
821.588	3960
821.728	3960
821.868	3926
822.008	3838
822.149	3896
822.289	3896
822.429	3766
822.569	3747
822.709	3808
822.849	3694
822.99	3743
823.13	3740
823.27	3789
823.41	3705
823.55	3736
823.69	3701
823.83	3736
823.97	3671
824.11	3637
824.25	3595
824.389	3652
824.529	3667
824.669	3644
824.809	3690
824.949	3755
825.089	3747
825.228	3690
825.368	3610
825.508	3599
825.648	3542
825.787	3584
825.927	3610
826.067	3610
826.206	3671
826.346	3778
826.485	3793
826.625	3812
826.765	3911
826.904	3800
827.044	3629
827.183	3553
827.323	3458
827.462	3523
827.601	3420
827.741	3450
827.88	3416
828.02	3367
828.159	3458
828.298	3462
828.437	3504
828.577	3496
828.716	3580
828.855	3496
828.994	3367
829.134	3336
829.273	3428
829.412	3329
829.551	3336
829.69	3370
829.829	3412
829.968	3496
830.107	3428
830.246	3428
830.385	3378
830.524	3336
830.663	3306
830.802	3253
830.941	3207
831.08	3226
831.219	3233
831.357	3256
831.496	3412
831.635	3222
831.774	3165
831.913	3188
832.051	3146
832.19	3131
832.329	3192
832.467	3127
832.606	3104
832.744	3184
832.883	3184
833.022	3176
833.16	3253
833.299	3272
833.437	3313
833.576	3336
833.714	3382
833.852	3447
833.991	3481
834.129	3469
834.267	3428
834.406	3424
834.544	3374
834.682	3428
834.821	3469
834.959	3542
835.097	3409
835.235	3481
835.373	3466
835.511	3511
835.65	3458
835.788	3515
835.926	3382
836.064	3378
836.202	3386
836.34	3511
836.478	3599
836.615	3496
836.753	3606
836.891	3606
837.029	3633
837.167	3584
837.305	3557
837.443	3561
837.58	3485
837.718	3564
837.856	3538
837.993	3553
838.131	3603
838.269	3542
838.406	3591
838.544	3584
838.681	3458
838.819	3473
838.956	3359
839.094	3378
839.231	3431
839.369	3515
839.506	3724
839.643	3591
839.781	3488
839.918	3473
840.055	3507
840.193	3553
840.33	3500
840.467	3553
840.604	3591
840.742	3774
840.879	3523
841.016	3549
841.153	3599
841.29	3743
841.427	3709
841.564	3728
841.701	3728
841.838	3686
841.975	3698
842.112	3671
842.249	3663
842.385	3595
842.522	3865
842.659	3686
842.796	3667
842.933	3732
843.069	3633
843.206	3663
843.343	3804
843.479	3751
843.616	3842
843.752	3679
843.889	3705
844.025	3831
844.162	3694
844.298	3819
844.435	3838
844.571	3816
844.708	3930
844.844	3979
844.98	4017
845.117	4044
845.253	3918
845.389	3892
845.525	3979
845.661	3953
845.798	3934
845.934	3972
846.07	3949
846.206	4040
846.342	4112
846.478	4051
846.614	3968
846.75	3915
846.886	3915
847.022	3987
847.158	3964
847.294	3960
847.429	4006
847.565	3972
847.701	4249
847.837	3907
847.972	3861
848.108	3964
848.244	3979
848.379	3869
848.515	3785
848.65	3819
848.786	3857
848.921	3865
849.057	3945
849.192	3937
849.328	3934
849.463	3979
849.598	3880
849.734	3861
849.869	3827
850.004	3755
850.14	3842
850.275	3778
850.41	3751
850.545	3762
850.68	3819
850.815	3808
850.95	3808
851.085	3922
851.22	3846
851.355	3835
851.49	3789
851.625	3743
851.76	3766
851.895	3709
852.03	3720
852.165	3808
852.299	3861
852.434	3918
852.569	3812
852.703	3869
852.838	3915
852.973	3964
853.107	3972
853.242	3899
853.376	3869
853.511	3751
853.645	3793
853.78	3972
853.914	3888
854.048	3850
854.183	3819
854.317	3934
854.451	4051
854.585	3945
854.72	3930
854.854	4048
854.988	3937
855.122	3987
855.256	3934
855.39	4013
855.524	4086
855.658	4097
855.792	4101
855.926	4109
856.06	4139
856.194	4181
856.327	4124
856.461	4192
856.595	4116
856.729	4169
856.862	4295
856.996	4177
857.13	4284
857.263	4344
857.397	4356
857.53	4295
857.664	4329
857.797	4348
857.931	4383
858.064	4375
858.197	4451
858.331	4413
858.464	4402
858.597	4287
858.731	4409
858.864	4421
858.997	4424
859.13	4519
859.263	4527
859.396	4565
859.529	4512
859.662	4592
859.795	4538
859.928	4599
860.061	4653
860.194	4733
860.327	4584
860.46	4653
860.592	4706
860.725	4736
860.858	4771
860.99	4679
861.123	4683
861.256	4687
861.388	4740
861.521	5433
861.653	4721
861.786	4733
861.918	4721
862.05	4805
862.183	4843
862.315	4885
862.447	4923
862.58	4908
862.712	4820
862.844	4752
862.976	4877
863.108	4892
863.24	5197
863.372	4820
863.504	4927
863.636	4877
863.768	4949
863.9	4930
864.032	4923
864.164	4892
864.296	5029
864.428	5128
864.559	5140
864.691	5117
864.823	5117
864.954	5086
865.086	5132
865.217	5170
865.349	5090
865.48	5140
865.612	5223
865.743	5273
865.875	5178
866.006	5189
866.137	5223
866.269	5216
866.4	5231
866.531	5246
866.662	5235
866.793	5242
866.924	5288
867.055	5345
867.186	5292
867.317	5326
867.448	5322
867.579	5391
867.71	5372
867.841	5387
867.972	5436
868.103	5440
868.233	5512
868.364	5516
868.495	5566
868.625	5649
868.756	5741
868.886	5661
869.017	5729
869.147	5885
869.278	5813
869.408	5809
869.539	5798
869.669	5923
869.799	5912
869.929	5992
870.06	5984
870.19	6144
870.32	6224
870.45	6239
870.58	6334
870.71	6460
870.84	6471
870.97	6437
871.1	6422
871.23	6646
871.36	6639
871.489	6658
871.619	6745
871.749	6798
871.879	6867
872.008	6897
872.138	7000
872.267	7004
872.397	7015
872.526	7015
872.656	7065
872.785	7259
872.915	7335
873.044	7510
873.173	7476
873.303	7723
873.432	7792
873.561	7894
873.69	7898
873.819	8035
873.948	8187
874.077	8233
874.206	8385
874.335	8454
874.464	8689
874.593	8914
874.722	8925
874.851	9119
874.979	9264
875.108	9363
875.237	9420
875.365	9488
875.494	9679
875.623	9774
875.751	9899
875.88	9968
876.008	10082
876.136	10306
876.265	10504
876.393	10725
876.521	10755
876.65	10847
876.778	10873
876.906	10847
877.034	10953
877.162	11075
877.29	11121
877.418	11258
877.546	11360
877.674	11436
877.802	11402
877.93	11604
878.058	11566
878.185	11547
878.313	11684
878.441	11699
878.568	11707
878.696	11748
878.824	11866
878.951	11954
879.079	12045
879.206	12171
879.333	12049
879.461	12003
879.588	12152
879.715	12038
879.842	12167
879.97	12026
880.097	11939
880.224	11821
880.351	11840
880.478	11969
880.605	11874
880.732	11790
880.859	12045
880.986	11752
881.112	11889
881.239	11802
881.366	11623
881.493	11589
881.619	11501
881.746	11509
881.872	11570
881.999	11467
882.125	11478
882.252	11528
882.378	11520
882.505	11528
882.631	11436
882.757	11258
882.883	11330
883.01	11334
883.136	11239
883.262	11102
883.388	11128
883.514	11239
883.64	11204
883.766	11079
883.892	11006
884.018	10987
884.143	11045
884.269	11147
884.395	10850
884.52	10786
884.646	10774
884.772	10706
884.897	10702
885.023	10694
885.148	10736
885.274	10717
885.399	10733
885.524	10584
885.65	10630
885.775	10573
885.9	10535
886.025	10687
886.15	10603
886.275	10478
886.4	10310
886.525	10436
886.65	10348
886.775	10329
886.9	10508
887.025	10485
887.149	10363
887.274	10268
887.399	10215
887.523	10181
887.648	10067
887.773	10059
887.897	10257
888.021	10177
888.146	10158
888.27	10169
888.395	10215
888.519	10169
888.643	10257
888.767	10238
888.891	9994
889.015	10017
889.139	10048
889.263	10029
889.387	10097
889.511	10101
889.635	10143
889.759	9911
889.883	9998
890.006	9987
890.13	10116
890.254	9953
890.377	9994
890.501	9865
890.624	9865
890.748	9945
890.871	9827
890.995	9740
891.118	9728
891.241	9709
891.364	9736
891.488	9789
891.611	9701
891.734	9778
891.857	9743
891.98	9713
892.103	9789
892.226	9686
892.349	9652
892.471	9515
892.594	9614
892.717	9622
892.839	9507
892.962	9545
893.085	9618
893.207	9580
893.33	9557
893.452	9542
893.575	9595
893.697	9473
893.819	9690
893.941	9606
894.064	9663
894.186	9462
894.308	9424
894.43	9481
894.552	9526
894.674	9564
894.796	9313
894.918	9355
895.04	9412
895.161	9336
895.283	9332
895.405	9207
895.526	9169
895.648	9344
895.769	9275
895.891	9249
896.012	9294
896.134	9127
896.255	9135
896.376	9119
896.498	9237
896.619	9089
896.74	9108
896.861	9116
896.982	9260
897.103	9306
897.224	9150
897.345	9043
897.466	9043
897.587	9005
897.708	9089
897.828	9017
897.949	8971
898.07	8834
898.19	8941
898.311	9028
898.431	8990
898.552	8948
898.672	9001
898.792	8910
898.913	8902
899.033	8796
899.153	8693
899.273	8648
899.393	8712
899.513	8720
899.633	8693
899.753	8674
899.873	8693
899.993	8716
900.113	8705
900.232	8667
900.352	8708
900.472	8636
900.591	8492
900.711	8552
900.83	8571
900.95	8720
901.069	8693
901.189	8579
901.308	8473
901.427	8389
901.546	8434
901.665	8461
901.784	8526
901.904	8374
902.023	8393
902.141	8240
902.26	8225
902.379	8263
902.498	8282
902.617	8168
902.735	8355
902.854	8332
902.973	8206
903.091	8145
903.21	8111
903.328	8149
903.446	8111
903.565	8123
903.683	8115
903.801	8012
903.919	8092
904.038	8084
904.156	8024
904.274	8069
904.392	8024
904.51	7997
904.627	8008
904.745	8084
904.863	8103
904.981	7959
905.098	7898
905.216	7833
905.334	7890
905.451	7936
905.569	7860
905.686	7909
905.803	7940
905.921	7757
906.038	7830
906.155	7833
906.272	7647
906.389	7746
906.506	7559
906.623	7578
906.74	7628
906.857	7556
906.974	7594
907.091	7620
907.208	7750
907.324	7620
907.441	7605
907.557	7426
907.674	7449
907.79	7445
907.907	7327
908.023	7438
908.139	7464
908.256	7422
908.372	7381
908.488	7396
908.604	7266
908.72	7221
908.836	7293
908.952	7198
909.068	7202
909.184	7316
909.3	7232
909.415	7251
909.531	7232
909.647	7152
909.762	7076
909.878	7084
909.993	7114
910.108	7069
910.224	7015
910.339	7107
910.454	7080
910.57	7042
910.685	6951
910.8	7156
910.915	7084
911.03	7042
911.145	6935
911.259	6882
911.374	6886
911.489	6810
911.604	6833
911.718	6700
911.833	6795
911.947	6684
912.062	6608
912.176	6692
912.291	6696
912.405	6665
912.519	6821
912.633	6871
912.748	6730
912.862	6688
912.976	6646
913.09	6513
913.204	6616
913.318	6563
913.431	6604
913.545	6681
913.659	6711
913.772	6639
913.886	6536
914	6547
914.113	6635
914.226	6662
914.34	6635
914.453	6494
914.566	6654
914.68	6525
914.793	6544
914.906	6422
915.019	6380
915.132	6410
915.245	6483
915.358	6448
915.47	6475
915.583	6475
915.696	6475
915.809	6490
915.921	6559
916.034	6437
916.146	6437
916.259	6388
916.371	6486
916.483	6445
916.595	6391
916.708	6418
916.82	6429
916.932	6437
917.044	6327
917.156	6376
917.268	6315
917.38	6334
917.491	6353
917.603	6308
917.715	6350
917.826	6395
917.938	6277
918.049	6285
918.161	6338
918.272	6426
918.384	6399
918.495	6331
918.606	6300
918.717	6247
918.828	6258
918.939	6254
919.05	6178
919.161	6205
919.272	6038
919.383	6186
919.494	6304
919.604	6479
919.715	6289
919.826	6194
919.936	6258
920.047	6277
920.157	6251
920.267	6433
920.378	6292
920.488	6289
920.598	6433
920.708	6544
920.818	6448
920.928	6361
921.038	6528
921.148	6597
921.258	6388
921.368	6292
921.477	6209
921.587	6182
921.697	6034
921.806	6144
921.916	6060
922.025	5973
922.134	5904
922.244	5851
922.353	5954
922.462	5737
922.571	5805
922.68	5684
922.789	5672
922.898	5714
923.007	5634
923.116	5722
923.224	5630
923.333	5619
923.442	5611
923.55	5554
923.659	5509
923.767	5638
923.876	5524
923.984	5623
924.092	5493
924.201	5562
924.309	5573
924.417	5543
924.525	5539
924.633	5505
924.741	6232
924.849	5364
924.956	5478
925.064	5349
925.172	5292
925.279	5284
925.387	5337
925.494	5273
925.602	5383
925.709	5364
925.816	5239
925.924	5273
926.031	5395
926.138	5280
926.245	5273
926.352	5239
926.459	5273
926.566	5318
926.673	5246
926.779	5151
926.886	5128
926.993	5064
927.099	4984
927.206	4972
927.312	4927
927.419	4972
927.525	4999
927.631	4972
927.737	4900
927.843	4835
927.95	4729
928.056	4816
928.162	4801
928.267	4828
928.373	5364
928.479	4839
928.585	4687
928.69	4733
928.796	4801
928.901	4687
929.007	4588
929.112	4679
929.218	4615
929.323	4603
929.428	4516
929.533	4668
929.638	4489
929.743	4550
929.848	4508
929.953	4478
930.058	4443
930.163	4276
930.267	4360
930.372	4424
930.477	4310
930.581	4436
930.685	4409
930.79	4261
930.894	4246
930.998	4242
931.103	4409
931.207	4124
931.311	4109
931.415	3998
931.519	3884
931.623	3983
