Data from glass_V78500241_1166.txt Node
Date: Wed Sep 01 19:22:34 CST 2021
User: usil
Spectrometer: V785-0024
Trigger mode: 0
Integration Time (sec): 4.000000E-1
Scans to average: 1
Nonlinearity correction enabled: false
Boxcar width: 0
Storing dark spectrum: false
XAxis mode: Wavelengths
Number of Pixels in Spectrum: 1024
>>>>>Begin Spectral Data<<<<<
801.071	3774
801.214	3781
801.356	3686
801.499	3774
801.641	3701
801.783	3762
801.926	3812
802.068	3831
802.211	3884
802.353	3873
802.496	3797
802.638	3922
802.78	3922
802.923	3899
803.065	3899
803.208	3888
803.35	3892
803.492	3926
803.635	3930
803.777	3831
803.919	3918
804.061	4124
804.204	3941
804.346	3960
804.488	3903
804.63	4006
804.773	4017
804.915	3991
805.057	4166
805.199	4074
805.341	4116
805.483	4150
805.626	4135
805.768	4131
805.91	4204
806.052	4230
806.194	4200
806.336	4363
806.478	4200
806.62	4158
806.762	4246
806.904	4227
807.046	4367
807.188	4246
807.33	4169
807.472	4265
807.614	4227
807.756	4261
807.898	4230
808.04	4246
808.182	4306
808.324	4344
808.465	4386
808.607	4466
808.749	4398
808.891	4485
809.033	4497
809.174	4424
809.316	4303
809.458	4291
809.6	4139
809.741	4177
809.883	4131
810.025	4166
810.166	4242
810.308	4192
810.45	4272
810.591	4291
810.733	4268
810.875	4535
811.016	4847
811.158	5166
811.299	5242
811.441	5235
811.582	5083
811.724	4702
811.865	4478
812.007	4455
812.148	4470
812.29	4417
812.431	4390
812.573	4417
812.714	4363
812.855	4402
812.997	4405
813.138	4443
813.279	4436
813.421	4459
813.562	4417
813.703	4303
813.845	4318
813.986	4238
814.127	4238
814.268	4280
814.41	4280
814.551	4211
814.692	4314
814.833	4322
814.974	4356
815.115	4341
815.256	4238
815.397	4257
815.539	4291
815.68	4181
815.821	4234
815.962	4333
816.103	4325
816.244	4249
816.385	4242
816.526	4291
816.666	4234
816.807	4124
816.948	4166
817.089	4128
817.23	4173
817.371	4051
817.512	4082
817.653	4078
817.793	4055
817.934	4044
818.075	4162
818.216	4074
818.356	4097
818.497	4010
818.638	3953
818.778	3941
818.919	3884
819.06	3888
819.2	3918
819.341	3865
819.481	3838
819.622	3983
819.762	4032
819.903	4002
820.043	3888
820.184	3861
820.324	3812
820.465	3861
820.605	3884
820.746	3880
820.886	3797
821.026	3949
821.167	3911
821.307	3987
821.447	3960
821.588	3930
821.728	3968
821.868	3968
822.008	3880
822.149	3949
822.289	3907
822.429	3797
822.569	3766
822.709	3857
822.849	3736
822.99	3698
823.13	3759
823.27	3835
823.41	3720
823.55	3709
823.69	3720
823.83	3747
823.97	3694
824.11	3633
824.25	3606
824.389	3622
824.529	3690
824.669	3633
824.809	3736
824.949	3785
825.089	3759
825.228	3694
825.368	3568
825.508	3576
825.648	3549
825.787	3633
825.927	3648
826.067	3663
826.206	3705
826.346	3789
826.485	3846
826.625	3838
826.765	3899
826.904	3865
827.044	3618
827.183	3526
827.323	3447
827.462	3523
827.601	3481
827.741	3450
827.88	3469
828.02	3378
828.159	3466
828.298	3477
828.437	3515
828.577	3507
828.716	3610
828.855	3511
828.994	3397
829.134	3401
829.273	3412
829.412	3367
829.551	3336
829.69	3344
829.829	3401
829.968	3504
830.107	3458
830.246	3511
830.385	3386
830.524	3344
830.663	3332
830.802	3268
830.941	3214
831.08	3226
831.219	3268
831.357	3253
831.496	3378
831.635	3256
831.774	3207
831.913	3176
832.051	3119
832.19	3176
832.329	3249
832.467	3157
832.606	3058
832.744	3135
832.883	3199
833.022	3199
833.16	3272
833.299	3302
833.437	3363
833.576	3351
833.714	3450
833.852	3435
833.991	3469
834.129	3492
834.267	3431
834.406	3393
834.544	3431
834.682	3450
834.821	3420
834.959	3587
835.097	3420
835.235	3519
835.373	3469
835.511	3515
835.65	3458
835.788	3561
835.926	3389
836.064	3386
836.202	3435
836.34	3557
836.478	3644
836.615	3557
836.753	3603
836.891	3652
837.029	3641
837.167	3603
837.305	3595
837.443	3564
837.58	3526
837.718	3629
837.856	3545
837.993	3568
838.131	3603
838.269	3625
838.406	3587
838.544	3603
838.681	3481
838.819	3431
838.956	3412
839.094	3416
839.231	3428
839.369	3545
839.506	3740
839.643	3663
839.781	3519
839.918	3466
840.055	3519
840.193	3557
840.33	3496
840.467	3564
840.604	3599
840.742	3770
840.879	3523
841.016	3599
841.153	3614
841.29	3751
841.427	3675
841.564	3762
841.701	3778
841.838	3682
841.975	3698
842.112	3720
842.249	3660
842.385	3675
842.522	3823
842.659	3686
842.796	3667
842.933	3724
843.069	3747
843.206	3694
843.343	3835
843.479	3770
843.616	3804
843.752	3663
843.889	3694
844.025	3876
844.162	3694
844.298	3838
844.435	3785
844.571	3755
844.708	3941
844.844	3968
844.98	4025
845.117	4017
845.253	3934
845.389	3934
845.525	3972
845.661	3972
845.798	3907
845.934	4006
846.07	3926
846.206	4059
846.342	4097
846.478	4044
846.614	4002
846.75	3945
846.886	3907
847.022	4086
847.158	3975
847.294	4036
847.429	4002
847.565	3998
847.701	4234
847.837	3861
847.972	3869
848.108	3983
848.244	3964
848.379	3857
848.515	3808
848.65	3842
848.786	3808
848.921	3838
849.057	3926
849.192	3991
849.328	3949
849.463	3937
849.598	3907
849.734	3903
849.869	3865
850.004	3808
850.14	3838
850.275	3785
850.41	3766
850.545	3774
850.68	3770
850.815	3861
850.95	3789
851.085	3960
851.22	3888
851.355	3854
851.49	3835
851.625	3789
851.76	3793
851.895	3713
852.03	3732
852.165	3835
852.299	3797
852.434	3899
852.569	3846
852.703	3876
852.838	3968
852.973	4025
853.107	4021
853.242	3896
853.376	3915
853.511	3778
853.645	3835
853.78	3983
853.914	3911
854.048	3930
854.183	3926
854.317	3937
854.451	4116
854.585	4021
854.72	3979
854.854	4116
854.988	3998
855.122	4055
855.256	3934
855.39	4025
855.524	4067
855.658	4078
855.792	4120
855.926	4192
856.06	4181
856.194	4230
856.327	4150
856.461	4162
856.595	4135
856.729	4230
856.862	4276
856.996	4223
857.13	4333
857.263	4363
857.397	4344
857.53	4280
857.664	4386
857.797	4394
857.931	4440
858.064	4402
858.197	4443
858.331	4447
858.464	4428
858.597	4371
858.731	4447
858.864	4447
858.997	4470
859.13	4447
859.263	4516
859.396	4561
859.529	4531
859.662	4531
859.795	4504
859.928	4626
860.061	4740
860.194	4767
860.327	4668
860.46	4694
860.592	4736
860.725	4805
860.858	4774
860.99	4714
861.123	4649
861.256	4687
861.388	4725
861.521	5410
861.653	4767
861.786	4733
861.918	4752
862.05	4782
862.183	4862
862.315	4923
862.447	4904
862.58	4881
862.712	4805
862.844	4740
862.976	4873
863.108	4900
863.24	5178
863.372	4828
863.504	4923
863.636	4877
863.768	5014
863.9	4972
864.032	4965
864.164	4999
864.296	5060
864.428	5102
864.559	5155
864.691	5140
864.823	5124
864.954	5132
865.086	5166
865.217	5155
865.349	5143
865.48	5231
865.612	5147
865.743	5288
865.875	5208
866.006	5216
866.137	5246
866.269	5277
866.4	5246
866.531	5261
866.662	5277
866.793	5315
866.924	5280
867.055	5357
867.186	5345
867.317	5345
867.448	5345
867.579	5376
867.71	5368
867.841	5395
867.972	5467
868.103	5474
868.233	5497
868.364	5482
868.495	5539
868.625	5714
868.756	5844
868.886	5649
869.017	5733
869.147	5802
869.278	5878
869.408	5847
869.539	5779
869.669	5973
869.799	5973
869.929	6003
870.06	5996
870.19	6197
870.32	6209
870.45	6361
870.58	6334
870.71	6376
870.84	6475
870.97	6460
871.1	6426
871.23	6582
871.36	6726
871.489	6635
871.619	6772
871.749	6837
871.879	6905
872.008	6977
872.138	6985
872.267	7034
872.397	6932
872.526	6985
872.656	7072
872.785	7293
872.915	7438
873.044	7510
873.173	7597
873.303	7704
873.432	7780
873.561	7852
873.69	7917
873.819	7997
873.948	8225
874.077	8210
874.206	8313
874.335	8465
874.464	8632
874.593	8906
874.722	8910
874.851	9089
874.979	9264
875.108	9332
875.237	9401
875.365	9458
875.494	9656
875.623	9808
875.751	9865
875.88	10025
876.008	10128
876.136	10257
876.265	10535
876.393	10721
876.521	10763
876.65	10809
876.778	10850
876.906	10934
877.034	11022
877.162	11136
877.29	11102
877.418	11364
877.546	11356
877.674	11551
877.802	11467
877.93	11566
878.058	11520
878.185	11600
878.313	11630
878.441	11847
878.568	11718
878.696	11824
878.824	11885
878.951	11969
879.079	12064
879.206	12186
879.333	12102
879.461	11999
879.588	12148
879.715	12136
879.842	12277
879.97	12098
880.097	11882
880.224	11889
880.351	11935
880.478	11927
880.605	11828
880.732	11843
880.859	12015
880.986	11870
881.112	11874
881.239	11805
881.366	11707
881.493	11657
881.619	11433
881.746	11710
881.872	11608
881.999	11486
882.125	11539
882.252	11615
882.378	11482
882.505	11615
882.631	11452
882.757	11353
882.883	11433
883.01	11280
883.136	11201
883.262	11094
883.388	11079
883.514	11197
883.64	11079
883.766	11117
883.892	10911
884.018	11025
884.143	11098
884.269	11064
884.395	10915
884.52	10812
884.646	10771
884.772	10759
884.897	10649
885.023	10790
885.148	10687
885.274	10767
885.399	10607
885.524	10687
885.65	10637
885.775	10630
885.9	10474
886.025	10683
886.15	10573
886.275	10424
886.4	10402
886.525	10363
886.65	10428
886.775	10341
886.9	10504
887.025	10500
887.149	10466
887.274	10204
887.399	10234
887.523	10196
887.648	10101
887.773	10173
887.897	10223
888.021	10295
888.146	10196
888.27	10306
888.395	10261
888.519	10219
888.643	10230
888.767	10246
888.891	10067
889.015	10071
889.139	10055
889.263	9945
889.387	10067
889.511	10177
889.635	10067
889.759	9953
889.883	9926
890.006	10010
890.13	10101
890.254	9926
890.377	9915
890.501	9857
890.624	9903
890.748	9964
890.871	9770
890.995	9751
891.118	9690
891.241	9800
891.364	9797
891.488	9873
891.611	9762
891.734	9743
891.857	9751
891.98	9717
892.103	9705
892.226	9804
892.349	9743
892.471	9515
892.594	9705
892.717	9587
892.839	9641
892.962	9603
893.085	9625
893.207	9568
893.33	9523
893.452	9507
893.575	9576
893.697	9454
893.819	9633
893.941	9614
894.064	9648
894.186	9439
894.308	9473
894.43	9538
894.552	9473
894.674	9515
894.796	9340
894.918	9344
895.04	9336
895.161	9355
895.283	9439
895.405	9245
895.526	9321
895.648	9317
895.769	9279
895.891	9272
896.012	9283
896.134	9218
896.255	9173
896.376	9180
896.498	9165
896.619	9089
896.74	9089
896.861	9173
896.982	9317
897.103	9321
897.224	9214
897.345	9108
897.466	9058
897.587	9020
897.708	9077
897.828	9089
897.949	9017
898.07	8937
898.19	8971
898.311	9017
898.431	8918
898.552	8849
898.672	8960
898.792	8941
898.913	8967
899.033	8861
899.153	8750
899.273	8693
899.393	8632
899.513	8804
899.633	8758
899.753	8720
899.873	8739
899.993	8678
900.113	8678
900.232	8686
900.352	8629
900.472	8571
900.591	8522
900.711	8579
900.83	8568
900.95	8689
901.069	8788
901.189	8571
901.308	8389
901.427	8412
901.546	8450
901.665	8446
901.784	8484
901.904	8412
902.023	8362
902.141	8214
902.26	8221
902.379	8309
902.498	8191
902.617	8164
902.735	8336
902.854	8320
902.973	8339
903.091	8191
903.21	8229
903.328	8164
903.446	8138
903.565	8062
903.683	8153
903.801	8100
903.919	8187
904.038	8073
904.156	8065
904.274	8073
904.392	8016
904.51	8058
904.627	8073
904.745	8092
904.863	8088
904.981	7955
905.098	7852
905.216	7906
905.334	7864
905.451	8001
905.569	7860
905.686	7898
905.803	7925
905.921	7856
906.038	7875
906.155	7864
906.272	7765
906.389	7734
906.506	7662
906.623	7582
906.74	7563
906.857	7548
906.974	7609
907.091	7700
907.208	7689
907.324	7628
907.441	7655
907.557	7468
907.674	7392
907.79	7441
907.907	7419
908.023	7483
908.139	7476
908.256	7411
908.372	7346
908.488	7457
908.604	7209
908.72	7312
908.836	7270
908.952	7282
909.068	7251
909.184	7327
909.3	7331
909.415	7335
909.531	7293
909.647	7129
909.762	7168
909.878	7099
909.993	7088
910.108	7175
910.224	7099
910.339	7088
910.454	7118
910.57	7023
910.685	6913
910.8	7164
910.915	7069
911.03	6981
911.145	6852
911.259	6837
911.374	6905
911.489	6825
911.604	6837
911.718	6684
911.833	6757
911.947	6650
912.062	6642
912.176	6642
912.291	6700
912.405	6715
912.519	6821
912.633	6821
912.748	6688
912.862	6696
912.976	6593
913.09	6593
913.204	6601
913.318	6639
913.431	6669
913.545	6635
913.659	6677
913.772	6673
913.886	6585
914	6585
914.113	6612
914.226	6646
914.34	6616
914.453	6532
914.566	6662
914.68	6528
914.793	6551
914.906	6407
915.019	6376
915.132	6399
915.245	6380
915.358	6448
915.47	6452
915.583	6445
915.696	6498
915.809	6521
915.921	6555
916.034	6388
916.146	6429
916.259	6357
916.371	6494
916.483	6475
916.595	6380
916.708	6422
916.82	6448
916.932	6403
917.044	6391
917.156	6391
917.268	6334
917.38	6327
917.491	6292
917.603	6365
917.715	6429
917.826	6410
917.938	6346
918.049	6239
918.161	6323
918.272	6388
918.384	6464
918.495	6334
918.606	6258
918.717	6220
918.828	6292
918.939	6334
919.05	6243
919.161	6251
919.272	6144
919.383	6140
919.494	6296
919.604	6429
919.715	6277
919.826	6235
919.936	6243
920.047	6388
920.157	6182
920.267	6433
920.378	6331
920.488	6300
920.598	6521
920.708	6559
920.818	6475
920.928	6422
921.038	6574
921.148	6585
921.258	6372
921.368	6353
921.477	6273
921.587	6209
921.697	6083
921.806	6232
921.916	6064
922.025	5954
922.134	5927
922.244	5878
922.353	5939
922.462	5832
922.571	5824
922.68	5703
922.789	5638
922.898	5764
923.007	5642
923.116	5703
923.224	5668
923.333	5634
923.442	5604
923.55	5528
923.659	5623
923.767	5604
923.876	5562
923.984	5634
924.092	5509
924.201	5581
924.309	5505
924.417	5551
924.525	5512
924.633	5512
924.741	6220
924.849	5436
924.956	5440
925.064	5372
925.172	5341
925.279	5315
925.387	5341
925.494	5326
925.602	5444
925.709	5417
925.816	5299
925.924	5303
926.031	5402
926.138	5330
926.245	5360
926.352	5261
926.459	5383
926.566	5330
926.673	5216
926.779	5155
926.886	5094
926.993	5045
927.099	5022
927.206	4980
927.312	5014
927.419	5037
927.525	5010
927.631	5003
927.737	4927
927.843	4896
927.95	4812
928.056	4824
928.162	4831
928.267	4908
928.373	5349
928.479	4881
928.585	4622
928.69	4744
928.796	4767
928.901	4717
929.007	4611
929.112	4694
929.218	4626
929.323	4622
929.428	4592
929.533	4656
929.638	4580
929.743	4550
929.848	4584
929.953	4508
930.058	4432
930.163	4352
930.267	4314
930.372	4443
930.477	4268
930.581	4554
930.685	4344
930.79	4291
930.894	4284
930.998	4276
931.103	4413
931.207	4128
931.311	4078
931.415	4074
931.519	3926
931.623	3987
