Data from glass_V78500241_1246.txt Node
Date: Wed Sep 01 19:23:08 CST 2021
User: usil
Spectrometer: V785-0024
Trigger mode: 0
Integration Time (sec): 4.000000E-1
Scans to average: 1
Nonlinearity correction enabled: false
Boxcar width: 0
Storing dark spectrum: false
XAxis mode: Wavelengths
Number of Pixels in Spectrum: 1024
>>>>>Begin Spectral Data<<<<<
801.071	3755
801.214	3751
801.356	3713
801.499	3751
801.641	3759
801.783	3789
801.926	3873
802.068	3869
802.211	3827
802.353	3876
802.496	3838
802.638	3880
802.78	3915
802.923	3949
803.065	3831
803.208	3835
803.35	3873
803.492	3888
803.635	3892
803.777	3793
803.919	3892
804.061	4158
804.204	3934
804.346	3911
804.488	3880
804.63	4055
804.773	3983
804.915	4002
805.057	4131
805.199	4044
805.341	4109
805.483	4169
805.626	4143
805.768	4162
805.91	4200
806.052	4211
806.194	4177
806.336	4379
806.478	4230
806.62	4227
806.762	4207
806.904	4234
807.046	4360
807.188	4242
807.33	4215
807.472	4276
807.614	4192
807.756	4272
807.898	4227
808.04	4219
808.182	4280
808.324	4337
808.465	4394
808.607	4432
808.749	4428
808.891	4493
809.033	4451
809.174	4352
809.316	4265
809.458	4261
809.6	4139
809.741	4105
809.883	4185
810.025	4211
810.166	4253
810.308	4227
810.45	4265
810.591	4223
810.733	4280
810.875	4531
811.016	4820
811.158	5128
811.299	5303
811.441	5265
811.582	5094
811.724	4687
811.865	4466
812.007	4455
812.148	4447
812.29	4466
812.431	4421
812.573	4424
812.714	4443
812.855	4455
812.997	4436
813.138	4466
813.279	4421
813.421	4402
813.562	4348
813.703	4379
813.845	4333
813.986	4249
814.127	4223
814.268	4295
814.41	4280
814.551	4234
814.692	4314
814.833	4303
814.974	4333
815.115	4394
815.256	4306
815.397	4253
815.539	4257
815.68	4253
815.821	4257
815.962	4363
816.103	4291
816.244	4249
816.385	4238
816.526	4322
816.666	4211
816.807	4139
816.948	4166
817.089	4177
817.23	4074
817.371	4071
817.512	4093
817.653	4082
817.793	4040
817.934	4032
818.075	4105
818.216	4154
818.356	4109
818.497	4044
818.638	3892
818.778	3934
818.919	3896
819.06	3915
819.2	3956
819.341	3819
819.481	3819
819.622	3892
819.762	4025
819.903	3903
820.043	3888
820.184	3846
820.324	3835
820.465	3918
820.605	3861
820.746	3880
820.886	3800
821.026	3941
821.167	3899
821.307	3983
821.447	4006
821.588	4002
821.728	3907
821.868	3975
822.008	3884
822.149	3911
822.289	3907
822.429	3827
822.569	3755
822.709	3793
822.849	3747
822.99	3705
823.13	3762
823.27	3762
823.41	3724
823.55	3743
823.69	3755
823.83	3701
823.97	3675
824.11	3618
824.25	3614
824.389	3641
824.529	3701
824.669	3679
824.809	3747
824.949	3759
825.089	3736
825.228	3682
825.368	3553
825.508	3622
825.648	3549
825.787	3633
825.927	3618
826.067	3614
826.206	3690
826.346	3781
826.485	3831
826.625	3865
826.765	3915
826.904	3812
827.044	3656
827.183	3599
827.323	3450
827.462	3492
827.601	3447
827.741	3431
827.88	3443
828.02	3389
828.159	3469
828.298	3504
828.437	3557
828.577	3469
828.716	3603
828.855	3496
828.994	3374
829.134	3367
829.273	3374
829.412	3386
829.551	3325
829.69	3405
829.829	3473
829.968	3500
830.107	3443
830.246	3431
830.385	3401
830.524	3340
830.663	3298
830.802	3268
830.941	3211
831.08	3230
831.219	3298
831.357	3256
831.496	3431
831.635	3233
831.774	3230
831.913	3214
832.051	3146
832.19	3161
832.329	3230
832.467	3138
832.606	3074
832.744	3154
832.883	3165
833.022	3195
833.16	3268
833.299	3313
833.437	3317
833.576	3416
833.714	3416
833.852	3450
833.991	3492
834.129	3435
834.267	3462
834.406	3401
834.544	3409
834.682	3454
834.821	3435
834.959	3584
835.097	3454
835.235	3485
835.373	3496
835.511	3530
835.65	3462
835.788	3496
835.926	3355
836.064	3386
836.202	3409
836.34	3580
836.478	3587
836.615	3568
836.753	3606
836.891	3625
837.029	3606
837.167	3538
837.305	3557
837.443	3549
837.58	3530
837.718	3591
837.856	3553
837.993	3542
838.131	3614
838.269	3576
838.406	3568
838.544	3561
838.681	3485
838.819	3466
838.956	3367
839.094	3420
839.231	3431
839.369	3523
839.506	3740
839.643	3629
839.781	3515
839.918	3447
840.055	3534
840.193	3545
840.33	3534
840.467	3591
840.604	3603
840.742	3861
840.879	3530
841.016	3553
841.153	3622
841.29	3762
841.427	3709
841.564	3747
841.701	3747
841.838	3709
841.975	3679
842.112	3751
842.249	3667
842.385	3648
842.522	3876
842.659	3686
842.796	3679
842.933	3720
843.069	3743
843.206	3732
843.343	3831
843.479	3778
843.616	3808
843.752	3682
843.889	3698
844.025	3861
844.162	3705
844.298	3865
844.435	3778
844.571	3797
844.708	3960
844.844	3972
844.98	4051
845.117	4040
845.253	3926
845.389	3956
845.525	3998
845.661	3991
845.798	3949
845.934	4017
846.07	3972
846.206	4059
846.342	4135
846.478	4147
846.614	3994
846.75	3937
846.886	3880
847.022	4040
847.158	3994
847.294	3991
847.429	4044
847.565	3998
847.701	4211
847.837	3869
847.972	3838
848.108	3994
848.244	3991
848.379	3854
848.515	3838
848.65	3755
848.786	3861
848.921	3835
849.057	3945
849.192	3968
849.328	3930
849.463	3907
849.598	3884
849.734	3873
849.869	3838
850.004	3812
850.14	3793
850.275	3808
850.41	3774
850.545	3759
850.68	3774
850.815	3759
850.95	3800
851.085	3979
851.22	3884
851.355	3873
851.49	3770
851.625	3785
851.76	3766
851.895	3732
852.03	3770
852.165	3816
852.299	3812
852.434	3934
852.569	3873
852.703	3865
852.838	3903
852.973	4002
853.107	3972
853.242	3899
853.376	3888
853.511	3785
853.645	3888
853.78	3979
853.914	3903
854.048	3854
854.183	3876
854.317	3968
854.451	4074
854.585	3926
854.72	3956
854.854	4036
854.988	3934
855.122	4017
855.256	3964
855.39	4021
855.524	4105
855.658	4074
855.792	4131
855.926	4139
856.06	4181
856.194	4219
856.327	4120
856.461	4112
856.595	4128
856.729	4196
856.862	4314
856.996	4223
857.13	4325
857.263	4352
857.397	4383
857.53	4253
857.664	4394
857.797	4421
857.931	4451
858.064	4432
858.197	4474
858.331	4413
858.464	4421
858.597	4405
858.731	4451
858.864	4421
858.997	4474
859.13	4558
859.263	4504
859.396	4565
859.529	4519
859.662	4538
859.795	4550
859.928	4634
860.061	4672
860.194	4744
860.327	4649
860.46	4679
860.592	4748
860.725	4774
860.858	4767
860.99	4702
861.123	4698
861.256	4672
861.388	4763
861.521	5425
861.653	4759
861.786	4721
861.918	4759
862.05	4767
862.183	4828
862.315	4892
862.447	4949
862.58	4908
862.712	4858
862.844	4782
862.976	4824
863.108	4915
863.24	5162
863.372	4835
863.504	4961
863.636	4881
863.768	4968
863.9	4961
864.032	4949
864.164	4938
864.296	5052
864.428	5128
864.559	5098
864.691	5132
864.823	5132
864.954	5143
865.086	5117
865.217	5143
865.349	5143
865.48	5178
865.612	5212
865.743	5273
865.875	5197
866.006	5208
866.137	5174
866.269	5246
866.4	5254
866.531	5223
866.662	5212
866.793	5273
866.924	5311
867.055	5349
867.186	5395
867.317	5360
867.448	5315
867.579	5452
867.71	5353
867.841	5379
867.972	5490
868.103	5448
868.233	5497
868.364	5535
868.495	5520
868.625	5615
868.756	5767
868.886	5722
869.017	5722
869.147	5840
869.278	5855
869.408	5790
869.539	5798
869.669	5958
869.799	5893
869.929	6041
870.06	6079
870.19	6182
870.32	6194
870.45	6228
870.58	6395
870.71	6422
870.84	6452
870.97	6342
871.1	6399
871.23	6688
871.36	6662
871.489	6741
871.619	6768
871.749	6795
871.879	6867
872.008	7034
872.138	6973
872.267	7023
872.397	7012
872.526	6989
872.656	7122
872.785	7209
872.915	7400
873.044	7544
873.173	7559
873.303	7605
873.432	7727
873.561	7864
873.69	7883
873.819	7989
873.948	8214
874.077	8233
874.206	8347
874.335	8415
874.464	8678
874.593	8845
874.722	8872
874.851	9135
874.979	9283
875.108	9302
875.237	9462
875.365	9458
875.494	9682
875.623	9846
875.751	9831
875.88	10086
876.008	10044
876.136	10272
876.265	10516
876.393	10645
876.521	10702
876.65	10824
876.778	10881
876.906	10911
877.034	10961
877.162	11204
877.29	11197
877.418	11273
877.546	11414
877.674	11398
877.802	11562
877.93	11577
878.058	11551
878.185	11478
878.313	11665
878.441	11760
878.568	11790
878.696	11767
878.824	11824
878.951	11904
879.079	12007
879.206	12148
879.333	12045
879.461	11950
879.588	12079
879.715	12155
879.842	12216
879.97	12110
880.097	11939
880.224	11866
880.351	11920
880.478	11904
880.605	11870
880.732	11828
880.859	11992
880.986	11726
881.112	11805
881.239	11691
881.366	11672
881.493	11566
881.619	11600
881.746	11596
881.872	11467
881.999	11493
882.125	11448
882.252	11577
882.378	11524
882.505	11478
882.631	11383
882.757	11322
882.883	11349
883.01	11265
883.136	11193
883.262	11113
883.388	11098
883.514	11201
883.64	11170
883.766	11098
883.892	10968
884.018	11083
884.143	11113
884.269	11109
884.395	10873
884.52	10778
884.646	10740
884.772	10702
884.897	10721
885.023	10748
885.148	10710
885.274	10847
885.399	10752
885.524	10618
885.65	10634
885.775	10550
885.9	10577
886.025	10588
886.15	10523
886.275	10516
886.4	10352
886.525	10481
886.65	10455
886.775	10280
886.9	10523
887.025	10580
887.149	10322
887.274	10253
887.399	10276
887.523	10230
887.648	10082
887.773	10215
887.897	10230
888.021	10207
888.146	10196
888.27	10188
888.395	10238
888.519	10185
888.643	10128
888.767	10131
888.891	10101
889.015	9998
889.139	10109
889.263	10055
889.387	10112
889.511	10090
889.635	10120
889.759	9907
889.883	9953
890.006	9998
890.13	10101
890.254	10002
890.377	10002
890.501	9846
890.624	9884
890.748	9892
890.871	9842
890.995	9793
891.118	9663
891.241	9751
891.364	9774
891.488	9865
891.611	9766
891.734	9694
891.857	9823
891.98	9720
892.103	9766
892.226	9751
892.349	9667
892.471	9473
892.594	9572
892.717	9603
892.839	9530
892.962	9538
893.085	9648
893.207	9542
893.33	9606
893.452	9469
893.575	9629
893.697	9561
893.819	9576
893.941	9587
894.064	9656
894.186	9443
894.308	9431
894.43	9549
894.552	9564
894.674	9561
894.796	9401
894.918	9378
895.04	9370
895.161	9443
895.283	9306
895.405	9233
895.526	9199
895.648	9287
895.769	9249
895.891	9298
896.012	9294
896.134	9222
896.255	9180
896.376	9135
896.498	9199
896.619	9169
896.74	9146
896.861	9146
896.982	9325
897.103	9367
897.224	9176
897.345	9001
897.466	9005
897.587	9024
897.708	9070
897.828	9005
897.949	9020
898.07	8834
898.19	8899
898.311	9032
898.431	8853
898.552	8918
898.672	9005
898.792	8990
898.913	8883
899.033	8800
899.153	8739
899.273	8720
899.393	8708
899.513	8796
899.633	8788
899.753	8727
899.873	8712
899.993	8762
900.113	8746
900.232	8758
900.352	8621
900.472	8648
900.591	8568
900.711	8606
900.83	8552
900.95	8651
901.069	8712
901.189	8651
901.308	8423
901.427	8404
901.546	8457
901.665	8473
901.784	8621
901.904	8400
902.023	8290
902.141	8301
902.26	8199
902.379	8275
902.498	8225
902.617	8206
902.735	8305
902.854	8298
902.973	8237
903.091	8073
903.21	8180
903.328	8176
903.446	8153
903.565	8046
903.683	8126
903.801	8062
903.919	8176
904.038	8138
904.156	8020
904.274	8130
904.392	8058
904.51	8035
904.627	8020
904.745	8058
904.863	8027
904.981	7970
905.098	7906
905.216	7860
905.334	7917
905.451	7860
905.569	7925
905.686	7917
905.803	7875
905.921	7803
906.038	7917
906.155	7875
906.272	7693
906.389	7776
906.506	7681
906.623	7677
906.74	7609
906.857	7548
906.974	7571
907.091	7708
907.208	7696
907.324	7662
907.441	7613
907.557	7426
907.674	7464
907.79	7449
907.907	7441
908.023	7460
908.139	7460
908.256	7422
908.372	7339
908.488	7331
908.604	7247
908.72	7240
908.836	7301
908.952	7213
909.068	7221
909.184	7354
909.3	7247
909.415	7324
909.531	7255
909.647	7129
909.762	7099
909.878	7110
909.993	7179
910.108	7107
910.224	7069
910.339	7114
910.454	7080
910.57	7004
910.685	7015
910.8	7175
910.915	7069
911.03	6985
911.145	6882
911.259	6890
911.374	6932
911.489	6840
911.604	6829
911.718	6711
911.833	6791
911.947	6715
912.062	6692
912.176	6726
912.291	6745
912.405	6738
912.519	6806
912.633	6833
912.748	6757
912.862	6665
912.976	6662
913.09	6509
913.204	6589
913.318	6570
913.431	6612
913.545	6749
913.659	6772
913.772	6673
913.886	6623
914	6528
914.113	6601
914.226	6627
914.34	6608
914.453	6513
914.566	6566
914.68	6490
914.793	6467
914.906	6437
915.019	6426
915.132	6388
915.245	6422
915.358	6437
915.47	6376
915.583	6456
915.696	6513
915.809	6566
915.921	6551
916.034	6399
916.146	6437
916.259	6391
916.371	6513
916.483	6403
916.595	6403
916.708	6395
916.82	6388
916.932	6319
917.044	6353
917.156	6407
917.268	6391
917.38	6399
917.491	6338
917.603	6388
917.715	6441
917.826	6426
917.938	6410
918.049	6209
918.161	6304
918.272	6410
918.384	6471
918.495	6342
918.606	6285
918.717	6228
918.828	6270
918.939	6266
919.05	6163
919.161	6235
919.272	6167
919.383	6194
919.494	6289
919.604	6464
919.715	6285
919.826	6273
919.936	6273
920.047	6361
920.157	6308
920.267	6479
920.378	6292
920.488	6292
920.598	6498
920.708	6601
920.818	6574
920.928	6540
921.038	6597
921.148	6608
921.258	6395
921.368	6300
921.477	6232
921.587	6194
921.697	6049
921.806	6178
921.916	6076
922.025	5977
922.134	5965
922.244	5958
922.353	5999
922.462	5901
922.571	5809
922.68	5699
922.789	5699
922.898	5767
923.007	5661
923.116	5726
923.224	5642
923.333	5653
923.442	5562
923.55	5589
923.659	5566
923.767	5688
923.876	5528
923.984	5623
924.092	5493
924.201	5547
924.309	5562
924.417	5493
924.525	5482
924.633	5505
924.741	6311
924.849	5395
924.956	5486
925.064	5337
925.172	5326
925.279	5402
925.387	5353
925.494	5330
925.602	5421
925.709	5429
925.816	5284
925.924	5372
926.031	5440
926.138	5307
926.245	5349
926.352	5265
926.459	5345
926.566	5349
926.673	5201
926.779	5159
926.886	5067
926.993	5067
927.099	5022
927.206	4949
927.312	4946
927.419	5018
927.525	4999
927.631	4991
927.737	4904
927.843	4862
927.95	4763
928.056	4866
928.162	4816
928.267	4847
928.373	5341
928.479	4835
928.585	4626
928.69	4809
928.796	4748
928.901	4702
929.007	4607
929.112	4641
929.218	4630
929.323	4596
929.428	4588
929.533	4687
929.638	4527
929.743	4538
929.848	4554
929.953	4542
930.058	4421
930.163	4325
930.267	4383
930.372	4428
930.477	4348
930.581	4497
930.685	4390
930.79	4249
930.894	4322
930.998	4276
931.103	4394
931.207	4169
931.311	4112
931.415	4055
931.519	3937
931.623	3953
