Data from glass_V78500241_2304.txt Node
Date: Wed Sep 01 19:30:28 CST 2021
User: usil
Spectrometer: V785-0024
Trigger mode: 0
Integration Time (sec): 4.000000E-1
Scans to average: 1
Nonlinearity correction enabled: false
Boxcar width: 0
Storing dark spectrum: false
XAxis mode: Wavelengths
Number of Pixels in Spectrum: 1024
>>>>>Begin Spectral Data<<<<<
801.071	3667
801.214	3732
801.356	3728
801.499	3789
801.641	3728
801.783	3781
801.926	3880
802.068	3827
802.211	3816
802.353	3876
802.496	3854
802.638	3873
802.78	3884
802.923	3930
803.065	3873
803.208	3827
803.35	3861
803.492	3861
803.635	3876
803.777	3800
803.919	3918
804.061	4143
804.204	3972
804.346	3956
804.488	3926
804.63	3975
804.773	3975
804.915	4021
805.057	4082
805.199	4063
805.341	4063
805.483	4120
805.626	4131
805.768	4112
805.91	4181
806.052	4242
806.194	4185
806.336	4363
806.478	4207
806.62	4188
806.762	4196
806.904	4246
807.046	4337
807.188	4211
807.33	4188
807.472	4192
807.614	4215
807.756	4215
807.898	4204
808.04	4227
808.182	4246
808.324	4352
808.465	4363
808.607	4428
808.749	4424
808.891	4447
809.033	4485
809.174	4379
809.316	4227
809.458	4280
809.6	4093
809.741	4131
809.883	4135
810.025	4246
810.166	4204
810.308	4185
810.45	4257
810.591	4227
810.733	4284
810.875	4516
811.016	4805
811.158	5079
811.299	5227
811.441	5307
811.582	5056
811.724	4672
811.865	4466
812.007	4455
812.148	4447
812.29	4424
812.431	4436
812.573	4386
812.714	4371
812.855	4379
812.997	4386
813.138	4459
813.279	4436
813.421	4379
813.562	4356
813.703	4314
813.845	4303
813.986	4253
814.127	4162
814.268	4227
814.41	4299
814.551	4227
814.692	4322
814.833	4207
814.974	4291
815.115	4310
815.256	4249
815.397	4249
815.539	4257
815.68	4219
815.821	4200
815.962	4314
816.103	4291
816.244	4238
816.385	4188
816.526	4261
816.666	4223
816.807	4097
816.948	4101
817.089	4131
817.23	4173
817.371	4090
817.512	4044
817.653	4051
817.793	3998
817.934	4021
818.075	4093
818.216	4082
818.356	4059
818.497	3987
818.638	3899
818.778	3911
818.919	3934
819.06	3869
819.2	3956
819.341	3857
819.481	3838
819.622	3884
819.762	4017
819.903	3949
820.043	3842
820.184	3861
820.324	3808
820.465	3838
820.605	3861
820.746	3827
820.886	3778
821.026	3876
821.167	3911
821.307	3972
821.447	3983
821.588	3941
821.728	3941
821.868	3899
822.008	3857
822.149	3937
822.289	3888
822.429	3740
822.569	3759
822.709	3835
822.849	3698
822.99	3701
823.13	3785
823.27	3793
823.41	3705
823.55	3690
823.69	3698
823.83	3759
823.97	3637
824.11	3591
824.25	3622
824.389	3637
824.529	3644
824.669	3656
824.809	3720
824.949	3717
825.089	3732
825.228	3682
825.368	3591
825.508	3549
825.648	3549
825.787	3606
825.927	3618
826.067	3637
826.206	3648
826.346	3755
826.485	3842
826.625	3831
826.765	3953
826.904	3808
827.044	3625
827.183	3526
827.323	3443
827.462	3443
827.601	3431
827.741	3401
827.88	3469
828.02	3370
828.159	3473
828.298	3462
828.437	3496
828.577	3420
828.716	3595
828.855	3500
828.994	3370
829.134	3359
829.273	3348
829.412	3359
829.551	3275
829.69	3416
829.829	3424
829.968	3481
830.107	3409
830.246	3458
830.385	3386
830.524	3359
830.663	3302
830.802	3275
830.941	3188
831.08	3203
831.219	3279
831.357	3214
831.496	3374
831.635	3211
831.774	3249
831.913	3226
832.051	3142
832.19	3146
832.329	3195
832.467	3157
832.606	3062
832.744	3127
832.883	3146
833.022	3188
833.16	3230
833.299	3283
833.437	3332
833.576	3329
833.714	3386
833.852	3435
833.991	3450
834.129	3469
834.267	3447
834.406	3405
834.544	3439
834.682	3405
834.821	3386
834.959	3568
835.097	3397
835.235	3511
835.373	3466
835.511	3511
835.65	3462
835.788	3469
835.926	3397
836.064	3348
836.202	3416
836.34	3561
836.478	3618
836.615	3488
836.753	3553
836.891	3610
837.029	3618
837.167	3614
837.305	3530
837.443	3553
837.58	3488
837.718	3564
837.856	3561
837.993	3584
838.131	3599
838.269	3576
838.406	3584
838.544	3564
838.681	3439
838.819	3435
838.956	3367
839.094	3409
839.231	3424
839.369	3530
839.506	3720
839.643	3603
839.781	3504
839.918	3454
840.055	3526
840.193	3515
840.33	3511
840.467	3549
840.604	3610
840.742	3778
840.879	3538
841.016	3553
841.153	3580
841.29	3724
841.427	3686
841.564	3728
841.701	3759
841.838	3652
841.975	3656
842.112	3709
842.249	3625
842.385	3591
842.522	3846
842.659	3682
842.796	3652
842.933	3690
843.069	3690
843.206	3705
843.343	3797
843.479	3751
843.616	3778
843.752	3732
843.889	3671
844.025	3846
844.162	3736
844.298	3804
844.435	3804
844.571	3785
844.708	3937
844.844	3979
844.98	3998
845.117	4029
845.253	3896
845.389	3907
845.525	3956
845.661	3972
845.798	3907
845.934	3945
846.07	3873
846.206	4048
846.342	4131
846.478	4025
846.614	3994
846.75	3903
846.886	3915
847.022	4006
847.158	3964
847.294	4017
847.429	4059
847.565	3983
847.701	4227
847.837	3865
847.972	3835
848.108	3987
848.244	3934
848.379	3838
848.515	3781
848.65	3850
848.786	3819
848.921	3816
849.057	3896
849.192	3892
849.328	3869
849.463	3926
849.598	3888
849.734	3808
849.869	3831
850.004	3747
850.14	3793
850.275	3808
850.41	3701
850.545	3728
850.68	3770
850.815	3804
850.95	3770
851.085	3941
851.22	3850
851.355	3800
851.49	3751
851.625	3762
851.76	3789
851.895	3701
852.03	3724
852.165	3812
852.299	3842
852.434	3896
852.569	3846
852.703	3873
852.838	3915
852.973	4010
853.107	3930
853.242	3850
853.376	3838
853.511	3800
853.645	3835
853.78	3949
853.914	3899
854.048	3873
854.183	3869
854.317	3934
854.451	4059
854.585	3934
854.72	3964
854.854	4017
854.988	3987
855.122	3998
855.256	3918
855.39	4013
855.524	4128
855.658	4097
855.792	4135
855.926	4059
856.06	4200
856.194	4211
856.327	4162
856.461	4109
856.595	4124
856.729	4112
856.862	4268
856.996	4287
857.13	4253
857.263	4325
857.397	4310
857.53	4337
857.664	4333
857.797	4398
857.931	4409
858.064	4379
858.197	4432
858.331	4360
858.464	4421
858.597	4325
858.731	4394
858.864	4459
858.997	4402
859.13	4554
859.263	4519
859.396	4561
859.529	4519
859.662	4523
859.795	4523
859.928	4573
860.061	4675
860.194	4763
860.327	4660
860.46	4683
860.592	4675
860.725	4744
860.858	4752
860.99	4660
861.123	4660
861.256	4763
861.388	4763
861.521	5425
861.653	4702
861.786	4683
861.918	4717
862.05	4782
862.183	4824
862.315	4862
862.447	4923
862.58	4885
862.712	4771
862.844	4752
862.976	4854
863.108	4839
863.24	5162
863.372	4839
863.504	4942
863.636	4877
863.768	4965
863.9	4980
864.032	4953
864.164	4934
864.296	5025
864.428	5067
864.559	5056
864.691	5098
864.823	5216
864.954	5075
865.086	5105
865.217	5090
865.349	5105
865.48	5128
865.612	5235
865.743	5258
865.875	5155
866.006	5197
866.137	5174
866.269	5227
866.4	5254
866.531	5220
866.662	5201
866.793	5258
866.924	5299
867.055	5326
867.186	5307
867.317	5330
867.448	5326
867.579	5395
867.71	5372
867.841	5376
867.972	5421
868.103	5402
868.233	5490
868.364	5486
868.495	5547
868.625	5707
868.756	5794
868.886	5657
869.017	5726
869.147	5859
869.278	5779
869.408	5790
869.539	5851
869.669	5927
869.799	5916
869.929	5954
870.06	5984
870.19	6178
870.32	6178
870.45	6178
870.58	6353
870.71	6357
870.84	6433
870.97	6384
871.1	6410
871.23	6604
871.36	6677
871.489	6673
871.619	6711
871.749	6749
871.879	6833
872.008	6966
872.138	6939
872.267	7042
872.397	6993
872.526	7053
872.656	7038
872.785	7187
872.915	7343
873.044	7544
873.173	7548
873.303	7571
873.432	7757
873.561	7902
873.69	7879
873.819	8008
873.948	8180
874.077	8191
874.206	8358
874.335	8415
874.464	8674
874.593	8891
874.722	8910
874.851	9058
874.979	9264
875.108	9253
875.237	9382
875.365	9477
875.494	9625
875.623	9808
875.751	9846
875.88	10051
876.008	10204
876.136	10227
876.265	10527
876.393	10649
876.521	10687
876.65	10820
876.778	10839
876.906	10911
877.034	10972
877.162	11113
877.29	11227
877.418	11322
877.546	11425
877.674	11414
877.802	11467
877.93	11512
878.058	11615
878.185	11532
878.313	11684
878.441	11764
878.568	11714
878.696	11809
878.824	11813
878.951	11874
879.079	11996
879.206	12095
879.333	12045
879.461	12057
879.588	12068
879.715	12091
879.842	12228
879.97	12041
880.097	11923
880.224	11866
880.351	11870
880.478	11908
880.605	11866
880.732	11836
880.859	11950
880.986	11821
881.112	11805
881.239	11718
881.366	11680
881.493	11592
881.619	11490
881.746	11493
881.872	11463
881.999	11421
882.125	11490
882.252	11516
882.378	11512
882.505	11516
882.631	11433
882.757	11334
882.883	11303
883.01	11303
883.136	11197
883.262	11151
883.388	11105
883.514	11159
883.64	11143
883.766	11018
883.892	10942
884.018	11048
884.143	10984
884.269	11045
884.395	10854
884.52	10725
884.646	10828
884.772	10710
884.897	10691
885.023	10714
885.148	10774
885.274	10706
885.399	10634
885.524	10706
885.65	10588
885.775	10527
885.9	10592
886.025	10573
886.15	10474
886.275	10470
886.4	10379
886.525	10375
886.65	10367
886.775	10352
886.9	10546
887.025	10538
887.149	10280
887.274	10139
887.399	10272
887.523	10143
887.648	10162
887.773	10109
887.897	10261
888.021	10188
888.146	10105
888.27	10268
888.395	10253
888.519	10242
888.643	10059
888.767	10192
888.891	9941
889.015	9949
889.139	10086
889.263	9922
889.387	9979
889.511	10071
889.635	10021
889.759	9926
889.883	9964
890.006	9937
890.13	10055
890.254	9907
890.377	9934
890.501	9800
890.624	9869
890.748	9960
890.871	9747
890.995	9728
891.118	9766
891.241	9709
891.364	9705
891.488	9819
891.611	9709
891.734	9774
891.857	9797
891.98	9717
892.103	9705
892.226	9663
892.349	9637
892.471	9507
892.594	9610
892.717	9538
892.839	9622
892.962	9603
893.085	9690
893.207	9572
893.33	9515
893.452	9542
893.575	9534
893.697	9431
893.819	9652
893.941	9580
894.064	9606
894.186	9473
894.308	9386
894.43	9523
894.552	9564
894.674	9515
894.796	9313
894.918	9378
895.04	9389
895.161	9325
895.283	9363
895.405	9253
895.526	9249
895.648	9207
895.769	9199
895.891	9226
896.012	9214
896.134	9188
896.255	9211
896.376	9123
896.498	9161
896.619	9089
896.74	9074
896.861	9157
896.982	9184
897.103	9428
897.224	9108
897.345	9062
897.466	9058
897.587	9009
897.708	9066
897.828	9032
897.949	8941
898.07	8823
898.19	8967
898.311	8994
898.431	8838
898.552	8872
898.672	8967
898.792	8929
898.913	8906
899.033	8750
899.153	8819
899.273	8689
899.393	8716
899.513	8766
899.633	8693
899.753	8727
899.873	8655
899.993	8785
900.113	8712
900.232	8697
900.352	8632
900.472	8655
900.591	8541
900.711	8583
900.83	8503
900.95	8598
901.069	8667
901.189	8594
901.308	8431
901.427	8473
901.546	8419
901.665	8465
901.784	8552
901.904	8332
902.023	8412
902.141	8210
902.26	8214
902.379	8317
902.498	8229
902.617	8119
902.735	8305
902.854	8237
902.973	8271
903.091	8119
903.21	8077
903.328	8164
903.446	8119
903.565	8123
903.683	8039
903.801	8073
903.919	8111
904.038	8084
904.156	8005
904.274	8084
904.392	7974
904.51	8050
904.627	7932
904.745	8024
904.863	7982
904.981	7963
905.098	7837
905.216	7841
905.334	7849
905.451	7921
905.569	7868
905.686	7849
905.803	7909
905.921	7757
906.038	7830
906.155	7788
906.272	7670
906.389	7731
906.506	7597
906.623	7708
906.74	7594
906.857	7499
906.974	7559
907.091	7636
907.208	7742
907.324	7624
907.441	7556
907.557	7445
907.674	7464
907.79	7377
907.907	7441
908.023	7445
908.139	7407
908.256	7400
908.372	7339
908.488	7373
908.604	7255
908.72	7206
908.836	7244
908.952	7244
909.068	7259
909.184	7316
909.3	7263
909.415	7270
909.531	7278
909.647	7080
909.762	7072
909.878	7099
909.993	7091
910.108	7129
910.224	7099
910.339	7080
910.454	7057
910.57	6973
910.685	6913
910.8	7187
910.915	7107
911.03	7046
911.145	6916
911.259	6844
911.374	6897
911.489	6844
911.604	6802
911.718	6722
911.833	6749
911.947	6665
912.062	6616
912.176	6700
912.291	6711
912.405	6673
912.519	6897
912.633	6776
912.748	6703
912.862	6646
912.976	6585
913.09	6551
913.204	6574
913.318	6536
913.431	6719
913.545	6703
913.659	6620
913.772	6604
913.886	6597
914	6570
914.113	6608
914.226	6623
914.34	6601
914.453	6551
914.566	6601
914.68	6452
914.793	6555
914.906	6452
915.019	6380
915.132	6403
915.245	6395
915.358	6448
915.47	6369
915.583	6456
915.696	6475
915.809	6483
915.921	6521
916.034	6448
916.146	6403
916.259	6342
916.371	6426
916.483	6441
916.595	6380
916.708	6391
916.82	6331
916.932	6380
917.044	6418
917.156	6323
917.268	6334
917.38	6311
917.491	6292
917.603	6342
917.715	6376
917.826	6426
917.938	6300
918.049	6251
918.161	6395
918.272	6448
918.384	6414
918.495	6334
918.606	6266
918.717	6201
918.828	6308
918.939	6270
919.05	6167
919.161	6266
919.272	6076
919.383	6129
919.494	6247
919.604	6376
919.715	6262
919.826	6182
919.936	6273
920.047	6388
920.157	6247
920.267	6437
920.378	6300
920.488	6194
920.598	6422
920.708	6566
920.818	6437
920.928	6429
921.038	6616
921.148	6570
921.258	6315
921.368	6277
921.477	6213
921.587	6064
921.697	6098
921.806	6171
921.916	6076
922.025	5958
922.134	5893
922.244	5939
922.353	5882
922.462	5840
922.571	5764
922.68	5718
922.789	5649
922.898	5729
923.007	5684
923.116	5710
923.224	5695
923.333	5615
923.442	5573
923.55	5486
923.659	5604
923.767	5642
923.876	5573
923.984	5608
924.092	5520
924.201	5539
924.309	5528
924.417	5539
924.525	5505
924.633	5490
924.741	6323
924.849	5383
924.956	5433
925.064	5410
925.172	5326
925.279	5284
925.387	5315
925.494	5311
925.602	5402
925.709	5368
925.816	5269
925.924	5292
926.031	5341
926.138	5273
926.245	5330
926.352	5227
926.459	5292
926.566	5261
926.673	5227
926.779	5098
926.886	5067
926.993	5006
927.099	4980
927.206	4927
927.312	4980
927.419	5018
927.525	5006
927.631	4949
927.737	4911
927.843	4862
927.95	4729
928.056	4816
928.162	4873
928.267	4801
928.373	5383
928.479	4797
928.585	4660
928.69	4736
928.796	4736
928.901	4687
929.007	4588
929.112	4694
929.218	4634
929.323	4580
929.428	4519
929.533	4729
929.638	4554
929.743	4561
929.848	4535
929.953	4512
930.058	4428
930.163	4295
930.267	4337
930.372	4459
930.477	4265
930.581	4424
930.685	4360
930.79	4253
930.894	4238
930.998	4257
931.103	4405
931.207	4105
931.311	4044
931.415	4044
931.519	3922
931.623	3918
