Data from glass_V78500241_1738.txt Node
Date: Wed Sep 01 19:26:32 CST 2021
User: usil
Spectrometer: V785-0024
Trigger mode: 0
Integration Time (sec): 4.000000E-1
Scans to average: 1
Nonlinearity correction enabled: false
Boxcar width: 0
Storing dark spectrum: false
XAxis mode: Wavelengths
Number of Pixels in Spectrum: 1024
>>>>>Begin Spectral Data<<<<<
801.071	3724
801.214	3728
801.356	3686
801.499	3705
801.641	3751
801.783	3781
801.926	3838
802.068	3812
802.211	3865
802.353	3880
802.496	3842
802.638	3888
802.78	3903
802.923	3953
803.065	3907
803.208	3896
803.35	3896
803.492	3899
803.635	3892
803.777	3808
803.919	3899
804.061	4158
804.204	3953
804.346	3956
804.488	3930
804.63	4051
804.773	3964
804.915	4040
805.057	4185
805.199	4002
805.341	4147
805.483	4143
805.626	4166
805.768	4112
805.91	4215
806.052	4188
806.194	4211
806.336	4363
806.478	4234
806.62	4181
806.762	4185
806.904	4188
807.046	4329
807.188	4227
807.33	4188
807.472	4219
807.614	4185
807.756	4257
807.898	4219
808.04	4188
808.182	4265
808.324	4322
808.465	4322
808.607	4493
808.749	4443
808.891	4443
809.033	4459
809.174	4371
809.316	4253
809.458	4242
809.6	4166
809.741	4158
809.883	4150
810.025	4234
810.166	4200
810.308	4265
810.45	4223
810.591	4246
810.733	4284
810.875	4485
811.016	4816
811.158	5155
811.299	5269
811.441	5277
811.582	5060
811.724	4733
811.865	4443
812.007	4462
812.148	4497
812.29	4405
812.431	4402
812.573	4402
812.714	4360
812.855	4409
812.997	4440
813.138	4443
813.279	4390
813.421	4417
813.562	4375
813.703	4352
813.845	4322
813.986	4211
814.127	4234
814.268	4253
814.41	4284
814.551	4272
814.692	4299
814.833	4253
814.974	4314
815.115	4344
815.256	4265
815.397	4196
815.539	4246
815.68	4196
815.821	4207
815.962	4356
816.103	4287
816.244	4204
816.385	4227
816.526	4299
816.666	4192
816.807	4150
816.948	4181
817.089	4162
817.23	4120
817.371	4048
817.512	4063
817.653	4120
817.793	4063
817.934	4025
818.075	4116
818.216	4097
818.356	4097
818.497	4025
818.638	3884
818.778	3941
818.919	3907
819.06	3884
819.2	3972
819.341	3857
819.481	3846
819.622	3911
819.762	4025
819.903	3968
820.043	3888
820.184	3835
820.324	3804
820.465	3907
820.605	3869
820.746	3831
820.886	3819
821.026	3937
821.167	3968
821.307	3983
821.447	3937
821.588	3949
821.728	3960
821.868	3930
822.008	3838
822.149	3892
822.289	3918
822.429	3785
822.569	3762
822.709	3781
822.849	3671
822.99	3705
823.13	3736
823.27	3812
823.41	3728
823.55	3751
823.69	3736
823.83	3747
823.97	3660
824.11	3545
824.25	3679
824.389	3625
824.529	3652
824.669	3606
824.809	3698
824.949	3740
825.089	3717
825.228	3656
825.368	3538
825.508	3584
825.648	3553
825.787	3656
825.927	3644
826.067	3667
826.206	3648
826.346	3759
826.485	3835
826.625	3850
826.765	3922
826.904	3831
827.044	3576
827.183	3530
827.323	3428
827.462	3500
827.601	3412
827.741	3420
827.88	3469
828.02	3378
828.159	3420
828.298	3469
828.437	3553
828.577	3485
828.716	3606
828.855	3526
828.994	3332
829.134	3344
829.273	3397
829.412	3378
829.551	3321
829.69	3393
829.829	3443
829.968	3481
830.107	3409
830.246	3412
830.385	3359
830.524	3329
830.663	3317
830.802	3291
830.941	3188
831.08	3184
831.219	3233
831.357	3275
831.496	3416
831.635	3233
831.774	3218
831.913	3211
832.051	3104
832.19	3131
832.329	3203
832.467	3142
832.606	3112
832.744	3173
832.883	3161
833.022	3218
833.16	3260
833.299	3321
833.437	3344
833.576	3363
833.714	3374
833.852	3435
833.991	3481
834.129	3469
834.267	3469
834.406	3420
834.544	3428
834.682	3416
834.821	3424
834.959	3603
835.097	3412
835.235	3523
835.373	3504
835.511	3488
835.65	3439
835.788	3488
835.926	3374
836.064	3348
836.202	3450
836.34	3591
836.478	3587
836.615	3561
836.753	3610
836.891	3663
837.029	3633
837.167	3561
837.305	3549
837.443	3538
837.58	3469
837.718	3622
837.856	3572
837.993	3523
838.131	3610
838.269	3568
838.406	3614
838.544	3584
838.681	3496
838.819	3439
838.956	3351
839.094	3420
839.231	3431
839.369	3511
839.506	3698
839.643	3591
839.781	3500
839.918	3439
840.055	3549
840.193	3545
840.33	3564
840.467	3538
840.604	3572
840.742	3812
840.879	3523
841.016	3553
841.153	3606
841.29	3728
841.427	3717
841.564	3740
841.701	3759
841.838	3690
841.975	3682
842.112	3736
842.249	3656
842.385	3625
842.522	3880
842.659	3652
842.796	3663
842.933	3713
843.069	3682
843.206	3675
843.343	3804
843.479	3808
843.616	3793
843.752	3675
843.889	3717
844.025	3835
844.162	3705
844.298	3835
844.435	3797
844.571	3747
844.708	3880
844.844	4006
844.98	4029
845.117	3983
845.253	3915
845.389	3956
845.525	3945
845.661	3994
845.798	3956
845.934	4010
846.07	3949
846.206	4021
846.342	4120
846.478	4048
846.614	3979
846.75	3915
846.886	3911
847.022	3975
847.158	3998
847.294	3998
847.429	3987
847.565	3983
847.701	4223
847.837	3880
847.972	3888
848.108	3956
848.244	3953
848.379	3896
848.515	3812
848.65	3835
848.786	3816
848.921	3876
849.057	3956
849.192	3968
849.328	3926
849.463	3934
849.598	3903
849.734	3876
849.869	3804
850.004	3781
850.14	3774
850.275	3804
850.41	3717
850.545	3755
850.68	3838
850.815	3808
850.95	3808
851.085	3930
851.22	3865
851.355	3846
851.49	3797
851.625	3732
851.76	3804
851.895	3724
852.03	3713
852.165	3781
852.299	3819
852.434	3918
852.569	3876
852.703	3838
852.838	3960
852.973	3975
853.107	3945
853.242	3892
853.376	3835
853.511	3785
853.645	3873
853.78	3972
853.914	3934
854.048	3896
854.183	3884
854.317	3926
854.451	4078
854.585	3987
854.72	3918
854.854	4051
854.988	3983
855.122	4002
855.256	3926
855.39	4017
855.524	4124
855.658	4055
855.792	4097
855.926	4169
856.06	4158
856.194	4204
856.327	4109
856.461	4150
856.595	4185
856.729	4150
856.862	4268
856.996	4242
857.13	4314
857.263	4314
857.397	4383
857.53	4268
857.664	4337
857.797	4390
857.931	4405
858.064	4409
858.197	4447
858.331	4390
858.464	4413
858.597	4314
858.731	4432
858.864	4462
858.997	4489
859.13	4500
859.263	4470
859.396	4607
859.529	4569
859.662	4565
859.795	4523
859.928	4588
860.061	4698
860.194	4687
860.327	4683
860.46	4645
860.592	4767
860.725	4736
860.858	4809
860.99	4672
861.123	4641
861.256	4664
861.388	4790
861.521	5379
861.653	4721
861.786	4717
861.918	4733
862.05	4774
862.183	4816
862.315	4885
862.447	4938
862.58	4850
862.712	4790
862.844	4801
862.976	4915
863.108	4892
863.24	5284
863.372	4805
863.504	4904
863.636	4934
863.768	4984
863.9	4961
864.032	4923
864.164	4991
864.296	5083
864.428	5064
864.559	5132
864.691	5117
864.823	5113
864.954	5105
865.086	5174
865.217	5109
865.349	5075
865.48	5132
865.612	5197
865.743	5341
865.875	5181
866.006	5204
866.137	5204
866.269	5212
866.4	5223
866.531	5220
866.662	5246
866.793	5254
866.924	5231
867.055	5296
867.186	5337
867.317	5292
867.448	5296
867.579	5318
867.71	5383
867.841	5360
867.972	5440
868.103	5433
868.233	5501
868.364	5524
868.495	5535
868.625	5676
868.756	5805
868.886	5653
869.017	5718
869.147	5851
869.278	5870
869.408	5779
869.539	5863
869.669	5939
869.799	5882
869.929	5980
870.06	6030
870.19	6194
870.32	6136
870.45	6273
870.58	6304
870.71	6418
870.84	6426
870.97	6456
871.1	6467
871.23	6635
871.36	6692
871.489	6650
871.619	6722
871.749	6772
871.879	6894
872.008	7019
872.138	6989
872.267	7004
872.397	7008
872.526	7038
872.656	7088
872.785	7259
872.915	7354
873.044	7514
873.173	7544
873.303	7681
873.432	7746
873.561	7887
873.69	7921
873.819	8043
873.948	8187
874.077	8202
874.206	8301
874.335	8488
874.464	8629
874.593	8914
874.722	8941
874.851	9112
874.979	9241
875.108	9378
875.237	9367
875.365	9469
875.494	9652
875.623	9762
875.751	9835
875.88	10013
876.008	10169
876.136	10261
876.265	10565
876.393	10763
876.521	10687
876.65	10809
876.778	10904
876.906	10835
877.034	11014
877.162	11075
877.29	11083
877.418	11212
877.546	11391
877.674	11520
877.802	11467
877.93	11493
878.058	11627
878.185	11516
878.313	11649
878.441	11726
878.568	11741
878.696	11847
878.824	11832
878.951	11954
879.079	11977
879.206	12114
879.333	12034
879.461	11950
879.588	12083
879.715	12087
879.842	12308
879.97	12079
880.097	11836
880.224	11901
880.351	11836
880.478	11897
880.605	11828
880.732	11813
880.859	11950
880.986	11882
881.112	11855
881.239	11729
881.366	11718
881.493	11608
881.619	11524
881.746	11535
881.872	11482
881.999	11425
882.125	11444
882.252	11512
882.378	11471
882.505	11566
882.631	11421
882.757	11315
882.883	11402
883.01	11292
883.136	11197
883.262	11124
883.388	11064
883.514	11261
883.64	11178
883.766	11113
883.892	11067
884.018	10999
884.143	10923
884.269	11185
884.395	10839
884.52	10755
884.646	10866
884.772	10706
884.897	10664
885.023	10694
885.148	10744
885.274	10797
885.399	10706
885.524	10641
885.65	10508
885.775	10588
885.9	10577
886.025	10683
886.15	10577
886.275	10436
886.4	10386
886.525	10413
886.65	10402
886.775	10390
886.9	10440
887.025	10512
887.149	10390
887.274	10139
887.399	10139
887.523	10185
887.648	10124
887.773	10105
887.897	10200
888.021	10238
888.146	10162
888.27	10211
888.395	10173
888.519	10219
888.643	10196
888.767	10249
888.891	10044
889.015	10082
889.139	10051
889.263	9991
889.387	10082
889.511	10112
889.635	10048
889.759	10017
889.883	10025
890.006	9968
890.13	10124
890.254	9892
890.377	9960
890.501	9793
890.624	9873
890.748	9850
890.871	9892
890.995	9663
891.118	9724
891.241	9800
891.364	9728
891.488	9880
891.611	9785
891.734	9770
891.857	9854
891.98	9686
892.103	9713
892.226	9709
892.349	9698
892.471	9473
892.594	9507
892.717	9656
892.839	9644
892.962	9682
893.085	9644
893.207	9580
893.33	9462
893.452	9526
893.575	9572
893.697	9420
893.819	9599
893.941	9614
894.064	9606
894.186	9431
894.308	9435
894.43	9553
894.552	9523
894.674	9538
894.796	9359
894.918	9420
895.04	9405
895.161	9374
895.283	9348
895.405	9249
895.526	9249
895.648	9226
895.769	9287
895.891	9237
896.012	9203
896.134	9157
896.255	9173
896.376	9108
896.498	9157
896.619	9142
896.74	9138
896.861	9097
896.982	9283
897.103	9268
897.224	9150
897.345	9043
897.466	9062
897.587	9081
897.708	9135
897.828	9024
897.949	8857
898.07	8819
898.19	8948
898.311	9017
898.431	8933
898.552	8895
898.672	8937
898.792	8998
898.913	8876
899.033	8792
899.153	8762
899.273	8705
899.393	8720
899.513	8788
899.633	8670
899.753	8674
899.873	8648
899.993	8705
900.113	8617
900.232	8727
900.352	8701
900.472	8667
900.591	8522
900.711	8545
900.83	8560
900.95	8636
901.069	8678
901.189	8583
901.308	8473
901.427	8408
901.546	8370
901.665	8381
901.784	8511
901.904	8374
902.023	8320
902.141	8240
902.26	8233
902.379	8259
902.498	8202
902.617	8225
902.735	8370
902.854	8298
902.973	8279
903.091	8183
903.21	8111
903.328	8123
903.446	8176
903.565	8024
903.683	8081
903.801	8024
903.919	8096
904.038	8134
904.156	8046
904.274	8130
904.392	7993
904.51	8005
904.627	8043
904.745	8103
904.863	8020
904.981	7947
905.098	7883
905.216	7925
905.334	7959
905.451	7928
905.569	7909
905.686	7955
905.803	7955
905.921	7833
906.038	7909
906.155	7841
906.272	7738
906.389	7689
906.506	7643
906.623	7613
906.74	7556
906.857	7476
906.974	7590
907.091	7670
907.208	7734
907.324	7681
907.441	7628
907.557	7453
907.674	7460
907.79	7438
907.907	7415
908.023	7460
908.139	7419
908.256	7388
908.372	7358
908.488	7335
908.604	7324
908.72	7221
908.836	7225
908.952	7225
909.068	7259
909.184	7354
909.3	7240
909.415	7282
909.531	7308
909.647	7152
909.762	7072
909.878	7107
909.993	7209
910.108	7156
910.224	7034
910.339	7088
910.454	7065
910.57	7000
910.685	6913
910.8	7164
910.915	7095
911.03	6977
911.145	6913
911.259	6878
911.374	6875
911.489	6825
911.604	6859
911.718	6787
911.833	6764
911.947	6673
912.062	6563
912.176	6711
912.291	6677
912.405	6715
912.519	6821
912.633	6829
912.748	6741
912.862	6669
912.976	6589
913.09	6540
913.204	6593
913.318	6650
913.431	6589
913.545	6635
913.659	6673
913.772	6669
913.886	6601
914	6536
914.113	6620
914.226	6620
914.34	6593
914.453	6540
914.566	6563
914.68	6479
914.793	6544
914.906	6433
915.019	6407
915.132	6357
915.245	6422
915.358	6429
915.47	6399
915.583	6445
915.696	6525
915.809	6574
915.921	6544
916.034	6380
916.146	6365
916.259	6422
916.371	6410
916.483	6506
916.595	6350
916.708	6315
916.82	6395
916.932	6407
917.044	6410
917.156	6437
917.268	6353
917.38	6315
917.491	6323
917.603	6357
917.715	6418
917.826	6380
917.938	6357
918.049	6273
918.161	6395
918.272	6410
918.384	6376
918.495	6376
918.606	6270
918.717	6182
918.828	6213
918.939	6277
919.05	6220
919.161	6235
919.272	6114
919.383	6144
919.494	6323
919.604	6422
919.715	6350
919.826	6273
919.936	6258
920.047	6289
920.157	6251
920.267	6407
920.378	6323
920.488	6254
920.598	6422
920.708	6555
920.818	6464
920.928	6433
921.038	6578
921.148	6597
921.258	6273
921.368	6281
921.477	6216
921.587	6178
921.697	6121
921.806	6102
921.916	6095
922.025	5908
922.134	5950
922.244	5885
922.353	5912
922.462	5828
922.571	5756
922.68	5726
922.789	5661
922.898	5729
923.007	5684
923.116	5726
923.224	5649
923.333	5691
923.442	5592
923.55	5543
923.659	5589
923.767	5672
923.876	5539
923.984	5611
924.092	5490
924.201	5627
924.309	5551
924.417	5512
924.525	5532
924.633	5474
924.741	6228
924.849	5398
924.956	5452
925.064	5353
925.172	5368
925.279	5280
925.387	5383
925.494	5349
925.602	5387
925.709	5410
925.816	5223
925.924	5296
926.031	5341
926.138	5280
926.245	5330
926.352	5220
926.459	5315
926.566	5322
926.673	5208
926.779	5113
926.886	5147
926.993	5041
927.099	4999
927.206	4976
927.312	4930
927.419	5003
927.525	4934
927.631	4972
927.737	4854
927.843	4873
927.95	4714
928.056	4812
928.162	4771
928.267	4858
928.373	5326
928.479	4870
928.585	4706
928.69	4729
928.796	4790
928.901	4668
929.007	4618
929.112	4645
929.218	4683
929.323	4634
929.428	4531
929.533	4691
929.638	4493
929.743	4542
929.848	4516
929.953	4538
930.058	4432
930.163	4367
930.267	4371
930.372	4462
930.477	4333
930.581	4459
930.685	4322
930.79	4257
930.894	4261
930.998	4238
931.103	4375
931.207	4128
931.311	4105
931.415	4017
931.519	3926
931.623	3956
