Data from glass_V78500241_1505.txt Node
Date: Wed Sep 01 19:24:55 CST 2021
User: usil
Spectrometer: V785-0024
Trigger mode: 0
Integration Time (sec): 4.000000E-1
Scans to average: 1
Nonlinearity correction enabled: false
Boxcar width: 0
Storing dark spectrum: false
XAxis mode: Wavelengths
Number of Pixels in Spectrum: 1024
>>>>>Begin Spectral Data<<<<<
801.071	3747
801.214	3770
801.356	3698
801.499	3709
801.641	3747
801.783	3804
801.926	3880
802.068	3846
802.211	3876
802.353	3873
802.496	3876
802.638	3903
802.78	3892
802.923	3945
803.065	3861
803.208	3865
803.35	3873
803.492	3930
803.635	3926
803.777	3835
803.919	3888
804.061	4162
804.204	3968
804.346	3930
804.488	3949
804.63	4036
804.773	3991
804.915	4048
805.057	4135
805.199	4040
805.341	4090
805.483	4185
805.626	4120
805.768	4105
805.91	4188
806.052	4265
806.194	4204
806.336	4341
806.478	4238
806.62	4204
806.762	4181
806.904	4204
807.046	4325
807.188	4196
807.33	4135
807.472	4211
807.614	4188
807.756	4219
807.898	4249
808.04	4211
808.182	4291
808.324	4329
808.465	4390
808.607	4478
808.749	4485
808.891	4455
809.033	4485
809.174	4447
809.316	4230
809.458	4238
809.6	4158
809.741	4150
809.883	4097
810.025	4200
810.166	4204
810.308	4223
810.45	4234
810.591	4230
810.733	4291
810.875	4527
811.016	4828
811.158	5117
811.299	5277
811.441	5296
811.582	5033
811.724	4710
811.865	4493
812.007	4443
812.148	4428
812.29	4443
812.431	4421
812.573	4421
812.714	4356
812.855	4413
812.997	4409
813.138	4516
813.279	4344
813.421	4394
813.562	4329
813.703	4363
813.845	4367
813.986	4207
814.127	4215
814.268	4303
814.41	4295
814.551	4318
814.692	4310
814.833	4219
814.974	4261
815.115	4348
815.256	4306
815.397	4268
815.539	4234
815.68	4207
815.821	4272
815.962	4310
816.103	4276
816.244	4227
816.385	4204
816.526	4280
816.666	4200
816.807	4120
816.948	4177
817.089	4109
817.23	4120
817.371	4048
817.512	4097
817.653	4040
817.793	4025
817.934	4040
818.075	4131
818.216	4059
818.356	4105
818.497	3972
818.638	3899
818.778	3937
818.919	3876
819.06	3888
819.2	3915
819.341	3835
819.481	3827
819.622	3949
819.762	4040
819.903	3987
820.043	3842
820.184	3876
820.324	3808
820.465	3873
820.605	3850
820.746	3896
820.886	3812
821.026	3937
821.167	3896
821.307	4002
821.447	3991
821.588	3953
821.728	3937
821.868	3911
822.008	3865
822.149	3934
822.289	3911
822.429	3766
822.569	3762
822.709	3831
822.849	3690
822.99	3717
823.13	3751
823.27	3797
823.41	3720
823.55	3732
823.69	3720
823.83	3740
823.97	3679
824.11	3618
824.25	3572
824.389	3648
824.529	3679
824.669	3595
824.809	3671
824.949	3766
825.089	3736
825.228	3755
825.368	3572
825.508	3614
825.648	3564
825.787	3599
825.927	3641
826.067	3682
826.206	3686
826.346	3785
826.485	3903
826.625	3846
826.765	3930
826.904	3831
827.044	3614
827.183	3534
827.323	3428
827.462	3488
827.601	3439
827.741	3443
827.88	3447
828.02	3386
828.159	3466
828.298	3473
828.437	3519
828.577	3473
828.716	3614
828.855	3500
828.994	3397
829.134	3397
829.273	3405
829.412	3363
829.551	3332
829.69	3374
829.829	3405
829.968	3542
830.107	3469
830.246	3443
830.385	3382
830.524	3351
830.663	3310
830.802	3260
830.941	3180
831.08	3176
831.219	3279
831.357	3222
831.496	3397
831.635	3264
831.774	3161
831.913	3214
832.051	3154
832.19	3131
832.329	3218
832.467	3176
832.606	3093
832.744	3150
832.883	3211
833.022	3180
833.16	3291
833.299	3306
833.437	3351
833.576	3351
833.714	3416
833.852	3447
833.991	3439
834.129	3443
834.267	3462
834.406	3363
834.544	3412
834.682	3447
834.821	3447
834.959	3595
835.097	3450
835.235	3526
835.373	3485
835.511	3526
835.65	3439
835.788	3500
835.926	3389
836.064	3367
836.202	3424
836.34	3584
836.478	3629
836.615	3515
836.753	3595
836.891	3698
837.029	3610
837.167	3568
837.305	3587
837.443	3557
837.58	3526
837.718	3599
837.856	3568
837.993	3530
838.131	3587
838.269	3561
838.406	3564
838.544	3557
838.681	3447
838.819	3443
838.956	3424
839.094	3409
839.231	3477
839.369	3523
839.506	3743
839.643	3671
839.781	3515
839.918	3447
840.055	3530
840.193	3534
840.33	3496
840.467	3572
840.604	3599
840.742	3762
840.879	3557
841.016	3549
841.153	3622
841.29	3781
841.427	3732
841.564	3759
841.701	3751
841.838	3690
841.975	3713
842.112	3755
842.249	3641
842.385	3667
842.522	3827
842.659	3667
842.796	3633
842.933	3709
843.069	3682
843.206	3694
843.343	3812
843.479	3774
843.616	3819
843.752	3644
843.889	3709
844.025	3873
844.162	3694
844.298	3827
844.435	3797
844.571	3797
844.708	3926
844.844	3991
844.98	3991
845.117	4029
845.253	3915
845.389	3884
845.525	3945
845.661	3979
845.798	3915
845.934	4021
846.07	3930
846.206	4029
846.342	4135
846.478	4044
846.614	3960
846.75	3937
846.886	3907
847.022	4067
847.158	3994
847.294	4013
847.429	4021
847.565	3960
847.701	4253
847.837	3899
847.972	3861
848.108	3987
848.244	3937
848.379	3854
848.515	3835
848.65	3789
848.786	3846
848.921	3873
849.057	3945
849.192	3941
849.328	3880
849.463	3888
849.598	3892
849.734	3869
849.869	3819
850.004	3797
850.14	3797
850.275	3766
850.41	3713
850.545	3732
850.68	3770
850.815	3823
850.95	3789
851.085	3937
851.22	3880
851.355	3857
851.49	3808
851.625	3797
851.76	3808
851.895	3759
852.03	3751
852.165	3770
852.299	3869
852.434	3876
852.569	3835
852.703	3915
852.838	3899
852.973	3998
853.107	3968
853.242	3926
853.376	3896
853.511	3770
853.645	3838
853.78	4006
853.914	3899
854.048	3937
854.183	3861
854.317	3964
854.451	4059
854.585	3975
854.72	3972
854.854	4059
854.988	3972
855.122	3953
855.256	3922
855.39	4021
855.524	4150
855.658	4105
855.792	4135
855.926	4169
856.06	4227
856.194	4238
856.327	4158
856.461	4112
856.595	4150
856.729	4234
856.862	4280
856.996	4234
857.13	4284
857.263	4322
857.397	4322
857.53	4306
857.664	4344
857.797	4451
857.931	4451
858.064	4421
858.197	4413
858.331	4386
858.464	4386
858.597	4348
858.731	4462
858.864	4474
858.997	4443
859.13	4531
859.263	4485
859.396	4577
859.529	4504
859.662	4512
859.795	4535
859.928	4618
860.061	4702
860.194	4740
860.327	4645
860.46	4599
860.592	4736
860.725	4801
860.858	4782
860.99	4721
861.123	4687
861.256	4706
861.388	4752
861.521	5452
861.653	4721
861.786	4698
861.918	4725
862.05	4824
862.183	4858
862.315	4881
862.447	4930
862.58	4908
862.712	4812
862.844	4778
862.976	4858
863.108	4839
863.24	5208
863.372	4816
863.504	4908
863.636	4866
863.768	5003
863.9	4961
864.032	4984
864.164	4976
864.296	5037
864.428	5083
864.559	5094
864.691	5067
864.823	5113
864.954	5121
865.086	5174
865.217	5170
865.349	5113
865.48	5189
865.612	5242
865.743	5288
865.875	5242
866.006	5132
866.137	5235
866.269	5254
866.4	5231
866.531	5239
866.662	5235
866.793	5277
866.924	5315
867.055	5406
867.186	5288
867.317	5318
867.448	5341
867.579	5383
867.71	5379
867.841	5387
867.972	5448
868.103	5433
868.233	5486
868.364	5516
868.495	5463
868.625	5649
868.756	5752
868.886	5668
869.017	5707
869.147	5855
869.278	5866
869.408	5786
869.539	5840
869.669	5927
869.799	5901
869.929	5999
870.06	6038
870.19	6178
870.32	6251
870.45	6209
870.58	6327
870.71	6437
870.84	6445
870.97	6429
871.1	6445
871.23	6597
871.36	6715
871.489	6711
871.619	6734
871.749	6852
871.879	6878
872.008	6989
872.138	6989
872.267	7038
872.397	6916
872.526	7008
872.656	7095
872.785	7259
872.915	7350
873.044	7502
873.173	7552
873.303	7578
873.432	7792
873.561	7887
873.69	7902
873.819	7963
873.948	8142
874.077	8305
874.206	8256
874.335	8396
874.464	8640
874.593	8880
874.722	8906
874.851	9093
874.979	9207
875.108	9393
875.237	9355
875.365	9477
875.494	9614
875.623	9842
875.751	9816
875.88	9979
876.008	10211
876.136	10238
876.265	10481
876.393	10694
876.521	10679
876.65	10850
876.778	10877
876.906	10831
877.034	10953
877.162	11128
877.29	11113
877.418	11288
877.546	11410
877.674	11463
877.802	11505
877.93	11520
878.058	11562
878.185	11573
878.313	11577
878.441	11771
878.568	11771
878.696	11779
878.824	11912
878.951	11977
879.079	12038
879.206	12117
879.333	12053
879.461	11923
879.588	12076
879.715	12034
879.842	12209
879.97	12053
880.097	11847
880.224	11958
880.351	11901
880.478	11859
880.605	11859
880.732	11916
880.859	12053
880.986	11855
881.112	11813
881.239	11779
881.366	11589
881.493	11611
881.619	11566
881.746	11608
881.872	11592
881.999	11509
882.125	11471
882.252	11524
882.378	11554
882.505	11528
882.631	11410
882.757	11288
882.883	11360
883.01	11147
883.136	11185
883.262	11140
883.388	11079
883.514	11193
883.64	11231
883.766	11060
883.892	10984
884.018	11025
884.143	11067
884.269	11155
884.395	10885
884.52	10740
884.646	10748
884.772	10805
884.897	10672
885.023	10656
885.148	10805
885.274	10812
885.399	10733
885.524	10535
885.65	10588
885.775	10622
885.9	10584
886.025	10523
886.15	10561
886.275	10462
886.4	10489
886.525	10432
886.65	10417
886.775	10371
886.9	10523
887.025	10565
887.149	10394
887.274	10246
887.399	10192
887.523	10188
887.648	10181
887.773	10143
887.897	10227
888.021	10215
888.146	10147
888.27	10337
888.395	10185
888.519	10211
888.643	10120
888.767	10223
888.891	10090
889.015	9975
889.139	10032
889.263	10029
889.387	10063
889.511	10074
889.635	10097
889.759	9998
889.883	9979
890.006	9903
890.13	10124
890.254	9964
890.377	9922
890.501	9842
890.624	9831
890.748	9869
890.871	9800
890.995	9774
891.118	9709
891.241	9701
891.364	9698
891.488	9835
891.611	9747
891.734	9736
891.857	9747
891.98	9694
892.103	9804
892.226	9770
892.349	9648
892.471	9595
892.594	9591
892.717	9511
892.839	9644
892.962	9667
893.085	9667
893.207	9572
893.33	9553
893.452	9530
893.575	9564
893.697	9492
893.819	9633
893.941	9625
894.064	9606
894.186	9454
894.308	9435
894.43	9530
894.552	9534
894.674	9584
894.796	9370
894.918	9405
895.04	9306
895.161	9412
895.283	9348
895.405	9302
895.526	9329
895.648	9268
895.769	9294
895.891	9325
896.012	9268
896.134	9275
896.255	9119
896.376	9123
896.498	9176
896.619	9097
896.74	9047
896.861	9123
896.982	9279
897.103	9294
897.224	9123
897.345	8979
897.466	9005
897.587	8986
897.708	9195
897.828	8990
897.949	8960
898.07	8891
898.19	8967
898.311	9047
898.431	8849
898.552	8910
898.672	9036
898.792	8933
898.913	8895
899.033	8857
899.153	8773
899.273	8716
899.393	8750
899.513	8773
899.633	8731
899.753	8712
899.873	8758
899.993	8746
900.113	8750
900.232	8625
900.352	8594
900.472	8583
900.591	8541
900.711	8564
900.83	8583
900.95	8667
901.069	8625
901.189	8613
901.308	8446
901.427	8434
901.546	8385
901.665	8492
901.784	8526
901.904	8362
902.023	8389
902.141	8279
902.26	8138
902.379	8286
902.498	8161
902.617	8164
902.735	8271
902.854	8332
902.973	8221
903.091	8084
903.21	8229
903.328	8138
903.446	8092
903.565	8096
903.683	8103
903.801	8020
903.919	8138
904.038	8103
904.156	8043
904.274	8062
904.392	8039
904.51	7997
904.627	8012
904.745	8092
904.863	8138
904.981	7894
905.098	7837
905.216	7898
905.334	7928
905.451	7856
905.569	7852
905.686	7947
905.803	7928
905.921	7795
906.038	7833
906.155	7792
906.272	7734
906.389	7715
906.506	7666
906.623	7624
906.74	7643
906.857	7578
906.974	7586
907.091	7750
907.208	7719
907.324	7639
907.441	7525
907.557	7400
907.674	7449
907.79	7483
907.907	7373
908.023	7422
908.139	7415
908.256	7335
908.372	7403
908.488	7362
908.604	7282
908.72	7236
908.836	7228
908.952	7209
909.068	7213
909.184	7365
909.3	7240
909.415	7289
909.531	7285
909.647	7152
909.762	7129
909.878	7133
909.993	7103
910.108	7141
910.224	7057
910.339	7053
910.454	7088
910.57	6970
910.685	6958
910.8	7175
910.915	7141
911.03	7031
911.145	6897
911.259	6863
911.374	6882
911.489	6829
911.604	6821
911.718	6719
911.833	6757
911.947	6673
912.062	6639
912.176	6700
912.291	6700
912.405	6692
912.519	6867
912.633	6882
912.748	6734
912.862	6688
912.976	6616
913.09	6536
913.204	6589
913.318	6608
913.431	6639
913.545	6650
913.659	6601
913.772	6665
913.886	6551
914	6578
914.113	6639
914.226	6669
914.34	6608
914.453	6528
914.566	6601
914.68	6517
914.793	6494
914.906	6422
915.019	6422
915.132	6281
915.245	6372
915.358	6452
915.47	6437
915.583	6456
915.696	6426
915.809	6547
915.921	6578
916.034	6433
916.146	6391
916.259	6429
916.371	6475
916.483	6460
916.595	6357
916.708	6445
916.82	6464
916.932	6357
917.044	6380
917.156	6414
917.268	6311
917.38	6342
917.491	6319
917.603	6372
917.715	6395
917.826	6410
917.938	6315
918.049	6205
918.161	6323
918.272	6414
918.384	6414
918.495	6376
918.606	6235
918.717	6171
918.828	6277
918.939	6308
919.05	6247
919.161	6258
919.272	6117
919.383	6114
919.494	6289
919.604	6369
919.715	6251
919.826	6201
919.936	6277
920.047	6289
920.157	6327
920.267	6502
920.378	6338
920.488	6323
920.598	6471
920.708	6559
920.818	6471
920.928	6498
921.038	6631
921.148	6551
921.258	6414
921.368	6292
921.477	6239
921.587	6175
921.697	6102
921.806	6190
921.916	6057
922.025	5946
922.134	5897
922.244	5901
922.353	5965
922.462	5885
922.571	5832
922.68	5710
922.789	5707
922.898	5668
923.007	5668
923.116	5741
923.224	5691
923.333	5657
923.442	5649
923.55	5570
923.659	5615
923.767	5619
923.876	5566
923.984	5623
924.092	5554
924.201	5577
924.309	5547
924.417	5573
924.525	5467
924.633	5558
924.741	6114
924.849	5368
924.956	5452
925.064	5349
925.172	5277
925.279	5311
925.387	5360
925.494	5322
925.602	5391
925.709	5425
925.816	5330
925.924	5337
926.031	5345
926.138	5315
926.245	5353
926.352	5269
926.459	5315
926.566	5368
926.673	5201
926.779	5143
926.886	5094
926.993	5029
927.099	5033
927.206	4938
927.312	4915
927.419	5003
927.525	4965
927.631	4961
927.737	4900
927.843	4892
927.95	4786
928.056	4831
928.162	4862
928.267	4870
928.373	5242
928.479	4816
928.585	4702
928.69	4740
928.796	4839
928.901	4706
929.007	4577
929.112	4645
929.218	4691
929.323	4611
929.428	4550
929.533	4675
929.638	4497
929.743	4519
929.848	4569
929.953	4493
930.058	4459
930.163	4356
930.267	4360
930.372	4432
930.477	4318
930.581	4451
930.685	4375
930.79	4299
930.894	4318
930.998	4246
931.103	4363
931.207	4116
931.311	4051
931.415	4029
931.519	3964
931.623	3968
