Data from glass_V78500241_1282.txt Node
Date: Wed Sep 01 19:23:23 CST 2021
User: usil
Spectrometer: V785-0024
Trigger mode: 0
Integration Time (sec): 4.000000E-1
Scans to average: 1
Nonlinearity correction enabled: false
Boxcar width: 0
Storing dark spectrum: false
XAxis mode: Wavelengths
Number of Pixels in Spectrum: 1024
>>>>>Begin Spectral Data<<<<<
801.071	3740
801.214	3770
801.356	3701
801.499	3720
801.641	3740
801.783	3778
801.926	3854
802.068	3831
802.211	3876
802.353	3892
802.496	3854
802.638	3865
802.78	3896
802.923	3899
803.065	3918
803.208	3873
803.35	3861
803.492	3880
803.635	3911
803.777	3838
803.919	3911
804.061	4207
804.204	3975
804.346	3960
804.488	3956
804.63	4059
804.773	4017
804.915	4086
805.057	4162
805.199	4032
805.341	4048
805.483	4185
805.626	4071
805.768	4074
805.91	4246
806.052	4265
806.194	4173
806.336	4352
806.478	4185
806.62	4227
806.762	4177
806.904	4265
807.046	4363
807.188	4223
807.33	4173
807.472	4265
807.614	4196
807.756	4249
807.898	4257
808.04	4215
808.182	4306
808.324	4333
808.465	4390
808.607	4440
808.749	4436
808.891	4443
809.033	4573
809.174	4428
809.316	4287
809.458	4230
809.6	4158
809.741	4169
809.883	4150
810.025	4242
810.166	4284
810.308	4242
810.45	4242
810.591	4181
810.733	4299
810.875	4493
811.016	4809
811.158	5105
811.299	5296
811.441	5318
811.582	5094
811.724	4706
811.865	4470
812.007	4432
812.148	4485
812.29	4421
812.431	4405
812.573	4379
812.714	4402
812.855	4405
812.997	4451
813.138	4466
813.279	4417
813.421	4379
813.562	4390
813.703	4322
813.845	4337
813.986	4238
814.127	4207
814.268	4287
814.41	4303
814.551	4249
814.692	4314
814.833	4249
814.974	4337
815.115	4341
815.256	4280
815.397	4257
815.539	4284
815.68	4192
815.821	4185
815.962	4337
816.103	4268
816.244	4215
816.385	4211
816.526	4265
816.666	4200
816.807	4090
816.948	4173
817.089	4200
817.23	4090
817.371	4074
817.512	4063
817.653	4063
817.793	4036
817.934	4063
818.075	4124
818.216	4078
818.356	4059
818.497	4010
818.638	3896
818.778	3937
818.919	3896
819.06	3896
819.2	3937
819.341	3896
819.481	3865
819.622	3873
819.762	4032
819.903	3949
820.043	3888
820.184	3846
820.324	3823
820.465	3873
820.605	3842
820.746	3907
820.886	3819
821.026	3899
821.167	3907
821.307	3941
821.447	3983
821.588	3964
821.728	3907
821.868	3953
822.008	3854
822.149	3926
822.289	3918
822.429	3797
822.569	3759
822.709	3808
822.849	3675
822.99	3694
823.13	3751
823.27	3816
823.41	3747
823.55	3759
823.69	3717
823.83	3755
823.97	3713
824.11	3648
824.25	3629
824.389	3641
824.529	3690
824.669	3641
824.809	3705
824.949	3732
825.089	3728
825.228	3732
825.368	3599
825.508	3561
825.648	3614
825.787	3587
825.927	3587
826.067	3641
826.206	3663
826.346	3774
826.485	3793
826.625	3888
826.765	3918
826.904	3804
827.044	3603
827.183	3526
827.323	3439
827.462	3450
827.601	3439
827.741	3439
827.88	3450
828.02	3401
828.159	3477
828.298	3485
828.437	3534
828.577	3477
828.716	3576
828.855	3511
828.994	3393
829.134	3382
829.273	3393
829.412	3344
829.551	3344
829.69	3382
829.829	3431
829.968	3519
830.107	3462
830.246	3496
830.385	3348
830.524	3344
830.663	3291
830.802	3237
830.941	3169
831.08	3173
831.219	3260
831.357	3287
831.496	3462
831.635	3199
831.774	3203
831.913	3233
832.051	3150
832.19	3188
832.329	3226
832.467	3138
832.606	3127
832.744	3180
832.883	3184
833.022	3226
833.16	3253
833.299	3317
833.437	3336
833.576	3382
833.714	3386
833.852	3443
833.991	3435
834.129	3466
834.267	3458
834.406	3409
834.544	3454
834.682	3405
834.821	3416
834.959	3606
835.097	3416
835.235	3519
835.373	3538
835.511	3492
835.65	3469
835.788	3496
835.926	3378
836.064	3405
836.202	3424
836.34	3595
836.478	3606
836.615	3542
836.753	3629
836.891	3622
837.029	3622
837.167	3633
837.305	3557
837.443	3557
837.58	3485
837.718	3603
837.856	3603
837.993	3591
838.131	3572
838.269	3644
838.406	3576
838.544	3561
838.681	3492
838.819	3450
838.956	3416
839.094	3409
839.231	3435
839.369	3492
839.506	3717
839.643	3637
839.781	3504
839.918	3504
840.055	3530
840.193	3534
840.33	3572
840.467	3568
840.604	3610
840.742	3838
840.879	3587
841.016	3542
841.153	3587
841.29	3747
841.427	3736
841.564	3713
841.701	3717
841.838	3694
841.975	3671
842.112	3686
842.249	3679
842.385	3622
842.522	3812
842.659	3690
842.796	3682
842.933	3743
843.069	3682
843.206	3743
843.343	3808
843.479	3785
843.616	3835
843.752	3724
843.889	3667
844.025	3865
844.162	3755
844.298	3892
844.435	3789
844.571	3743
844.708	3949
844.844	4002
844.98	4010
845.117	3975
845.253	3960
845.389	3907
845.525	3930
845.661	3975
845.798	3918
845.934	3956
846.07	3956
846.206	4044
846.342	4128
846.478	4090
846.614	3964
846.75	3915
846.886	3937
847.022	4032
847.158	3968
847.294	3987
847.429	4051
847.565	3994
847.701	4234
847.837	3926
847.972	3896
848.108	4051
848.244	3956
848.379	3842
848.515	3785
848.65	3804
848.786	3854
848.921	3865
849.057	3941
849.192	3956
849.328	3945
849.463	3899
849.598	3911
849.734	3949
849.869	3842
850.004	3781
850.14	3797
850.275	3808
850.41	3751
850.545	3766
850.68	3778
850.815	3816
850.95	3827
851.085	3987
851.22	3854
851.355	3831
851.49	3762
851.625	3762
851.76	3819
851.895	3740
852.03	3709
852.165	3785
852.299	3865
852.434	3907
852.569	3869
852.703	3884
852.838	3899
852.973	4013
853.107	3994
853.242	3918
853.376	3865
853.511	3797
853.645	3850
853.78	3975
853.914	3918
854.048	3896
854.183	3915
854.317	3979
854.451	4074
854.585	3994
854.72	3937
854.854	4059
854.988	3949
855.122	3960
855.256	3949
855.39	4067
855.524	4097
855.658	4086
855.792	4116
855.926	4116
856.06	4188
856.194	4215
856.327	4109
856.461	4112
856.595	4181
856.729	4192
856.862	4303
856.996	4272
857.13	4337
857.263	4379
857.397	4386
857.53	4325
857.664	4360
857.797	4413
857.931	4402
858.064	4409
858.197	4459
858.331	4367
858.464	4413
858.597	4413
858.731	4485
858.864	4462
858.997	4451
859.13	4531
859.263	4546
859.396	4565
859.529	4489
859.662	4577
859.795	4493
859.928	4656
860.061	4672
860.194	4729
860.327	4679
860.46	4645
860.592	4797
860.725	4740
860.858	4774
860.99	4691
861.123	4687
861.256	4710
861.388	4782
861.521	5337
861.653	4729
861.786	4748
861.918	4733
862.05	4763
862.183	4858
862.315	4892
862.447	4946
862.58	4885
862.712	4828
862.844	4797
862.976	4881
863.108	4892
863.24	5242
863.372	4858
863.504	4927
863.636	4900
863.768	4965
863.9	4965
864.032	4957
864.164	4987
864.296	5014
864.428	5132
864.559	5117
864.691	5102
864.823	5128
864.954	5128
865.086	5151
865.217	5113
865.349	5090
865.48	5136
865.612	5181
865.743	5261
865.875	5178
866.006	5166
866.137	5242
866.269	5258
866.4	5231
866.531	5212
866.662	5212
866.793	5201
866.924	5288
867.055	5337
867.186	5372
867.317	5364
867.448	5364
867.579	5345
867.71	5406
867.841	5425
867.972	5421
868.103	5482
868.233	5490
868.364	5501
868.495	5589
868.625	5623
868.756	5760
868.886	5676
869.017	5752
869.147	5878
869.278	5866
869.408	5828
869.539	5798
869.669	5912
869.799	5931
869.929	6007
870.06	6068
870.19	6197
870.32	6201
870.45	6254
870.58	6395
870.71	6441
870.84	6460
870.97	6365
871.1	6395
871.23	6665
871.36	6688
871.489	6681
871.619	6715
871.749	6825
871.879	6897
872.008	7042
872.138	6962
872.267	7023
872.397	7042
872.526	7069
872.656	7137
872.785	7217
872.915	7346
873.044	7533
873.173	7540
873.303	7624
873.432	7750
873.561	7818
873.69	7955
873.819	8043
873.948	8202
874.077	8286
874.206	8336
874.335	8385
874.464	8659
874.593	8925
874.722	8990
874.851	9176
874.979	9272
875.108	9351
875.237	9351
875.365	9526
875.494	9629
875.623	9766
875.751	9808
875.88	10059
876.008	10090
876.136	10329
876.265	10512
876.393	10748
876.521	10702
876.65	10797
876.778	10824
876.906	10976
877.034	10953
877.162	11128
877.29	11162
877.418	11284
877.546	11402
877.674	11376
877.802	11493
877.93	11455
878.058	11524
878.185	11554
878.313	11710
878.441	11809
878.568	11657
878.696	11764
878.824	11847
878.951	11908
879.079	12057
879.206	12228
879.333	12064
879.461	11999
879.588	12049
879.715	12026
879.842	12289
879.97	12068
880.097	11821
880.224	11885
880.351	11946
880.478	11889
880.605	11893
880.732	11813
880.859	12038
880.986	11817
881.112	11901
881.239	11672
881.366	11615
881.493	11668
881.619	11638
881.746	11547
881.872	11509
881.999	11554
882.125	11482
882.252	11600
882.378	11532
882.505	11600
882.631	11341
882.757	11326
882.883	11299
883.01	11250
883.136	11197
883.262	11170
883.388	11121
883.514	11227
883.64	11201
883.766	11117
883.892	11064
884.018	11006
884.143	11083
884.269	11113
884.395	10847
884.52	10733
884.646	10733
884.772	10706
884.897	10729
885.023	10668
885.148	10736
885.274	10744
885.399	10778
885.524	10683
885.65	10596
885.775	10679
885.9	10504
886.025	10622
886.15	10538
886.275	10447
886.4	10363
886.525	10428
886.65	10325
886.775	10390
886.9	10485
887.025	10508
887.149	10382
887.274	10265
887.399	10246
887.523	10162
887.648	10158
887.773	10185
887.897	10223
888.021	10329
888.146	10177
888.27	10242
888.395	10272
888.519	10177
888.643	10173
888.767	10181
888.891	10090
889.015	9991
889.139	10017
889.263	10006
889.387	10093
889.511	10090
889.635	10078
889.759	10093
889.883	10040
890.006	9956
890.13	10074
890.254	9983
890.377	9994
890.501	9892
890.624	9876
890.748	9880
890.871	9819
890.995	9778
891.118	9694
891.241	9804
891.364	9743
891.488	9831
891.611	9675
891.734	9713
891.857	9774
891.98	9770
892.103	9762
892.226	9701
892.349	9648
892.471	9568
892.594	9553
892.717	9625
892.839	9610
892.962	9591
893.085	9644
893.207	9663
893.33	9469
893.452	9561
893.575	9603
893.697	9435
893.819	9637
893.941	9656
894.064	9622
894.186	9428
894.308	9416
894.43	9553
894.552	9496
894.674	9496
894.796	9412
894.918	9389
895.04	9386
895.161	9329
895.283	9348
895.405	9310
895.526	9306
895.648	9249
895.769	9241
895.891	9310
896.012	9249
896.134	9222
896.255	9135
896.376	9211
896.498	9180
896.619	9123
896.74	9104
896.861	9142
896.982	9226
897.103	9272
897.224	9306
897.345	9081
897.466	8948
897.587	9058
897.708	9127
897.828	9066
897.949	8944
898.07	8887
898.19	8994
898.311	8918
898.431	8925
898.552	8952
898.672	8956
898.792	8963
898.913	8838
899.033	8830
899.153	8743
899.273	8644
899.393	8716
899.513	8727
899.633	8750
899.753	8743
899.873	8731
899.993	8754
900.113	8674
900.232	8735
900.352	8625
900.472	8606
900.591	8590
900.711	8598
900.83	8533
900.95	8693
901.069	8651
901.189	8602
901.308	8457
901.427	8427
901.546	8431
901.665	8465
901.784	8533
901.904	8358
902.023	8271
902.141	8210
902.26	8172
902.379	8317
902.498	8142
902.617	8214
902.735	8313
902.854	8286
902.973	8237
903.091	8168
903.21	8157
903.328	8161
903.446	8096
903.565	8126
903.683	8043
903.801	8077
903.919	8145
904.038	8153
904.156	8016
904.274	8084
904.392	8065
904.51	8005
904.627	8001
904.745	8054
904.863	8191
904.981	7951
905.098	7799
905.216	7841
905.334	7883
905.451	7841
905.569	7913
905.686	7940
905.803	7898
905.921	7795
906.038	7837
906.155	7784
906.272	7689
906.389	7761
906.506	7628
906.623	7636
906.74	7601
906.857	7464
906.974	7605
907.091	7666
907.208	7757
907.324	7616
907.441	7529
907.557	7457
907.674	7472
907.79	7320
907.907	7422
908.023	7502
908.139	7434
908.256	7365
908.372	7388
908.488	7362
908.604	7305
908.72	7324
908.836	7305
908.952	7232
909.068	7232
909.184	7305
909.3	7221
909.415	7285
909.531	7346
909.647	7110
909.762	7072
909.878	7110
909.993	7194
910.108	7084
910.224	7053
910.339	7126
910.454	7061
910.57	7008
910.685	6897
910.8	7149
910.915	7107
911.03	7065
911.145	6924
911.259	6863
911.374	6837
911.489	6821
911.604	6821
911.718	6764
911.833	6715
911.947	6669
912.062	6669
912.176	6734
912.291	6734
912.405	6719
912.519	6818
912.633	6837
912.748	6764
912.862	6760
912.976	6620
913.09	6563
913.204	6601
913.318	6642
913.431	6658
913.545	6673
913.659	6703
913.772	6700
913.886	6582
914	6616
914.113	6589
914.226	6639
914.34	6635
914.453	6494
914.566	6616
914.68	6471
914.793	6490
914.906	6395
915.019	6346
915.132	6376
915.245	6422
915.358	6452
915.47	6441
915.583	6490
915.696	6509
915.809	6536
915.921	6593
916.034	6342
916.146	6391
916.259	6372
916.371	6475
916.483	6448
916.595	6399
916.708	6467
916.82	6353
916.932	6437
917.044	6403
917.156	6357
917.268	6308
917.38	6334
917.491	6289
917.603	6331
917.715	6353
917.826	6388
917.938	6315
918.049	6281
918.161	6388
918.272	6369
918.384	6445
918.495	6346
918.606	6235
918.717	6148
918.828	6281
918.939	6235
919.05	6205
919.161	6224
919.272	6159
919.383	6121
919.494	6300
919.604	6445
919.715	6315
919.826	6201
919.936	6239
920.047	6346
920.157	6258
920.267	6433
920.378	6376
920.488	6243
920.598	6475
920.708	6574
920.818	6426
920.928	6464
921.038	6559
921.148	6616
921.258	6429
921.368	6327
921.477	6251
921.587	6186
921.697	6083
921.806	6159
921.916	6136
922.025	5973
922.134	5935
922.244	5916
922.353	5954
922.462	5855
922.571	5805
922.68	5695
922.789	5722
922.898	5752
923.007	5646
923.116	5688
923.224	5707
923.333	5638
923.442	5623
923.55	5615
923.659	5577
923.767	5676
923.876	5547
923.984	5608
924.092	5520
924.201	5562
924.309	5543
924.417	5562
924.525	5512
924.633	5512
924.741	6292
924.849	5379
924.956	5490
925.064	5383
925.172	5288
925.279	5254
925.387	5414
925.494	5353
925.602	5425
925.709	5398
925.816	5269
925.924	5368
926.031	5330
926.138	5330
926.245	5353
926.352	5246
926.459	5334
926.566	5334
926.673	5239
926.779	5143
926.886	5079
926.993	5071
927.099	4984
927.206	5025
927.312	4938
927.419	5014
927.525	4965
927.631	5010
927.737	4904
927.843	4908
927.95	4786
928.056	4782
928.162	4843
928.267	4862
928.373	5349
928.479	4870
928.585	4729
928.69	4767
928.796	4744
928.901	4736
929.007	4630
929.112	4675
929.218	4622
929.323	4592
929.428	4558
929.533	4656
929.638	4550
929.743	4531
929.848	4599
929.953	4538
930.058	4447
930.163	4363
930.267	4360
930.372	4447
930.477	4299
930.581	4493
930.685	4375
930.79	4318
930.894	4337
930.998	4272
931.103	4394
931.207	4131
931.311	4116
931.415	4036
931.519	3968
931.623	3937
