Data from glass_V78500241_889.txt Node
Date: Wed Sep 01 19:20:39 CST 2021
User: usil
Spectrometer: V785-0024
Trigger mode: 0
Integration Time (sec): 4.000000E-1
Scans to average: 1
Nonlinearity correction enabled: false
Boxcar width: 0
Storing dark spectrum: false
XAxis mode: Wavelengths
Number of Pixels in Spectrum: 1024
>>>>>Begin Spectral Data<<<<<
801.071	3759
801.214	3766
801.356	3743
801.499	3732
801.641	3732
801.783	3785
801.926	3854
802.068	3838
802.211	3873
802.353	3869
802.496	3838
802.638	3865
802.78	3884
802.923	3934
803.065	3896
803.208	3873
803.35	3827
803.492	3896
803.635	3937
803.777	3793
803.919	3888
804.061	4200
804.204	3979
804.346	4025
804.488	3926
804.63	4036
804.773	3983
804.915	4044
805.057	4131
805.199	4078
805.341	4051
805.483	4131
805.626	4128
805.768	4128
805.91	4223
806.052	4234
806.194	4242
806.336	4371
806.478	4215
806.62	4181
806.762	4192
806.904	4223
807.046	4341
807.188	4211
807.33	4166
807.472	4257
807.614	4234
807.756	4227
807.898	4204
808.04	4215
808.182	4280
808.324	4363
808.465	4413
808.607	4459
808.749	4470
808.891	4443
809.033	4542
809.174	4398
809.316	4280
809.458	4227
809.6	4169
809.741	4192
809.883	4112
810.025	4185
810.166	4242
810.308	4234
810.45	4246
810.591	4246
810.733	4303
810.875	4508
811.016	4873
811.158	5178
811.299	5326
811.441	5277
811.582	5079
811.724	4714
811.865	4474
812.007	4497
812.148	4451
812.29	4443
812.431	4405
812.573	4394
812.714	4379
812.855	4413
812.997	4417
813.138	4504
813.279	4478
813.421	4379
813.562	4390
813.703	4322
813.845	4394
813.986	4318
814.127	4223
814.268	4257
814.41	4318
814.551	4325
814.692	4348
814.833	4280
814.974	4310
815.115	4341
815.256	4272
815.397	4246
815.539	4261
815.68	4188
815.821	4257
815.962	4318
816.103	4284
816.244	4249
816.385	4310
816.526	4322
816.666	4154
816.807	4128
816.948	4158
817.089	4173
817.23	4185
817.371	4074
817.512	4071
817.653	4071
817.793	4029
817.934	4029
818.075	4131
818.216	4105
818.356	4124
818.497	4010
818.638	3941
818.778	3903
818.919	3899
819.06	3854
819.2	3972
819.341	3861
819.481	3915
819.622	3899
819.762	4040
819.903	3960
820.043	3865
820.184	3846
820.324	3835
820.465	3865
820.605	3865
820.746	3926
820.886	3850
821.026	3934
821.167	3907
821.307	3991
821.447	3994
821.588	3896
821.728	3949
821.868	3983
822.008	3918
822.149	3930
822.289	3911
822.429	3759
822.569	3781
822.709	3819
822.849	3728
822.99	3690
823.13	3759
823.27	3800
823.41	3728
823.55	3785
823.69	3755
823.83	3717
823.97	3713
824.11	3603
824.25	3606
824.389	3610
824.529	3698
824.669	3622
824.809	3759
824.949	3774
825.089	3740
825.228	3690
825.368	3599
825.508	3610
825.648	3591
825.787	3629
825.927	3686
826.067	3614
826.206	3671
826.346	3797
826.485	3869
826.625	3880
826.765	3949
826.904	3842
827.044	3618
827.183	3530
827.323	3473
827.462	3534
827.601	3439
827.741	3416
827.88	3462
828.02	3401
828.159	3450
828.298	3485
828.437	3526
828.577	3454
828.716	3625
828.855	3534
828.994	3431
829.134	3374
829.273	3401
829.412	3363
829.551	3359
829.69	3397
829.829	3492
829.968	3561
830.107	3447
830.246	3420
830.385	3363
830.524	3348
830.663	3344
830.802	3306
830.941	3222
831.08	3211
831.219	3268
831.357	3241
831.496	3386
831.635	3233
831.774	3192
831.913	3233
832.051	3127
832.19	3150
832.329	3184
832.467	3165
832.606	3093
832.744	3169
832.883	3131
833.022	3226
833.16	3294
833.299	3325
833.437	3374
833.576	3393
833.714	3416
833.852	3439
833.991	3450
834.129	3488
834.267	3462
834.406	3443
834.544	3447
834.682	3393
834.821	3409
834.959	3557
835.097	3447
835.235	3530
835.373	3511
835.511	3488
835.65	3488
835.788	3507
835.926	3393
836.064	3401
836.202	3420
836.34	3568
836.478	3644
836.615	3515
836.753	3599
836.891	3599
837.029	3633
837.167	3591
837.305	3587
837.443	3576
837.58	3549
837.718	3584
837.856	3557
837.993	3549
838.131	3629
838.269	3591
838.406	3545
838.544	3584
838.681	3492
838.819	3466
838.956	3363
839.094	3401
839.231	3447
839.369	3534
839.506	3766
839.643	3637
839.781	3488
839.918	3481
840.055	3511
840.193	3519
840.33	3557
840.467	3564
840.604	3606
840.742	3831
840.879	3557
841.016	3584
841.153	3610
841.29	3740
841.427	3762
841.564	3736
841.701	3724
841.838	3732
841.975	3720
842.112	3679
842.249	3660
842.385	3644
842.522	3850
842.659	3675
842.796	3690
842.933	3728
843.069	3656
843.206	3743
843.343	3789
843.479	3797
843.616	3846
843.752	3694
843.889	3686
844.025	3911
844.162	3713
844.298	3827
844.435	3774
844.571	3774
844.708	3896
844.844	3983
844.98	4006
845.117	4036
845.253	3945
845.389	3937
845.525	4013
845.661	3960
845.798	3911
845.934	4040
846.07	3983
846.206	4097
846.342	4071
846.478	4086
846.614	3983
846.75	3960
846.886	3926
847.022	4051
847.158	4013
847.294	3987
847.429	4017
847.565	4006
847.701	4219
847.837	3888
847.972	3850
848.108	3953
848.244	3991
848.379	3854
848.515	3789
848.65	3823
848.786	3835
848.921	3850
849.057	3907
849.192	3960
849.328	3869
849.463	3937
849.598	3911
849.734	3842
849.869	3857
850.004	3812
850.14	3808
850.275	3793
850.41	3785
850.545	3713
850.68	3812
850.815	3808
850.95	3827
851.085	3953
851.22	3892
851.355	3835
851.49	3823
851.625	3778
851.76	3800
851.895	3720
852.03	3690
852.165	3766
852.299	3819
852.434	3926
852.569	3854
852.703	3873
852.838	3960
852.973	4044
853.107	4036
853.242	3892
853.376	3846
853.511	3766
853.645	3861
853.78	3979
853.914	3873
854.048	3922
854.183	3903
854.317	3964
854.451	4124
854.585	3994
854.72	3991
854.854	4078
854.988	3926
855.122	3987
855.256	3972
855.39	4059
855.524	4128
855.658	4093
855.792	4131
855.926	4120
856.06	4207
856.194	4166
856.327	4093
856.461	4139
856.595	4181
856.729	4185
856.862	4299
856.996	4238
857.13	4280
857.263	4341
857.397	4398
857.53	4276
857.664	4371
857.797	4386
857.931	4447
858.064	4386
858.197	4516
858.331	4432
858.464	4379
858.597	4325
858.731	4466
858.864	4497
858.997	4436
859.13	4542
859.263	4569
859.396	4603
859.529	4527
859.662	4558
859.795	4516
859.928	4637
860.061	4656
860.194	4782
860.327	4675
860.46	4637
860.592	4778
860.725	4759
860.858	4809
860.99	4725
861.123	4687
861.256	4721
861.388	4816
861.521	5509
861.653	4717
861.786	4714
861.918	4774
862.05	4786
862.183	4847
862.315	4900
862.447	4915
862.58	4896
862.712	4831
862.844	4786
862.976	4919
863.108	4896
863.24	5231
863.372	4900
863.504	4858
863.636	4953
863.768	4938
863.9	4923
864.032	4942
864.164	4984
864.296	5060
864.428	5113
864.559	5109
864.691	5105
864.823	5159
864.954	5117
865.086	5109
865.217	5132
865.349	5086
865.48	5166
865.612	5250
865.743	5303
865.875	5212
866.006	5189
866.137	5246
866.269	5273
866.4	5231
866.531	5261
866.662	5254
866.793	5231
866.924	5330
867.055	5330
867.186	5353
867.317	5360
867.448	5326
867.579	5368
867.71	5406
867.841	5421
867.972	5433
868.103	5482
868.233	5509
868.364	5478
868.495	5604
868.625	5646
868.756	5771
868.886	5657
869.017	5775
869.147	5916
869.278	5863
869.408	5813
869.539	5878
869.669	5882
869.799	5958
869.929	5980
870.06	5996
870.19	6201
870.32	6186
870.45	6292
870.58	6365
870.71	6456
870.84	6483
870.97	6559
871.1	6467
871.23	6684
871.36	6662
871.489	6650
871.619	6753
871.749	6764
871.879	6852
872.008	6993
872.138	6993
872.267	7012
872.397	6966
872.526	6985
872.656	7099
872.785	7202
872.915	7445
873.044	7521
873.173	7571
873.303	7670
873.432	7750
873.561	7849
873.69	7951
873.819	8035
873.948	8138
874.077	8286
874.206	8351
874.335	8442
874.464	8720
874.593	8830
874.722	8933
874.851	9135
874.979	9226
875.108	9367
875.237	9481
875.365	9481
875.494	9675
875.623	9873
875.751	9854
875.88	9998
876.008	10074
876.136	10303
876.265	10550
876.393	10717
876.521	10710
876.65	10740
876.778	10809
876.906	10927
877.034	10961
877.162	11128
877.29	11166
877.418	11292
877.546	11387
877.674	11410
877.802	11532
877.93	11532
878.058	11665
878.185	11665
878.313	11672
878.441	11737
878.568	11653
878.696	11817
878.824	11832
878.951	11923
879.079	11999
879.206	12076
879.333	12102
879.461	11996
879.588	12121
879.715	12114
879.842	12247
879.97	12125
880.097	11863
880.224	11779
880.351	11866
880.478	11824
880.605	11882
880.732	11904
880.859	12022
880.986	11802
881.112	11908
881.239	11775
881.366	11726
881.493	11630
881.619	11604
881.746	11608
881.872	11516
881.999	11547
882.125	11543
882.252	11638
882.378	11493
882.505	11566
882.631	11379
882.757	11318
882.883	11311
883.01	11261
883.136	11174
883.262	11185
883.388	11033
883.514	11151
883.64	11178
883.766	11121
883.892	11006
884.018	10991
884.143	11071
884.269	11201
884.395	10885
884.52	10782
884.646	10850
884.772	10675
884.897	10694
885.023	10733
885.148	10782
885.274	10812
885.399	10706
885.524	10611
885.65	10637
885.775	10622
885.9	10603
886.025	10569
886.15	10599
886.275	10421
886.4	10363
886.525	10386
886.65	10417
886.775	10356
886.9	10497
887.025	10512
887.149	10337
887.274	10139
887.399	10215
887.523	10090
887.648	10154
887.773	10112
887.897	10291
888.021	10234
888.146	10158
888.27	10238
888.395	10154
888.519	10204
888.643	10196
888.767	10135
888.891	10078
889.015	10029
889.139	9979
889.263	10048
889.387	10036
889.511	10101
889.635	10097
889.759	9964
889.883	10025
890.006	9987
890.13	10109
890.254	9979
890.377	9953
890.501	9884
890.624	9895
890.748	9857
890.871	9778
890.995	9728
891.118	9747
891.241	9842
891.364	9778
891.488	9861
891.611	9713
891.734	9804
891.857	9835
891.98	9690
892.103	9751
892.226	9728
892.349	9698
892.471	9610
892.594	9580
892.717	9724
892.839	9587
892.962	9595
893.085	9690
893.207	9618
893.33	9519
893.452	9561
893.575	9587
893.697	9526
893.819	9561
893.941	9595
894.064	9576
894.186	9447
894.308	9477
894.43	9504
894.552	9610
894.674	9523
894.796	9382
894.918	9450
895.04	9340
895.161	9367
895.283	9382
895.405	9275
895.526	9256
895.648	9241
895.769	9302
895.891	9226
896.012	9272
896.134	9211
896.255	9142
896.376	9058
896.498	9108
896.619	9142
896.74	9138
896.861	9199
896.982	9241
897.103	9397
897.224	9081
897.345	9081
897.466	9081
897.587	9024
897.708	9055
897.828	9017
897.949	8941
898.07	8906
898.19	8963
898.311	9058
898.431	8948
898.552	8963
898.672	9005
898.792	8952
898.913	8891
899.033	8823
899.153	8705
899.273	8651
899.393	8716
899.513	8750
899.633	8781
899.753	8739
899.873	8811
899.993	8705
900.113	8758
900.232	8800
900.352	8667
900.472	8579
900.591	8545
900.711	8545
900.83	8579
900.95	8689
901.069	8674
901.189	8610
901.308	8400
901.427	8339
901.546	8370
901.665	8450
901.784	8446
901.904	8336
902.023	8332
902.141	8210
902.26	8301
902.379	8286
902.498	8248
902.617	8187
902.735	8286
902.854	8339
902.973	8301
903.091	8130
903.21	8225
903.328	8206
903.446	8115
903.565	8065
903.683	8115
903.801	8058
903.919	8100
904.038	8096
904.156	8046
904.274	8054
904.392	8077
904.51	8035
904.627	8088
904.745	8100
904.863	8123
904.981	7936
905.098	7883
905.216	7849
905.334	7940
905.451	7921
905.569	7830
905.686	7936
905.803	7883
905.921	7795
906.038	7913
906.155	7860
906.272	7708
906.389	7712
906.506	7708
906.623	7655
906.74	7609
906.857	7495
906.974	7563
907.091	7643
907.208	7784
907.324	7620
907.441	7616
907.557	7483
907.674	7407
907.79	7403
907.907	7453
908.023	7453
908.139	7407
908.256	7396
908.372	7377
908.488	7373
908.604	7312
908.72	7293
908.836	7278
908.952	7221
909.068	7266
909.184	7316
909.3	7255
909.415	7274
909.531	7316
909.647	7091
909.762	7118
909.878	7099
909.993	7152
910.108	7076
910.224	7152
910.339	7107
910.454	7050
910.57	7053
910.685	6905
910.8	7175
910.915	7114
911.03	7065
911.145	6958
911.259	6916
911.374	6886
911.489	6852
911.604	6871
911.718	6722
911.833	6715
911.947	6635
912.062	6608
912.176	6646
912.291	6719
912.405	6639
912.519	6795
912.633	6848
912.748	6738
912.862	6715
912.976	6608
913.09	6547
913.204	6623
913.318	6658
913.431	6669
913.545	6696
913.659	6700
913.772	6673
913.886	6597
914	6601
914.113	6627
914.226	6654
914.34	6635
914.453	6517
914.566	6601
914.68	6559
914.793	6540
914.906	6445
915.019	6418
915.132	6361
915.245	6426
915.358	6471
915.47	6456
915.583	6521
915.696	6475
915.809	6585
915.921	6551
916.034	6437
916.146	6433
916.259	6353
916.371	6460
916.483	6441
916.595	6410
916.708	6407
916.82	6422
916.932	6418
917.044	6426
917.156	6441
917.268	6289
917.38	6376
917.491	6334
917.603	6376
917.715	6437
917.826	6384
917.938	6289
918.049	6178
918.161	6350
918.272	6445
918.384	6456
918.495	6369
918.606	6327
918.717	6239
918.828	6258
918.939	6285
919.05	6197
919.161	6220
919.272	6155
919.383	6178
919.494	6323
919.604	6429
919.715	6285
919.826	6273
919.936	6243
920.047	6334
920.157	6315
920.267	6452
920.378	6319
920.488	6243
920.598	6475
920.708	6544
920.818	6452
920.928	6448
921.038	6620
921.148	6597
921.258	6384
921.368	6308
921.477	6209
921.587	6175
921.697	6072
921.806	6190
921.916	6106
922.025	5980
922.134	5950
922.244	5946
922.353	5931
922.462	5832
922.571	5844
922.68	5737
922.789	5676
922.898	5699
923.007	5695
923.116	5676
923.224	5668
923.333	5680
923.442	5570
923.55	5657
923.659	5638
923.767	5630
923.876	5509
923.984	5630
924.092	5532
924.201	5562
924.309	5562
924.417	5589
924.525	5547
924.633	5486
924.741	6148
924.849	5357
924.956	5474
925.064	5421
925.172	5326
925.279	5337
925.387	5357
925.494	5364
925.602	5425
925.709	5425
925.816	5322
925.924	5311
926.031	5364
926.138	5349
926.245	5368
926.352	5178
926.459	5292
926.566	5345
926.673	5216
926.779	5109
926.886	5124
926.993	5064
927.099	4980
927.206	5018
927.312	4980
927.419	5003
927.525	4976
927.631	4965
927.737	4930
927.843	4881
927.95	4816
928.056	4835
928.162	4889
928.267	4850
928.373	5391
928.479	4866
928.585	4687
928.69	4774
928.796	4805
928.901	4683
929.007	4622
929.112	4630
929.218	4679
929.323	4599
929.428	4596
929.533	4717
929.638	4542
929.743	4516
929.848	4573
929.953	4542
930.058	4402
930.163	4337
930.267	4337
930.372	4459
930.477	4295
930.581	4497
930.685	4379
930.79	4238
930.894	4310
930.998	4268
931.103	4348
931.207	4162
931.311	4131
931.415	4048
931.519	3968
931.623	3983
