Data from glass_V78500241_1919.txt Node
Date: Wed Sep 01 19:27:48 CST 2021
User: usil
Spectrometer: V785-0024
Trigger mode: 0
Integration Time (sec): 4.000000E-1
Scans to average: 1
Nonlinearity correction enabled: false
Boxcar width: 0
Storing dark spectrum: false
XAxis mode: Wavelengths
Number of Pixels in Spectrum: 1024
>>>>>Begin Spectral Data<<<<<
801.071	3759
801.214	3766
801.356	3701
801.499	3740
801.641	3701
801.783	3781
801.926	3888
802.068	3785
802.211	3850
802.353	3911
802.496	3793
802.638	3880
802.78	3865
802.923	3930
803.065	3880
803.208	3865
803.35	3880
803.492	3861
803.635	3892
803.777	3740
803.919	3896
804.061	4158
804.204	3972
804.346	3972
804.488	3937
804.63	4040
804.773	3964
804.915	4044
805.057	4124
805.199	4013
805.341	4078
805.483	4093
805.626	4116
805.768	4078
805.91	4173
806.052	4211
806.194	4173
806.336	4379
806.478	4207
806.62	4181
806.762	4204
806.904	4261
807.046	4379
807.188	4246
807.33	4204
807.472	4253
807.614	4135
807.756	4261
807.898	4238
808.04	4173
808.182	4276
808.324	4284
808.465	4318
808.607	4432
808.749	4459
808.891	4447
809.033	4489
809.174	4417
809.316	4303
809.458	4215
809.6	4158
809.741	4158
809.883	4169
810.025	4227
810.166	4219
810.308	4227
810.45	4207
810.591	4227
810.733	4268
810.875	4512
811.016	4824
811.158	5128
811.299	5277
811.441	5277
811.582	5075
811.724	4698
811.865	4474
812.007	4428
812.148	4459
812.29	4379
812.431	4421
812.573	4348
812.714	4360
812.855	4409
812.997	4443
813.138	4489
813.279	4417
813.421	4390
813.562	4386
813.703	4272
813.845	4348
813.986	4280
814.127	4234
814.268	4314
814.41	4318
814.551	4223
814.692	4337
814.833	4246
814.974	4242
815.115	4348
815.256	4227
815.397	4246
815.539	4287
815.68	4181
815.821	4211
815.962	4272
816.103	4276
816.244	4257
816.385	4246
816.526	4268
816.666	4173
816.807	4078
816.948	4135
817.089	4162
817.23	4143
817.371	4044
817.512	4040
817.653	4067
817.793	4036
817.934	4017
818.075	4120
818.216	4051
818.356	4067
818.497	3949
818.638	3884
818.778	3926
818.919	3861
819.06	3873
819.2	3930
819.341	3823
819.481	3831
819.622	3888
819.762	4055
819.903	3934
820.043	3857
820.184	3865
820.324	3797
820.465	3869
820.605	3857
820.746	3835
820.886	3800
821.026	3907
821.167	3896
821.307	3975
821.447	3983
821.588	3956
821.728	3956
821.868	3907
822.008	3850
822.149	3880
822.289	3926
822.429	3743
822.569	3778
822.709	3835
822.849	3667
822.99	3694
823.13	3736
823.27	3736
823.41	3720
823.55	3728
823.69	3709
823.83	3709
823.97	3713
824.11	3591
824.25	3622
824.389	3618
824.529	3644
824.669	3690
824.809	3728
824.949	3747
825.089	3728
825.228	3690
825.368	3580
825.508	3530
825.648	3580
825.787	3595
825.927	3641
826.067	3629
826.206	3686
826.346	3766
826.485	3804
826.625	3838
826.765	3968
826.904	3804
827.044	3614
827.183	3492
827.323	3450
827.462	3466
827.601	3412
827.741	3424
827.88	3443
828.02	3370
828.159	3439
828.298	3477
828.437	3500
828.577	3447
828.716	3629
828.855	3485
828.994	3393
829.134	3412
829.273	3405
829.412	3340
829.551	3298
829.69	3367
829.829	3420
829.968	3500
830.107	3450
830.246	3435
830.385	3367
830.524	3348
830.663	3294
830.802	3294
830.941	3192
831.08	3165
831.219	3264
831.357	3264
831.496	3450
831.635	3237
831.774	3218
831.913	3207
832.051	3150
832.19	3142
832.329	3184
832.467	3154
832.606	3070
832.744	3176
832.883	3157
833.022	3169
833.16	3226
833.299	3310
833.437	3329
833.576	3393
833.714	3397
833.852	3447
833.991	3454
834.129	3492
834.267	3450
834.406	3401
834.544	3412
834.682	3405
834.821	3389
834.959	3576
835.097	3450
835.235	3515
835.373	3477
835.511	3473
835.65	3458
835.788	3481
835.926	3382
836.064	3355
836.202	3393
836.34	3568
836.478	3622
836.615	3504
836.753	3542
836.891	3671
837.029	3587
837.167	3599
837.305	3564
837.443	3519
837.58	3477
837.718	3606
837.856	3576
837.993	3500
838.131	3542
838.269	3587
838.406	3603
838.544	3568
838.681	3492
838.819	3409
838.956	3355
839.094	3412
839.231	3393
839.369	3530
839.506	3740
839.643	3652
839.781	3523
839.918	3462
840.055	3542
840.193	3530
840.33	3553
840.467	3534
840.604	3591
840.742	3804
840.879	3553
841.016	3564
841.153	3610
841.29	3740
841.427	3751
841.564	3720
841.701	3713
841.838	3701
841.975	3671
842.112	3701
842.249	3679
842.385	3633
842.522	3793
842.659	3686
842.796	3633
842.933	3675
843.069	3663
843.206	3686
843.343	3793
843.479	3766
843.616	3835
843.752	3679
843.889	3675
844.025	3861
844.162	3675
844.298	3903
844.435	3823
844.571	3766
844.708	3899
844.844	3979
844.98	3972
845.117	4029
845.253	3953
845.389	3896
845.525	3937
845.661	3968
845.798	3926
845.934	4013
846.07	3975
846.206	4071
846.342	4135
846.478	4025
846.614	3968
846.75	3907
846.886	3899
847.022	4029
847.158	3998
847.294	3991
847.429	4021
847.565	4036
847.701	4268
847.837	3884
847.972	3873
848.108	3983
848.244	3972
848.379	3884
848.515	3854
848.65	3827
848.786	3778
848.921	3869
849.057	3926
849.192	3975
849.328	3888
849.463	3911
849.598	3865
849.734	3846
849.869	3873
850.004	3800
850.14	3793
850.275	3819
850.41	3713
850.545	3728
850.68	3751
850.815	3827
850.95	3770
851.085	3945
851.22	3880
851.355	3869
851.49	3785
851.625	3770
851.76	3800
851.895	3717
852.03	3701
852.165	3819
852.299	3846
852.434	3899
852.569	3903
852.703	3899
852.838	3949
852.973	4006
853.107	4021
853.242	3873
853.376	3831
853.511	3759
853.645	3850
853.78	3949
853.914	3838
854.048	3892
854.183	3884
854.317	3964
854.451	4051
854.585	3956
854.72	3968
854.854	4044
854.988	3953
855.122	3987
855.256	3918
855.39	4048
855.524	4090
855.658	4093
855.792	4101
855.926	4097
856.06	4166
856.194	4185
856.327	4097
856.461	4131
856.595	4154
856.729	4173
856.862	4303
856.996	4188
857.13	4287
857.263	4325
857.397	4379
857.53	4306
857.664	4363
857.797	4379
857.931	4462
858.064	4405
858.197	4462
858.331	4352
858.464	4344
858.597	4390
858.731	4447
858.864	4474
858.997	4432
859.13	4519
859.263	4535
859.396	4550
859.529	4531
859.662	4527
859.795	4546
859.928	4584
860.061	4683
860.194	4717
860.327	4668
860.46	4656
860.592	4698
860.725	4736
860.858	4774
860.99	4622
861.123	4702
861.256	4668
861.388	4831
861.521	5417
861.653	4691
861.786	4706
861.918	4717
862.05	4786
862.183	4858
862.315	4904
862.447	4930
862.58	4904
862.712	4797
862.844	4782
862.976	4892
863.108	4816
863.24	5162
863.372	4858
863.504	4957
863.636	4908
863.768	4968
863.9	4934
864.032	4942
864.164	4908
864.296	5022
864.428	5071
864.559	5105
864.691	5075
864.823	5132
864.954	5045
865.086	5143
865.217	5140
865.349	5124
865.48	5162
865.612	5178
865.743	5242
865.875	5197
866.006	5258
866.137	5239
866.269	5231
866.4	5246
866.531	5254
866.662	5197
866.793	5269
866.924	5254
867.055	5318
867.186	5337
867.317	5334
867.448	5269
867.579	5387
867.71	5387
867.841	5417
867.972	5455
868.103	5448
868.233	5452
868.364	5482
868.495	5524
868.625	5642
868.756	5786
868.886	5684
869.017	5752
869.147	5847
869.278	5893
869.408	5859
869.539	5836
869.669	5878
869.799	5908
869.929	5999
870.06	5984
870.19	6110
870.32	6201
870.45	6273
870.58	6323
870.71	6357
870.84	6437
870.97	6357
871.1	6456
871.23	6650
871.36	6681
871.489	6642
871.619	6730
871.749	6757
871.879	6837
872.008	6973
872.138	6939
872.267	6966
872.397	6985
872.526	7008
872.656	7069
872.785	7137
872.915	7377
873.044	7537
873.173	7552
873.303	7601
873.432	7761
873.561	7864
873.69	7890
873.819	7993
873.948	8149
874.077	8237
874.206	8309
874.335	8495
874.464	8636
874.593	8902
874.722	9001
874.851	9157
874.979	9207
875.108	9401
875.237	9401
875.365	9511
875.494	9644
875.623	9861
875.751	9812
875.88	9987
876.008	10078
876.136	10325
876.265	10558
876.393	10580
876.521	10679
876.65	10752
876.778	10930
876.906	10885
877.034	11075
877.162	11090
877.29	11117
877.418	11273
877.546	11356
877.674	11455
877.802	11448
877.93	11543
878.058	11493
878.185	11589
878.313	11649
878.441	11779
878.568	11718
878.696	11729
878.824	11790
878.951	11912
879.079	11950
879.206	12178
879.333	11935
879.461	11885
879.588	12140
879.715	12083
879.842	12209
879.97	12095
880.097	11767
880.224	11889
880.351	11912
880.478	11767
880.605	11828
880.732	11813
880.859	12019
880.986	11843
881.112	11935
881.239	11699
881.366	11722
881.493	11615
881.619	11512
881.746	11589
881.872	11596
881.999	11535
882.125	11402
882.252	11547
882.378	11467
882.505	11577
882.631	11410
882.757	11284
882.883	11349
883.01	11318
883.136	11254
883.262	11067
883.388	11067
883.514	11216
883.64	11189
883.766	11018
883.892	11075
884.018	10995
884.143	11090
884.269	11083
884.395	10778
884.52	10774
884.646	10778
884.772	10656
884.897	10660
885.023	10599
885.148	10812
885.274	10759
885.399	10702
885.524	10622
885.65	10558
885.775	10603
885.9	10512
886.025	10588
886.15	10542
886.275	10474
886.4	10344
886.525	10409
886.65	10413
886.775	10318
886.9	10558
887.025	10519
887.149	10375
887.274	10177
887.399	10234
887.523	10219
887.648	10181
887.773	10101
887.897	10257
888.021	10154
888.146	10097
888.27	10200
888.395	10192
888.519	10120
888.643	10181
888.767	10181
888.891	10082
889.015	10010
889.139	10067
889.263	9991
889.387	9994
889.511	10109
889.635	10078
889.759	9926
889.883	9991
890.006	10036
890.13	10101
890.254	9930
890.377	9930
890.501	9888
890.624	9880
890.748	9903
890.871	9717
890.995	9743
891.118	9671
891.241	9717
891.364	9724
891.488	9861
891.611	9755
891.734	9717
891.857	9747
891.98	9751
892.103	9774
892.226	9743
892.349	9648
892.471	9538
892.594	9614
892.717	9701
892.839	9576
892.962	9557
893.085	9606
893.207	9599
893.33	9469
893.452	9519
893.575	9610
893.697	9485
893.819	9595
893.941	9595
894.064	9587
894.186	9443
894.308	9386
894.43	9511
894.552	9542
894.674	9530
894.796	9363
894.918	9397
895.04	9321
895.161	9359
895.283	9317
895.405	9226
895.526	9317
895.648	9237
895.769	9233
895.891	9249
896.012	9214
896.134	9226
896.255	9150
896.376	9119
896.498	9161
896.619	9138
896.74	9104
896.861	9119
896.982	9268
897.103	9253
897.224	9165
897.345	9070
897.466	8960
897.587	9036
897.708	9081
897.828	9020
897.949	8998
898.07	8891
898.19	8948
898.311	9051
898.431	8804
898.552	8921
898.672	8899
898.792	8986
898.913	8895
899.033	8819
899.153	8807
899.273	8682
899.393	8705
899.513	8731
899.633	8773
899.753	8678
899.873	8686
899.993	8746
900.113	8781
900.232	8648
900.352	8674
900.472	8594
900.591	8621
900.711	8621
900.83	8526
900.95	8663
901.069	8651
901.189	8644
901.308	8434
901.427	8385
901.546	8465
901.665	8427
901.784	8530
901.904	8400
902.023	8332
902.141	8259
902.26	8202
902.379	8305
902.498	8256
902.617	8202
902.735	8328
902.854	8332
902.973	8210
903.091	8176
903.21	8168
903.328	8142
903.446	8123
903.565	8016
903.683	8134
903.801	8024
903.919	8142
904.038	8149
904.156	8012
904.274	8138
904.392	7940
904.51	8016
904.627	8081
904.745	8020
904.863	8062
904.981	7902
905.098	7826
905.216	7902
905.334	7856
905.451	7894
905.569	7967
905.686	7856
905.803	7887
905.921	7795
906.038	7860
906.155	7788
906.272	7651
906.389	7700
906.506	7601
906.623	7620
906.74	7594
906.857	7571
906.974	7647
907.091	7586
907.208	7723
907.324	7704
907.441	7624
907.557	7502
907.674	7472
907.79	7350
907.907	7438
908.023	7483
908.139	7460
908.256	7312
908.372	7354
908.488	7365
908.604	7263
908.72	7289
908.836	7297
908.952	7209
909.068	7164
909.184	7297
909.3	7190
909.415	7324
909.531	7247
909.647	7141
909.762	7061
909.878	7114
909.993	7038
910.108	7099
910.224	7027
910.339	7126
910.454	7053
910.57	6977
910.685	6897
910.8	7141
910.915	7065
911.03	7038
911.145	6886
911.259	6920
911.374	6943
911.489	6833
911.604	6837
911.718	6696
911.833	6745
911.947	6631
912.062	6547
912.176	6719
912.291	6684
912.405	6707
912.519	6886
912.633	6848
912.748	6772
912.862	6711
912.976	6601
913.09	6544
913.204	6536
913.318	6635
913.431	6627
913.545	6719
913.659	6722
913.772	6616
913.886	6551
914	6536
914.113	6593
914.226	6627
914.34	6597
914.453	6467
914.566	6585
914.68	6494
914.793	6521
914.906	6426
915.019	6376
915.132	6384
915.245	6403
915.358	6391
915.47	6357
915.583	6433
915.696	6486
915.809	6528
915.921	6536
916.034	6437
916.146	6369
916.259	6372
916.371	6475
916.483	6513
916.595	6422
916.708	6365
916.82	6391
916.932	6342
917.044	6346
917.156	6327
917.268	6319
917.38	6342
917.491	6300
917.603	6342
917.715	6445
917.826	6414
917.938	6311
918.049	6232
918.161	6357
918.272	6452
918.384	6433
918.495	6311
918.606	6224
918.717	6201
918.828	6247
918.939	6319
919.05	6243
919.161	6292
919.272	6129
919.383	6140
919.494	6281
919.604	6414
919.715	6251
919.826	6228
919.936	6270
920.047	6388
920.157	6258
920.267	6433
920.378	6327
920.488	6281
920.598	6433
920.708	6521
920.818	6513
920.928	6525
921.038	6608
921.148	6627
921.258	6361
921.368	6361
921.477	6182
921.587	6136
921.697	6121
921.806	6125
921.916	6121
922.025	5885
922.134	5946
922.244	5942
922.353	5939
922.462	5794
922.571	5824
922.68	5665
922.789	5680
922.898	5699
923.007	5653
923.116	5676
923.224	5638
923.333	5653
923.442	5646
923.55	5581
923.659	5627
923.767	5608
923.876	5535
923.984	5585
924.092	5539
924.201	5619
924.309	5589
924.417	5512
924.525	5490
924.633	5524
924.741	6289
924.849	5376
924.956	5486
925.064	5353
925.172	5280
925.279	5311
925.387	5322
925.494	5337
925.602	5391
925.709	5414
925.816	5292
925.924	5254
926.031	5368
926.138	5254
926.245	5341
926.352	5223
926.459	5345
926.566	5318
926.673	5227
926.779	5117
926.886	5113
926.993	5022
927.099	4968
927.206	4995
927.312	4946
927.419	5033
927.525	4965
927.631	4976
927.737	4900
927.843	4854
927.95	4755
928.056	4816
928.162	4847
928.267	4858
928.373	5307
928.479	4831
928.585	4653
928.69	4752
928.796	4774
928.901	4668
929.007	4558
929.112	4679
929.218	4630
929.323	4603
929.428	4550
929.533	4679
929.638	4466
929.743	4538
929.848	4565
929.953	4443
930.058	4417
930.163	4337
930.267	4337
930.372	4405
930.477	4284
930.581	4447
930.685	4325
930.79	4284
930.894	4303
930.998	4253
931.103	4356
931.207	4093
931.311	4143
931.415	4006
931.519	3911
931.623	3922
