Data from glass_V78500241_959.txt Node
Date: Wed Sep 01 19:21:08 CST 2021
User: usil
Spectrometer: V785-0024
Trigger mode: 0
Integration Time (sec): 4.000000E-1
Scans to average: 1
Nonlinearity correction enabled: false
Boxcar width: 0
Storing dark spectrum: false
XAxis mode: Wavelengths
Number of Pixels in Spectrum: 1024
>>>>>Begin Spectral Data<<<<<
801.071	3698
801.214	3785
801.356	3698
801.499	3743
801.641	3732
801.783	3831
801.926	3873
802.068	3846
802.211	3896
802.353	3922
802.496	3865
802.638	3880
802.78	3926
802.923	3926
803.065	3884
803.208	3842
803.35	3865
803.492	3956
803.635	3899
803.777	3850
803.919	3907
804.061	4188
804.204	3949
804.346	3960
804.488	3960
804.63	4063
804.773	3975
804.915	4059
805.057	4147
805.199	4051
805.341	4131
805.483	4166
805.626	4158
805.768	4131
805.91	4204
806.052	4238
806.194	4246
806.336	4348
806.478	4234
806.62	4177
806.762	4150
806.904	4261
807.046	4356
807.188	4230
807.33	4192
807.472	4261
807.614	4211
807.756	4215
807.898	4287
808.04	4227
808.182	4318
808.324	4303
808.465	4409
808.607	4451
808.749	4462
808.891	4478
809.033	4481
809.174	4436
809.316	4242
809.458	4230
809.6	4162
809.741	4101
809.883	4124
810.025	4204
810.166	4223
810.308	4215
810.45	4223
810.591	4223
810.733	4318
810.875	4523
811.016	4854
811.158	5242
811.299	5261
811.441	5318
811.582	5064
811.724	4736
811.865	4462
812.007	4470
812.148	4386
812.29	4424
812.431	4409
812.573	4417
812.714	4367
812.855	4398
812.997	4402
813.138	4489
813.279	4481
813.421	4421
813.562	4413
813.703	4325
813.845	4352
813.986	4257
814.127	4238
814.268	4257
814.41	4299
814.551	4257
814.692	4371
814.833	4306
814.974	4318
815.115	4379
815.256	4295
815.397	4253
815.539	4234
815.68	4230
815.821	4227
815.962	4337
816.103	4325
816.244	4219
816.385	4238
816.526	4318
816.666	4230
816.807	4090
816.948	4154
817.089	4169
817.23	4120
817.371	4044
817.512	4051
817.653	4101
817.793	4010
817.934	4048
818.075	4128
818.216	4032
818.356	4150
818.497	3983
818.638	3934
818.778	3960
818.919	3907
819.06	3892
819.2	3903
819.341	3854
819.481	3869
819.622	3926
819.762	4010
819.903	4017
820.043	3884
820.184	3846
820.324	3850
820.465	3876
820.605	3854
820.746	3880
820.886	3797
821.026	3949
821.167	3930
821.307	3983
821.447	3987
821.588	3930
821.728	3968
821.868	3941
822.008	3876
822.149	3949
822.289	3941
822.429	3800
822.569	3774
822.709	3808
822.849	3728
822.99	3717
823.13	3766
823.27	3797
823.41	3717
823.55	3743
823.69	3736
823.83	3694
823.97	3679
824.11	3644
824.25	3610
824.389	3652
824.529	3686
824.669	3663
824.809	3724
824.949	3797
825.089	3720
825.228	3713
825.368	3584
825.508	3591
825.648	3545
825.787	3599
825.927	3671
826.067	3660
826.206	3705
826.346	3827
826.485	3823
826.625	3907
826.765	3945
826.904	3823
827.044	3633
827.183	3488
827.323	3435
827.462	3473
827.601	3469
827.741	3466
827.88	3492
828.02	3401
828.159	3439
828.298	3496
828.437	3500
828.577	3500
828.716	3614
828.855	3504
828.994	3393
829.134	3363
829.273	3435
829.412	3359
829.551	3321
829.69	3420
829.829	3420
829.968	3530
830.107	3454
830.246	3424
830.385	3370
830.524	3374
830.663	3329
830.802	3253
830.941	3237
831.08	3203
831.219	3291
831.357	3256
831.496	3424
831.635	3279
831.774	3199
831.913	3184
832.051	3131
832.19	3116
832.329	3211
832.467	3146
832.606	3131
832.744	3169
832.883	3161
833.022	3211
833.16	3272
833.299	3340
833.437	3378
833.576	3409
833.714	3416
833.852	3477
833.991	3466
834.129	3458
834.267	3500
834.406	3370
834.544	3420
834.682	3431
834.821	3420
834.959	3599
835.097	3435
835.235	3530
835.373	3534
835.511	3485
835.65	3473
835.788	3473
835.926	3431
836.064	3393
836.202	3393
836.34	3553
836.478	3599
836.615	3526
836.753	3576
836.891	3633
837.029	3614
837.167	3660
837.305	3591
837.443	3538
837.58	3473
837.718	3599
837.856	3584
837.993	3561
838.131	3584
838.269	3599
838.406	3614
838.544	3526
838.681	3439
838.819	3485
838.956	3386
839.094	3405
839.231	3462
839.369	3496
839.506	3766
839.643	3648
839.781	3530
839.918	3458
840.055	3549
840.193	3557
840.33	3523
840.467	3595
840.604	3580
840.742	3808
840.879	3549
841.016	3553
841.153	3622
841.29	3728
841.427	3743
841.564	3751
841.701	3770
841.838	3705
841.975	3720
842.112	3762
842.249	3656
842.385	3660
842.522	3797
842.659	3698
842.796	3701
842.933	3717
843.069	3751
843.206	3717
843.343	3800
843.479	3774
843.616	3804
843.752	3648
843.889	3663
844.025	3865
844.162	3717
844.298	3869
844.435	3827
844.571	3793
844.708	3899
844.844	4002
844.98	4071
845.117	4010
845.253	3983
845.389	3873
845.525	4017
845.661	3983
845.798	3949
845.934	3975
846.07	3960
846.206	4143
846.342	4150
846.478	4048
846.614	4002
846.75	4029
846.886	3899
847.022	4067
847.158	4013
847.294	3991
847.429	4048
847.565	4044
847.701	4230
847.837	3884
847.972	3884
848.108	3979
848.244	4013
848.379	3876
848.515	3827
848.65	3800
848.786	3857
848.921	3850
849.057	3911
849.192	3994
849.328	3953
849.463	3945
849.598	3876
849.734	3865
849.869	3896
850.004	3793
850.14	3831
850.275	3808
850.41	3751
850.545	3770
850.68	3751
850.815	3808
850.95	3819
851.085	3941
851.22	3873
851.355	3857
851.49	3781
851.625	3804
851.76	3797
851.895	3736
852.03	3728
852.165	3838
852.299	3835
852.434	3937
852.569	3899
852.703	3903
852.838	3945
852.973	4013
853.107	4006
853.242	3930
853.376	3857
853.511	3778
853.645	3857
853.78	3979
853.914	3873
854.048	3911
854.183	3934
854.317	3964
854.451	4071
854.585	3941
854.72	3937
854.854	4059
854.988	3972
855.122	4029
855.256	3975
855.39	4013
855.524	4139
855.658	4112
855.792	4101
855.926	4169
856.06	4177
856.194	4246
856.327	4166
856.461	4078
856.595	4169
856.729	4131
856.862	4299
856.996	4261
857.13	4363
857.263	4333
857.397	4375
857.53	4299
857.664	4356
857.797	4424
857.931	4413
858.064	4413
858.197	4451
858.331	4428
858.464	4386
858.597	4371
858.731	4421
858.864	4436
858.997	4478
859.13	4512
859.263	4535
859.396	4618
859.529	4478
859.662	4546
859.795	4500
859.928	4626
860.061	4653
860.194	4698
860.327	4626
860.46	4653
860.592	4786
860.725	4782
860.858	4812
860.99	4656
861.123	4729
861.256	4664
861.388	4729
861.521	5516
861.653	4752
861.786	4691
861.918	4763
862.05	4771
862.183	4858
862.315	4866
862.447	4934
862.58	4900
862.712	4831
862.844	4801
862.976	4892
863.108	4946
863.24	5246
863.372	4892
863.504	4961
863.636	4896
863.768	4984
863.9	4946
864.032	4976
864.164	4972
864.296	5067
864.428	5113
864.559	5109
864.691	5121
864.823	5083
864.954	5102
865.086	5143
865.217	5151
865.349	5094
865.48	5193
865.612	5162
865.743	5341
865.875	5193
866.006	5201
866.137	5292
866.269	5299
866.4	5246
866.531	5288
866.662	5265
866.793	5311
866.924	5265
867.055	5372
867.186	5311
867.317	5303
867.448	5334
867.579	5337
867.71	5433
867.841	5429
867.972	5455
868.103	5417
868.233	5478
868.364	5539
868.495	5562
868.625	5642
868.756	5844
868.886	5653
869.017	5691
869.147	5851
869.278	5851
869.408	5798
869.539	5832
869.669	5935
869.799	5931
869.929	6019
870.06	6068
870.19	6182
870.32	6175
870.45	6281
870.58	6353
870.71	6445
870.84	6502
870.97	6391
871.1	6460
871.23	6673
871.36	6741
871.489	6631
871.619	6726
871.749	6818
871.879	6875
872.008	6916
872.138	6932
872.267	7091
872.397	6977
872.526	7034
872.656	7190
872.785	7221
872.915	7388
873.044	7514
873.173	7613
873.303	7582
873.432	7765
873.561	7898
873.69	7902
873.819	8043
873.948	8161
874.077	8259
874.206	8336
874.335	8473
874.464	8693
874.593	8876
874.722	9009
874.851	9222
874.979	9222
875.108	9370
875.237	9458
875.365	9500
875.494	9671
875.623	9865
875.751	9972
875.88	9994
876.008	10162
876.136	10287
876.265	10527
876.393	10805
876.521	10637
876.65	10930
876.778	10858
876.906	10892
877.034	11022
877.162	11105
877.29	11140
877.418	11376
877.546	11303
877.674	11414
877.802	11429
877.93	11539
878.058	11577
878.185	11600
878.313	11760
878.441	11828
878.568	11646
878.696	11832
878.824	11859
878.951	12019
879.079	12102
879.206	12068
879.333	12148
879.461	11996
879.588	12091
879.715	12041
879.842	12266
879.97	12194
880.097	11958
880.224	11897
880.351	11874
880.478	11893
880.605	11885
880.732	11927
880.859	11992
880.986	11809
881.112	11870
881.239	11729
881.366	11714
881.493	11661
881.619	11535
881.746	11581
881.872	11558
881.999	11570
882.125	11535
882.252	11543
882.378	11562
882.505	11554
882.631	11391
882.757	11303
882.883	11337
883.01	11315
883.136	11151
883.262	11109
883.388	11197
883.514	11174
883.64	11277
883.766	11121
883.892	10957
884.018	11006
884.143	11105
884.269	11212
884.395	10809
884.52	10755
884.646	10835
884.772	10744
884.897	10653
885.023	10717
885.148	10778
885.274	10714
885.399	10664
885.524	10607
885.65	10641
885.775	10561
885.9	10512
886.025	10626
886.15	10519
886.275	10523
886.4	10375
886.525	10333
886.65	10417
886.775	10325
886.9	10436
887.025	10493
887.149	10379
887.274	10219
887.399	10177
887.523	10181
887.648	10188
887.773	10105
887.897	10329
888.021	10268
888.146	10051
888.27	10211
888.395	10287
888.519	10181
888.643	10177
888.767	10196
888.891	10196
889.015	10032
889.139	10090
889.263	9941
889.387	10116
889.511	10192
889.635	10059
889.759	9994
889.883	9998
890.006	10017
890.13	10131
890.254	9922
890.377	10002
890.501	9884
890.624	9865
890.748	9876
890.871	9812
890.995	9671
891.118	9743
891.241	9793
891.364	9800
891.488	9884
891.611	9663
891.734	9717
891.857	9740
891.98	9694
892.103	9789
892.226	9713
892.349	9637
892.471	9485
892.594	9698
892.717	9606
892.839	9603
892.962	9671
893.085	9622
893.207	9507
893.33	9481
893.452	9542
893.575	9534
893.697	9492
893.819	9580
893.941	9633
894.064	9648
894.186	9393
894.308	9439
894.43	9485
894.552	9603
894.674	9534
894.796	9317
894.918	9428
895.04	9321
895.161	9447
895.283	9420
895.405	9310
895.526	9253
895.648	9264
895.769	9192
895.891	9317
896.012	9291
896.134	9233
896.255	9165
896.376	9108
896.498	9214
896.619	9123
896.74	9119
896.861	9127
896.982	9336
897.103	9363
897.224	9142
897.345	9070
897.466	9020
897.587	9032
897.708	9093
897.828	9066
897.949	8967
898.07	8834
898.19	8921
898.311	9017
898.431	8906
898.552	8948
898.672	8998
898.792	8971
898.913	8906
899.033	8773
899.153	8796
899.273	8621
899.393	8750
899.513	8804
899.633	8731
899.753	8773
899.873	8701
899.993	8777
900.113	8739
900.232	8731
900.352	8693
900.472	8590
900.591	8617
900.711	8606
900.83	8617
900.95	8705
901.069	8716
901.189	8488
901.308	8434
901.427	8385
901.546	8457
901.665	8480
901.784	8537
901.904	8370
902.023	8294
902.141	8279
902.26	8221
902.379	8210
902.498	8206
902.617	8294
902.735	8317
902.854	8279
902.973	8271
903.091	8149
903.21	8180
903.328	8153
903.446	8115
903.565	8107
903.683	8134
903.801	8069
903.919	8218
904.038	8157
904.156	7993
904.274	8077
904.392	8088
904.51	7993
904.627	8008
904.745	8081
904.863	8084
904.981	7902
905.098	7906
905.216	7921
905.334	7894
905.451	7852
905.569	7890
905.686	7986
905.803	7959
905.921	7795
906.038	7864
906.155	7826
906.272	7693
906.389	7685
906.506	7601
906.623	7689
906.74	7510
906.857	7559
906.974	7586
907.091	7666
907.208	7761
907.324	7677
907.441	7616
907.557	7495
907.674	7438
907.79	7400
907.907	7411
908.023	7411
908.139	7426
908.256	7403
908.372	7369
908.488	7350
908.604	7274
908.72	7255
908.836	7312
908.952	7247
909.068	7301
909.184	7343
909.3	7297
909.415	7308
909.531	7293
909.647	7114
909.762	7118
909.878	7133
909.993	7137
910.108	7129
910.224	7072
910.339	7091
910.454	7084
910.57	7034
910.685	7000
910.8	7198
910.915	7156
911.03	7076
911.145	6970
911.259	6905
911.374	6897
911.489	6886
911.604	6852
911.718	6719
911.833	6726
911.947	6612
912.062	6589
912.176	6738
912.291	6722
912.405	6684
912.519	6837
912.633	6829
912.748	6722
912.862	6711
912.976	6635
913.09	6585
913.204	6589
913.318	6631
913.431	6730
913.545	6684
913.659	6696
913.772	6646
913.886	6551
914	6601
914.113	6620
914.226	6646
914.34	6662
914.453	6471
914.566	6623
914.68	6502
914.793	6513
914.906	6475
915.019	6388
915.132	6384
915.245	6437
915.358	6422
915.47	6464
915.583	6475
915.696	6479
915.809	6585
915.921	6570
916.034	6437
916.146	6380
916.259	6433
916.371	6475
916.483	6410
916.595	6391
916.708	6448
916.82	6391
916.932	6426
917.044	6452
917.156	6399
917.268	6331
917.38	6323
917.491	6300
917.603	6376
917.715	6429
917.826	6471
917.938	6380
918.049	6296
918.161	6327
918.272	6376
918.384	6448
918.495	6315
918.606	6281
918.717	6239
918.828	6209
918.939	6308
919.05	6220
919.161	6251
919.272	6152
919.383	6186
919.494	6315
919.604	6456
919.715	6270
919.826	6228
919.936	6300
920.047	6388
920.157	6304
920.267	6525
920.378	6327
920.488	6285
920.598	6486
920.708	6563
920.818	6460
920.928	6456
921.038	6604
921.148	6582
921.258	6372
921.368	6331
921.477	6197
921.587	6163
921.697	6057
921.806	6190
921.916	6083
922.025	6038
922.134	5958
922.244	5901
922.353	6019
922.462	5863
922.571	5840
922.68	5718
922.789	5695
922.898	5710
923.007	5680
923.116	5688
923.224	5691
923.333	5653
923.442	5665
923.55	5551
923.659	5638
923.767	5623
923.876	5512
923.984	5615
924.092	5433
924.201	5596
924.309	5539
924.417	5532
924.525	5512
924.633	5509
924.741	6155
924.849	5387
924.956	5482
925.064	5299
925.172	5330
925.279	5269
925.387	5379
925.494	5357
925.602	5448
925.709	5414
925.816	5337
925.924	5341
926.031	5372
926.138	5284
926.245	5364
926.352	5250
926.459	5330
926.566	5326
926.673	5216
926.779	5128
926.886	5124
926.993	5071
927.099	4991
927.206	5105
927.312	4942
927.419	5010
927.525	4919
927.631	4984
927.737	4949
927.843	4923
927.95	4805
928.056	4824
928.162	4850
928.267	4835
928.373	5353
928.479	4839
928.585	4721
928.69	4809
928.796	4786
928.901	4679
929.007	4645
929.112	4679
929.218	4664
929.323	4592
929.428	4569
929.533	4683
929.638	4565
929.743	4561
929.848	4592
929.953	4535
930.058	4421
930.163	4383
930.267	4322
930.372	4424
930.477	4360
930.581	4481
930.685	4363
930.79	4227
930.894	4306
930.998	4303
931.103	4394
931.207	4154
931.311	4067
931.415	4059
931.519	3960
931.623	3930
