Data from glass_V78500241_1256.txt Node
Date: Wed Sep 01 19:23:12 CST 2021
User: usil
Spectrometer: V785-0024
Trigger mode: 0
Integration Time (sec): 4.000000E-1
Scans to average: 1
Nonlinearity correction enabled: false
Boxcar width: 0
Storing dark spectrum: false
XAxis mode: Wavelengths
Number of Pixels in Spectrum: 1024
>>>>>Begin Spectral Data<<<<<
801.071	3736
801.214	3713
801.356	3732
801.499	3732
801.641	3732
801.783	3793
801.926	3869
802.068	3816
802.211	3857
802.353	3880
802.496	3884
802.638	3865
802.78	3876
802.923	3941
803.065	3892
803.208	3846
803.35	3915
803.492	3903
803.635	3888
803.777	3804
803.919	3896
804.061	4143
804.204	3975
804.346	3926
804.488	3941
804.63	4078
804.773	3964
804.915	4025
805.057	4112
805.199	4067
805.341	4086
805.483	4150
805.626	4086
805.768	4135
805.91	4200
806.052	4242
806.194	4185
806.336	4371
806.478	4188
806.62	4162
806.762	4219
806.904	4238
807.046	4363
807.188	4234
807.33	4181
807.472	4253
807.614	4215
807.756	4261
807.898	4272
808.04	4204
808.182	4306
808.324	4318
808.465	4375
808.607	4459
808.749	4462
808.891	4489
809.033	4466
809.174	4405
809.316	4257
809.458	4227
809.6	4158
809.741	4173
809.883	4135
810.025	4242
810.166	4219
810.308	4204
810.45	4265
810.591	4268
810.733	4299
810.875	4535
811.016	4809
811.158	5136
811.299	5258
811.441	5261
811.582	5071
811.724	4744
811.865	4481
812.007	4512
812.148	4398
812.29	4402
812.431	4432
812.573	4409
812.714	4386
812.855	4443
812.997	4405
813.138	4516
813.279	4386
813.421	4375
813.562	4363
813.703	4360
813.845	4363
813.986	4265
814.127	4211
814.268	4276
814.41	4280
814.551	4295
814.692	4337
814.833	4287
814.974	4242
815.115	4375
815.256	4261
815.397	4291
815.539	4234
815.68	4234
815.821	4207
815.962	4325
816.103	4272
816.244	4249
816.385	4230
816.526	4242
816.666	4207
816.807	4105
816.948	4185
817.089	4215
817.23	4124
817.371	4071
817.512	4029
817.653	4063
817.793	4051
817.934	4051
818.075	4109
818.216	4112
818.356	4067
818.497	3972
818.638	3918
818.778	3911
818.919	3896
819.06	3903
819.2	3876
819.341	3846
819.481	3850
819.622	3922
819.762	4055
819.903	3987
820.043	3865
820.184	3812
820.324	3816
820.465	3850
820.605	3838
820.746	3873
820.886	3854
821.026	3926
821.167	3888
821.307	3964
821.447	4002
821.588	3926
821.728	3934
821.868	3979
822.008	3892
822.149	3896
822.289	3926
822.429	3804
822.569	3770
822.709	3804
822.849	3728
822.99	3682
823.13	3774
823.27	3781
823.41	3717
823.55	3728
823.69	3686
823.83	3770
823.97	3686
824.11	3618
824.25	3564
824.389	3633
824.529	3679
824.669	3644
824.809	3717
824.949	3766
825.089	3759
825.228	3709
825.368	3595
825.508	3606
825.648	3576
825.787	3644
825.927	3652
826.067	3641
826.206	3682
826.346	3831
826.485	3869
826.625	3907
826.765	3922
826.904	3903
827.044	3625
827.183	3572
827.323	3431
827.462	3500
827.601	3447
827.741	3454
827.88	3431
828.02	3401
828.159	3431
828.298	3454
828.437	3504
828.577	3507
828.716	3595
828.855	3443
828.994	3386
829.134	3397
829.273	3420
829.412	3367
829.551	3332
829.69	3370
829.829	3473
829.968	3477
830.107	3481
830.246	3458
830.385	3386
830.524	3397
830.663	3329
830.802	3268
830.941	3214
831.08	3195
831.219	3279
831.357	3249
831.496	3443
831.635	3291
831.774	3154
831.913	3241
832.051	3150
832.19	3184
832.329	3199
832.467	3161
832.606	3097
832.744	3237
832.883	3180
833.022	3256
833.16	3279
833.299	3294
833.437	3313
833.576	3401
833.714	3401
833.852	3439
833.991	3466
834.129	3492
834.267	3420
834.406	3424
834.544	3439
834.682	3431
834.821	3454
834.959	3561
835.097	3409
835.235	3519
835.373	3496
835.511	3519
835.65	3496
835.788	3515
835.926	3378
836.064	3386
836.202	3401
836.34	3595
836.478	3637
836.615	3557
836.753	3576
836.891	3682
837.029	3606
837.167	3648
837.305	3553
837.443	3534
837.58	3504
837.718	3614
837.856	3576
837.993	3568
838.131	3606
838.269	3549
838.406	3595
838.544	3584
838.681	3469
838.819	3443
838.956	3359
839.094	3412
839.231	3462
839.369	3534
839.506	3740
839.643	3660
839.781	3496
839.918	3488
840.055	3561
840.193	3538
840.33	3561
840.467	3507
840.604	3622
840.742	3800
840.879	3584
841.016	3568
841.153	3633
841.29	3759
841.427	3728
841.564	3717
841.701	3762
841.838	3701
841.975	3690
842.112	3709
842.249	3663
842.385	3599
842.522	3850
842.659	3675
842.796	3709
842.933	3690
843.069	3728
843.206	3686
843.343	3857
843.479	3766
843.616	3816
843.752	3671
843.889	3720
844.025	3816
844.162	3743
844.298	3823
844.435	3850
844.571	3823
844.708	3918
844.844	3998
844.98	4006
845.117	4006
845.253	3915
845.389	3892
845.525	3975
845.661	3926
845.798	3983
845.934	4013
846.07	3972
846.206	4067
846.342	4101
846.478	4074
846.614	4010
846.75	3926
846.886	3873
847.022	4006
847.158	3994
847.294	4036
847.429	4051
847.565	3983
847.701	4242
847.837	3915
847.972	3876
848.108	4010
848.244	4013
848.379	3869
848.515	3846
848.65	3835
848.786	3854
848.921	3857
849.057	3911
849.192	3975
849.328	3926
849.463	3956
849.598	3869
849.734	3880
849.869	3808
850.004	3808
850.14	3789
850.275	3770
850.41	3743
850.545	3762
850.68	3797
850.815	3789
850.95	3770
851.085	3915
851.22	3835
851.355	3846
851.49	3774
851.625	3762
851.76	3819
851.895	3774
852.03	3736
852.165	3808
852.299	3918
852.434	3945
852.569	3854
852.703	3888
852.838	3934
852.973	4029
853.107	3983
853.242	3915
853.376	3816
853.511	3797
853.645	3869
853.78	3987
853.914	3892
854.048	3880
854.183	3926
854.317	3956
854.451	4097
854.585	3972
854.72	3956
854.854	4063
854.988	3907
855.122	4032
855.256	3888
855.39	4021
855.524	4101
855.658	4120
855.792	4120
855.926	4135
856.06	4154
856.194	4211
856.327	4116
856.461	4112
856.595	4181
856.729	4147
856.862	4310
856.996	4227
857.13	4322
857.263	4348
857.397	4386
857.53	4303
857.664	4371
857.797	4440
857.931	4432
858.064	4379
858.197	4417
858.331	4421
858.464	4379
858.597	4375
858.731	4466
858.864	4493
858.997	4462
859.13	4497
859.263	4538
859.396	4565
859.529	4580
859.662	4577
859.795	4550
859.928	4664
860.061	4717
860.194	4771
860.327	4618
860.46	4634
860.592	4771
860.725	4816
860.858	4790
860.99	4725
861.123	4634
861.256	4733
861.388	4752
861.521	5376
861.653	4725
861.786	4714
861.918	4786
862.05	4797
862.183	4873
862.315	4877
862.447	4923
862.58	4873
862.712	4793
862.844	4797
862.976	4889
863.108	4831
863.24	5174
863.372	4816
863.504	4866
863.636	4938
863.768	4987
863.9	4961
864.032	4938
864.164	4972
864.296	5022
864.428	5071
864.559	5105
864.691	5117
864.823	5113
864.954	5117
865.086	5147
865.217	5166
865.349	5105
865.48	5223
865.612	5181
865.743	5341
865.875	5189
866.006	5220
866.137	5273
866.269	5235
866.4	5246
866.531	5231
866.662	5166
866.793	5254
866.924	5261
867.055	5341
867.186	5322
867.317	5402
867.448	5307
867.579	5379
867.71	5307
867.841	5444
867.972	5478
868.103	5505
868.233	5524
868.364	5497
868.495	5558
868.625	5661
868.756	5783
868.886	5608
869.017	5760
869.147	5897
869.278	5901
869.408	5870
869.539	5931
869.669	5855
869.799	5859
869.929	5973
870.06	5988
870.19	6182
870.32	6182
870.45	6262
870.58	6319
870.71	6433
870.84	6441
870.97	6369
871.1	6483
871.23	6654
871.36	6688
871.489	6662
871.619	6760
871.749	6829
871.879	6890
872.008	7008
872.138	7000
872.267	6943
872.397	6943
872.526	7057
872.656	7107
872.785	7240
872.915	7434
873.044	7548
873.173	7563
873.303	7628
873.432	7826
873.561	7807
873.69	7887
873.819	8012
873.948	8149
874.077	8252
874.206	8377
874.335	8476
874.464	8659
874.593	8876
874.722	8986
874.851	9161
874.979	9176
875.108	9378
875.237	9420
875.365	9443
875.494	9637
875.623	9865
875.751	9854
875.88	10025
876.008	10192
876.136	10314
876.265	10535
876.393	10797
876.521	10691
876.65	10824
876.778	10900
876.906	10942
877.034	10968
877.162	11060
877.29	11212
877.418	11273
877.546	11368
877.674	11433
877.802	11573
877.93	11573
878.058	11592
878.185	11627
878.313	11710
878.441	11733
878.568	11752
878.696	11783
878.824	11916
878.951	11969
879.079	11893
879.206	12148
879.333	12038
879.461	12053
879.588	12098
879.715	12057
879.842	12125
879.97	12076
880.097	11942
880.224	11859
880.351	11923
880.478	11878
880.605	11802
880.732	11802
880.859	11916
880.986	11771
881.112	11969
881.239	11775
881.366	11630
881.493	11596
881.619	11535
881.746	11497
881.872	11535
881.999	11562
882.125	11505
882.252	11554
882.378	11524
882.505	11608
882.631	11406
882.757	11330
882.883	11353
883.01	11254
883.136	11239
883.262	11113
883.388	11090
883.514	11181
883.64	11155
883.766	11143
883.892	10995
884.018	11102
884.143	11083
884.269	11117
884.395	10877
884.52	10736
884.646	10786
884.772	10767
884.897	10721
885.023	10721
885.148	10778
885.274	10812
885.399	10714
885.524	10641
885.65	10500
885.775	10577
885.9	10565
886.025	10577
886.15	10618
886.275	10489
886.4	10344
886.525	10394
886.65	10413
886.775	10341
886.9	10485
887.025	10558
887.149	10337
887.274	10268
887.399	10230
887.523	10143
887.648	10162
887.773	10078
887.897	10215
888.021	10238
888.146	10074
888.27	10268
888.395	10295
888.519	10169
888.643	10131
888.767	10249
888.891	10051
889.015	9998
889.139	10109
889.263	10048
889.387	10093
889.511	10158
889.635	10101
889.759	9991
889.883	9983
890.006	9960
890.13	10116
890.254	9968
890.377	9941
890.501	9816
890.624	9823
890.748	9880
890.871	9785
890.995	9846
891.118	9774
891.241	9747
891.364	9732
891.488	9827
891.611	9701
891.734	9679
891.857	9842
891.98	9770
892.103	9732
892.226	9709
892.349	9656
892.471	9603
892.594	9584
892.717	9686
892.839	9572
892.962	9614
893.085	9652
893.207	9568
893.33	9538
893.452	9469
893.575	9587
893.697	9557
893.819	9557
893.941	9572
894.064	9584
894.186	9469
894.308	9447
894.43	9481
894.552	9542
894.674	9545
894.796	9439
894.918	9439
895.04	9370
895.161	9393
895.283	9435
895.405	9283
895.526	9272
895.648	9317
895.769	9302
895.891	9264
896.012	9310
896.134	9211
896.255	9222
896.376	9108
896.498	9180
896.619	9142
896.74	9093
896.861	9108
896.982	9302
897.103	9298
897.224	9233
897.345	9020
897.466	9028
897.587	8990
897.708	9074
897.828	9024
897.949	8925
898.07	8834
898.19	9058
898.311	9085
898.431	8921
898.552	8910
898.672	8941
898.792	8998
898.913	8925
899.033	8823
899.153	8667
899.273	8705
899.393	8743
899.513	8674
899.633	8731
899.753	8762
899.873	8655
899.993	8746
900.113	8670
900.232	8697
900.352	8689
900.472	8602
900.591	8492
900.711	8648
900.83	8533
900.95	8667
901.069	8655
901.189	8621
901.308	8450
901.427	8362
901.546	8446
901.665	8492
901.784	8537
901.904	8431
902.023	8381
902.141	8237
902.26	8183
902.379	8332
902.498	8218
902.617	8237
902.735	8339
902.854	8244
902.973	8275
903.091	8111
903.21	8161
903.328	8142
903.446	8111
903.565	8058
903.683	8123
903.801	8001
903.919	8157
904.038	8123
904.156	8039
904.274	8100
904.392	7974
904.51	8005
904.627	8119
904.745	8035
904.863	8115
904.981	7936
905.098	7856
905.216	7879
905.334	7898
905.451	7906
905.569	7887
905.686	7909
905.803	7959
905.921	7814
906.038	7856
906.155	7795
906.272	7731
906.389	7689
906.506	7632
906.623	7651
906.74	7651
906.857	7506
906.974	7506
907.091	7674
907.208	7689
907.324	7651
907.441	7582
907.557	7491
907.674	7476
907.79	7365
907.907	7419
908.023	7472
908.139	7434
908.256	7327
908.372	7392
908.488	7384
908.604	7278
908.72	7244
908.836	7365
908.952	7244
909.068	7308
909.184	7358
909.3	7251
909.415	7308
909.531	7274
909.647	7129
909.762	7156
909.878	7152
909.993	7129
910.108	7065
910.224	7065
910.339	7088
910.454	7065
910.57	6993
910.685	6920
910.8	7217
910.915	7141
911.03	7008
911.145	6890
911.259	6844
911.374	6924
911.489	6878
911.604	6871
911.718	6719
911.833	6730
911.947	6646
912.062	6623
912.176	6669
912.291	6745
912.405	6741
912.519	6779
912.633	6821
912.748	6829
912.862	6730
912.976	6620
913.09	6475
913.204	6608
913.318	6585
913.431	6707
913.545	6654
913.659	6722
913.772	6646
913.886	6593
914	6513
914.113	6646
914.226	6703
914.34	6574
914.453	6547
914.566	6635
914.68	6574
914.793	6555
914.906	6418
915.019	6376
915.132	6399
915.245	6448
915.358	6502
915.47	6437
915.583	6399
915.696	6486
915.809	6536
915.921	6555
916.034	6395
916.146	6422
916.259	6414
916.371	6479
916.483	6486
916.595	6388
916.708	6395
916.82	6403
916.932	6391
917.044	6391
917.156	6414
917.268	6323
917.38	6372
917.491	6338
917.603	6361
917.715	6346
917.826	6426
917.938	6338
918.049	6311
918.161	6353
918.272	6407
918.384	6498
918.495	6357
918.606	6289
918.717	6251
918.828	6334
918.939	6258
919.05	6266
919.161	6270
919.272	6148
919.383	6194
919.494	6319
919.604	6422
919.715	6346
919.826	6171
919.936	6285
920.047	6338
920.157	6319
920.267	6452
920.378	6342
920.488	6311
920.598	6479
920.708	6612
920.818	6475
920.928	6494
921.038	6616
921.148	6608
921.258	6346
921.368	6296
921.477	6224
921.587	6228
921.697	6133
921.806	6171
921.916	6057
922.025	5961
922.134	5954
922.244	5920
922.353	5897
922.462	5874
922.571	5798
922.68	5752
922.789	5665
922.898	5733
923.007	5630
923.116	5661
923.224	5691
923.333	5634
923.442	5638
923.55	5592
923.659	5638
923.767	5680
923.876	5577
923.984	5573
924.092	5539
924.201	5585
924.309	5634
924.417	5581
924.525	5532
924.633	5554
924.741	6277
924.849	5391
924.956	5532
925.064	5376
925.172	5292
925.279	5303
925.387	5357
925.494	5360
925.602	5387
925.709	5379
925.816	5315
925.924	5299
926.031	5349
926.138	5318
926.245	5307
926.352	5254
926.459	5318
926.566	5349
926.673	5216
926.779	5113
926.886	5140
926.993	5041
927.099	5014
927.206	4942
927.312	4927
927.419	5037
927.525	4953
927.631	4980
927.737	4927
927.843	4839
927.95	4801
928.056	4816
928.162	4812
928.267	4908
928.373	5337
928.479	4908
928.585	4679
928.69	4763
928.796	4763
928.901	4744
929.007	4645
929.112	4653
929.218	4622
929.323	4596
929.428	4622
929.533	4679
929.638	4546
929.743	4504
929.848	4535
929.953	4531
930.058	4459
930.163	4337
930.267	4352
930.372	4421
930.477	4337
930.581	4504
930.685	4379
930.79	4268
930.894	4291
930.998	4268
931.103	4386
931.207	4124
931.311	4093
931.415	4067
931.519	3934
931.623	3945
