Data from glass_V78500241_747.txt Node
Date: Wed Sep 01 19:19:40 CST 2021
User: usil
Spectrometer: V785-0024
Trigger mode: 0
Integration Time (sec): 4.000000E-1
Scans to average: 1
Nonlinearity correction enabled: false
Boxcar width: 0
Storing dark spectrum: false
XAxis mode: Wavelengths
Number of Pixels in Spectrum: 1024
>>>>>Begin Spectral Data<<<<<
801.071	3774
801.214	3762
801.356	3694
801.499	3774
801.641	3713
801.783	3762
801.926	3861
802.068	3827
802.211	3850
802.353	3937
802.496	3838
802.638	3842
802.78	3907
802.923	3949
803.065	3949
803.208	3876
803.35	3884
803.492	3930
803.635	3899
803.777	3850
803.919	3865
804.061	4169
804.204	3987
804.346	3949
804.488	3991
804.63	4071
804.773	4006
804.915	4021
805.057	4147
805.199	4002
805.341	4120
805.483	4147
805.626	4143
805.768	4143
805.91	4238
806.052	4268
806.194	4242
806.336	4394
806.478	4249
806.62	4158
806.762	4215
806.904	4242
807.046	4337
807.188	4185
807.33	4192
807.472	4211
807.614	4238
807.756	4280
807.898	4200
808.04	4257
808.182	4268
808.324	4310
808.465	4356
808.607	4428
808.749	4527
808.891	4421
809.033	4500
809.174	4383
809.316	4291
809.458	4234
809.6	4173
809.741	4131
809.883	4150
810.025	4215
810.166	4246
810.308	4249
810.45	4280
810.591	4265
810.733	4303
810.875	4519
811.016	4847
811.158	5132
811.299	5269
811.441	5303
811.582	4987
811.724	4691
811.865	4462
812.007	4424
812.148	4485
812.29	4409
812.431	4398
812.573	4436
812.714	4409
812.855	4428
812.997	4424
813.138	4478
813.279	4432
813.421	4409
813.562	4352
813.703	4341
813.845	4310
813.986	4242
814.127	4265
814.268	4314
814.41	4249
814.551	4287
814.692	4341
814.833	4295
814.974	4268
815.115	4367
815.256	4249
815.397	4234
815.539	4265
815.68	4227
815.821	4219
815.962	4363
816.103	4303
816.244	4253
816.385	4211
816.526	4257
816.666	4253
816.807	4139
816.948	4207
817.089	4211
817.23	4166
817.371	4112
817.512	4029
817.653	4150
817.793	4067
817.934	4101
818.075	4135
818.216	4074
818.356	4059
818.497	3983
818.638	3941
818.778	3888
818.919	3907
819.06	3869
819.2	3964
819.341	3876
819.481	3823
819.622	3934
819.762	4044
819.903	3968
820.043	3857
820.184	3880
820.324	3827
820.465	3865
820.605	3896
820.746	3876
820.886	3797
821.026	3945
821.167	3937
821.307	3987
821.447	3998
821.588	3979
821.728	3937
821.868	3934
822.008	3892
822.149	3884
822.289	3930
822.429	3781
822.569	3793
822.709	3816
822.849	3717
822.99	3736
823.13	3781
823.27	3812
823.41	3751
823.55	3675
823.69	3705
823.83	3709
823.97	3682
824.11	3603
824.25	3625
824.389	3633
824.529	3667
824.669	3610
824.809	3736
824.949	3781
825.089	3717
825.228	3717
825.368	3599
825.508	3591
825.648	3564
825.787	3625
825.927	3618
826.067	3614
826.206	3667
826.346	3804
826.485	3819
826.625	3880
826.765	3953
826.904	3842
827.044	3618
827.183	3561
827.323	3454
827.462	3443
827.601	3454
827.741	3405
827.88	3458
828.02	3363
828.159	3447
828.298	3466
828.437	3538
828.577	3519
828.716	3648
828.855	3526
828.994	3397
829.134	3367
829.273	3443
829.412	3355
829.551	3325
829.69	3367
829.829	3428
829.968	3534
830.107	3431
830.246	3424
830.385	3348
830.524	3374
830.663	3313
830.802	3253
830.941	3237
831.08	3230
831.219	3283
831.357	3287
831.496	3428
831.635	3264
831.774	3207
831.913	3218
832.051	3146
832.19	3195
832.329	3226
832.467	3169
832.606	3169
832.744	3199
832.883	3184
833.022	3192
833.16	3237
833.299	3325
833.437	3310
833.576	3424
833.714	3405
833.852	3412
833.991	3443
834.129	3458
834.267	3466
834.406	3412
834.544	3447
834.682	3431
834.821	3405
834.959	3561
835.097	3409
835.235	3553
835.373	3511
835.511	3500
835.65	3488
835.788	3507
835.926	3370
836.064	3420
836.202	3424
836.34	3561
836.478	3625
836.615	3568
836.753	3644
836.891	3660
837.029	3610
837.167	3633
837.305	3576
837.443	3542
837.58	3492
837.718	3553
837.856	3561
837.993	3568
838.131	3618
838.269	3595
838.406	3610
838.544	3595
838.681	3496
838.819	3485
838.956	3416
839.094	3382
839.231	3443
839.369	3500
839.506	3770
839.643	3614
839.781	3534
839.918	3435
840.055	3515
840.193	3511
840.33	3515
840.467	3553
840.604	3610
840.742	3789
840.879	3526
841.016	3564
841.153	3618
841.29	3770
841.427	3736
841.564	3728
841.701	3755
841.838	3747
841.975	3713
842.112	3705
842.249	3618
842.385	3629
842.522	3865
842.659	3648
842.796	3701
842.933	3717
843.069	3694
843.206	3732
843.343	3800
843.479	3835
843.616	3816
843.752	3690
843.889	3720
844.025	3876
844.162	3709
844.298	3861
844.435	3827
844.571	3816
844.708	3884
844.844	3975
844.98	4036
845.117	4029
845.253	3949
845.389	3960
845.525	3956
845.661	4010
845.798	3915
845.934	4017
846.07	4048
846.206	4078
846.342	4173
846.478	4067
846.614	3979
846.75	3960
846.886	3915
847.022	4029
847.158	3983
847.294	3998
847.429	4082
847.565	4010
847.701	4238
847.837	3903
847.972	3930
848.108	4010
848.244	3975
848.379	3884
848.515	3793
848.65	3793
848.786	3865
848.921	3854
849.057	3918
849.192	3945
849.328	3911
849.463	3926
849.598	3846
849.734	3903
849.869	3857
850.004	3816
850.14	3869
850.275	3774
850.41	3736
850.545	3774
850.68	3781
850.815	3823
850.95	3781
851.085	3964
851.22	3922
851.355	3861
851.49	3793
851.625	3804
851.76	3781
851.895	3751
852.03	3709
852.165	3766
852.299	3854
852.434	3934
852.569	3876
852.703	3918
852.838	3941
852.973	4002
853.107	4017
853.242	3918
853.376	3876
853.511	3736
853.645	3861
853.78	3953
853.914	3922
854.048	3937
854.183	3880
854.317	3991
854.451	4097
854.585	3979
854.72	3975
854.854	4059
854.988	3934
855.122	3987
855.256	3937
855.39	4006
855.524	4143
855.658	4124
855.792	4139
855.926	4181
856.06	4200
856.194	4211
856.327	4139
856.461	4112
856.595	4143
856.729	4169
856.862	4276
856.996	4223
857.13	4246
857.263	4348
857.397	4390
857.53	4325
857.664	4333
857.797	4405
857.931	4432
858.064	4447
858.197	4459
858.331	4405
858.464	4379
858.597	4325
858.731	4462
858.864	4451
858.997	4451
859.13	4531
859.263	4485
859.396	4580
859.529	4550
859.662	4565
859.795	4546
859.928	4592
860.061	4706
860.194	4694
860.327	4672
860.46	4679
860.592	4759
860.725	4778
860.858	4752
860.99	4668
861.123	4698
861.256	4721
861.388	4759
861.521	5398
861.653	4729
861.786	4714
861.918	4744
862.05	4782
862.183	4889
862.315	4896
862.447	4908
862.58	4904
862.712	4759
862.844	4797
862.976	4866
863.108	4862
863.24	5246
863.372	4904
863.504	4949
863.636	4949
863.768	4972
863.9	4991
864.032	4904
864.164	4999
864.296	5037
864.428	5029
864.559	5117
864.691	5102
864.823	5151
864.954	5121
865.086	5155
865.217	5136
865.349	5132
865.48	5189
865.612	5212
865.743	5307
865.875	5269
866.006	5216
866.137	5231
866.269	5261
866.4	5269
866.531	5254
866.662	5235
866.793	5303
866.924	5261
867.055	5425
867.186	5360
867.317	5372
867.448	5326
867.579	5357
867.71	5398
867.841	5368
867.972	5490
868.103	5452
868.233	5467
868.364	5501
868.495	5589
868.625	5718
868.756	5817
868.886	5672
869.017	5767
869.147	5870
869.278	5878
869.408	5824
869.539	5866
869.669	5912
869.799	5912
869.929	6015
870.06	6011
870.19	6243
870.32	6194
870.45	6270
870.58	6376
870.71	6486
870.84	6483
870.97	6486
871.1	6456
871.23	6696
871.36	6726
871.489	6726
871.619	6738
871.749	6833
871.879	6856
872.008	6970
872.138	6943
872.267	7023
872.397	7027
872.526	7099
872.656	7122
872.785	7232
872.915	7396
873.044	7502
873.173	7575
873.303	7670
873.432	7761
873.561	7894
873.69	7913
873.819	7978
873.948	8176
874.077	8286
874.206	8339
874.335	8476
874.464	8651
874.593	8925
874.722	8963
874.851	9211
874.979	9211
875.108	9408
875.237	9378
875.365	9473
875.494	9667
875.623	9838
875.751	9823
875.88	9956
876.008	10154
876.136	10306
876.265	10599
876.393	10752
876.521	10748
876.65	10828
876.778	10866
876.906	10923
877.034	11079
877.162	11140
877.29	11121
877.418	11254
877.546	11353
877.674	11436
877.802	11463
877.93	11570
878.058	11551
878.185	11532
878.313	11619
878.441	11821
878.568	11630
878.696	11741
878.824	11771
878.951	12019
879.079	11969
879.206	12079
879.333	12087
879.461	12041
879.588	11973
879.715	12106
879.842	12277
879.97	12133
880.097	11920
880.224	11920
880.351	11893
880.478	11927
880.605	11847
880.732	11764
880.859	12091
880.986	11923
881.112	11863
881.239	11714
881.366	11573
881.493	11627
881.619	11589
881.746	11558
881.872	11535
881.999	11566
882.125	11410
882.252	11524
882.378	11532
882.505	11558
882.631	11368
882.757	11303
882.883	11417
883.01	11322
883.136	11231
883.262	11102
883.388	10999
883.514	11147
883.64	11162
883.766	11079
883.892	10980
884.018	11014
884.143	11098
884.269	11105
884.395	10885
884.52	10778
884.646	10889
884.772	10710
884.897	10694
885.023	10660
885.148	10774
885.274	10824
885.399	10771
885.524	10653
885.65	10603
885.775	10569
885.9	10554
886.025	10577
886.15	10577
886.275	10516
886.4	10371
886.525	10390
886.65	10405
886.775	10341
886.9	10527
887.025	10535
887.149	10367
887.274	10223
887.399	10154
887.523	10207
887.648	10120
887.773	10135
887.897	10299
888.021	10211
888.146	10158
888.27	10348
888.395	10192
888.519	10177
888.643	10150
888.767	10116
888.891	10063
889.015	10074
889.139	10063
889.263	9953
889.387	10074
889.511	10074
889.635	10112
889.759	9983
889.883	9983
890.006	10040
890.13	10051
890.254	9964
890.377	9968
890.501	9869
890.624	9838
890.748	9945
890.871	9705
890.995	9774
891.118	9736
891.241	9751
891.364	9793
891.488	9869
891.611	9747
891.734	9827
891.857	9774
891.98	9701
892.103	9804
892.226	9682
892.349	9644
892.471	9568
892.594	9553
892.717	9625
892.839	9682
892.962	9644
893.085	9671
893.207	9614
893.33	9526
893.452	9553
893.575	9603
893.697	9511
893.819	9660
893.941	9724
894.064	9622
894.186	9374
894.308	9450
894.43	9538
894.552	9580
894.674	9580
894.796	9374
894.918	9405
895.04	9329
895.161	9359
895.283	9431
895.405	9275
895.526	9275
895.648	9230
895.769	9351
895.891	9283
896.012	9336
896.134	9256
896.255	9279
896.376	9116
896.498	9180
896.619	9192
896.74	9036
896.861	9184
896.982	9317
897.103	9256
897.224	9214
897.345	9039
897.466	9028
897.587	8986
897.708	9142
897.828	9043
897.949	8933
898.07	8857
898.19	8872
898.311	8975
898.431	8899
898.552	8952
898.672	9009
898.792	8960
898.913	8944
899.033	8853
899.153	8735
899.273	8670
899.393	8689
899.513	8727
899.633	8731
899.753	8830
899.873	8727
899.993	8689
900.113	8617
900.232	8758
900.352	8705
900.472	8617
900.591	8530
900.711	8583
900.83	8587
900.95	8686
901.069	8781
901.189	8625
901.308	8484
901.427	8408
901.546	8461
901.665	8423
901.784	8495
901.904	8377
902.023	8355
902.141	8206
902.26	8210
902.379	8279
902.498	8244
902.617	8271
902.735	8309
902.854	8355
902.973	8271
903.091	8130
903.21	8180
903.328	8233
903.446	8088
903.565	8100
903.683	8172
903.801	8027
903.919	8187
904.038	8100
904.156	8081
904.274	8111
904.392	8008
904.51	8050
904.627	8084
904.745	8111
904.863	8191
904.981	7887
905.098	7887
905.216	7898
905.334	7868
905.451	7902
905.569	7879
905.686	7921
905.803	7940
905.921	7807
906.038	7951
906.155	7826
906.272	7772
906.389	7746
906.506	7670
906.623	7719
906.74	7563
906.857	7487
906.974	7681
907.091	7674
907.208	7738
907.324	7647
907.441	7613
907.557	7491
907.674	7464
907.79	7407
907.907	7434
908.023	7525
908.139	7510
908.256	7415
908.372	7476
908.488	7403
908.604	7327
908.72	7274
908.836	7320
908.952	7228
909.068	7350
909.184	7369
909.3	7274
909.415	7293
909.531	7263
909.647	7141
909.762	7141
909.878	7099
909.993	7118
910.108	7156
910.224	7126
910.339	7145
910.454	7004
910.57	7000
910.685	6935
910.8	7164
910.915	7129
911.03	7118
911.145	6878
911.259	6932
911.374	6878
911.489	6867
911.604	6852
911.718	6779
911.833	6700
911.947	6616
912.062	6589
912.176	6757
912.291	6726
912.405	6688
912.519	6821
912.633	6875
912.748	6741
912.862	6692
912.976	6642
913.09	6559
913.204	6589
913.318	6623
913.431	6772
913.545	6703
913.659	6719
913.772	6639
913.886	6604
914	6593
914.113	6631
914.226	6673
914.34	6612
914.453	6578
914.566	6620
914.68	6490
914.793	6551
914.906	6437
915.019	6437
915.132	6395
915.245	6372
915.358	6475
915.47	6414
915.583	6433
915.696	6517
915.809	6517
915.921	6566
916.034	6448
916.146	6418
916.259	6403
916.371	6490
916.483	6521
916.595	6445
916.708	6418
916.82	6357
916.932	6399
917.044	6403
917.156	6467
917.268	6376
917.38	6380
917.491	6334
917.603	6357
917.715	6391
917.826	6429
917.938	6350
918.049	6334
918.161	6403
918.272	6456
918.384	6418
918.495	6388
918.606	6292
918.717	6213
918.828	6289
918.939	6315
919.05	6216
919.161	6327
919.272	6159
919.383	6197
919.494	6350
919.604	6418
919.715	6296
919.826	6197
919.936	6331
920.047	6353
920.157	6273
920.267	6475
920.378	6395
920.488	6251
920.598	6471
920.708	6597
920.818	6414
920.928	6467
921.038	6585
921.148	6623
921.258	6342
921.368	6315
921.477	6224
921.587	6258
921.697	6129
921.806	6224
921.916	6102
922.025	5958
922.134	5885
922.244	5904
922.353	5950
922.462	5916
922.571	5882
922.68	5729
922.789	5726
922.898	5764
923.007	5630
923.116	5699
923.224	5695
923.333	5623
923.442	5619
923.55	5589
923.659	5539
923.767	5642
923.876	5566
923.984	5638
924.092	5547
924.201	5528
924.309	5562
924.417	5535
924.525	5524
924.633	5547
924.741	6155
924.849	5402
924.956	5444
925.064	5387
925.172	5322
925.279	5372
925.387	5414
925.494	5345
925.602	5421
925.709	5429
925.816	5288
925.924	5284
926.031	5387
926.138	5334
926.245	5372
926.352	5246
926.459	5330
926.566	5341
926.673	5242
926.779	5109
926.886	5166
926.993	5075
927.099	5037
927.206	4957
927.312	4968
927.419	5056
927.525	5010
927.631	5064
927.737	4949
927.843	4805
927.95	4816
928.056	4828
928.162	4839
928.267	4843
928.373	5376
928.479	4870
928.585	4653
928.69	4759
928.796	4805
928.901	4694
929.007	4611
929.112	4664
929.218	4637
929.323	4607
929.428	4573
929.533	4702
929.638	4508
929.743	4573
929.848	4565
929.953	4516
930.058	4489
930.163	4329
930.267	4356
930.372	4424
930.477	4306
930.581	4489
930.685	4363
930.79	4253
930.894	4280
930.998	4242
931.103	4413
931.207	4105
931.311	4071
931.415	4029
931.519	3956
931.623	3968
