Data from glass_V78500241_1450.txt Node
Date: Wed Sep 01 19:24:33 CST 2021
User: usil
Spectrometer: V785-0024
Trigger mode: 0
Integration Time (sec): 4.000000E-1
Scans to average: 1
Nonlinearity correction enabled: false
Boxcar width: 0
Storing dark spectrum: false
XAxis mode: Wavelengths
Number of Pixels in Spectrum: 1024
>>>>>Begin Spectral Data<<<<<
801.071	3755
801.214	3762
801.356	3732
801.499	3759
801.641	3766
801.783	3774
801.926	3884
802.068	3842
802.211	3861
802.353	3861
802.496	3865
802.638	3876
802.78	3930
802.923	3956
803.065	3857
803.208	3857
803.35	3861
803.492	3918
803.635	3937
803.777	3781
803.919	3907
804.061	4112
804.204	3930
804.346	3975
804.488	3934
804.63	4055
804.773	4010
804.915	4082
805.057	4131
805.199	4059
805.341	4128
805.483	4116
805.626	4101
805.768	4101
805.91	4181
806.052	4284
806.194	4177
806.336	4325
806.478	4242
806.62	4158
806.762	4246
806.904	4284
807.046	4363
807.188	4238
807.33	4173
807.472	4261
807.614	4200
807.756	4291
807.898	4181
808.04	4169
808.182	4276
808.324	4360
808.465	4356
808.607	4455
808.749	4447
808.891	4489
809.033	4527
809.174	4428
809.316	4253
809.458	4265
809.6	4158
809.741	4124
809.883	4135
810.025	4207
810.166	4211
810.308	4185
810.45	4249
810.591	4219
810.733	4287
810.875	4554
811.016	4828
811.158	5117
811.299	5284
811.441	5250
811.582	5064
811.724	4687
811.865	4485
812.007	4470
812.148	4447
812.29	4417
812.431	4417
812.573	4402
812.714	4367
812.855	4375
812.997	4436
813.138	4535
813.279	4428
813.421	4405
813.562	4371
813.703	4295
813.845	4306
813.986	4284
814.127	4219
814.268	4265
814.41	4318
814.551	4272
814.692	4325
814.833	4291
814.974	4337
815.115	4337
815.256	4276
815.397	4238
815.539	4265
815.68	4215
815.821	4215
815.962	4303
816.103	4287
816.244	4257
816.385	4185
816.526	4272
816.666	4238
816.807	4086
816.948	4196
817.089	4147
817.23	4128
817.371	4097
817.512	4086
817.653	4101
817.793	4063
817.934	4055
818.075	4071
818.216	4044
818.356	4074
818.497	3979
818.638	3941
818.778	3896
818.919	3884
819.06	3888
819.2	3979
819.341	3854
819.481	3854
819.622	3903
819.762	4013
819.903	3968
820.043	3884
820.184	3842
820.324	3861
820.465	3903
820.605	3884
820.746	3865
820.886	3823
821.026	3945
821.167	3922
821.307	3972
821.447	4002
821.588	3949
821.728	3964
821.868	3937
822.008	3854
822.149	3937
822.289	3907
822.429	3785
822.569	3778
822.709	3781
822.849	3732
822.99	3743
823.13	3759
823.27	3800
823.41	3717
823.55	3705
823.69	3717
823.83	3698
823.97	3660
824.11	3587
824.25	3595
824.389	3652
824.529	3656
824.669	3648
824.809	3713
824.949	3743
825.089	3709
825.228	3724
825.368	3591
825.508	3568
825.648	3542
825.787	3625
825.927	3637
826.067	3648
826.206	3656
826.346	3762
826.485	3831
826.625	3876
826.765	3907
826.904	3838
827.044	3625
827.183	3534
827.323	3450
827.462	3496
827.601	3431
827.741	3409
827.88	3462
828.02	3348
828.159	3443
828.298	3530
828.437	3526
828.577	3424
828.716	3625
828.855	3504
828.994	3416
829.134	3355
829.273	3340
829.412	3355
829.551	3336
829.69	3336
829.829	3439
829.968	3530
830.107	3412
830.246	3443
830.385	3412
830.524	3367
830.663	3272
830.802	3272
830.941	3222
831.08	3199
831.219	3256
831.357	3256
831.496	3359
831.635	3260
831.774	3192
831.913	3230
832.051	3131
832.19	3135
832.329	3184
832.467	3161
832.606	3131
832.744	3195
832.883	3176
833.022	3214
833.16	3245
833.299	3340
833.437	3325
833.576	3374
833.714	3397
833.852	3416
833.991	3435
834.129	3481
834.267	3485
834.406	3401
834.544	3481
834.682	3412
834.821	3428
834.959	3580
835.097	3435
835.235	3542
835.373	3511
835.511	3519
835.65	3409
835.788	3481
835.926	3431
836.064	3401
836.202	3405
836.34	3564
836.478	3584
836.615	3549
836.753	3591
836.891	3644
837.029	3644
837.167	3622
837.305	3545
837.443	3538
837.58	3481
837.718	3614
837.856	3561
837.993	3549
838.131	3572
838.269	3625
838.406	3576
838.544	3572
838.681	3462
838.819	3488
838.956	3412
839.094	3367
839.231	3466
839.369	3492
839.506	3751
839.643	3633
839.781	3469
839.918	3447
840.055	3519
840.193	3526
840.33	3542
840.467	3523
840.604	3603
840.742	3766
840.879	3553
841.016	3568
841.153	3622
841.29	3770
841.427	3713
841.564	3762
841.701	3732
841.838	3686
841.975	3705
842.112	3724
842.249	3660
842.385	3622
842.522	3816
842.659	3740
842.796	3656
842.933	3728
843.069	3701
843.206	3724
843.343	3842
843.479	3774
843.616	3835
843.752	3701
843.889	3675
844.025	3823
844.162	3751
844.298	3846
844.435	3751
844.571	3762
844.708	3934
844.844	3994
844.98	3998
845.117	4048
845.253	3918
845.389	3922
845.525	3983
845.661	3964
845.798	3884
845.934	4051
846.07	3941
846.206	4040
846.342	4150
846.478	4071
846.614	3972
846.75	3945
846.886	3915
847.022	4059
847.158	4010
847.294	3991
847.429	4040
847.565	3949
847.701	4253
847.837	3899
847.972	3873
848.108	3983
848.244	3972
848.379	3888
848.515	3793
848.65	3778
848.786	3857
848.921	3835
849.057	3953
849.192	3953
849.328	3915
849.463	3888
849.598	3880
849.734	3884
849.869	3827
850.004	3831
850.14	3838
850.275	3785
850.41	3743
850.545	3740
850.68	3793
850.815	3793
850.95	3827
851.085	3930
851.22	3835
851.355	3831
851.49	3823
851.625	3793
851.76	3789
851.895	3762
852.03	3762
852.165	3816
852.299	3831
852.434	3918
852.569	3838
852.703	3934
852.838	3972
852.973	3987
853.107	4010
853.242	3876
853.376	3869
853.511	3808
853.645	3823
853.78	3991
853.914	3911
854.048	3899
854.183	3850
854.317	3918
854.451	4063
854.585	3987
854.72	3934
854.854	4048
854.988	3937
855.122	3968
855.256	3956
855.39	4032
855.524	4116
855.658	4078
855.792	4093
855.926	4143
856.06	4162
856.194	4181
856.327	4177
856.461	4105
856.595	4143
856.729	4177
856.862	4272
856.996	4230
857.13	4284
857.263	4325
857.397	4352
857.53	4303
857.664	4375
857.797	4386
857.931	4405
858.064	4386
858.197	4459
858.331	4398
858.464	4470
858.597	4375
858.731	4402
858.864	4485
858.997	4428
859.13	4497
859.263	4519
859.396	4573
859.529	4508
859.662	4485
859.795	4523
859.928	4622
860.061	4771
860.194	4717
860.327	4615
860.46	4668
860.592	4740
860.725	4694
860.858	4820
860.99	4675
861.123	4683
861.256	4714
861.388	4778
861.521	5318
861.653	4702
861.786	4717
861.918	4778
862.05	4801
862.183	4858
862.315	4908
862.447	4957
862.58	4885
862.712	4797
862.844	4759
862.976	4889
863.108	4892
863.24	5159
863.372	4809
863.504	4885
863.636	4877
863.768	5029
863.9	4995
864.032	4923
864.164	4923
864.296	4980
864.428	5083
864.559	5128
864.691	5113
864.823	5121
864.954	5094
865.086	5147
865.217	5105
865.349	5117
865.48	5136
865.612	5159
865.743	5277
865.875	5159
866.006	5242
866.137	5220
866.269	5197
866.4	5216
866.531	5223
866.662	5155
866.793	5284
866.924	5246
867.055	5383
867.186	5341
867.317	5288
867.448	5349
867.579	5353
867.71	5391
867.841	5364
867.972	5493
868.103	5482
868.233	5516
868.364	5493
868.495	5573
868.625	5680
868.756	5794
868.886	5703
869.017	5684
869.147	5851
869.278	5851
869.408	5828
869.539	5863
869.669	5897
869.799	5897
869.929	5942
870.06	5992
870.19	6213
870.32	6182
870.45	6262
870.58	6304
870.71	6433
870.84	6498
870.97	6399
871.1	6502
871.23	6582
871.36	6654
871.489	6734
871.619	6772
871.749	6787
871.879	6863
872.008	7023
872.138	6954
872.267	7034
872.397	7042
872.526	7057
872.656	7114
872.785	7175
872.915	7377
873.044	7525
873.173	7590
873.303	7632
873.432	7719
873.561	7883
873.69	7936
873.819	8050
873.948	8130
874.077	8275
874.206	8328
874.335	8434
874.464	8632
874.593	8868
874.722	8963
874.851	9108
874.979	9306
875.108	9344
875.237	9412
875.365	9473
875.494	9618
875.623	9797
875.751	9880
875.88	9915
876.008	10131
876.136	10303
876.265	10531
876.393	10656
876.521	10691
876.65	10869
876.778	10866
876.906	11003
877.034	10889
877.162	11128
877.29	11105
877.418	11318
877.546	11341
877.674	11444
877.802	11455
877.93	11562
878.058	11558
878.185	11627
878.313	11615
878.441	11695
878.568	11767
878.696	11832
878.824	11843
878.951	11961
879.079	11984
879.206	12182
879.333	12064
879.461	11984
879.588	12159
879.715	12091
879.842	12262
879.97	12022
880.097	11889
880.224	11843
880.351	11916
880.478	11939
880.605	11870
880.732	11718
880.859	12011
880.986	11821
881.112	11817
881.239	11722
881.366	11646
881.493	11596
881.619	11524
881.746	11566
881.872	11585
881.999	11467
882.125	11414
882.252	11600
882.378	11501
882.505	11627
882.631	11383
882.757	11258
882.883	11303
883.01	11197
883.136	11220
883.262	11056
883.388	11045
883.514	11212
883.64	11220
883.766	11117
883.892	10980
884.018	11064
884.143	11109
884.269	11075
884.395	10831
884.52	10824
884.646	10812
884.772	10672
884.897	10664
885.023	10656
885.148	10736
885.274	10736
885.399	10725
885.524	10596
885.65	10645
885.775	10603
885.9	10538
886.025	10592
886.15	10584
886.275	10451
886.4	10417
886.525	10402
886.65	10428
886.775	10303
886.9	10371
887.025	10497
887.149	10451
887.274	10219
887.399	10306
887.523	10204
887.648	10051
887.773	10101
887.897	10379
888.021	10253
888.146	10143
888.27	10215
888.395	10173
888.519	10215
888.643	10207
888.767	10299
888.891	10109
889.015	10051
889.139	9991
889.263	9987
889.387	10131
889.511	10059
889.635	10032
889.759	10040
889.883	10044
890.006	9934
890.13	10105
890.254	10002
890.377	9998
890.501	9819
890.624	9888
890.748	9937
890.871	9747
890.995	9728
891.118	9827
891.241	9705
891.364	9774
891.488	9808
891.611	9762
891.734	9827
891.857	9804
891.98	9732
892.103	9838
892.226	9774
892.349	9713
892.471	9549
892.594	9614
892.717	9587
892.839	9637
892.962	9652
893.085	9641
893.207	9599
893.33	9504
893.452	9523
893.575	9584
893.697	9511
893.819	9644
893.941	9580
894.064	9622
894.186	9439
894.308	9378
894.43	9599
894.552	9572
894.674	9523
894.796	9386
894.918	9367
895.04	9355
895.161	9325
895.283	9367
895.405	9249
895.526	9272
895.648	9306
895.769	9218
895.891	9283
896.012	9249
896.134	9192
896.255	9176
896.376	9093
896.498	9108
896.619	9093
896.74	9077
896.861	9161
896.982	9268
897.103	9310
897.224	9146
897.345	9097
897.466	9020
897.587	8967
897.708	9119
897.828	9032
897.949	8937
898.07	8906
898.19	8883
898.311	8998
898.431	8899
898.552	8883
898.672	9028
898.792	8937
898.913	8838
899.033	8800
899.153	8731
899.273	8648
899.393	8739
899.513	8773
899.633	8678
899.753	8758
899.873	8705
899.993	8788
900.113	8648
900.232	8739
900.352	8674
900.472	8594
900.591	8571
900.711	8518
900.83	8590
900.95	8686
901.069	8667
901.189	8575
901.308	8469
901.427	8454
901.546	8408
901.665	8408
901.784	8511
901.904	8393
902.023	8248
902.141	8210
902.26	8157
902.379	8347
902.498	8256
902.617	8214
902.735	8286
902.854	8248
902.973	8313
903.091	8172
903.21	8065
903.328	8130
903.446	8126
903.565	8107
903.683	8126
903.801	8046
903.919	8149
904.038	8119
904.156	8027
904.274	8077
904.392	8081
904.51	7970
904.627	8062
904.745	8024
904.863	8115
904.981	7875
905.098	7871
905.216	7875
905.334	7963
905.451	7841
905.569	7890
905.686	7944
905.803	7940
905.921	7788
906.038	7849
906.155	7841
906.272	7765
906.389	7723
906.506	7662
906.623	7693
906.74	7613
906.857	7590
906.974	7571
907.091	7677
907.208	7780
907.324	7578
907.441	7544
907.557	7445
907.674	7472
907.79	7441
907.907	7434
908.023	7434
908.139	7365
908.256	7388
908.372	7384
908.488	7308
908.604	7266
908.72	7209
908.836	7244
908.952	7244
909.068	7282
909.184	7324
909.3	7339
909.415	7263
909.531	7339
909.647	7118
909.762	7110
909.878	7114
909.993	7194
910.108	7084
910.224	7053
910.339	7103
910.454	7046
910.57	6985
910.685	6977
910.8	7221
910.915	7114
911.03	7076
911.145	6924
911.259	6882
911.374	6935
911.489	6897
911.604	6863
911.718	6703
911.833	6711
911.947	6646
912.062	6601
912.176	6749
912.291	6692
912.405	6677
912.519	6806
912.633	6825
912.748	6692
912.862	6681
912.976	6612
913.09	6486
913.204	6585
913.318	6639
913.431	6692
913.545	6646
913.659	6753
913.772	6589
913.886	6631
914	6612
914.113	6654
914.226	6642
914.34	6574
914.453	6460
914.566	6616
914.68	6551
914.793	6517
914.906	6426
915.019	6395
915.132	6422
915.245	6445
915.358	6471
915.47	6361
915.583	6460
915.696	6460
915.809	6536
915.921	6509
916.034	6410
916.146	6407
916.259	6395
916.371	6494
916.483	6426
916.595	6376
916.708	6395
916.82	6395
916.932	6399
917.044	6323
917.156	6369
917.268	6277
917.38	6338
917.491	6304
917.603	6410
917.715	6372
917.826	6418
917.938	6300
918.049	6281
918.161	6350
918.272	6414
918.384	6475
918.495	6380
918.606	6273
918.717	6190
918.828	6289
918.939	6304
919.05	6205
919.161	6243
919.272	6133
919.383	6175
919.494	6285
919.604	6399
919.715	6247
919.826	6228
919.936	6273
920.047	6357
920.157	6243
920.267	6502
920.378	6357
920.488	6285
920.598	6475
920.708	6642
920.818	6502
920.928	6418
921.038	6604
921.148	6570
921.258	6388
921.368	6338
921.477	6220
921.587	6171
921.697	6117
921.806	6182
921.916	6015
922.025	5942
922.134	5927
922.244	5889
922.353	5992
922.462	5863
922.571	5779
922.68	5737
922.789	5661
922.898	5695
923.007	5581
923.116	5672
923.224	5619
923.333	5642
923.442	5566
923.55	5596
923.659	5577
923.767	5611
923.876	5562
923.984	5585
924.092	5524
924.201	5551
924.309	5554
924.417	5547
924.525	5505
924.633	5501
924.741	6125
924.849	5391
924.956	5493
925.064	5433
925.172	5288
925.279	5315
925.387	5330
925.494	5376
925.602	5452
925.709	5417
925.816	5269
925.924	5341
926.031	5345
926.138	5288
926.245	5360
926.352	5208
926.459	5292
926.566	5307
926.673	5216
926.779	5159
926.886	5075
926.993	5052
927.099	5018
927.206	4961
927.312	4965
927.419	5041
927.525	4957
927.631	5014
927.737	4885
927.843	4889
927.95	4774
928.056	4809
928.162	4835
928.267	4786
928.373	5231
928.479	4847
928.585	4721
928.69	4786
928.796	4774
928.901	4740
929.007	4577
929.112	4641
929.218	4675
929.323	4588
929.428	4599
929.533	4714
929.638	4542
929.743	4527
929.848	4546
929.953	4546
930.058	4409
930.163	4295
930.267	4314
930.372	4424
930.477	4253
930.581	4474
930.685	4329
930.79	4253
930.894	4284
930.998	4291
931.103	4436
931.207	4135
931.311	4067
931.415	4032
931.519	3926
931.623	3941
