Data from glass_V78500241_1900.txt Node
Date: Wed Sep 01 19:27:40 CST 2021
User: usil
Spectrometer: V785-0024
Trigger mode: 0
Integration Time (sec): 4.000000E-1
Scans to average: 1
Nonlinearity correction enabled: false
Boxcar width: 0
Storing dark spectrum: false
XAxis mode: Wavelengths
Number of Pixels in Spectrum: 1024
>>>>>Begin Spectral Data<<<<<
801.071	3774
801.214	3797
801.356	3705
801.499	3736
801.641	3720
801.783	3762
801.926	3854
802.068	3812
802.211	3861
802.353	3899
802.496	3865
802.638	3869
802.78	3930
802.923	3937
803.065	3888
803.208	3835
803.35	3869
803.492	3884
803.635	3922
803.777	3816
803.919	3899
804.061	4116
804.204	3934
804.346	3987
804.488	3857
804.63	4017
804.773	3949
804.915	3991
805.057	4139
805.199	4074
805.341	4101
805.483	4101
805.626	4078
805.768	4139
805.91	4223
806.052	4227
806.194	4188
806.336	4318
806.478	4261
806.62	4147
806.762	4196
806.904	4204
807.046	4375
807.188	4242
807.33	4158
807.472	4227
807.614	4169
807.756	4280
807.898	4158
808.04	4230
808.182	4265
808.324	4337
808.465	4337
808.607	4443
808.749	4428
808.891	4485
809.033	4489
809.174	4390
809.316	4257
809.458	4249
809.6	4143
809.741	4173
809.883	4135
810.025	4219
810.166	4215
810.308	4188
810.45	4257
810.591	4242
810.733	4299
810.875	4554
811.016	4755
811.158	5098
811.299	5277
811.441	5246
811.582	5037
811.724	4649
811.865	4478
812.007	4428
812.148	4428
812.29	4409
812.431	4421
812.573	4360
812.714	4348
812.855	4421
812.997	4405
813.138	4462
813.279	4413
813.421	4379
813.562	4318
813.703	4341
813.845	4314
813.986	4284
814.127	4223
814.268	4219
814.41	4314
814.551	4268
814.692	4363
814.833	4249
814.974	4333
815.115	4344
815.256	4246
815.397	4215
815.539	4242
815.68	4173
815.821	4204
815.962	4287
816.103	4238
816.244	4253
816.385	4272
816.526	4299
816.666	4215
816.807	4059
816.948	4192
817.089	4173
817.23	4109
817.371	4086
817.512	4040
817.653	4112
817.793	4071
817.934	4071
818.075	4090
818.216	4086
818.356	4086
818.497	3964
818.638	3888
818.778	3918
818.919	3903
819.06	3819
819.2	3934
819.341	3903
819.481	3846
819.622	3865
819.762	4021
819.903	3941
820.043	3842
820.184	3873
820.324	3800
820.465	3850
820.605	3842
820.746	3823
820.886	3846
821.026	3949
821.167	3930
821.307	3953
821.447	3972
821.588	3960
821.728	3918
821.868	3926
822.008	3884
822.149	3918
822.289	3888
822.429	3804
822.569	3770
822.709	3728
822.849	3686
822.99	3736
823.13	3774
823.27	3762
823.41	3709
823.55	3732
823.69	3686
823.83	3766
823.97	3724
824.11	3580
824.25	3614
824.389	3637
824.529	3656
824.669	3644
824.809	3701
824.949	3751
825.089	3751
825.228	3663
825.368	3572
825.508	3553
825.648	3538
825.787	3591
825.927	3625
826.067	3595
826.206	3656
826.346	3774
826.485	3835
826.625	3903
826.765	3972
826.904	3797
827.044	3587
827.183	3526
827.323	3428
827.462	3443
827.601	3462
827.741	3397
827.88	3424
828.02	3359
828.159	3412
828.298	3431
828.437	3526
828.577	3450
828.716	3641
828.855	3492
828.994	3393
829.134	3367
829.273	3367
829.412	3382
829.551	3298
829.69	3359
829.829	3424
829.968	3481
830.107	3447
830.246	3447
830.385	3351
830.524	3351
830.663	3325
830.802	3245
830.941	3173
831.08	3173
831.219	3233
831.357	3272
831.496	3405
831.635	3237
831.774	3203
831.913	3188
832.051	3093
832.19	3184
832.329	3199
832.467	3157
832.606	3077
832.744	3138
832.883	3180
833.022	3230
833.16	3272
833.299	3283
833.437	3329
833.576	3401
833.714	3412
833.852	3416
833.991	3481
834.129	3466
834.267	3412
834.406	3367
834.544	3374
834.682	3412
834.821	3435
834.959	3595
835.097	3389
835.235	3530
835.373	3481
835.511	3481
835.65	3447
835.788	3450
835.926	3405
836.064	3389
836.202	3424
836.34	3576
836.478	3564
836.615	3584
836.753	3587
836.891	3648
837.029	3660
837.167	3606
837.305	3603
837.443	3568
837.58	3492
837.718	3591
837.856	3610
837.993	3530
838.131	3637
838.269	3580
838.406	3584
838.544	3580
838.681	3485
838.819	3477
838.956	3397
839.094	3420
839.231	3416
839.369	3507
839.506	3701
839.643	3610
839.781	3485
839.918	3477
840.055	3523
840.193	3492
840.33	3511
840.467	3530
840.604	3591
840.742	3812
840.879	3538
841.016	3538
841.153	3557
841.29	3762
841.427	3724
841.564	3713
841.701	3713
841.838	3705
841.975	3641
842.112	3720
842.249	3629
842.385	3686
842.522	3778
842.659	3682
842.796	3656
842.933	3701
843.069	3698
843.206	3713
843.343	3846
843.479	3819
843.616	3846
843.752	3690
843.889	3705
844.025	3869
844.162	3690
844.298	3842
844.435	3709
844.571	3774
844.708	3922
844.844	3941
844.98	3991
845.117	3956
845.253	3915
845.389	3884
845.525	3979
845.661	3949
845.798	3899
845.934	4002
846.07	3941
846.206	4071
846.342	4120
846.478	4051
846.614	3945
846.75	3926
846.886	3930
847.022	4010
847.158	3979
847.294	4010
847.429	4013
847.565	4002
847.701	4238
847.837	3888
847.972	3873
848.108	3941
848.244	3953
848.379	3789
848.515	3800
848.65	3812
848.786	3854
848.921	3819
849.057	3926
849.192	3964
849.328	3915
849.463	3968
849.598	3911
849.734	3865
849.869	3804
850.004	3770
850.14	3842
850.275	3789
850.41	3720
850.545	3720
850.68	3759
850.815	3781
850.95	3797
851.085	3956
851.22	3888
851.355	3869
851.49	3800
851.625	3747
851.76	3778
851.895	3770
852.03	3740
852.165	3812
852.299	3819
852.434	3903
852.569	3838
852.703	3869
852.838	3911
852.973	3987
853.107	3998
853.242	3907
853.376	3854
853.511	3823
853.645	3823
853.78	3964
853.914	3884
854.048	3892
854.183	3903
854.317	3983
854.451	4067
854.585	3892
854.72	3926
854.854	4055
854.988	3926
855.122	4006
855.256	3945
855.39	3991
855.524	4109
855.658	4067
855.792	4150
855.926	4074
856.06	4173
856.194	4204
856.327	4173
856.461	4120
856.595	4135
856.729	4196
856.862	4306
856.996	4257
857.13	4306
857.263	4303
857.397	4356
857.53	4276
857.664	4360
857.797	4413
857.931	4390
858.064	4360
858.197	4440
858.331	4405
858.464	4352
858.597	4379
858.731	4428
858.864	4493
858.997	4440
859.13	4516
859.263	4546
859.396	4573
859.529	4481
859.662	4558
859.795	4497
859.928	4622
860.061	4725
860.194	4710
860.327	4675
860.46	4630
860.592	4759
860.725	4729
860.858	4744
860.99	4653
861.123	4691
861.256	4668
861.388	4809
861.521	5429
861.653	4691
861.786	4698
861.918	4778
862.05	4774
862.183	4820
862.315	4889
862.447	4919
862.58	4881
862.712	4786
862.844	4729
862.976	4850
863.108	4870
863.24	5140
863.372	4835
863.504	4911
863.636	4923
863.768	4972
863.9	4946
864.032	4908
864.164	4934
864.296	4999
864.428	5105
864.559	5048
864.691	5155
864.823	5098
864.954	5170
865.086	5140
865.217	5098
865.349	5109
865.48	5162
865.612	5201
865.743	5360
865.875	5143
866.006	5178
866.137	5208
866.269	5258
866.4	5208
866.531	5265
866.662	5280
866.793	5220
866.924	5277
867.055	5368
867.186	5330
867.317	5315
867.448	5284
867.579	5387
867.71	5387
867.841	5383
867.972	5436
868.103	5452
868.233	5532
868.364	5501
868.495	5535
868.625	5665
868.756	5775
868.886	5642
869.017	5756
869.147	5866
869.278	5859
869.408	5824
869.539	5828
869.669	5927
869.799	5927
869.929	5996
870.06	6019
870.19	6205
870.32	6175
870.45	6209
870.58	6266
870.71	6414
870.84	6460
870.97	6369
871.1	6410
871.23	6635
871.36	6726
871.489	6639
871.619	6749
871.749	6814
871.879	6825
872.008	6935
872.138	6909
872.267	6958
872.397	6951
872.526	7038
872.656	7133
872.785	7175
872.915	7373
873.044	7540
873.173	7559
873.303	7575
873.432	7719
873.561	7871
873.69	7826
873.819	7997
873.948	8111
874.077	8263
874.206	8320
874.335	8434
874.464	8644
874.593	8861
874.722	8948
874.851	9119
874.979	9241
875.108	9329
875.237	9435
875.365	9435
875.494	9698
875.623	9812
875.751	9774
875.88	9934
876.008	10013
876.136	10238
876.265	10516
876.393	10717
876.521	10702
876.65	10797
876.778	10923
876.906	10930
877.034	10968
877.162	11067
877.29	11064
877.418	11239
877.546	11376
877.674	11467
877.802	11474
877.93	11589
878.058	11478
878.185	11547
878.313	11741
878.441	11756
878.568	11688
878.696	11775
878.824	11748
878.951	11980
879.079	11977
879.206	12095
879.333	12003
879.461	11984
879.588	12049
879.715	12057
879.842	12205
879.97	12064
880.097	11874
880.224	11950
880.351	11847
880.478	11908
880.605	11931
880.732	11790
880.859	11988
880.986	11817
881.112	11843
881.239	11684
881.366	11634
881.493	11661
881.619	11608
881.746	11570
881.872	11516
881.999	11471
882.125	11486
882.252	11532
882.378	11448
882.505	11570
882.631	11368
882.757	11356
882.883	11318
883.01	11273
883.136	11159
883.262	11045
883.388	11006
883.514	11269
883.64	11220
883.766	11136
883.892	11003
884.018	10911
884.143	11102
884.269	11037
884.395	10843
884.52	10675
884.646	10733
884.772	10744
884.897	10565
885.023	10645
885.148	10664
885.274	10736
885.399	10626
885.524	10535
885.65	10565
885.775	10504
885.9	10459
886.025	10634
886.15	10584
886.275	10421
886.4	10329
886.525	10360
886.65	10489
886.775	10333
886.9	10432
887.025	10542
887.149	10398
887.274	10219
887.399	10192
887.523	10154
887.648	10086
887.773	10032
887.897	10280
888.021	10192
888.146	10207
888.27	10230
888.395	10196
888.519	10173
888.643	10173
888.767	10162
888.891	10048
889.015	10017
889.139	10090
889.263	10017
889.387	10105
889.511	10124
889.635	10128
889.759	9983
889.883	9861
890.006	9953
890.13	10135
890.254	9956
890.377	10017
890.501	9819
890.624	9884
890.748	9915
890.871	9850
890.995	9759
891.118	9694
891.241	9728
891.364	9663
891.488	9903
891.611	9701
891.734	9717
891.857	9774
891.98	9759
892.103	9759
892.226	9770
892.349	9644
892.471	9580
892.594	9614
892.717	9618
892.839	9584
892.962	9564
893.085	9595
893.207	9576
893.33	9542
893.452	9507
893.575	9637
893.697	9473
893.819	9618
893.941	9603
894.064	9538
894.186	9500
894.308	9279
894.43	9606
894.552	9686
894.674	9477
894.796	9393
894.918	9370
895.04	9275
895.161	9351
895.283	9298
895.405	9241
895.526	9249
895.648	9233
895.769	9222
895.891	9214
896.012	9294
896.134	9203
896.255	9169
896.376	9169
896.498	9150
896.619	9062
896.74	9077
896.861	9077
896.982	9226
897.103	9329
897.224	9207
897.345	9055
897.466	8986
897.587	8944
897.708	9093
897.828	9131
897.949	8921
898.07	8823
898.19	8857
898.311	8979
898.431	8914
898.552	8887
898.672	8952
898.792	8971
898.913	8925
899.033	8857
899.153	8678
899.273	8636
899.393	8640
899.513	8724
899.633	8800
899.753	8705
899.873	8648
899.993	8758
900.113	8667
900.232	8697
900.352	8689
900.472	8556
900.591	8541
900.711	8552
900.83	8522
900.95	8731
901.069	8670
901.189	8564
901.308	8412
901.427	8389
901.546	8366
901.665	8465
901.784	8522
901.904	8419
902.023	8385
902.141	8286
902.26	8244
902.379	8259
902.498	8237
902.617	8191
902.735	8248
902.854	8180
902.973	8252
903.091	8138
903.21	8092
903.328	8157
903.446	8142
903.565	8050
903.683	8043
903.801	8073
903.919	8176
904.038	8100
904.156	8039
904.274	8088
904.392	7947
904.51	7974
904.627	8054
904.745	8077
904.863	8062
904.981	7936
905.098	7868
905.216	7822
905.334	7879
905.451	7906
905.569	7845
905.686	7875
905.803	7875
905.921	7742
906.038	7826
906.155	7780
906.272	7662
906.389	7708
906.506	7586
906.623	7674
906.74	7620
906.857	7514
906.974	7544
907.091	7647
907.208	7784
907.324	7662
907.441	7544
907.557	7430
907.674	7468
907.79	7346
907.907	7350
908.023	7434
908.139	7445
908.256	7362
908.372	7362
908.488	7346
908.604	7263
908.72	7236
908.836	7263
908.952	7225
909.068	7259
909.184	7282
909.3	7247
909.415	7285
909.531	7282
909.647	7080
909.762	7110
909.878	7050
909.993	7072
910.108	7103
910.224	7129
910.339	7072
910.454	7000
910.57	6958
910.685	6939
910.8	7202
910.915	7072
911.03	7034
911.145	6932
911.259	6859
911.374	6859
911.489	6882
911.604	6791
911.718	6783
911.833	6726
911.947	6734
912.062	6589
912.176	6745
912.291	6749
912.405	6692
912.519	6844
912.633	6825
912.748	6738
912.862	6669
912.976	6620
913.09	6551
913.204	6585
913.318	6642
913.431	6715
913.545	6631
913.659	6738
913.772	6623
913.886	6582
914	6578
914.113	6639
914.226	6635
914.34	6627
914.453	6528
914.566	6616
914.68	6525
914.793	6566
914.906	6429
915.019	6422
915.132	6376
915.245	6429
915.358	6399
915.47	6441
915.583	6433
915.696	6471
915.809	6574
915.921	6525
916.034	6426
916.146	6391
916.259	6357
916.371	6475
916.483	6429
916.595	6376
916.708	6410
916.82	6426
916.932	6395
917.044	6384
917.156	6376
917.268	6334
917.38	6338
917.491	6296
917.603	6285
917.715	6342
917.826	6456
917.938	6327
918.049	6232
918.161	6315
918.272	6395
918.384	6456
918.495	6315
918.606	6247
918.717	6209
918.828	6220
918.939	6254
919.05	6205
919.161	6311
919.272	6114
919.383	6117
919.494	6300
919.604	6429
919.715	6247
919.826	6163
919.936	6213
920.047	6315
920.157	6277
920.267	6502
920.378	6331
920.488	6243
920.598	6460
920.708	6498
920.818	6448
920.928	6502
921.038	6578
921.148	6612
921.258	6331
921.368	6270
921.477	6155
921.587	6148
921.697	6098
921.806	6228
921.916	6057
922.025	5942
922.134	5882
922.244	5878
922.353	5912
922.462	5802
922.571	5821
922.68	5729
922.789	5665
922.898	5665
923.007	5611
923.116	5718
923.224	5661
923.333	5695
923.442	5619
923.55	5547
923.659	5611
923.767	5627
923.876	5490
923.984	5642
924.092	5547
924.201	5535
924.309	5615
924.417	5551
924.525	5509
924.633	5501
924.741	6228
924.849	5406
924.956	5486
925.064	5353
925.172	5330
925.279	5299
925.387	5311
925.494	5330
925.602	5433
925.709	5398
925.816	5307
925.924	5334
926.031	5387
926.138	5322
926.245	5299
926.352	5223
926.459	5311
926.566	5345
926.673	5140
926.779	5105
926.886	5162
926.993	5022
927.099	4930
927.206	5018
927.312	4991
927.419	5003
927.525	4987
927.631	5003
927.737	4896
927.843	4812
927.95	4793
928.056	4812
928.162	4843
928.267	4854
928.373	5296
928.479	4850
928.585	4687
928.69	4786
928.796	4816
928.901	4759
929.007	4607
929.112	4626
929.218	4672
929.323	4637
929.428	4531
929.533	4664
929.638	4500
929.743	4558
929.848	4542
929.953	4519
930.058	4432
930.163	4268
930.267	4383
930.372	4455
930.477	4341
930.581	4504
930.685	4379
930.79	4219
930.894	4295
930.998	4249
931.103	4428
931.207	4124
931.311	4093
931.415	4029
931.519	3907
931.623	3945
