Data from glass_V78500241_1999.txt Node
Date: Wed Sep 01 19:28:21 CST 2021
User: usil
Spectrometer: V785-0024
Trigger mode: 0
Integration Time (sec): 4.000000E-1
Scans to average: 1
Nonlinearity correction enabled: false
Boxcar width: 0
Storing dark spectrum: false
XAxis mode: Wavelengths
Number of Pixels in Spectrum: 1024
>>>>>Begin Spectral Data<<<<<
801.071	3747
801.214	3740
801.356	3667
801.499	3713
801.641	3720
801.783	3766
801.926	3831
802.068	3846
802.211	3842
802.353	3876
802.496	3789
802.638	3854
802.78	3918
802.923	3888
803.065	3888
803.208	3850
803.35	3827
803.492	3892
803.635	3907
803.777	3793
803.919	3876
804.061	4147
804.204	3983
804.346	3934
804.488	3896
804.63	4029
804.773	3960
804.915	4006
805.057	4143
805.199	4040
805.341	4112
805.483	4112
805.626	4143
805.768	4131
805.91	4223
806.052	4227
806.194	4211
806.336	4322
806.478	4215
806.62	4177
806.762	4196
806.904	4246
807.046	4318
807.188	4223
807.33	4128
807.472	4287
807.614	4219
807.756	4265
807.898	4246
808.04	4200
808.182	4291
808.324	4360
808.465	4329
808.607	4424
808.749	4459
808.891	4455
809.033	4489
809.174	4394
809.316	4242
809.458	4227
809.6	4162
809.741	4143
809.883	4150
810.025	4207
810.166	4185
810.308	4219
810.45	4219
810.591	4238
810.733	4249
810.875	4535
811.016	4786
811.158	5102
811.299	5265
811.441	5258
811.582	5083
811.724	4725
811.865	4451
812.007	4478
812.148	4443
812.29	4417
812.431	4394
812.573	4344
812.714	4356
812.855	4379
812.997	4413
813.138	4535
813.279	4394
813.421	4329
813.562	4352
813.703	4348
813.845	4360
813.986	4230
814.127	4257
814.268	4249
814.41	4318
814.551	4215
814.692	4310
814.833	4253
814.974	4306
815.115	4310
815.256	4257
815.397	4234
815.539	4261
815.68	4173
815.821	4238
815.962	4314
816.103	4344
816.244	4257
816.385	4196
816.526	4234
816.666	4169
816.807	4147
816.948	4173
817.089	4112
817.23	4166
817.371	4074
817.512	4055
817.653	4040
817.793	4025
817.934	4006
818.075	4063
818.216	4086
818.356	4078
818.497	4013
818.638	3892
818.778	3949
818.919	3903
819.06	3880
819.2	3896
819.341	3823
819.481	3827
819.622	3937
819.762	4032
819.903	3930
820.043	3876
820.184	3797
820.324	3827
820.465	3892
820.605	3827
820.746	3827
820.886	3804
821.026	3918
821.167	3926
821.307	3956
821.447	3983
821.588	3960
821.728	3953
821.868	3960
822.008	3899
822.149	3899
822.289	3941
822.429	3778
822.569	3762
822.709	3785
822.849	3724
822.99	3743
823.13	3747
823.27	3766
823.41	3743
823.55	3717
823.69	3709
823.83	3759
823.97	3656
824.11	3584
824.25	3622
824.389	3587
824.529	3671
824.669	3618
824.809	3682
824.949	3766
825.089	3720
825.228	3682
825.368	3625
825.508	3587
825.648	3561
825.787	3641
825.927	3618
826.067	3595
826.206	3622
826.346	3785
826.485	3842
826.625	3831
826.765	3941
826.904	3785
827.044	3641
827.183	3534
827.323	3450
827.462	3507
827.601	3370
827.741	3439
827.88	3435
828.02	3382
828.159	3458
828.298	3462
828.437	3534
828.577	3496
828.716	3580
828.855	3420
828.994	3386
829.134	3378
829.273	3382
829.412	3340
829.551	3310
829.69	3359
829.829	3401
829.968	3526
830.107	3393
830.246	3416
830.385	3382
830.524	3294
830.663	3302
830.802	3245
830.941	3184
831.08	3199
831.219	3283
831.357	3241
831.496	3382
831.635	3230
831.774	3192
831.913	3192
832.051	3135
832.19	3127
832.329	3214
832.467	3123
832.606	3135
832.744	3192
832.883	3154
833.022	3249
833.16	3249
833.299	3283
833.437	3306
833.576	3329
833.714	3367
833.852	3473
833.991	3435
834.129	3469
834.267	3397
834.406	3378
834.544	3447
834.682	3428
834.821	3359
834.959	3549
835.097	3431
835.235	3515
835.373	3492
835.511	3477
835.65	3447
835.788	3473
835.926	3405
836.064	3409
836.202	3397
836.34	3553
836.478	3584
836.615	3507
836.753	3603
836.891	3629
837.029	3599
837.167	3595
837.305	3542
837.443	3526
837.58	3511
837.718	3549
837.856	3549
837.993	3523
838.131	3648
838.269	3580
838.406	3561
838.544	3545
838.681	3431
838.819	3435
838.956	3370
839.094	3378
839.231	3450
839.369	3511
839.506	3701
839.643	3679
839.781	3523
839.918	3458
840.055	3485
840.193	3538
840.33	3500
840.467	3534
840.604	3576
840.742	3785
840.879	3534
841.016	3530
841.153	3610
841.29	3736
841.427	3690
841.564	3717
841.701	3778
841.838	3675
841.975	3709
842.112	3701
842.249	3622
842.385	3618
842.522	3812
842.659	3690
842.796	3675
842.933	3686
843.069	3698
843.206	3698
843.343	3846
843.479	3759
843.616	3804
843.752	3694
843.889	3705
844.025	3838
844.162	3717
844.298	3854
844.435	3747
844.571	3797
844.708	3937
844.844	3983
844.98	4059
845.117	4006
845.253	3934
845.389	3903
845.525	3949
845.661	3964
845.798	3922
845.934	4002
846.07	3930
846.206	4021
846.342	4105
846.478	4044
846.614	3991
846.75	3941
846.886	3880
847.022	4029
847.158	3945
847.294	3994
847.429	4048
847.565	3975
847.701	4230
847.837	3838
847.972	3857
848.108	3937
848.244	3956
848.379	3854
848.515	3789
848.65	3835
848.786	3854
848.921	3857
849.057	3949
849.192	3941
849.328	3850
849.463	3922
849.598	3915
849.734	3846
849.869	3838
850.004	3709
850.14	3831
850.275	3766
850.41	3724
850.545	3720
850.68	3755
850.815	3789
850.95	3747
851.085	3880
851.22	3876
851.355	3838
851.49	3800
851.625	3800
851.76	3819
851.895	3724
852.03	3759
852.165	3835
852.299	3838
852.434	3869
852.569	3899
852.703	3857
852.838	3953
852.973	3983
853.107	4010
853.242	3888
853.376	3827
853.511	3740
853.645	3842
853.78	3979
853.914	3876
854.048	3911
854.183	3911
854.317	3953
854.451	4074
854.585	3960
854.72	3930
854.854	4055
854.988	3934
855.122	3979
855.256	3911
855.39	3987
855.524	4067
855.658	4051
855.792	4086
855.926	4131
856.06	4169
856.194	4227
856.327	4154
856.461	4128
856.595	4116
856.729	4173
856.862	4265
856.996	4238
857.13	4322
857.263	4280
857.397	4352
857.53	4299
857.664	4337
857.797	4428
857.931	4421
858.064	4371
858.197	4436
858.331	4375
858.464	4413
858.597	4341
858.731	4455
858.864	4455
858.997	4428
859.13	4542
859.263	4554
859.396	4550
859.529	4558
859.662	4527
859.795	4504
859.928	4645
860.061	4717
860.194	4759
860.327	4645
860.46	4599
860.592	4736
860.725	4721
860.858	4744
860.99	4672
861.123	4634
861.256	4649
861.388	4786
861.521	5436
861.653	4744
861.786	4679
861.918	4729
862.05	4778
862.183	4801
862.315	4877
862.447	4938
862.58	4892
862.712	4797
862.844	4755
862.976	4809
863.108	4831
863.24	5155
863.372	4828
863.504	4934
863.636	4919
863.768	4961
863.9	4934
864.032	4919
864.164	4923
864.296	4972
864.428	5109
864.559	5121
864.691	5102
864.823	5155
864.954	5128
865.086	5117
865.217	5136
865.349	5075
865.48	5162
865.612	5189
865.743	5288
865.875	5193
866.006	5166
866.137	5239
866.269	5258
866.4	5212
866.531	5227
866.662	5239
866.793	5265
866.924	5307
867.055	5353
867.186	5307
867.317	5330
867.448	5330
867.579	5391
867.71	5410
867.841	5379
867.972	5402
868.103	5414
868.233	5493
868.364	5509
868.495	5532
868.625	5653
868.756	5764
868.886	5707
869.017	5718
869.147	5893
869.278	5889
869.408	5748
869.539	5851
869.669	5942
869.799	5950
869.929	5969
870.06	6007
870.19	6243
870.32	6136
870.45	6300
870.58	6399
870.71	6376
870.84	6437
870.97	6395
871.1	6426
871.23	6642
871.36	6662
871.489	6654
871.619	6734
871.749	6844
871.879	6894
872.008	6947
872.138	6977
872.267	7000
872.397	6989
872.526	7012
872.656	7069
872.785	7152
872.915	7297
873.044	7518
873.173	7544
873.303	7601
873.432	7761
873.561	7807
873.69	7898
873.819	8027
873.948	8176
874.077	8237
874.206	8358
874.335	8480
874.464	8648
874.593	8845
874.722	8941
874.851	9157
874.979	9100
875.108	9374
875.237	9408
875.365	9447
875.494	9652
875.623	9842
875.751	9808
875.88	9987
876.008	10093
876.136	10284
876.265	10466
876.393	10714
876.521	10850
876.65	10820
876.778	10809
876.906	10908
877.034	10968
877.162	11075
877.29	11109
877.418	11265
877.546	11299
877.674	11436
877.802	11406
877.93	11505
878.058	11459
878.185	11558
878.313	11623
878.441	11722
878.568	11665
878.696	11824
878.824	11843
878.951	12030
879.079	11992
879.206	12148
879.333	12072
879.461	11969
879.588	12019
879.715	12106
879.842	12243
879.97	12053
880.097	11874
880.224	11813
880.351	11904
880.478	11950
880.605	11946
880.732	11821
880.859	12003
880.986	11851
881.112	11786
881.239	11745
881.366	11596
881.493	11611
881.619	11577
881.746	11490
881.872	11512
881.999	11490
882.125	11528
882.252	11570
882.378	11547
882.505	11562
882.631	11414
882.757	11303
882.883	11364
883.01	11231
883.136	11094
883.262	11151
883.388	11045
883.514	11155
883.64	11136
883.766	11098
883.892	10987
884.018	11075
884.143	11102
884.269	11151
884.395	10828
884.52	10755
884.646	10759
884.772	10698
884.897	10634
885.023	10626
885.148	10694
885.274	10645
885.399	10641
885.524	10634
885.65	10588
885.775	10535
885.9	10603
886.025	10603
886.15	10603
886.275	10447
886.4	10352
886.525	10394
886.65	10428
886.775	10325
886.9	10405
887.025	10558
887.149	10409
887.274	10276
887.399	10120
887.523	10093
887.648	10135
887.773	10131
887.897	10238
888.021	10181
888.146	10116
888.27	10219
888.395	10253
888.519	10150
888.643	10223
888.767	10238
888.891	10086
889.015	10036
889.139	10093
889.263	9983
889.387	10093
889.511	10188
889.635	9968
889.759	9857
889.883	9960
890.006	10055
890.13	10116
890.254	10002
890.377	9937
890.501	9911
890.624	9911
890.748	9850
890.871	9789
890.995	9732
891.118	9797
891.241	9755
891.364	9720
891.488	9797
891.611	9736
891.734	9793
891.857	9766
891.98	9713
892.103	9705
892.226	9732
892.349	9717
892.471	9538
892.594	9507
892.717	9564
892.839	9572
892.962	9591
893.085	9576
893.207	9553
893.33	9500
893.452	9538
893.575	9561
893.697	9511
893.819	9584
893.941	9614
894.064	9618
894.186	9477
894.308	9405
894.43	9500
894.552	9606
894.674	9530
894.796	9374
894.918	9393
895.04	9378
895.161	9397
895.283	9363
895.405	9302
895.526	9287
895.648	9245
895.769	9256
895.891	9226
896.012	9256
896.134	9150
896.255	9165
896.376	9097
896.498	9165
896.619	9093
896.74	9081
896.861	9146
896.982	9260
897.103	9291
897.224	9150
897.345	9131
897.466	8960
897.587	9058
897.708	9085
897.828	9017
897.949	8990
898.07	8823
898.19	8929
898.311	8967
898.431	8929
898.552	8914
898.672	9017
898.792	8910
898.913	8944
899.033	8811
899.153	8686
899.273	8659
899.393	8727
899.513	8750
899.633	8743
899.753	8769
899.873	8693
899.993	8769
900.113	8674
900.232	8750
900.352	8625
900.472	8583
900.591	8514
900.711	8602
900.83	8571
900.95	8682
901.069	8762
901.189	8579
901.308	8415
901.427	8423
901.546	8419
901.665	8400
901.784	8503
901.904	8377
902.023	8400
902.141	8244
902.26	8176
902.379	8339
902.498	8168
902.617	8130
902.735	8256
902.854	8233
902.973	8256
903.091	8103
903.21	8084
903.328	8172
903.446	8115
903.565	8119
903.683	8050
903.801	8096
903.919	8119
904.038	8065
904.156	7986
904.274	8062
904.392	8054
904.51	8077
904.627	8069
904.745	8195
904.863	8073
904.981	7875
905.098	7898
905.216	7871
905.334	7928
905.451	7928
905.569	7814
905.686	7921
905.803	7936
905.921	7772
906.038	7856
906.155	7772
906.272	7704
906.389	7704
906.506	7616
906.623	7655
906.74	7651
906.857	7556
906.974	7563
907.091	7681
907.208	7746
907.324	7647
907.441	7628
907.557	7396
907.674	7468
907.79	7430
907.907	7388
908.023	7457
908.139	7430
908.256	7384
908.372	7339
908.488	7346
908.604	7274
908.72	7213
908.836	7282
908.952	7206
909.068	7244
909.184	7289
909.3	7282
909.415	7308
909.531	7293
909.647	7091
909.762	7107
909.878	7137
909.993	7110
910.108	7088
910.224	7012
910.339	7118
910.454	7053
910.57	6996
910.685	6935
910.8	7152
910.915	7072
911.03	7019
911.145	6852
911.259	6871
911.374	6947
911.489	6821
911.604	6814
911.718	6734
911.833	6757
911.947	6696
912.062	6593
912.176	6722
912.291	6741
912.405	6684
912.519	6844
912.633	6844
912.748	6696
912.862	6669
912.976	6563
913.09	6460
913.204	6589
913.318	6623
913.431	6627
913.545	6635
913.659	6719
913.772	6665
913.886	6540
914	6578
914.113	6635
914.226	6635
914.34	6578
914.453	6464
914.566	6574
914.68	6528
914.793	6547
914.906	6384
915.019	6384
915.132	6391
915.245	6429
915.358	6418
915.47	6426
915.583	6475
915.696	6471
915.809	6559
915.921	6521
916.034	6437
916.146	6437
916.259	6403
916.371	6460
916.483	6467
916.595	6346
916.708	6372
916.82	6399
916.932	6414
917.044	6399
917.156	6338
917.268	6331
917.38	6319
917.491	6342
917.603	6319
917.715	6452
917.826	6414
917.938	6270
918.049	6239
918.161	6334
918.272	6384
918.384	6384
918.495	6353
918.606	6258
918.717	6254
918.828	6232
918.939	6296
919.05	6205
919.161	6266
919.272	6091
919.383	6171
919.494	6262
919.604	6429
919.715	6220
919.826	6232
919.936	6232
920.047	6372
920.157	6331
920.267	6395
920.378	6296
920.488	6262
920.598	6471
920.708	6544
920.818	6467
920.928	6471
921.038	6612
921.148	6593
921.258	6327
921.368	6319
921.477	6197
921.587	6167
921.697	6091
921.806	6159
921.916	6053
922.025	5980
922.134	5912
922.244	5828
922.353	5961
922.462	5767
922.571	5790
922.68	5707
922.789	5661
922.898	5733
923.007	5676
923.116	5745
923.224	5615
923.333	5627
923.442	5573
923.55	5604
923.659	5554
923.767	5604
923.876	5535
923.984	5661
924.092	5524
924.201	5543
924.309	5554
924.417	5562
924.525	5455
924.633	5520
924.741	6243
924.849	5379
924.956	5455
925.064	5360
925.172	5357
925.279	5349
925.387	5341
925.494	5315
925.602	5398
925.709	5383
925.816	5265
925.924	5337
926.031	5326
926.138	5303
926.245	5452
926.352	5204
926.459	5326
926.566	5303
926.673	5239
926.779	5128
926.886	5147
926.993	5033
927.099	5006
927.206	4942
927.312	4991
927.419	5041
927.525	4942
927.631	4942
927.737	4870
927.843	4904
927.95	4752
928.056	4809
928.162	4805
928.267	4843
928.373	5254
928.479	4824
928.585	4694
928.69	4755
928.796	4752
928.901	4702
929.007	4596
929.112	4641
929.218	4630
929.323	4660
929.428	4596
929.533	4694
929.638	4516
929.743	4588
929.848	4588
929.953	4512
930.058	4421
930.163	4322
930.267	4329
930.372	4402
930.477	4310
930.581	4424
930.685	4383
930.79	4227
930.894	4219
930.998	4299
931.103	4333
931.207	4093
931.311	4051
931.415	4055
931.519	3884
931.623	3918
