Data from glass_V78500241_839.txt Node
Date: Wed Sep 01 19:20:18 CST 2021
User: usil
Spectrometer: V785-0024
Trigger mode: 0
Integration Time (sec): 4.000000E-1
Scans to average: 1
Nonlinearity correction enabled: false
Boxcar width: 0
Storing dark spectrum: false
XAxis mode: Wavelengths
Number of Pixels in Spectrum: 1024
>>>>>Begin Spectral Data<<<<<
801.071	3766
801.214	3732
801.356	3747
801.499	3736
801.641	3736
801.783	3800
801.926	3899
802.068	3838
802.211	3857
802.353	3907
802.496	3831
802.638	3876
802.78	3896
802.923	3945
803.065	3918
803.208	3880
803.35	3842
803.492	3922
803.635	3918
803.777	3762
803.919	3911
804.061	4173
804.204	3930
804.346	3941
804.488	4021
804.63	4048
804.773	3972
804.915	4036
805.057	4200
805.199	4093
805.341	4097
805.483	4135
805.626	4139
805.768	4131
805.91	4238
806.052	4268
806.194	4261
806.336	4371
806.478	4257
806.62	4147
806.762	4227
806.904	4291
807.046	4344
807.188	4257
807.33	4185
807.472	4261
807.614	4192
807.756	4291
807.898	4249
808.04	4207
808.182	4287
808.324	4352
808.465	4409
808.607	4466
808.749	4447
808.891	4459
809.033	4428
809.174	4375
809.316	4272
809.458	4238
809.6	4173
809.741	4116
809.883	4188
810.025	4242
810.166	4223
810.308	4207
810.45	4261
810.591	4246
810.733	4322
810.875	4550
811.016	4847
811.158	5162
811.299	5322
811.441	5258
811.582	5014
811.724	4752
811.865	4455
812.007	4447
812.148	4451
812.29	4424
812.431	4493
812.573	4409
812.714	4352
812.855	4428
812.997	4386
813.138	4481
813.279	4413
813.421	4394
813.562	4398
813.703	4329
813.845	4310
813.986	4246
814.127	4230
814.268	4280
814.41	4333
814.551	4295
814.692	4314
814.833	4276
814.974	4265
815.115	4363
815.256	4265
815.397	4249
815.539	4276
815.68	4211
815.821	4185
815.962	4367
816.103	4253
816.244	4188
816.385	4265
816.526	4257
816.666	4211
816.807	4109
816.948	4192
817.089	4177
817.23	4143
817.371	4040
817.512	4051
817.653	4082
817.793	4048
817.934	4044
818.075	4135
818.216	4067
818.356	4112
818.497	3994
818.638	3888
818.778	3896
818.919	3922
819.06	3880
819.2	3915
819.341	3869
819.481	3827
819.622	3964
819.762	4071
819.903	3915
820.043	3892
820.184	3888
820.324	3816
820.465	3907
820.605	3835
820.746	3926
820.886	3785
821.026	3941
821.167	3926
821.307	3941
821.447	3975
821.588	3949
821.728	3960
821.868	3934
822.008	3865
822.149	3960
822.289	3934
822.429	3774
822.569	3797
822.709	3785
822.849	3728
822.99	3720
823.13	3797
823.27	3804
823.41	3709
823.55	3751
823.69	3778
823.83	3717
823.97	3686
824.11	3618
824.25	3614
824.389	3629
824.529	3641
824.669	3679
824.809	3705
824.949	3751
825.089	3720
825.228	3713
825.368	3549
825.508	3553
825.648	3622
825.787	3595
825.927	3641
826.067	3656
826.206	3660
826.346	3819
826.485	3816
826.625	3835
826.765	3922
826.904	3850
827.044	3682
827.183	3576
827.323	3443
827.462	3488
827.601	3473
827.741	3450
827.88	3462
828.02	3359
828.159	3439
828.298	3488
828.437	3568
828.577	3462
828.716	3599
828.855	3538
828.994	3405
829.134	3401
829.273	3378
829.412	3348
829.551	3363
829.69	3389
829.829	3428
829.968	3530
830.107	3450
830.246	3450
830.385	3450
830.524	3325
830.663	3283
830.802	3245
830.941	3207
831.08	3214
831.219	3306
831.357	3245
831.496	3420
831.635	3207
831.774	3184
831.913	3230
832.051	3119
832.19	3161
832.329	3207
832.467	3154
832.606	3058
832.744	3184
832.883	3222
833.022	3207
833.16	3287
833.299	3283
833.437	3325
833.576	3370
833.714	3439
833.852	3485
833.991	3477
834.129	3466
834.267	3469
834.406	3450
834.544	3401
834.682	3412
834.821	3435
834.959	3549
835.097	3462
835.235	3576
835.373	3492
835.511	3553
835.65	3443
835.788	3504
835.926	3420
836.064	3378
836.202	3405
836.34	3591
836.478	3591
836.615	3564
836.753	3622
836.891	3656
837.029	3637
837.167	3599
837.305	3606
837.443	3553
837.58	3549
837.718	3641
837.856	3580
837.993	3553
838.131	3591
838.269	3572
838.406	3599
838.544	3584
838.681	3488
838.819	3477
838.956	3393
839.094	3420
839.231	3507
839.369	3553
839.506	3736
839.643	3679
839.781	3519
839.918	3523
840.055	3526
840.193	3553
840.33	3485
840.467	3568
840.604	3610
840.742	3808
840.879	3538
841.016	3580
841.153	3584
841.29	3808
841.427	3724
841.564	3800
841.701	3774
841.838	3682
841.975	3717
842.112	3728
842.249	3637
842.385	3629
842.522	3892
842.659	3736
842.796	3682
842.933	3736
843.069	3728
843.206	3717
843.343	3827
843.479	3766
843.616	3831
843.752	3690
843.889	3637
844.025	3857
844.162	3694
844.298	3857
844.435	3797
844.571	3838
844.708	3949
844.844	3960
844.98	3994
845.117	4025
845.253	3907
845.389	3918
845.525	3983
845.661	3979
845.798	3934
845.934	3979
846.07	3994
846.206	4074
846.342	4097
846.478	4036
846.614	3945
846.75	3960
846.886	3926
847.022	4093
847.158	3960
847.294	3972
847.429	4029
847.565	4044
847.701	4238
847.837	3892
847.972	3884
848.108	3998
848.244	4029
848.379	3861
848.515	3816
848.65	3762
848.786	3823
848.921	3854
849.057	3930
849.192	3953
849.328	3922
849.463	3937
849.598	3903
849.734	3876
849.869	3888
850.004	3800
850.14	3823
850.275	3827
850.41	3747
850.545	3747
850.68	3774
850.815	3861
850.95	3804
851.085	3975
851.22	3888
851.355	3869
851.49	3838
851.625	3842
851.76	3800
851.895	3736
852.03	3713
852.165	3804
852.299	3865
852.434	3880
852.569	3854
852.703	3896
852.838	3918
852.973	3998
853.107	4013
853.242	3953
853.376	3838
853.511	3785
853.645	3846
853.78	3949
853.914	3956
854.048	3888
854.183	3926
854.317	3994
854.451	4090
854.585	3953
854.72	3896
854.854	4071
854.988	3945
855.122	4025
855.256	3937
855.39	4017
855.524	4120
855.658	4131
855.792	4097
855.926	4093
856.06	4185
856.194	4246
856.327	4204
856.461	4200
856.595	4135
856.729	4158
856.862	4299
856.996	4253
857.13	4291
857.263	4329
857.397	4371
857.53	4299
857.664	4333
857.797	4440
857.931	4417
858.064	4440
858.197	4455
858.331	4390
858.464	4383
858.597	4352
858.731	4481
858.864	4504
858.997	4436
859.13	4497
859.263	4523
859.396	4603
859.529	4493
859.662	4580
859.795	4489
859.928	4637
860.061	4725
860.194	4736
860.327	4656
860.46	4675
860.592	4744
860.725	4748
860.858	4771
860.99	4736
861.123	4691
861.256	4714
861.388	4793
861.521	5410
861.653	4717
861.786	4736
861.918	4763
862.05	4797
862.183	4831
862.315	4870
862.447	4900
862.58	4870
862.712	4835
862.844	4774
862.976	4892
863.108	4896
863.24	5212
863.372	4847
863.504	4900
863.636	4892
863.768	4949
863.9	4984
864.032	4908
864.164	4953
864.296	4999
864.428	5048
864.559	5121
864.691	5143
864.823	5136
864.954	5102
865.086	5178
865.217	5162
865.349	5090
865.48	5166
865.612	5174
865.743	5284
865.875	5208
866.006	5181
866.137	5223
866.269	5235
866.4	5258
866.531	5265
866.662	5235
866.793	5261
866.924	5296
867.055	5345
867.186	5406
867.317	5391
867.448	5315
867.579	5341
867.71	5395
867.841	5395
867.972	5478
868.103	5486
868.233	5509
868.364	5486
868.495	5528
868.625	5672
868.756	5821
868.886	5665
869.017	5722
869.147	5870
869.278	5851
869.408	5836
869.539	5851
869.669	5920
869.799	5889
869.929	6030
870.06	6019
870.19	6155
870.32	6136
870.45	6254
870.58	6376
870.71	6429
870.84	6506
870.97	6414
871.1	6460
871.23	6688
871.36	6646
871.489	6669
871.619	6715
871.749	6829
871.879	6863
872.008	7050
872.138	6993
872.267	7091
872.397	7042
872.526	7019
872.656	7114
872.785	7179
872.915	7430
873.044	7533
873.173	7559
873.303	7712
873.432	7719
873.561	7868
873.69	7906
873.819	8005
873.948	8130
874.077	8286
874.206	8328
874.335	8469
874.464	8663
874.593	8842
874.722	8998
874.851	9165
874.979	9275
875.108	9428
875.237	9447
875.365	9519
875.494	9705
875.623	9812
875.751	9846
875.88	9972
876.008	10131
876.136	10363
876.265	10519
876.393	10706
876.521	10721
876.65	10847
876.778	10869
876.906	10923
877.034	10980
877.162	11170
877.29	11258
877.418	11185
877.546	11368
877.674	11490
877.802	11482
877.93	11551
878.058	11554
878.185	11554
878.313	11688
878.441	11790
878.568	11661
878.696	11821
878.824	11904
878.951	11977
879.079	12007
879.206	12076
879.333	12095
879.461	12045
879.588	11977
879.715	12076
879.842	12205
879.97	12064
880.097	11863
880.224	11946
880.351	11870
880.478	11847
880.605	11859
880.732	11824
880.859	11988
880.986	11722
881.112	11901
881.239	11733
881.366	11562
881.493	11539
881.619	11547
881.746	11554
881.872	11566
881.999	11547
882.125	11436
882.252	11486
882.378	11558
882.505	11646
882.631	11379
882.757	11311
882.883	11440
883.01	11261
883.136	11208
883.262	11159
883.388	11109
883.514	11296
883.64	11246
883.766	11086
883.892	11056
884.018	10961
884.143	11079
884.269	11140
884.395	10820
884.52	10828
884.646	10748
884.772	10755
884.897	10634
885.023	10691
885.148	10763
885.274	10771
885.399	10725
885.524	10618
885.65	10641
885.775	10641
885.9	10607
886.025	10580
886.15	10580
886.275	10500
886.4	10459
886.525	10428
886.65	10310
886.775	10322
886.9	10508
887.025	10413
887.149	10417
887.274	10196
887.399	10284
887.523	10253
887.648	10124
887.773	10188
887.897	10261
888.021	10234
888.146	10188
888.27	10230
888.395	10227
888.519	10230
888.643	10173
888.767	10196
888.891	10177
889.015	10101
889.139	10010
889.263	9968
889.387	10086
889.511	10032
889.635	10044
889.759	9964
889.883	9972
890.006	10032
890.13	10128
890.254	9915
890.377	10006
890.501	9842
890.624	9812
890.748	9880
890.871	9816
890.995	9762
891.118	9705
891.241	9869
891.364	9781
891.488	9789
891.611	9778
891.734	9736
891.857	9781
891.98	9762
892.103	9709
892.226	9717
892.349	9667
892.471	9511
892.594	9545
892.717	9511
892.839	9564
892.962	9591
893.085	9690
893.207	9599
893.33	9568
893.452	9504
893.575	9682
893.697	9496
893.819	9694
893.941	9614
894.064	9587
894.186	9511
894.308	9481
894.43	9568
894.552	9587
894.674	9584
894.796	9336
894.918	9526
895.04	9389
895.161	9420
895.283	9340
895.405	9207
895.526	9256
895.648	9264
895.769	9264
895.891	9241
896.012	9336
896.134	9230
896.255	9233
896.376	9077
896.498	9226
896.619	9074
896.74	9100
896.861	9146
896.982	9230
897.103	9260
897.224	9207
897.345	9066
897.466	9089
897.587	9005
897.708	9146
897.828	9005
897.949	9013
898.07	8868
898.19	8902
898.311	9013
898.431	8830
898.552	8948
898.672	8956
898.792	8925
898.913	8937
899.033	8773
899.153	8766
899.273	8758
899.393	8739
899.513	8716
899.633	8777
899.753	8804
899.873	8724
899.993	8735
900.113	8735
900.232	8697
900.352	8678
900.472	8606
900.591	8617
900.711	8590
900.83	8552
900.95	8716
901.069	8644
901.189	8571
901.308	8427
901.427	8480
901.546	8396
901.665	8454
901.784	8533
901.904	8419
902.023	8290
902.141	8248
902.26	8199
902.379	8267
902.498	8180
902.617	8225
902.735	8313
902.854	8305
902.973	8267
903.091	8073
903.21	8138
903.328	8199
903.446	8050
903.565	8092
903.683	8073
903.801	8031
903.919	8119
904.038	8065
904.156	8035
904.274	8134
904.392	8031
904.51	8081
904.627	8035
904.745	8107
904.863	8115
904.981	8035
905.098	7871
905.216	7833
905.334	7932
905.451	7959
905.569	7883
905.686	7936
905.803	7967
905.921	7792
906.038	7845
906.155	7784
906.272	7757
906.389	7681
906.506	7651
906.623	7685
906.74	7605
906.857	7533
906.974	7594
907.091	7647
907.208	7734
907.324	7658
907.441	7506
907.557	7506
907.674	7457
907.79	7453
907.907	7434
908.023	7487
908.139	7430
908.256	7430
908.372	7331
908.488	7362
908.604	7282
908.72	7247
908.836	7259
908.952	7126
909.068	7305
909.184	7358
909.3	7285
909.415	7308
909.531	7293
909.647	7110
909.762	7141
909.878	7122
909.993	7118
910.108	7091
910.224	7091
910.339	7084
910.454	7034
910.57	7023
910.685	6935
910.8	7179
910.915	7137
911.03	7034
911.145	6913
911.259	6867
911.374	6897
911.489	6852
911.604	6844
911.718	6776
911.833	6802
911.947	6677
912.062	6597
912.176	6730
912.291	6719
912.405	6749
912.519	6848
912.633	6840
912.748	6688
912.862	6730
912.976	6597
913.09	6589
913.204	6566
913.318	6631
913.431	6776
913.545	6639
913.659	6719
913.772	6616
913.886	6555
914	6604
914.113	6593
914.226	6604
914.34	6642
914.453	6464
914.566	6608
914.68	6517
914.793	6521
914.906	6418
915.019	6403
915.132	6376
915.245	6429
915.358	6494
915.47	6429
915.583	6456
915.696	6437
915.809	6555
915.921	6525
916.034	6445
916.146	6391
916.259	6384
916.371	6448
916.483	6486
916.595	6445
916.708	6388
916.82	6426
916.932	6365
917.044	6410
917.156	6384
917.268	6334
917.38	6334
917.491	6315
917.603	6365
917.715	6456
917.826	6441
917.938	6334
918.049	6281
918.161	6296
918.272	6445
918.384	6433
918.495	6311
918.606	6209
918.717	6247
918.828	6277
918.939	6262
919.05	6224
919.161	6239
919.272	6167
919.383	6175
919.494	6311
919.604	6414
919.715	6277
919.826	6243
919.936	6266
920.047	6403
920.157	6273
920.267	6471
920.378	6308
920.488	6243
920.598	6437
920.708	6559
920.818	6418
920.928	6460
921.038	6623
921.148	6540
921.258	6353
921.368	6292
921.477	6243
921.587	6182
921.697	6060
921.806	6190
921.916	6102
922.025	5980
922.134	5965
922.244	5878
922.353	5973
922.462	5897
922.571	5726
922.68	5695
922.789	5695
922.898	5661
923.007	5688
923.116	5752
923.224	5695
923.333	5661
923.442	5615
923.55	5608
923.659	5600
923.767	5604
923.876	5543
923.984	5630
924.092	5539
924.201	5570
924.309	5535
924.417	5573
924.525	5486
924.633	5501
924.741	6140
924.849	5406
924.956	5482
925.064	5322
925.172	5368
925.279	5299
925.387	5383
925.494	5376
925.602	5471
925.709	5417
925.816	5216
925.924	5318
926.031	5311
926.138	5322
926.245	5364
926.352	5269
926.459	5353
926.566	5345
926.673	5239
926.779	5197
926.886	5124
926.993	5048
927.099	4987
927.206	4961
927.312	4957
927.419	5018
927.525	5014
927.631	5014
927.737	4919
927.843	4862
927.95	4771
928.056	4809
928.162	4839
928.267	4892
928.373	5318
928.479	4889
928.585	4668
928.69	4790
928.796	4793
928.901	4706
929.007	4599
929.112	4725
929.218	4645
929.323	4622
929.428	4592
929.533	4668
929.638	4523
929.743	4527
929.848	4569
929.953	4481
930.058	4455
930.163	4341
930.267	4337
930.372	4428
930.477	4310
930.581	4451
930.685	4428
930.79	4253
930.894	4280
930.998	4272
931.103	4394
931.207	4128
931.311	4082
931.415	4059
931.519	3956
931.623	3968
