Data from glass_V78500241_468.txt Node
Date: Wed Sep 01 19:17:44 CST 2021
User: usil
Spectrometer: V785-0024
Trigger mode: 0
Integration Time (sec): 4.000000E-1
Scans to average: 1
Nonlinearity correction enabled: false
Boxcar width: 0
Storing dark spectrum: false
XAxis mode: Wavelengths
Number of Pixels in Spectrum: 1024
>>>>>Begin Spectral Data<<<<<
801.071	3762
801.214	3736
801.356	3720
801.499	3720
801.641	3720
801.783	3743
801.926	3888
802.068	3892
802.211	3903
802.353	3911
802.496	3861
802.638	3838
802.78	3896
802.923	3937
803.065	3911
803.208	3854
803.35	3865
803.492	3899
803.635	3964
803.777	3865
803.919	3907
804.061	4177
804.204	4021
804.346	3922
804.488	3911
804.63	4032
804.773	3953
804.915	4093
805.057	4154
805.199	4055
805.341	4124
805.483	4135
805.626	4124
805.768	4150
805.91	4207
806.052	4249
806.194	4207
806.336	4356
806.478	4173
806.62	4211
806.762	4204
806.904	4287
807.046	4394
807.188	4200
807.33	4230
807.472	4246
807.614	4207
807.756	4249
807.898	4177
808.04	4265
808.182	4295
808.324	4352
808.465	4383
808.607	4497
808.749	4466
808.891	4497
809.033	4542
809.174	4432
809.316	4284
809.458	4272
809.6	4120
809.741	4173
809.883	4154
810.025	4188
810.166	4177
810.308	4242
810.45	4257
810.591	4253
810.733	4310
810.875	4527
811.016	4866
811.158	5094
811.299	5296
811.441	5341
811.582	5052
811.724	4675
811.865	4500
812.007	4455
812.148	4443
812.29	4447
812.431	4424
812.573	4405
812.714	4405
812.855	4432
812.997	4451
813.138	4504
813.279	4428
813.421	4413
813.562	4363
813.703	4360
813.845	4352
813.986	4261
814.127	4234
814.268	4291
814.41	4325
814.551	4268
814.692	4325
814.833	4246
814.974	4306
815.115	4356
815.256	4272
815.397	4234
815.539	4261
815.68	4200
815.821	4223
815.962	4318
816.103	4291
816.244	4253
816.385	4230
816.526	4291
816.666	4249
816.807	4063
816.948	4173
817.089	4188
817.23	4097
817.371	4078
817.512	4040
817.653	4116
817.793	4067
817.934	4002
818.075	4109
818.216	4067
818.356	4055
818.497	3991
818.638	3972
818.778	3945
818.919	3907
819.06	3918
819.2	3926
819.341	3831
819.481	3846
819.622	3907
819.762	4040
819.903	3994
820.043	3873
820.184	3857
820.324	3869
820.465	3918
820.605	3880
820.746	3915
820.886	3842
821.026	3937
821.167	3991
821.307	3994
821.447	4021
821.588	3987
821.728	3979
821.868	3972
822.008	3861
822.149	3983
822.289	3934
822.429	3793
822.569	3774
822.709	3823
822.849	3736
822.99	3755
823.13	3793
823.27	3800
823.41	3686
823.55	3751
823.69	3694
823.83	3751
823.97	3660
824.11	3618
824.25	3595
824.389	3652
824.529	3675
824.669	3682
824.809	3740
824.949	3762
825.089	3743
825.228	3720
825.368	3637
825.508	3576
825.648	3599
825.787	3603
825.927	3641
826.067	3663
826.206	3667
826.346	3781
826.485	3842
826.625	3865
826.765	3983
826.904	3842
827.044	3572
827.183	3572
827.323	3439
827.462	3530
827.601	3405
827.741	3424
827.88	3469
828.02	3374
828.159	3481
828.298	3492
828.437	3534
828.577	3507
828.716	3580
828.855	3485
828.994	3370
829.134	3393
829.273	3416
829.412	3370
829.551	3351
829.69	3348
829.829	3424
829.968	3530
830.107	3439
830.246	3393
830.385	3401
830.524	3393
830.663	3272
830.802	3237
830.941	3249
831.08	3188
831.219	3264
831.357	3294
831.496	3412
831.635	3268
831.774	3207
831.913	3233
832.051	3154
832.19	3146
832.329	3211
832.467	3142
832.606	3150
832.744	3180
832.883	3127
833.022	3218
833.16	3291
833.299	3294
833.437	3355
833.576	3374
833.714	3443
833.852	3473
833.991	3424
834.129	3507
834.267	3447
834.406	3397
834.544	3462
834.682	3389
834.821	3409
834.959	3576
835.097	3439
835.235	3549
835.373	3526
835.511	3515
835.65	3481
835.788	3568
835.926	3401
836.064	3389
836.202	3435
836.34	3622
836.478	3580
836.615	3564
836.753	3576
836.891	3637
837.029	3625
837.167	3629
837.305	3591
837.443	3557
837.58	3530
837.718	3580
837.856	3538
837.993	3591
838.131	3595
838.269	3591
838.406	3584
838.544	3591
838.681	3492
838.819	3492
838.956	3447
839.094	3443
839.231	3458
839.369	3473
839.506	3759
839.643	3671
839.781	3515
839.918	3492
840.055	3519
840.193	3530
840.33	3568
840.467	3572
840.604	3614
840.742	3838
840.879	3545
841.016	3599
841.153	3610
841.29	3793
841.427	3720
841.564	3701
841.701	3766
841.838	3709
841.975	3663
842.112	3736
842.249	3667
842.385	3637
842.522	3831
842.659	3682
842.796	3724
842.933	3713
843.069	3682
843.206	3747
843.343	3865
843.479	3797
843.616	3838
843.752	3713
843.889	3701
844.025	3854
844.162	3736
844.298	3854
844.435	3869
844.571	3797
844.708	3926
844.844	3972
844.98	4006
845.117	4013
845.253	3922
845.389	3888
845.525	4002
845.661	4048
845.798	3915
845.934	4036
846.07	3953
846.206	4063
846.342	4093
846.478	4074
846.614	3964
846.75	3968
846.886	3956
847.022	4006
847.158	3979
847.294	4006
847.429	4048
847.565	4006
847.701	4268
847.837	3892
847.972	3857
848.108	3949
848.244	4006
848.379	3888
848.515	3819
848.65	3857
848.786	3854
848.921	3865
849.057	3972
849.192	3972
849.328	3918
849.463	3949
849.598	3888
849.734	3842
849.869	3838
850.004	3793
850.14	3800
850.275	3800
850.41	3728
850.545	3743
850.68	3785
850.815	3800
850.95	3804
851.085	3926
851.22	3861
851.355	3850
851.49	3846
851.625	3804
851.76	3831
851.895	3709
852.03	3720
852.165	3808
852.299	3861
852.434	3964
852.569	3880
852.703	3876
852.838	3945
852.973	4036
853.107	4044
853.242	3896
853.376	3884
853.511	3759
853.645	3838
853.78	3994
853.914	3937
854.048	3915
854.183	3896
854.317	3975
854.451	4078
854.585	3964
854.72	3956
854.854	4074
854.988	3979
855.122	4010
855.256	3892
855.39	4051
855.524	4120
855.658	4135
855.792	4128
855.926	4147
856.06	4169
856.194	4200
856.327	4158
856.461	4105
856.595	4158
856.729	4192
856.862	4268
856.996	4242
857.13	4287
857.263	4367
857.397	4371
857.53	4276
857.664	4329
857.797	4379
857.931	4432
858.064	4428
858.197	4405
858.331	4432
858.464	4390
858.597	4367
858.731	4470
858.864	4497
858.997	4470
859.13	4527
859.263	4550
859.396	4603
859.529	4542
859.662	4573
859.795	4516
859.928	4637
860.061	4736
860.194	4744
860.327	4645
860.46	4641
860.592	4736
860.725	4820
860.858	4778
860.99	4710
861.123	4698
861.256	4675
861.388	4812
861.521	5478
861.653	4771
861.786	4702
861.918	4767
862.05	4862
862.183	4866
862.315	4915
862.447	4984
862.58	4870
862.712	4831
862.844	4771
862.976	4911
863.108	4949
863.24	5178
863.372	4828
863.504	4915
863.636	4923
863.768	4980
863.9	4942
864.032	4919
864.164	4949
864.296	4995
864.428	5079
864.559	5159
864.691	5136
864.823	5102
864.954	5140
865.086	5151
865.217	5151
865.349	5159
865.48	5166
865.612	5208
865.743	5269
865.875	5170
866.006	5185
866.137	5296
866.269	5239
866.4	5303
866.531	5208
866.662	5189
866.793	5284
866.924	5307
867.055	5395
867.186	5349
867.317	5353
867.448	5353
867.579	5391
867.71	5368
867.841	5440
867.972	5497
868.103	5532
868.233	5486
868.364	5505
868.495	5547
868.625	5642
868.756	5813
868.886	5642
869.017	5764
869.147	5912
869.278	5840
869.408	5832
869.539	5836
869.669	5916
869.799	5946
869.929	5973
870.06	6022
870.19	6159
870.32	6117
870.45	6285
870.58	6372
870.71	6395
870.84	6509
870.97	6414
871.1	6464
871.23	6612
871.36	6726
871.489	6627
871.619	6791
871.749	6867
871.879	6882
872.008	6985
872.138	6981
872.267	7065
872.397	7015
872.526	7053
872.656	7152
872.785	7228
872.915	7400
873.044	7514
873.173	7567
873.303	7685
873.432	7765
873.561	7860
873.69	7944
873.819	7997
873.948	8142
874.077	8271
874.206	8347
874.335	8438
874.464	8670
874.593	8857
874.722	8956
874.851	9112
874.979	9253
875.108	9405
875.237	9397
875.365	9504
875.494	9656
875.623	9823
875.751	9873
875.88	10063
876.008	10131
876.136	10318
876.265	10558
876.393	10771
876.521	10675
876.65	10850
876.778	10797
876.906	10873
877.034	10927
877.162	11162
877.29	11143
877.418	11311
877.546	11395
877.674	11372
877.802	11493
877.93	11539
878.058	11516
878.185	11558
878.313	11699
878.441	11748
878.568	11733
878.696	11836
878.824	11836
878.951	11961
879.079	12068
879.206	12129
879.333	12045
879.461	11931
879.588	12095
879.715	12060
879.842	12239
879.97	12072
880.097	11847
880.224	11836
880.351	11935
880.478	11935
880.605	11931
880.732	11805
880.859	12007
880.986	11817
881.112	11897
881.239	11760
881.366	11653
881.493	11611
881.619	11551
881.746	11638
881.872	11539
881.999	11558
882.125	11505
882.252	11520
882.378	11543
882.505	11551
882.631	11337
882.757	11277
882.883	11372
883.01	11280
883.136	11128
883.262	11090
883.388	11147
883.514	11284
883.64	11216
883.766	11174
883.892	11033
884.018	11003
884.143	11052
884.269	11060
884.395	10854
884.52	10744
884.646	10786
884.772	10710
884.897	10664
885.023	10733
885.148	10714
885.274	10835
885.399	10759
885.524	10672
885.65	10569
885.775	10660
885.9	10497
886.025	10565
886.15	10584
886.275	10546
886.4	10413
886.525	10402
886.65	10402
886.775	10299
886.9	10481
887.025	10573
887.149	10382
887.274	10158
887.399	10211
887.523	10268
887.648	10207
887.773	10227
887.897	10299
888.021	10257
888.146	10177
888.27	10207
888.395	10200
888.519	10234
888.643	10120
888.767	10139
888.891	10048
889.015	10067
889.139	10029
889.263	10051
889.387	10055
889.511	10105
889.635	10082
889.759	9960
889.883	9994
890.006	9972
890.13	10158
890.254	9873
890.377	9930
890.501	9899
890.624	9869
890.748	9835
890.871	9785
890.995	9698
891.118	9732
891.241	9770
891.364	9743
891.488	9831
891.611	9728
891.734	9762
891.857	9816
891.98	9675
892.103	9740
892.226	9762
892.349	9751
892.471	9576
892.594	9618
892.717	9599
892.839	9549
892.962	9576
893.085	9717
893.207	9557
893.33	9473
893.452	9515
893.575	9603
893.697	9488
893.819	9641
893.941	9694
894.064	9701
894.186	9363
894.308	9428
894.43	9488
894.552	9561
894.674	9507
894.796	9435
894.918	9435
895.04	9367
895.161	9393
895.283	9363
895.405	9226
895.526	9260
895.648	9272
895.769	9218
895.891	9272
896.012	9344
896.134	9275
896.255	9245
896.376	9165
896.498	9207
896.619	9138
896.74	9104
896.861	9077
896.982	9253
897.103	9351
897.224	9146
897.345	9058
897.466	8998
897.587	9100
897.708	9036
897.828	9005
897.949	8956
898.07	8895
898.19	8933
898.311	8975
898.431	8883
898.552	8929
898.672	8979
898.792	8990
898.913	8902
899.033	8746
899.153	8785
899.273	8644
899.393	8727
899.513	8724
899.633	8758
899.753	8781
899.873	8708
899.993	8750
900.113	8720
900.232	8750
900.352	8651
900.472	8602
900.591	8606
900.711	8537
900.83	8526
900.95	8705
901.069	8682
901.189	8560
901.308	8412
901.427	8396
901.546	8457
901.665	8480
901.784	8530
901.904	8389
902.023	8370
902.141	8351
902.26	8275
902.379	8290
902.498	8233
902.617	8233
902.735	8347
902.854	8248
902.973	8298
903.091	8119
903.21	8119
903.328	8168
903.446	8126
903.565	8084
903.683	8130
903.801	8054
903.919	8237
904.038	8180
904.156	8031
904.274	8031
904.392	8039
904.51	8039
904.627	8043
904.745	8103
904.863	8111
904.981	7925
905.098	7841
905.216	7871
905.334	7940
905.451	7925
905.569	7902
905.686	7909
905.803	7947
905.921	7750
906.038	7894
906.155	7803
906.272	7734
906.389	7780
906.506	7605
906.623	7719
906.74	7597
906.857	7533
906.974	7556
907.091	7651
907.208	7738
907.324	7666
907.441	7525
907.557	7480
907.674	7472
907.79	7400
907.907	7362
908.023	7411
908.139	7449
908.256	7346
908.372	7358
908.488	7449
908.604	7263
908.72	7221
908.836	7217
908.952	7312
909.068	7213
909.184	7301
909.3	7289
909.415	7301
909.531	7320
909.647	7122
909.762	7168
909.878	7110
909.993	7118
910.108	7076
910.224	7095
910.339	7194
910.454	7065
910.57	6958
910.685	6993
910.8	7141
910.915	7107
911.03	7034
911.145	6935
911.259	6947
911.374	6920
911.489	6852
911.604	6848
911.718	6749
911.833	6772
911.947	6639
912.062	6589
912.176	6707
912.291	6707
912.405	6707
912.519	6753
912.633	6856
912.748	6700
912.862	6684
912.976	6639
913.09	6612
913.204	6578
913.318	6684
913.431	6677
913.545	6719
913.659	6684
913.772	6642
913.886	6570
914	6566
914.113	6639
914.226	6566
914.34	6700
914.453	6509
914.566	6623
914.68	6547
914.793	6536
914.906	6456
915.019	6395
915.132	6353
915.245	6388
915.358	6445
915.47	6448
915.583	6532
915.696	6540
915.809	6483
915.921	6498
916.034	6437
916.146	6407
916.259	6422
916.371	6494
916.483	6437
916.595	6369
916.708	6513
916.82	6418
916.932	6384
917.044	6414
917.156	6395
917.268	6308
917.38	6323
917.491	6331
917.603	6365
917.715	6388
917.826	6456
917.938	6319
918.049	6251
918.161	6308
918.272	6414
918.384	6433
918.495	6403
918.606	6300
918.717	6262
918.828	6289
918.939	6270
919.05	6182
919.161	6331
919.272	6182
919.383	6178
919.494	6281
919.604	6437
919.715	6304
919.826	6209
919.936	6251
920.047	6319
920.157	6323
920.267	6471
920.378	6323
920.488	6300
920.598	6429
920.708	6585
920.818	6509
920.928	6479
921.038	6707
921.148	6582
921.258	6315
921.368	6285
921.477	6182
921.587	6152
921.697	6121
921.806	6178
921.916	6030
922.025	5999
922.134	5912
922.244	5882
922.353	5939
922.462	5859
922.571	5817
922.68	5684
922.789	5733
922.898	5707
923.007	5653
923.116	5771
923.224	5672
923.333	5653
923.442	5589
923.55	5577
923.659	5615
923.767	5649
923.876	5528
923.984	5646
924.092	5558
924.201	5558
924.309	5566
924.417	5558
924.525	5455
924.633	5558
924.741	6262
924.849	5326
924.956	5474
925.064	5318
925.172	5273
925.279	5296
925.387	5330
925.494	5334
925.602	5459
925.709	5345
925.816	5288
925.924	5368
926.031	5345
926.138	5307
926.245	5391
926.352	5193
926.459	5307
926.566	5360
926.673	5189
926.779	5140
926.886	5143
926.993	5045
927.099	5010
927.206	4999
927.312	4984
927.419	4987
927.525	4957
927.631	4995
927.737	4957
927.843	4854
927.95	4786
928.056	4816
928.162	4805
928.267	4843
928.373	5292
928.479	4881
928.585	4729
928.69	4767
928.796	4752
928.901	4710
929.007	4615
929.112	4691
929.218	4660
929.323	4714
929.428	4611
929.533	4687
929.638	4569
929.743	4580
929.848	4622
929.953	4580
930.058	4455
930.163	4348
930.267	4356
930.372	4409
930.477	4303
930.581	4493
930.685	4352
930.79	4253
930.894	4314
930.998	4261
931.103	4409
931.207	4173
931.311	4093
931.415	4116
931.519	3926
931.623	3934
