Data from glass_V78500241_536.txt Node
Date: Wed Sep 01 19:18:12 CST 2021
User: usil
Spectrometer: V785-0024
Trigger mode: 0
Integration Time (sec): 4.000000E-1
Scans to average: 1
Nonlinearity correction enabled: false
Boxcar width: 0
Storing dark spectrum: false
XAxis mode: Wavelengths
Number of Pixels in Spectrum: 1024
>>>>>Begin Spectral Data<<<<<
801.071	3747
801.214	3797
801.356	3732
801.499	3759
801.641	3751
801.783	3812
801.926	3899
802.068	3869
802.211	3892
802.353	3922
802.496	3846
802.638	3911
802.78	3918
802.923	3975
803.065	3953
803.208	3842
803.35	3907
803.492	3903
803.635	3918
803.777	3816
803.919	3922
804.061	4143
804.204	3937
804.346	3964
804.488	3896
804.63	4071
804.773	4006
804.915	4086
805.057	4177
805.199	4063
805.341	4101
805.483	4124
805.626	4097
805.768	4162
805.91	4246
806.052	4291
806.194	4211
806.336	4322
806.478	4181
806.62	4166
806.762	4204
806.904	4261
807.046	4287
807.188	4219
807.33	4162
807.472	4185
807.614	4257
807.756	4265
807.898	4211
808.04	4238
808.182	4299
808.324	4272
808.465	4375
808.607	4481
808.749	4451
808.891	4459
809.033	4516
809.174	4379
809.316	4272
809.458	4257
809.6	4169
809.741	4181
809.883	4166
810.025	4223
810.166	4249
810.308	4265
810.45	4272
810.591	4253
810.733	4299
810.875	4550
811.016	4858
811.158	5128
811.299	5239
811.441	5284
811.582	5105
811.724	4721
811.865	4489
812.007	4455
812.148	4413
812.29	4390
812.431	4390
812.573	4455
812.714	4363
812.855	4409
812.997	4413
813.138	4508
813.279	4459
813.421	4363
813.562	4386
813.703	4333
813.845	4329
813.986	4238
814.127	4227
814.268	4284
814.41	4287
814.551	4306
814.692	4329
814.833	4211
814.974	4314
815.115	4360
815.256	4268
815.397	4257
815.539	4249
815.68	4181
815.821	4257
815.962	4299
816.103	4325
816.244	4238
816.385	4249
816.526	4265
816.666	4173
816.807	4105
816.948	4169
817.089	4253
817.23	4097
817.371	4071
817.512	4143
817.653	4101
817.793	4074
817.934	4017
818.075	4131
818.216	4086
818.356	4143
818.497	3983
818.638	3911
818.778	3964
818.919	3945
819.06	3892
819.2	3922
819.341	3888
819.481	3854
819.622	3918
819.762	4051
819.903	3960
820.043	3884
820.184	3816
820.324	3797
820.465	3850
820.605	3892
820.746	3907
820.886	3804
821.026	3934
821.167	3873
821.307	3979
821.447	4051
821.588	3945
821.728	3960
821.868	3930
822.008	3869
822.149	3949
822.289	3907
822.429	3781
822.569	3755
822.709	3827
822.849	3717
822.99	3762
823.13	3762
823.27	3823
823.41	3705
823.55	3766
823.69	3713
823.83	3694
823.97	3694
824.11	3603
824.25	3618
824.389	3622
824.529	3698
824.669	3690
824.809	3736
824.949	3812
825.089	3728
825.228	3709
825.368	3610
825.508	3587
825.648	3580
825.787	3580
825.927	3637
826.067	3629
826.206	3694
826.346	3831
826.485	3819
826.625	3896
826.765	3964
826.904	3800
827.044	3587
827.183	3534
827.323	3428
827.462	3473
827.601	3458
827.741	3477
827.88	3469
828.02	3378
828.159	3481
828.298	3485
828.437	3545
828.577	3526
828.716	3637
828.855	3519
828.994	3378
829.134	3363
829.273	3428
829.412	3405
829.551	3340
829.69	3386
829.829	3420
829.968	3511
830.107	3454
830.246	3450
830.385	3389
830.524	3386
830.663	3317
830.802	3253
830.941	3188
831.08	3241
831.219	3310
831.357	3253
831.496	3389
831.635	3291
831.774	3188
831.913	3211
832.051	3154
832.19	3135
832.329	3233
832.467	3138
832.606	3077
832.744	3161
832.883	3192
833.022	3192
833.16	3253
833.299	3344
833.437	3359
833.576	3412
833.714	3428
833.852	3485
833.991	3454
834.129	3485
834.267	3454
834.406	3405
834.544	3447
834.682	3431
834.821	3412
834.959	3606
835.097	3435
835.235	3545
835.373	3488
835.511	3515
835.65	3469
835.788	3488
835.926	3401
836.064	3378
836.202	3447
836.34	3599
836.478	3606
836.615	3610
836.753	3633
836.891	3671
837.029	3625
837.167	3580
837.305	3603
837.443	3599
837.58	3492
837.718	3625
837.856	3564
837.993	3564
838.131	3576
838.269	3606
838.406	3614
838.544	3576
838.681	3447
838.819	3454
838.956	3409
839.094	3378
839.231	3500
839.369	3496
839.506	3770
839.643	3644
839.781	3530
839.918	3469
840.055	3530
840.193	3557
840.33	3523
840.467	3606
840.604	3618
840.742	3812
840.879	3561
841.016	3568
841.153	3595
841.29	3781
841.427	3728
841.564	3747
841.701	3720
841.838	3713
841.975	3701
842.112	3736
842.249	3690
842.385	3572
842.522	3835
842.659	3720
842.796	3675
842.933	3740
843.069	3675
843.206	3713
843.343	3812
843.479	3770
843.616	3850
843.752	3698
843.889	3694
844.025	3865
844.162	3736
844.298	3854
844.435	3819
844.571	3785
844.708	3899
844.844	4006
844.98	4063
845.117	3994
845.253	3960
845.389	3934
845.525	3915
845.661	4036
845.798	3911
845.934	4002
846.07	3994
846.206	4067
846.342	4139
846.478	4074
846.614	4010
846.75	3934
846.886	3896
847.022	4044
847.158	3968
847.294	4055
847.429	4017
847.565	4055
847.701	4261
847.837	3915
847.972	3857
848.108	3972
848.244	3991
848.379	3915
848.515	3838
848.65	3819
848.786	3884
848.921	3915
849.057	3937
849.192	3953
849.328	3903
849.463	3907
849.598	3926
849.734	3842
849.869	3835
850.004	3797
850.14	3800
850.275	3766
850.41	3747
850.545	3751
850.68	3755
850.815	3816
850.95	3774
851.085	3979
851.22	3903
851.355	3861
851.49	3785
851.625	3808
851.76	3831
851.895	3751
852.03	3724
852.165	3804
852.299	3850
852.434	3899
852.569	3911
852.703	3911
852.838	3930
852.973	4040
853.107	4021
853.242	3899
853.376	3869
853.511	3816
853.645	3861
853.78	3994
853.914	3979
854.048	3926
854.183	3876
854.317	3930
854.451	4082
854.585	3964
854.72	3949
854.854	4051
854.988	3956
855.122	3994
855.256	3937
855.39	4051
855.524	4116
855.658	4090
855.792	4135
855.926	4139
856.06	4158
856.194	4207
856.327	4162
856.461	4097
856.595	4169
856.729	4200
856.862	4242
856.996	4253
857.13	4341
857.263	4352
857.397	4390
857.53	4329
857.664	4371
857.797	4409
857.931	4428
858.064	4379
858.197	4474
858.331	4462
858.464	4371
858.597	4371
858.731	4462
858.864	4481
858.997	4489
859.13	4519
859.263	4508
859.396	4573
859.529	4523
859.662	4565
859.795	4542
859.928	4611
860.061	4691
860.194	4774
860.327	4687
860.46	4664
860.592	4748
860.725	4771
860.858	4790
860.99	4702
861.123	4668
861.256	4672
861.388	4782
861.521	5520
861.653	4729
861.786	4702
861.918	4801
862.05	4797
862.183	4850
862.315	4900
862.447	4908
862.58	4938
862.712	4835
862.844	4771
862.976	4923
863.108	4831
863.24	5239
863.372	4858
863.504	4911
863.636	4866
863.768	4949
863.9	4972
864.032	4946
864.164	4957
864.296	4984
864.428	5132
864.559	5136
864.691	5155
864.823	5181
864.954	5121
865.086	5151
865.217	5155
865.349	5147
865.48	5181
865.612	5197
865.743	5269
865.875	5204
866.006	5204
866.137	5231
866.269	5303
866.4	5261
866.531	5284
866.662	5242
866.793	5299
866.924	5299
867.055	5379
867.186	5364
867.317	5299
867.448	5368
867.579	5429
867.71	5414
867.841	5364
867.972	5501
868.103	5493
868.233	5463
868.364	5512
868.495	5558
868.625	5729
868.756	5813
868.886	5657
869.017	5752
869.147	5805
869.278	5870
869.408	5809
869.539	5786
869.669	5954
869.799	5882
869.929	5942
870.06	6019
870.19	6197
870.32	6232
870.45	6281
870.58	6346
870.71	6498
870.84	6502
870.97	6429
871.1	6490
871.23	6646
871.36	6665
871.489	6578
871.619	6772
871.749	6848
871.879	6905
872.008	7000
872.138	6939
872.267	7065
872.397	7012
872.526	7031
872.656	7126
872.785	7198
872.915	7430
873.044	7495
873.173	7556
873.303	7655
873.432	7799
873.561	7871
873.69	7963
873.819	8031
873.948	8221
874.077	8259
874.206	8301
874.335	8404
874.464	8651
874.593	8872
874.722	8960
874.851	9135
874.979	9272
875.108	9382
875.237	9367
875.365	9496
875.494	9675
875.623	9838
875.751	9751
875.88	9945
876.008	10204
876.136	10276
876.265	10478
876.393	10717
876.521	10721
876.65	10805
876.778	10900
876.906	11006
877.034	10942
877.162	11117
877.29	11128
877.418	11258
877.546	11311
877.674	11459
877.802	11528
877.93	11547
878.058	11630
878.185	11615
878.313	11726
878.441	11764
878.568	11691
878.696	11882
878.824	11961
878.951	11927
879.079	12068
879.206	12125
879.333	12030
879.461	12015
879.588	12034
879.715	12034
879.842	12270
879.97	12045
880.097	11863
880.224	11870
880.351	11874
880.478	11920
880.605	11809
880.732	11786
880.859	11965
880.986	11813
881.112	11813
881.239	11722
881.366	11726
881.493	11630
881.619	11611
881.746	11589
881.872	11570
881.999	11493
882.125	11493
882.252	11547
882.378	11524
882.505	11589
882.631	11387
882.757	11391
882.883	11334
883.01	11246
883.136	11159
883.262	11113
883.388	11056
883.514	11193
883.64	11197
883.766	11083
883.892	11014
884.018	11037
884.143	11105
884.269	11159
884.395	10889
884.52	10850
884.646	10759
884.772	10736
884.897	10771
885.023	10649
885.148	10653
885.274	10687
885.399	10729
885.524	10679
885.65	10618
885.775	10584
885.9	10561
886.025	10675
886.15	10603
886.275	10478
886.4	10459
886.525	10375
886.65	10402
886.775	10325
886.9	10413
887.025	10504
887.149	10421
887.274	10310
887.399	10139
887.523	10253
887.648	10147
887.773	10204
887.897	10169
888.021	10265
888.146	10048
888.27	10185
888.395	10227
888.519	10116
888.643	10150
888.767	10166
888.891	10101
889.015	10078
889.139	10055
889.263	10025
889.387	10086
889.511	10112
889.635	10074
889.759	9979
889.883	10029
890.006	9937
890.13	10074
890.254	9907
890.377	10025
890.501	9941
890.624	9945
890.748	9998
890.871	9873
890.995	9740
891.118	9736
891.241	9797
891.364	9770
891.488	9876
891.611	9637
891.734	9808
891.857	9770
891.98	9747
892.103	9804
892.226	9641
892.349	9663
892.471	9549
892.594	9606
892.717	9709
892.839	9587
892.962	9625
893.085	9724
893.207	9545
893.33	9576
893.452	9595
893.575	9644
893.697	9496
893.819	9644
893.941	9652
894.064	9698
894.186	9363
894.308	9420
894.43	9572
894.552	9538
894.674	9500
894.796	9393
894.918	9412
895.04	9363
895.161	9367
895.283	9344
895.405	9310
895.526	9275
895.648	9195
895.769	9268
895.891	9272
896.012	9249
896.134	9253
896.255	9230
896.376	9112
896.498	9169
896.619	9066
896.74	9077
896.861	9077
896.982	9245
897.103	9275
897.224	9138
897.345	9100
897.466	9020
897.587	9009
897.708	9077
897.828	9043
897.949	8944
898.07	8925
898.19	8876
898.311	9017
898.431	8918
898.552	8963
898.672	8982
898.792	9005
898.913	8967
899.033	8853
899.153	8754
899.273	8693
899.393	8708
899.513	8705
899.633	8708
899.753	8739
899.873	8758
899.993	8705
900.113	8682
900.232	8785
900.352	8644
900.472	8514
900.591	8590
900.711	8594
900.83	8545
900.95	8727
901.069	8724
901.189	8530
901.308	8473
901.427	8412
901.546	8423
901.665	8412
901.784	8499
901.904	8339
902.023	8298
902.141	8214
902.26	8199
902.379	8336
902.498	8130
902.617	8267
902.735	8332
902.854	8176
902.973	8275
903.091	8077
903.21	8103
903.328	8145
903.446	8111
903.565	8126
903.683	8111
903.801	8027
903.919	8123
904.038	8161
904.156	8054
904.274	8081
904.392	8043
904.51	8050
904.627	7986
904.745	8088
904.863	8088
904.981	7894
905.098	7967
905.216	7883
905.334	7936
905.451	7932
905.569	7898
905.686	7913
905.803	7986
905.921	7765
906.038	7906
906.155	7807
906.272	7742
906.389	7719
906.506	7620
906.623	7616
906.74	7639
906.857	7594
906.974	7639
907.091	7734
907.208	7780
907.324	7658
907.441	7559
907.557	7422
907.674	7521
907.79	7400
907.907	7396
908.023	7480
908.139	7460
908.256	7316
908.372	7362
908.488	7331
908.604	7282
908.72	7259
908.836	7251
908.952	7209
909.068	7247
909.184	7381
909.3	7232
909.415	7278
909.531	7285
909.647	7129
909.762	7160
909.878	7080
909.993	7099
910.108	7088
910.224	7088
910.339	7129
910.454	7065
910.57	7050
910.685	6962
910.8	7179
910.915	7126
911.03	7065
911.145	6863
911.259	6848
911.374	6924
911.489	6810
911.604	6833
911.718	6700
911.833	6749
911.947	6703
912.062	6627
912.176	6703
912.291	6703
912.405	6715
912.519	6852
912.633	6856
912.748	6779
912.862	6696
912.976	6650
913.09	6502
913.204	6608
913.318	6616
913.431	6692
913.545	6669
913.659	6627
913.772	6627
913.886	6582
914	6555
914.113	6654
914.226	6654
914.34	6574
914.453	6521
914.566	6673
914.68	6559
914.793	6559
914.906	6395
915.019	6418
915.132	6350
915.245	6433
915.358	6460
915.47	6429
915.583	6426
915.696	6490
915.809	6585
915.921	6555
916.034	6403
916.146	6410
916.259	6357
916.371	6555
916.483	6456
916.595	6403
916.708	6376
916.82	6399
916.932	6346
917.044	6384
917.156	6403
917.268	6342
917.38	6331
917.491	6273
917.603	6319
917.715	6418
917.826	6433
917.938	6346
918.049	6254
918.161	6319
918.272	6448
918.384	6483
918.495	6380
918.606	6251
918.717	6197
918.828	6292
918.939	6353
919.05	6201
919.161	6197
919.272	6159
919.383	6167
919.494	6289
919.604	6422
919.715	6281
919.826	6216
919.936	6262
920.047	6399
920.157	6235
920.267	6471
920.378	6327
920.488	6319
920.598	6521
920.708	6620
920.818	6498
920.928	6513
921.038	6604
921.148	6665
921.258	6342
921.368	6289
921.477	6292
921.587	6220
921.697	6091
921.806	6205
921.916	6068
922.025	5958
922.134	5908
922.244	5844
922.353	5961
922.462	5863
922.571	5817
922.68	5714
922.789	5729
922.898	5718
923.007	5611
923.116	5722
923.224	5630
923.333	5630
923.442	5585
923.55	5592
923.659	5630
923.767	5619
923.876	5535
923.984	5634
924.092	5539
924.201	5615
924.309	5573
924.417	5577
924.525	5535
924.633	5509
924.741	6247
924.849	5436
924.956	5478
925.064	5406
925.172	5341
925.279	5330
925.387	5353
925.494	5349
925.602	5455
925.709	5414
925.816	5269
925.924	5357
926.031	5395
926.138	5261
926.245	5341
926.352	5208
926.459	5349
926.566	5330
926.673	5242
926.779	5162
926.886	5086
926.993	5067
927.099	5037
927.206	4987
927.312	4942
927.419	5060
927.525	5006
927.631	4972
927.737	4915
927.843	4870
927.95	4805
928.056	4824
928.162	4873
928.267	4847
928.373	5318
928.479	4839
928.585	4675
928.69	4778
928.796	4752
928.901	4710
929.007	4565
929.112	4698
929.218	4630
929.323	4630
929.428	4588
929.533	4664
929.638	4512
929.743	4546
929.848	4550
929.953	4504
930.058	4504
930.163	4337
930.267	4344
930.372	4413
930.477	4310
930.581	4451
930.685	4386
930.79	4299
930.894	4280
930.998	4249
931.103	4417
931.207	4143
931.311	4067
931.415	4048
931.519	3934
931.623	3964
