Data from glass_V78500241_2336.txt Node
Date: Wed Sep 01 19:30:41 CST 2021
User: usil
Spectrometer: V785-0024
Trigger mode: 0
Integration Time (sec): 4.000000E-1
Scans to average: 1
Nonlinearity correction enabled: false
Boxcar width: 0
Storing dark spectrum: false
XAxis mode: Wavelengths
Number of Pixels in Spectrum: 1024
>>>>>Begin Spectral Data<<<<<
801.071	3740
801.214	3781
801.356	3679
801.499	3724
801.641	3724
801.783	3774
801.926	3831
802.068	3819
802.211	3861
802.353	3876
802.496	3850
802.638	3873
802.78	3880
802.923	3934
803.065	3903
803.208	3842
803.35	3873
803.492	3880
803.635	3922
803.777	3800
803.919	3892
804.061	4139
804.204	3964
804.346	3956
804.488	3941
804.63	4025
804.773	3945
804.915	4044
805.057	4131
805.199	4032
805.341	4112
805.483	4135
805.626	4139
805.768	4086
805.91	4166
806.052	4284
806.194	4181
806.336	4363
806.478	4188
806.62	4173
806.762	4143
806.904	4280
807.046	4352
807.188	4200
807.33	4143
807.472	4234
807.614	4188
807.756	4276
807.898	4227
808.04	4227
808.182	4272
808.324	4390
808.465	4398
808.607	4421
808.749	4447
808.891	4440
809.033	4527
809.174	4375
809.316	4246
809.458	4227
809.6	4150
809.741	4120
809.883	4128
810.025	4215
810.166	4207
810.308	4238
810.45	4238
810.591	4211
810.733	4257
810.875	4512
811.016	4831
811.158	5132
811.299	5261
811.441	5292
811.582	5064
811.724	4702
811.865	4485
812.007	4466
812.148	4402
812.29	4413
812.431	4394
812.573	4383
812.714	4383
812.855	4363
812.997	4390
813.138	4497
813.279	4367
813.421	4341
813.562	4318
813.703	4352
813.845	4348
813.986	4200
814.127	4207
814.268	4276
814.41	4333
814.551	4211
814.692	4318
814.833	4287
814.974	4268
815.115	4299
815.256	4223
815.397	4230
815.539	4249
815.68	4166
815.821	4211
815.962	4310
816.103	4280
816.244	4204
816.385	4265
816.526	4261
816.666	4219
816.807	4086
816.948	4154
817.089	4188
817.23	4097
817.371	4040
817.512	4021
817.653	4086
817.793	4025
817.934	4036
818.075	4010
818.216	4074
818.356	4112
818.497	3998
818.638	3873
818.778	3918
818.919	3888
819.06	3861
819.2	3934
819.341	3876
819.481	3865
819.622	3880
819.762	3979
819.903	3945
820.043	3880
820.184	3804
820.324	3819
820.465	3915
820.605	3842
820.746	3865
820.886	3774
821.026	3937
821.167	3888
821.307	3949
821.447	3949
821.588	3903
821.728	3918
821.868	3953
822.008	3884
822.149	3918
822.289	3907
822.429	3823
822.569	3778
822.709	3793
822.849	3679
822.99	3701
823.13	3762
823.27	3781
823.41	3732
823.55	3724
823.69	3701
823.83	3759
823.97	3667
824.11	3584
824.25	3549
824.389	3648
824.529	3644
824.669	3629
824.809	3743
824.949	3720
825.089	3759
825.228	3717
825.368	3568
825.508	3557
825.648	3553
825.787	3599
825.927	3656
826.067	3599
826.206	3698
826.346	3793
826.485	3804
826.625	3884
826.765	3953
826.904	3816
827.044	3606
827.183	3515
827.323	3378
827.462	3450
827.601	3435
827.741	3447
827.88	3447
828.02	3363
828.159	3435
828.298	3435
828.437	3542
828.577	3443
828.716	3568
828.855	3519
828.994	3405
829.134	3367
829.273	3405
829.412	3340
829.551	3340
829.69	3351
829.829	3401
829.968	3511
830.107	3447
830.246	3405
830.385	3367
830.524	3355
830.663	3306
830.802	3241
830.941	3203
831.08	3176
831.219	3241
831.357	3268
831.496	3416
831.635	3211
831.774	3211
831.913	3203
832.051	3127
832.19	3119
832.329	3203
832.467	3108
832.606	3127
832.744	3192
832.883	3184
833.022	3165
833.16	3214
833.299	3332
833.437	3359
833.576	3370
833.714	3393
833.852	3424
833.991	3389
834.129	3469
834.267	3401
834.406	3401
834.544	3389
834.682	3424
834.821	3416
834.959	3584
835.097	3466
835.235	3481
835.373	3504
835.511	3469
835.65	3450
835.788	3469
835.926	3416
836.064	3344
836.202	3389
836.34	3538
836.478	3622
836.615	3526
836.753	3599
836.891	3641
837.029	3633
837.167	3576
837.305	3519
837.443	3542
837.58	3477
837.718	3568
837.856	3561
837.993	3553
838.131	3603
838.269	3587
838.406	3553
838.544	3557
838.681	3435
838.819	3454
838.956	3363
839.094	3397
839.231	3443
839.369	3523
839.506	3728
839.643	3641
839.781	3481
839.918	3447
840.055	3481
840.193	3507
840.33	3485
840.467	3572
840.604	3622
840.742	3785
840.879	3530
841.016	3606
841.153	3618
841.29	3743
841.427	3713
841.564	3709
841.701	3747
841.838	3701
841.975	3648
842.112	3713
842.249	3652
842.385	3603
842.522	3823
842.659	3717
842.796	3648
842.933	3644
843.069	3679
843.206	3705
843.343	3766
843.479	3762
843.616	3842
843.752	3641
843.889	3698
844.025	3846
844.162	3717
844.298	3827
844.435	3812
844.571	3740
844.708	3911
844.844	3960
844.98	4025
845.117	3998
845.253	3888
845.389	3903
845.525	4006
845.661	3956
845.798	3949
845.934	3934
846.07	3922
846.206	4055
846.342	4120
846.478	4051
846.614	3968
846.75	3934
846.886	3899
847.022	4010
847.158	3964
847.294	3979
847.429	3975
847.565	3994
847.701	4223
847.837	3888
847.972	3854
848.108	3972
848.244	3968
848.379	3850
848.515	3789
848.65	3800
848.786	3816
848.921	3857
849.057	3926
849.192	3941
849.328	3892
849.463	3884
849.598	3865
849.734	3861
849.869	3812
850.004	3781
850.14	3759
850.275	3759
850.41	3778
850.545	3759
850.68	3774
850.815	3819
850.95	3785
851.085	3934
851.22	3888
851.355	3812
851.49	3770
851.625	3781
851.76	3766
851.895	3717
852.03	3736
852.165	3842
852.299	3797
852.434	3907
852.569	3884
852.703	3850
852.838	3876
852.973	4021
853.107	3968
853.242	3838
853.376	3873
853.511	3774
853.645	3793
853.78	3953
853.914	3930
854.048	3869
854.183	3896
854.317	3949
854.451	4063
854.585	3911
854.72	3945
854.854	4044
854.988	3911
855.122	3975
855.256	3888
855.39	4017
855.524	4101
855.658	4097
855.792	4097
855.926	4154
856.06	4177
856.194	4200
856.327	4135
856.461	4086
856.595	4147
856.729	4188
856.862	4249
856.996	4192
857.13	4310
857.263	4333
857.397	4325
857.53	4272
857.664	4352
857.797	4432
857.931	4447
858.064	4363
858.197	4409
858.331	4379
858.464	4390
858.597	4375
858.731	4417
858.864	4481
858.997	4417
859.13	4500
859.263	4523
859.396	4584
859.529	4531
859.662	4500
859.795	4508
859.928	4580
860.061	4691
860.194	4710
860.327	4675
860.46	4653
860.592	4759
860.725	4755
860.858	4759
860.99	4683
861.123	4683
861.256	4717
861.388	4771
861.521	5216
861.653	4729
861.786	4702
861.918	4752
862.05	4771
862.183	4847
862.315	4919
862.447	4881
862.58	4850
862.712	4786
862.844	4767
862.976	4816
863.108	4850
863.24	5166
863.372	4877
863.504	4881
863.636	4854
863.768	4930
863.9	4934
864.032	4900
864.164	4949
864.296	5037
864.428	5067
864.559	5086
864.691	5117
864.823	5098
864.954	5109
865.086	5121
865.217	5105
865.349	5121
865.48	5166
865.612	5189
865.743	5277
865.875	5185
866.006	5181
866.137	5261
866.269	5223
866.4	5208
866.531	5258
866.662	5231
866.793	5235
866.924	5345
867.055	5379
867.186	5353
867.317	5326
867.448	5277
867.579	5372
867.71	5341
867.841	5391
867.972	5455
868.103	5414
868.233	5429
868.364	5501
868.495	5512
868.625	5627
868.756	5798
868.886	5661
869.017	5764
869.147	5893
869.278	5836
869.408	5783
869.539	5828
869.669	5973
869.799	5885
869.929	5992
870.06	6045
870.19	6178
870.32	6205
870.45	6270
870.58	6369
870.71	6448
870.84	6475
870.97	6346
871.1	6418
871.23	6604
871.36	6662
871.489	6684
871.619	6688
871.749	6795
871.879	6856
872.008	6993
872.138	6951
872.267	6954
872.397	7042
872.526	6973
872.656	7122
872.785	7175
872.915	7381
873.044	7491
873.173	7521
873.303	7647
873.432	7685
873.561	7860
873.69	7936
873.819	7974
873.948	8103
874.077	8259
874.206	8286
874.335	8415
874.464	8697
874.593	8864
874.722	8929
874.851	9108
874.979	9154
875.108	9359
875.237	9405
875.365	9477
875.494	9690
875.623	9899
875.751	9907
875.88	9964
876.008	10124
876.136	10257
876.265	10550
876.393	10653
876.521	10717
876.65	10767
876.778	10892
876.906	10911
877.034	10930
877.162	11052
877.29	11181
877.418	11356
877.546	11318
877.674	11421
877.802	11524
877.93	11482
878.058	11558
878.185	11474
878.313	11562
878.441	11786
878.568	11668
878.696	11714
878.824	11779
878.951	11931
879.079	12102
879.206	12117
879.333	12053
879.461	11946
879.588	12068
879.715	12144
879.842	12266
879.97	12057
880.097	11866
880.224	11817
880.351	11832
880.478	11885
880.605	11802
880.732	11783
880.859	11988
880.986	11821
881.112	11855
881.239	11680
881.366	11592
881.493	11672
881.619	11581
881.746	11547
881.872	11482
881.999	11520
882.125	11448
882.252	11547
882.378	11501
882.505	11551
882.631	11326
882.757	11322
882.883	11383
883.01	11242
883.136	11197
883.262	11189
883.388	11041
883.514	11250
883.64	11162
883.766	11014
883.892	11003
884.018	10980
884.143	10999
884.269	11079
884.395	10877
884.52	10828
884.646	10721
884.772	10675
884.897	10675
885.023	10561
885.148	10706
885.274	10797
885.399	10691
885.524	10577
885.65	10573
885.775	10584
885.9	10535
886.025	10660
886.15	10508
886.275	10470
886.4	10424
886.525	10356
886.65	10325
886.775	10409
886.9	10466
887.025	10565
887.149	10325
887.274	10223
887.399	10181
887.523	10200
887.648	10173
887.773	10086
887.897	10124
888.021	10227
888.146	10158
888.27	10173
888.395	10162
888.519	10211
888.643	10158
888.767	10200
888.891	10090
889.015	10032
889.139	10032
889.263	9998
889.387	10082
889.511	10021
889.635	10040
889.759	9899
889.883	9994
890.006	9987
890.13	10078
890.254	9869
890.377	9918
890.501	9934
890.624	9899
890.748	9831
890.871	9732
890.995	9743
891.118	9751
891.241	9800
891.364	9736
891.488	9800
891.611	9690
891.734	9751
891.857	9846
891.98	9755
892.103	9732
892.226	9701
892.349	9671
892.471	9507
892.594	9610
892.717	9606
892.839	9519
892.962	9652
893.085	9701
893.207	9641
893.33	9507
893.452	9553
893.575	9587
893.697	9545
893.819	9572
893.941	9660
894.064	9584
894.186	9386
894.308	9393
894.43	9519
894.552	9523
894.674	9481
894.796	9359
894.918	9488
895.04	9249
895.161	9367
895.283	9317
895.405	9272
895.526	9302
895.648	9249
895.769	9176
895.891	9275
896.012	9176
896.134	9169
896.255	9169
896.376	9089
896.498	9180
896.619	9085
896.74	9051
896.861	9108
896.982	9268
897.103	9306
897.224	9161
897.345	9028
897.466	9013
897.587	9043
897.708	9058
897.828	8971
897.949	8944
898.07	8944
898.19	8910
898.311	8963
898.431	8830
898.552	8826
898.672	9024
898.792	8925
898.913	8906
899.033	8792
899.153	8644
899.273	8655
899.393	8727
899.513	8731
899.633	8716
899.753	8735
899.873	8663
899.993	8735
900.113	8678
900.232	8648
900.352	8674
900.472	8613
900.591	8644
900.711	8594
900.83	8495
900.95	8629
901.069	8648
901.189	8541
901.308	8446
901.427	8404
901.546	8366
901.665	8442
901.784	8503
901.904	8370
902.023	8290
902.141	8309
902.26	8134
902.379	8301
902.498	8195
902.617	8199
902.735	8244
902.854	8324
902.973	8218
903.091	8088
903.21	8126
903.328	8164
903.446	8161
903.565	8100
903.683	8119
903.801	8062
903.919	8111
904.038	8123
904.156	8103
904.274	8054
904.392	8031
904.51	8035
904.627	7986
904.745	8050
904.863	8088
904.981	7932
905.098	7833
905.216	7803
905.334	7894
905.451	7883
905.569	7947
905.686	7913
905.803	7921
905.921	7803
906.038	7883
906.155	7811
906.272	7685
906.389	7651
906.506	7613
906.623	7624
906.74	7620
906.857	7468
906.974	7559
907.091	7658
907.208	7693
907.324	7628
907.441	7601
907.557	7434
907.674	7472
907.79	7411
907.907	7438
908.023	7403
908.139	7346
908.256	7381
908.372	7430
908.488	7346
908.604	7251
908.72	7209
908.836	7244
908.952	7259
909.068	7175
909.184	7301
909.3	7198
909.415	7259
909.531	7289
909.647	7126
909.762	7145
909.878	7023
909.993	7088
910.108	7015
910.224	7099
910.339	7103
910.454	7004
910.57	6958
910.685	6943
910.8	7149
910.915	7145
911.03	7031
911.145	6867
911.259	6848
911.374	6837
911.489	6825
911.604	6764
911.718	6642
911.833	6673
911.947	6726
912.062	6589
912.176	6654
912.291	6726
912.405	6722
912.519	6821
912.633	6776
912.748	6707
912.862	6715
912.976	6604
913.09	6513
913.204	6574
913.318	6582
913.431	6688
913.545	6646
913.659	6707
913.772	6662
913.886	6540
914	6574
914.113	6536
914.226	6631
914.34	6582
914.453	6502
914.566	6551
914.68	6551
914.793	6532
914.906	6369
915.019	6365
915.132	6372
915.245	6391
915.358	6448
915.47	6445
915.583	6452
915.696	6471
915.809	6509
915.921	6536
916.034	6418
916.146	6418
916.259	6369
916.371	6452
916.483	6448
916.595	6391
916.708	6361
916.82	6372
916.932	6391
917.044	6388
917.156	6380
917.268	6232
917.38	6346
917.491	6270
917.603	6338
917.715	6388
917.826	6429
917.938	6342
918.049	6289
918.161	6350
918.272	6433
918.384	6422
918.495	6334
918.606	6247
918.717	6167
918.828	6247
918.939	6285
919.05	6175
919.161	6220
919.272	6079
919.383	6117
919.494	6235
919.604	6395
919.715	6270
919.826	6190
919.936	6194
920.047	6311
920.157	6357
920.267	6422
920.378	6319
920.488	6357
920.598	6479
920.708	6532
920.818	6429
920.928	6441
921.038	6639
921.148	6570
921.258	6338
921.368	6296
921.477	6201
921.587	6171
921.697	6106
921.806	6167
921.916	6083
922.025	5988
922.134	5893
922.244	5863
922.353	5950
922.462	5824
922.571	5767
922.68	5699
922.789	5680
922.898	5691
923.007	5665
923.116	5684
923.224	5710
923.333	5653
923.442	5611
923.55	5577
923.659	5611
923.767	5653
923.876	5535
923.984	5604
924.092	5532
924.201	5520
924.309	5554
924.417	5505
924.525	5482
924.633	5493
924.741	6327
924.849	5372
924.956	5501
925.064	5326
925.172	5311
925.279	5349
925.387	5357
925.494	5280
925.602	5444
925.709	5349
925.816	5242
925.924	5258
926.031	5311
926.138	5265
926.245	5315
926.352	5223
926.459	5303
926.566	5326
926.673	5174
926.779	5102
926.886	5064
926.993	5056
927.099	5006
927.206	4927
927.312	4908
927.419	5029
927.525	4995
927.631	4984
927.737	4854
927.843	4904
927.95	4736
928.056	4809
928.162	4790
928.267	4889
928.373	5299
928.479	4801
928.585	4641
928.69	4714
928.796	4755
928.901	4721
929.007	4626
929.112	4664
929.218	4584
929.323	4588
929.428	4584
929.533	4660
929.638	4538
929.743	4558
929.848	4561
929.953	4523
930.058	4428
930.163	4306
930.267	4367
930.372	4432
930.477	4246
930.581	4489
930.685	4325
930.79	4238
930.894	4280
930.998	4268
931.103	4371
931.207	4093
931.311	4112
931.415	4040
931.519	3884
931.623	3930
