Data from glass_V78500241_1729.txt Node
Date: Wed Sep 01 19:26:29 CST 2021
User: usil
Spectrometer: V785-0024
Trigger mode: 0
Integration Time (sec): 4.000000E-1
Scans to average: 1
Nonlinearity correction enabled: false
Boxcar width: 0
Storing dark spectrum: false
XAxis mode: Wavelengths
Number of Pixels in Spectrum: 1024
>>>>>Begin Spectral Data<<<<<
801.071	3751
801.214	3762
801.356	3667
801.499	3720
801.641	3686
801.783	3808
801.926	3884
802.068	3789
802.211	3896
802.353	3873
802.496	3819
802.638	3865
802.78	3876
802.923	3949
803.065	3918
803.208	3854
803.35	3880
803.492	3903
803.635	3915
803.777	3819
803.919	3926
804.061	4139
804.204	3960
804.346	3979
804.488	3892
804.63	4025
804.773	3945
804.915	4021
805.057	4109
805.199	4032
805.341	4051
805.483	4147
805.626	4128
805.768	4086
805.91	4211
806.052	4249
806.194	4215
806.336	4348
806.478	4162
806.62	4181
806.762	4204
806.904	4257
807.046	4322
807.188	4207
807.33	4181
807.472	4253
807.614	4200
807.756	4352
807.898	4215
808.04	4242
808.182	4284
808.324	4314
808.465	4371
808.607	4481
808.749	4421
808.891	4466
809.033	4504
809.174	4428
809.316	4227
809.458	4268
809.6	4150
809.741	4166
809.883	4200
810.025	4238
810.166	4181
810.308	4219
810.45	4253
810.591	4215
810.733	4329
810.875	4523
811.016	4828
811.158	5128
811.299	5250
811.441	5330
811.582	5067
811.724	4744
811.865	4497
812.007	4440
812.148	4447
812.29	4428
812.431	4417
812.573	4375
812.714	4356
812.855	4421
812.997	4421
813.138	4531
813.279	4417
813.421	4398
813.562	4348
813.703	4390
813.845	4344
813.986	4268
814.127	4215
814.268	4268
814.41	4249
814.551	4272
814.692	4329
814.833	4230
814.974	4280
815.115	4318
815.256	4227
815.397	4253
815.539	4238
815.68	4185
815.821	4215
815.962	4337
816.103	4268
816.244	4204
816.385	4219
816.526	4299
816.666	4215
816.807	4105
816.948	4169
817.089	4139
817.23	4105
817.371	4048
817.512	4032
817.653	4055
817.793	4032
817.934	3972
818.075	4120
818.216	4025
818.356	4044
818.497	4006
818.638	3930
818.778	3926
818.919	3918
819.06	3873
819.2	3945
819.341	3842
819.481	3819
819.622	3915
819.762	3987
819.903	3934
820.043	3888
820.184	3804
820.324	3808
820.465	3865
820.605	3816
820.746	3831
820.886	3789
821.026	3896
821.167	3876
821.307	3968
821.447	3991
821.588	3922
821.728	3903
821.868	3884
822.008	3838
822.149	3918
822.289	3930
822.429	3770
822.569	3755
822.709	3770
822.849	3717
822.99	3724
823.13	3766
823.27	3766
823.41	3732
823.55	3728
823.69	3701
823.83	3740
823.97	3663
824.11	3648
824.25	3606
824.389	3663
824.529	3614
824.669	3641
824.809	3709
824.949	3759
825.089	3686
825.228	3671
825.368	3568
825.508	3576
825.648	3553
825.787	3587
825.927	3644
826.067	3614
826.206	3694
826.346	3789
826.485	3835
826.625	3873
826.765	3918
826.904	3804
827.044	3606
827.183	3538
827.323	3416
827.462	3496
827.601	3424
827.741	3401
827.88	3443
828.02	3367
828.159	3428
828.298	3469
828.437	3515
828.577	3477
828.716	3599
828.855	3469
828.994	3374
829.134	3332
829.273	3393
829.412	3351
829.551	3344
829.69	3397
829.829	3409
829.968	3542
830.107	3447
830.246	3428
830.385	3374
830.524	3329
830.663	3294
830.802	3253
830.941	3203
831.08	3184
831.219	3245
831.357	3275
831.496	3431
831.635	3230
831.774	3214
831.913	3184
832.051	3154
832.19	3104
832.329	3195
832.467	3138
832.606	3112
832.744	3184
832.883	3184
833.022	3176
833.16	3233
833.299	3291
833.437	3336
833.576	3386
833.714	3370
833.852	3443
833.991	3412
834.129	3477
834.267	3458
834.406	3431
834.544	3409
834.682	3424
834.821	3424
834.959	3523
835.097	3401
835.235	3519
835.373	3511
835.511	3477
835.65	3428
835.788	3504
835.926	3382
836.064	3363
836.202	3393
836.34	3564
836.478	3610
836.615	3549
836.753	3568
836.891	3663
837.029	3603
837.167	3557
837.305	3523
837.443	3519
837.58	3488
837.718	3591
837.856	3553
837.993	3561
838.131	3641
838.269	3553
838.406	3603
838.544	3591
838.681	3450
838.819	3466
838.956	3401
839.094	3370
839.231	3450
839.369	3519
839.506	3743
839.643	3618
839.781	3492
839.918	3485
840.055	3526
840.193	3557
840.33	3534
840.467	3538
840.604	3584
840.742	3785
840.879	3523
841.016	3572
841.153	3629
841.29	3804
841.427	3713
841.564	3740
841.701	3724
841.838	3675
841.975	3682
842.112	3713
842.249	3644
842.385	3622
842.522	3831
842.659	3705
842.796	3705
842.933	3713
843.069	3701
843.206	3724
843.343	3823
843.479	3747
843.616	3778
843.752	3667
843.889	3690
844.025	3850
844.162	3701
844.298	3846
844.435	3778
844.571	3800
844.708	3880
844.844	4006
844.98	4021
845.117	4029
845.253	3949
845.389	3915
845.525	4006
845.661	4013
845.798	3911
845.934	3994
846.07	3972
846.206	4074
846.342	4109
846.478	4067
846.614	3941
846.75	3953
846.886	3896
847.022	4078
847.158	4013
847.294	3960
847.429	4025
847.565	3983
847.701	4249
847.837	3865
847.972	3884
848.108	3983
848.244	3945
848.379	3846
848.515	3816
848.65	3823
848.786	3861
848.921	3857
849.057	3934
849.192	3941
849.328	3911
849.463	3953
849.598	3873
849.734	3930
849.869	3846
850.004	3743
850.14	3793
850.275	3812
850.41	3732
850.545	3724
850.68	3785
850.815	3781
850.95	3785
851.085	3922
851.22	3861
851.355	3846
851.49	3781
851.625	3762
851.76	3770
851.895	3743
852.03	3717
852.165	3827
852.299	3835
852.434	3911
852.569	3838
852.703	3846
852.838	3922
852.973	3975
853.107	3975
853.242	3876
853.376	3838
853.511	3766
853.645	3831
853.78	3983
853.914	3865
854.048	3884
854.183	3850
854.317	3987
854.451	4044
854.585	3968
854.72	3911
854.854	4078
854.988	3915
855.122	4010
855.256	3911
855.39	4059
855.524	4139
855.658	4036
855.792	4078
855.926	4086
856.06	4188
856.194	4227
856.327	4120
856.461	4154
856.595	4139
856.729	4181
856.862	4284
856.996	4265
857.13	4299
857.263	4333
857.397	4329
857.53	4306
857.664	4329
857.797	4398
857.931	4424
858.064	4402
858.197	4470
858.331	4341
858.464	4352
858.597	4310
858.731	4394
858.864	4451
858.997	4432
859.13	4493
859.263	4512
859.396	4561
859.529	4497
859.662	4558
859.795	4516
859.928	4569
860.061	4656
860.194	4729
860.327	4656
860.46	4660
860.592	4733
860.725	4748
860.858	4778
860.99	4725
861.123	4702
861.256	4672
861.388	4805
861.521	5379
861.653	4755
861.786	4721
861.918	4702
862.05	4782
862.183	4858
862.315	4862
862.447	4961
862.58	4904
862.712	4820
862.844	4752
862.976	4862
863.108	4908
863.24	5246
863.372	4881
863.504	4839
863.636	4904
863.768	4949
863.9	4957
864.032	4904
864.164	4976
864.296	5014
864.428	5075
864.559	5075
864.691	5124
864.823	5098
864.954	5147
865.086	5201
865.217	5193
865.349	5147
865.48	5132
865.612	5159
865.743	5292
865.875	5204
866.006	5220
866.137	5246
866.269	5212
866.4	5254
866.531	5189
866.662	5181
866.793	5227
866.924	5261
867.055	5341
867.186	5341
867.317	5334
867.448	5265
867.579	5368
867.71	5307
867.841	5410
867.972	5490
868.103	5455
868.233	5444
868.364	5512
868.495	5570
868.625	5630
868.756	5767
868.886	5695
869.017	5703
869.147	5908
869.278	5859
869.408	5847
869.539	5847
869.669	5927
869.799	5859
869.929	5965
870.06	5984
870.19	6224
870.32	6251
870.45	6228
870.58	6361
870.71	6395
870.84	6441
870.97	6456
871.1	6494
871.23	6669
871.36	6741
871.489	6658
871.619	6722
871.749	6818
871.879	6856
872.008	6947
872.138	6985
872.267	7061
872.397	6985
872.526	6989
872.656	7122
872.785	7213
872.915	7388
873.044	7407
873.173	7556
873.303	7670
873.432	7750
873.561	7830
873.69	7868
873.819	7951
873.948	8149
874.077	8210
874.206	8389
874.335	8469
874.464	8693
874.593	8853
874.722	8929
874.851	9112
874.979	9211
875.108	9397
875.237	9488
875.365	9382
875.494	9625
875.623	9812
875.751	9884
875.88	9998
876.008	10124
876.136	10325
876.265	10523
876.393	10710
876.521	10740
876.65	10824
876.778	10862
876.906	10866
877.034	11006
877.162	11128
877.29	11193
877.418	11322
877.546	11303
877.674	11459
877.802	11455
877.93	11585
878.058	11505
878.185	11505
878.313	11646
878.441	11863
878.568	11611
878.696	11790
878.824	11851
878.951	11927
879.079	12011
879.206	12209
879.333	12102
879.461	12106
879.588	12110
879.715	12064
879.842	12251
879.97	12072
880.097	11893
880.224	11908
880.351	11912
880.478	11893
880.605	11836
880.732	11859
880.859	11980
880.986	11855
881.112	11847
881.239	11741
881.366	11668
881.493	11680
881.619	11592
881.746	11627
881.872	11520
881.999	11520
882.125	11467
882.252	11528
882.378	11509
882.505	11554
882.631	11410
882.757	11311
882.883	11322
883.01	11231
883.136	11124
883.262	11094
883.388	10991
883.514	11117
883.64	11166
883.766	11128
883.892	10995
884.018	11037
884.143	11098
884.269	11029
884.395	10869
884.52	10763
884.646	10755
884.772	10668
884.897	10664
885.023	10592
885.148	10691
885.274	10786
885.399	10744
885.524	10569
885.65	10527
885.775	10569
885.9	10527
886.025	10637
886.15	10550
886.275	10508
886.4	10386
886.525	10375
886.65	10409
886.775	10352
886.9	10409
887.025	10508
887.149	10375
887.274	10211
887.399	10276
887.523	10200
887.648	10154
887.773	10192
887.897	10249
888.021	10192
888.146	10090
888.27	10211
888.395	10249
888.519	10166
888.643	10143
888.767	10204
888.891	10078
889.015	10044
889.139	10078
889.263	9979
889.387	10044
889.511	10105
889.635	10086
889.759	9972
889.883	9972
890.006	9991
890.13	10116
890.254	9907
890.377	9918
890.501	9899
890.624	9899
890.748	9903
890.871	9804
890.995	9774
891.118	9778
891.241	9857
891.364	9789
891.488	9762
891.611	9713
891.734	9740
891.857	9709
891.98	9740
892.103	9785
892.226	9717
892.349	9732
892.471	9515
892.594	9576
892.717	9538
892.839	9584
892.962	9625
893.085	9606
893.207	9572
893.33	9500
893.452	9466
893.575	9561
893.697	9496
893.819	9610
893.941	9599
894.064	9618
894.186	9443
894.308	9439
894.43	9496
894.552	9610
894.674	9473
894.796	9420
894.918	9435
895.04	9336
895.161	9389
895.283	9336
895.405	9245
895.526	9256
895.648	9291
895.769	9264
895.891	9291
896.012	9241
896.134	9211
896.255	9138
896.376	9093
896.498	9127
896.619	9085
896.74	9058
896.861	9123
896.982	9260
897.103	9264
897.224	9214
897.345	9043
897.466	9119
897.587	9032
897.708	9093
897.828	9089
897.949	8941
898.07	8902
898.19	8895
898.311	9108
898.431	8941
898.552	8918
898.672	9055
898.792	8952
898.913	8887
899.033	8773
899.153	8796
899.273	8682
899.393	8697
899.513	8735
899.633	8766
899.753	8754
899.873	8667
899.993	8720
900.113	8667
900.232	8697
900.352	8606
900.472	8602
900.591	8564
900.711	8606
900.83	8598
900.95	8632
901.069	8727
901.189	8583
901.308	8438
901.427	8438
901.546	8431
901.665	8469
901.784	8484
901.904	8412
902.023	8339
902.141	8206
902.26	8214
902.379	8271
902.498	8183
902.617	8145
902.735	8202
902.854	8298
902.973	8301
903.091	8134
903.21	8161
903.328	8256
903.446	8100
903.565	8073
903.683	8153
903.801	8138
903.919	8092
904.038	8195
904.156	8027
904.274	8142
904.392	8005
904.51	8016
904.627	8107
904.745	8130
904.863	8111
904.981	7940
905.098	7928
905.216	7864
905.334	7898
905.451	7928
905.569	7890
905.686	7940
905.803	7902
905.921	7731
906.038	7868
906.155	7803
906.272	7734
906.389	7757
906.506	7655
906.623	7567
906.74	7605
906.857	7597
906.974	7567
907.091	7628
907.208	7719
907.324	7594
907.441	7597
907.557	7434
907.674	7419
907.79	7384
907.907	7445
908.023	7499
908.139	7453
908.256	7350
908.372	7358
908.488	7377
908.604	7320
908.72	7263
908.836	7324
908.952	7198
909.068	7240
909.184	7255
909.3	7247
909.415	7343
909.531	7312
909.647	7072
909.762	7072
909.878	7110
909.993	7164
910.108	7088
910.224	7080
910.339	7084
910.454	7034
910.57	7015
910.685	6924
910.8	7209
910.915	7126
911.03	6989
911.145	6916
911.259	6901
911.374	6894
911.489	6837
911.604	6806
911.718	6684
911.833	6700
911.947	6639
912.062	6620
912.176	6711
912.291	6711
912.405	6719
912.519	6787
912.633	6863
912.748	6741
912.862	6635
912.976	6669
913.09	6525
913.204	6578
913.318	6593
913.431	6722
913.545	6696
913.659	6703
913.772	6623
913.886	6578
914	6540
914.113	6620
914.226	6650
914.34	6623
914.453	6483
914.566	6604
914.68	6475
914.793	6498
914.906	6433
915.019	6429
915.132	6369
915.245	6391
915.358	6445
915.47	6418
915.583	6452
915.696	6483
915.809	6551
915.921	6536
916.034	6403
916.146	6414
916.259	6369
916.371	6486
916.483	6426
916.595	6395
916.708	6418
916.82	6380
916.932	6441
917.044	6391
917.156	6334
917.268	6338
917.38	6365
917.491	6327
917.603	6391
917.715	6380
917.826	6418
917.938	6357
918.049	6213
918.161	6327
918.272	6380
918.384	6407
918.495	6357
918.606	6273
918.717	6216
918.828	6262
918.939	6292
919.05	6190
919.161	6277
919.272	6148
919.383	6133
919.494	6296
919.604	6399
919.715	6300
919.826	6216
919.936	6292
920.047	6319
920.157	6281
920.267	6395
920.378	6334
920.488	6281
920.598	6391
920.708	6532
920.818	6414
920.928	6456
921.038	6608
921.148	6597
921.258	6365
921.368	6270
921.477	6201
921.587	6209
921.697	6106
921.806	6194
921.916	6060
922.025	5999
922.134	5912
922.244	5870
922.353	5946
922.462	5847
922.571	5752
922.68	5760
922.789	5707
922.898	5726
923.007	5627
923.116	5699
923.224	5600
923.333	5707
923.442	5539
923.55	5581
923.659	5558
923.767	5672
923.876	5532
923.984	5596
924.092	5554
924.201	5562
924.309	5551
924.417	5501
924.525	5547
924.633	5452
924.741	6270
924.849	5402
924.956	5478
925.064	5345
925.172	5322
925.279	5284
925.387	5345
925.494	5357
925.602	5421
925.709	5421
925.816	5273
925.924	5337
926.031	5379
926.138	5273
926.245	5334
926.352	5246
926.459	5322
926.566	5315
926.673	5227
926.779	5128
926.886	5079
926.993	5018
927.099	4995
927.206	4999
927.312	5014
927.419	4976
927.525	4968
927.631	5022
927.737	4889
927.843	4835
927.95	4771
928.056	4850
928.162	4812
928.267	4881
928.373	5330
928.479	4812
928.585	4694
928.69	4809
928.796	4763
928.901	4687
929.007	4649
929.112	4675
929.218	4630
929.323	4634
929.428	4558
929.533	4630
929.638	4497
929.743	4561
929.848	4516
929.953	4527
930.058	4424
930.163	4318
930.267	4325
930.372	4443
930.477	4333
930.581	4500
930.685	4379
930.79	4272
930.894	4265
930.998	4234
931.103	4409
931.207	4109
931.311	4063
931.415	4006
931.519	3926
931.623	3907
