Data from glass_V78500241_361.txt Node
Date: Wed Sep 01 19:17:00 CST 2021
User: usil
Spectrometer: V785-0024
Trigger mode: 0
Integration Time (sec): 4.000000E-1
Scans to average: 1
Nonlinearity correction enabled: false
Boxcar width: 0
Storing dark spectrum: false
XAxis mode: Wavelengths
Number of Pixels in Spectrum: 1024
>>>>>Begin Spectral Data<<<<<
801.071	3724
801.214	3789
801.356	3698
801.499	3740
801.641	3736
801.783	3831
801.926	3876
802.068	3850
802.211	3884
802.353	3918
802.496	3842
802.638	3869
802.78	3907
802.923	3968
803.065	3937
803.208	3896
803.35	3896
803.492	3903
803.635	3930
803.777	3770
803.919	3884
804.061	4124
804.204	3983
804.346	3964
804.488	3949
804.63	4063
804.773	3975
804.915	4036
805.057	4158
805.199	4086
805.341	4105
805.483	4101
805.626	4166
805.768	4139
805.91	4181
806.052	4249
806.194	4215
806.336	4367
806.478	4238
806.62	4181
806.762	4207
806.904	4238
807.046	4337
807.188	4219
807.33	4181
807.472	4230
807.614	4181
807.756	4306
807.898	4181
808.04	4249
808.182	4253
808.324	4318
808.465	4455
808.607	4447
808.749	4485
808.891	4504
809.033	4470
809.174	4394
809.316	4268
809.458	4257
809.6	4177
809.741	4166
809.883	4131
810.025	4150
810.166	4223
810.308	4261
810.45	4223
810.591	4276
810.733	4314
810.875	4565
811.016	4816
811.158	5147
811.299	5288
811.441	5318
811.582	5098
811.724	4683
811.865	4447
812.007	4443
812.148	4432
812.29	4421
812.431	4428
812.573	4405
812.714	4405
812.855	4440
812.997	4421
813.138	4455
813.279	4436
813.421	4443
813.562	4417
813.703	4329
813.845	4329
813.986	4249
814.127	4234
814.268	4280
814.41	4344
814.551	4280
814.692	4344
814.833	4306
814.974	4318
815.115	4386
815.256	4276
815.397	4253
815.539	4299
815.68	4177
815.821	4249
815.962	4322
816.103	4310
816.244	4284
816.385	4265
816.526	4253
816.666	4207
816.807	4101
816.948	4200
817.089	4177
817.23	4166
817.371	4051
817.512	4055
817.653	4082
817.793	4048
817.934	4036
818.075	4048
818.216	4051
818.356	4078
818.497	3979
818.638	3888
818.778	3911
818.919	3922
819.06	3835
819.2	3934
819.341	3876
819.481	3873
819.622	3911
819.762	4025
819.903	3930
820.043	3884
820.184	3880
820.324	3827
820.465	3903
820.605	3854
820.746	3884
820.886	3819
821.026	3949
821.167	3888
821.307	3968
821.447	4036
821.588	3975
821.728	3934
821.868	3960
822.008	3903
822.149	3922
822.289	3941
822.429	3797
822.569	3762
822.709	3823
822.849	3740
822.99	3740
823.13	3800
823.27	3816
823.41	3732
823.55	3747
823.69	3694
823.83	3785
823.97	3713
824.11	3610
824.25	3629
824.389	3660
824.529	3656
824.669	3637
824.809	3713
824.949	3766
825.089	3751
825.228	3663
825.368	3599
825.508	3599
825.648	3564
825.787	3663
825.927	3622
826.067	3637
826.206	3675
826.346	3774
826.485	3812
826.625	3865
826.765	3968
826.904	3838
827.044	3637
827.183	3542
827.323	3473
827.462	3496
827.601	3435
827.741	3454
827.88	3477
828.02	3386
828.159	3454
828.298	3477
828.437	3576
828.577	3473
828.716	3595
828.855	3526
828.994	3386
829.134	3393
829.273	3389
829.412	3351
829.551	3306
829.69	3359
829.829	3447
829.968	3500
830.107	3424
830.246	3477
830.385	3431
830.524	3348
830.663	3321
830.802	3283
830.941	3188
831.08	3173
831.219	3275
831.357	3294
831.496	3416
831.635	3233
831.774	3222
831.913	3214
832.051	3154
832.19	3184
832.329	3245
832.467	3154
832.606	3127
832.744	3169
832.883	3165
833.022	3203
833.16	3260
833.299	3325
833.437	3359
833.576	3363
833.714	3412
833.852	3435
833.991	3431
834.129	3523
834.267	3382
834.406	3420
834.544	3416
834.682	3363
834.821	3416
834.959	3599
835.097	3458
835.235	3549
835.373	3500
835.511	3477
835.65	3439
835.788	3485
835.926	3397
836.064	3393
836.202	3420
836.34	3584
836.478	3614
836.615	3549
836.753	3603
836.891	3682
837.029	3618
837.167	3595
837.305	3564
837.443	3534
837.58	3519
837.718	3637
837.856	3603
837.993	3549
838.131	3610
838.269	3564
838.406	3644
838.544	3576
838.681	3515
838.819	3477
838.956	3374
839.094	3416
839.231	3447
839.369	3538
839.506	3740
839.643	3641
839.781	3526
839.918	3477
840.055	3542
840.193	3572
840.33	3561
840.467	3553
840.604	3618
840.742	3797
840.879	3561
841.016	3584
841.153	3614
841.29	3743
841.427	3740
841.564	3728
841.701	3797
841.838	3728
841.975	3682
842.112	3728
842.249	3682
842.385	3637
842.522	3827
842.659	3724
842.796	3705
842.933	3686
843.069	3701
843.206	3701
843.343	3819
843.479	3808
843.616	3842
843.752	3713
843.889	3705
844.025	3876
844.162	3705
844.298	3861
844.435	3766
844.571	3850
844.708	3922
844.844	4010
844.98	4074
845.117	4021
845.253	3956
845.389	3899
845.525	3975
845.661	3968
845.798	3915
845.934	4002
846.07	3972
846.206	4032
846.342	4169
846.478	4097
846.614	3979
846.75	3953
846.886	3941
847.022	4048
847.158	3994
847.294	4017
847.429	4071
847.565	4059
847.701	4246
847.837	3880
847.972	3896
848.108	3972
848.244	3975
848.379	3869
848.515	3804
848.65	3785
848.786	3869
848.921	3888
849.057	3949
849.192	3960
849.328	3903
849.463	3945
849.598	3873
849.734	3892
849.869	3819
850.004	3846
850.14	3827
850.275	3770
850.41	3800
850.545	3759
850.68	3823
850.815	3831
850.95	3819
851.085	3930
851.22	3903
851.355	3827
851.49	3812
851.625	3842
851.76	3785
851.895	3755
852.03	3755
852.165	3831
852.299	3888
852.434	3937
852.569	3876
852.703	3892
852.838	3945
852.973	4029
853.107	4032
853.242	3880
853.376	3884
853.511	3804
853.645	3838
853.78	3987
853.914	3884
854.048	3926
854.183	3922
854.317	3968
854.451	4086
854.585	3960
854.72	3941
854.854	4025
854.988	3956
855.122	4040
855.256	3934
855.39	4036
855.524	4139
855.658	4078
855.792	4139
855.926	4143
856.06	4196
856.194	4207
856.327	4166
856.461	4147
856.595	4147
856.729	4211
856.862	4253
856.996	4215
857.13	4329
857.263	4375
857.397	4356
857.53	4284
857.664	4337
857.797	4405
857.931	4436
858.064	4398
858.197	4481
858.331	4417
858.464	4402
858.597	4322
858.731	4436
858.864	4443
858.997	4455
859.13	4580
859.263	4565
859.396	4596
859.529	4527
859.662	4569
859.795	4519
859.928	4660
860.061	4687
860.194	4721
860.327	4691
860.46	4653
860.592	4771
860.725	4797
860.858	4778
860.99	4691
861.123	4691
861.256	4733
861.388	4805
861.521	5406
861.653	4752
861.786	4683
861.918	4774
862.05	4839
862.183	4866
862.315	4915
862.447	4999
862.58	4930
862.712	4843
862.844	4778
862.976	4843
863.108	4904
863.24	5303
863.372	4839
863.504	4927
863.636	4915
863.768	5010
863.9	4984
864.032	4949
864.164	4987
864.296	5037
864.428	5132
864.559	5140
864.691	5094
864.823	5193
864.954	5151
865.086	5162
865.217	5117
865.349	5083
865.48	5216
865.612	5261
865.743	5337
865.875	5189
866.006	5223
866.137	5220
866.269	5235
866.4	5235
866.531	5231
866.662	5242
866.793	5303
866.924	5364
867.055	5357
867.186	5383
867.317	5341
867.448	5326
867.579	5376
867.71	5455
867.841	5425
867.972	5467
868.103	5467
868.233	5551
868.364	5547
868.495	5573
868.625	5710
868.756	5775
868.886	5691
869.017	5748
869.147	5882
869.278	5885
869.408	5809
869.539	5885
869.669	5935
869.799	5950
869.929	5961
870.06	6030
870.19	6216
870.32	6159
870.45	6319
870.58	6372
870.71	6464
870.84	6467
870.97	6418
871.1	6471
871.23	6642
871.36	6734
871.489	6677
871.619	6772
871.749	6829
871.879	6852
872.008	6970
872.138	6970
872.267	6966
872.397	6962
872.526	7061
872.656	7065
872.785	7225
872.915	7415
873.044	7487
873.173	7518
873.303	7689
873.432	7811
873.561	7849
873.69	7936
873.819	7959
873.948	8153
874.077	8259
874.206	8339
874.335	8503
874.464	8659
874.593	8887
874.722	8937
874.851	9195
874.979	9256
875.108	9363
875.237	9477
875.365	9515
875.494	9656
875.623	9823
875.751	9899
875.88	9991
876.008	10078
876.136	10314
876.265	10523
876.393	10763
876.521	10668
876.65	10866
876.778	10839
876.906	10824
877.034	11041
877.162	11105
877.29	11170
877.418	11337
877.546	11364
877.674	11406
877.802	11512
877.93	11547
878.058	11493
878.185	11604
878.313	11653
878.441	11748
878.568	11619
878.696	11764
878.824	11859
878.951	11920
879.079	11984
879.206	12144
879.333	12060
879.461	12034
879.588	12125
879.715	12053
879.842	12220
879.97	12155
880.097	11851
880.224	11870
880.351	11874
880.478	11840
880.605	11824
880.732	11870
880.859	12041
880.986	11775
881.112	11832
881.239	11733
881.366	11676
881.493	11668
881.619	11440
881.746	11577
881.872	11535
881.999	11501
882.125	11562
882.252	11596
882.378	11490
882.505	11501
882.631	11398
882.757	11292
882.883	11356
883.01	11284
883.136	11265
883.262	11079
883.388	10987
883.514	11181
883.64	11109
883.766	11048
883.892	11079
884.018	11010
884.143	11113
884.269	11090
884.395	10847
884.52	10809
884.646	10733
884.772	10771
884.897	10584
885.023	10740
885.148	10740
885.274	10797
885.399	10782
885.524	10653
885.65	10558
885.775	10622
885.9	10569
886.025	10569
886.15	10622
886.275	10409
886.4	10360
886.525	10485
886.65	10428
886.775	10421
886.9	10516
887.025	10580
887.149	10409
887.274	10227
887.399	10227
887.523	10261
887.648	10242
887.773	10090
887.897	10211
888.021	10223
888.146	10128
888.27	10158
888.395	10204
888.519	10173
888.643	10219
888.767	10257
888.891	10150
889.015	9998
889.139	10010
889.263	10109
889.387	10097
889.511	10120
889.635	10116
889.759	9979
889.883	9964
890.006	9975
890.13	10109
890.254	9880
890.377	9968
890.501	9876
890.624	9918
890.748	9873
890.871	9781
890.995	9740
891.118	9720
891.241	9793
891.364	9755
891.488	9846
891.611	9720
891.734	9724
891.857	9823
891.98	9785
892.103	9766
892.226	9755
892.349	9614
892.471	9454
892.594	9610
892.717	9698
892.839	9610
892.962	9671
893.085	9633
893.207	9595
893.33	9534
893.452	9458
893.575	9629
893.697	9534
893.819	9633
893.941	9724
894.064	9545
894.186	9504
894.308	9424
894.43	9485
894.552	9557
894.674	9439
894.796	9439
894.918	9458
895.04	9344
895.161	9439
895.283	9340
895.405	9245
895.526	9256
895.648	9203
895.769	9264
895.891	9294
896.012	9249
896.134	9260
896.255	9256
896.376	9116
896.498	9173
896.619	9119
896.74	9077
896.861	9127
896.982	9287
897.103	9351
897.224	9104
897.345	9055
897.466	9017
897.587	8952
897.708	9150
897.828	8990
897.949	8971
898.07	8895
898.19	8899
898.311	9077
898.431	8902
898.552	8967
898.672	8990
898.792	8975
898.913	8925
899.033	8785
899.153	8758
899.273	8655
899.393	8708
899.513	8796
899.633	8727
899.753	8686
899.873	8731
899.993	8746
900.113	8697
900.232	8743
900.352	8663
900.472	8644
900.591	8503
900.711	8587
900.83	8533
900.95	8621
901.069	8667
901.189	8590
901.308	8442
901.427	8377
901.546	8419
901.665	8419
901.784	8499
901.904	8480
902.023	8431
902.141	8317
902.26	8240
902.379	8240
902.498	8237
902.617	8275
902.735	8298
902.854	8313
902.973	8218
903.091	8123
903.21	8153
903.328	8168
903.446	8115
903.565	8081
903.683	8020
903.801	8062
903.919	8195
904.038	8168
904.156	8145
904.274	8172
904.392	8039
904.51	8043
904.627	8016
904.745	8138
904.863	8103
904.981	7970
905.098	7822
905.216	7868
905.334	7909
905.451	7906
905.569	7833
905.686	7879
905.803	7860
905.921	7792
906.038	7909
906.155	7772
906.272	7719
906.389	7727
906.506	7696
906.623	7639
906.74	7533
906.857	7556
906.974	7567
907.091	7662
907.208	7750
907.324	7639
907.441	7632
907.557	7480
907.674	7430
907.79	7464
907.907	7407
908.023	7449
908.139	7468
908.256	7377
908.372	7339
908.488	7320
908.604	7320
908.72	7202
908.836	7297
908.952	7244
909.068	7225
909.184	7339
909.3	7263
909.415	7225
909.531	7301
909.647	7171
909.762	7137
909.878	7099
909.993	7114
910.108	7122
910.224	7057
910.339	7110
910.454	7084
910.57	6985
910.685	7038
910.8	7228
910.915	7099
911.03	7034
911.145	6947
911.259	6882
911.374	6913
911.489	6863
911.604	6905
911.718	6722
911.833	6707
911.947	6662
912.062	6639
912.176	6719
912.291	6719
912.405	6684
912.519	6798
912.633	6886
912.748	6757
912.862	6711
912.976	6623
913.09	6551
913.204	6578
913.318	6601
913.431	6658
913.545	6681
913.659	6719
913.772	6688
913.886	6471
914	6597
914.113	6616
914.226	6616
914.34	6593
914.453	6467
914.566	6616
914.68	6604
914.793	6593
914.906	6388
915.019	6422
915.132	6342
915.245	6429
915.358	6471
915.47	6445
915.583	6475
915.696	6498
915.809	6532
915.921	6555
916.034	6441
916.146	6338
916.259	6418
916.371	6490
916.483	6452
916.595	6342
916.708	6422
916.82	6460
916.932	6418
917.044	6407
917.156	6403
917.268	6315
917.38	6353
917.491	6315
917.603	6357
917.715	6467
917.826	6372
917.938	6372
918.049	6315
918.161	6388
918.272	6433
918.384	6437
918.495	6380
918.606	6304
918.717	6251
918.828	6277
918.939	6266
919.05	6220
919.161	6289
919.272	6114
919.383	6186
919.494	6315
919.604	6448
919.715	6323
919.826	6186
919.936	6296
920.047	6391
920.157	6266
920.267	6494
920.378	6285
920.488	6270
920.598	6429
920.708	6589
920.818	6475
920.928	6464
921.038	6612
921.148	6612
921.258	6346
921.368	6342
921.477	6247
921.587	6190
921.697	6106
921.806	6258
921.916	6087
922.025	6026
922.134	5942
922.244	5927
922.353	5958
922.462	5866
922.571	5786
922.68	5756
922.789	5710
922.898	5699
923.007	5657
923.116	5786
923.224	5726
923.333	5672
923.442	5581
923.55	5596
923.659	5615
923.767	5665
923.876	5547
923.984	5653
924.092	5524
924.201	5592
924.309	5562
924.417	5577
924.525	5516
924.633	5520
924.741	6285
924.849	5345
924.956	5501
925.064	5395
925.172	5277
925.279	5307
925.387	5417
925.494	5391
925.602	5444
925.709	5364
925.816	5299
925.924	5292
926.031	5353
926.138	5368
926.245	5364
926.352	5231
926.459	5334
926.566	5299
926.673	5254
926.779	5174
926.886	5132
926.993	5064
927.099	5033
927.206	5014
927.312	4972
927.419	4995
927.525	5029
927.631	5014
927.737	4911
927.843	4900
927.95	4774
928.056	4866
928.162	4896
928.267	4862
928.373	5261
928.479	4889
928.585	4725
928.69	4778
928.796	4835
928.901	4664
929.007	4622
929.112	4702
929.218	4649
929.323	4630
929.428	4630
929.533	4660
929.638	4523
929.743	4535
929.848	4618
929.953	4481
930.058	4470
930.163	4329
930.267	4375
930.372	4424
930.477	4291
930.581	4470
930.685	4371
930.79	4268
930.894	4303
930.998	4276
931.103	4398
931.207	4139
931.311	4128
931.415	4025
931.519	3922
931.623	3949
