Data from glass_V78500241_2686.txt Node
Date: Wed Sep 01 19:33:07 CST 2021
User: usil
Spectrometer: V785-0024
Trigger mode: 0
Integration Time (sec): 4.000000E-1
Scans to average: 1
Nonlinearity correction enabled: false
Boxcar width: 0
Storing dark spectrum: false
XAxis mode: Wavelengths
Number of Pixels in Spectrum: 1024
>>>>>Begin Spectral Data<<<<<
801.071	3747
801.214	3751
801.356	3709
801.499	3728
801.641	3728
801.783	3774
801.926	3835
802.068	3823
802.211	3835
802.353	3850
802.496	3823
802.638	3892
802.78	3896
802.923	3930
803.065	3876
803.208	3846
803.35	3876
803.492	3865
803.635	3918
803.777	3781
803.919	3907
804.061	4090
804.204	3926
804.346	3911
804.488	3918
804.63	3987
804.773	3960
804.915	4040
805.057	4135
805.199	4021
805.341	4074
805.483	4105
805.626	4086
805.768	4120
805.91	4192
806.052	4268
806.194	4238
806.336	4344
806.478	4234
806.62	4169
806.762	4173
806.904	4215
807.046	4329
807.188	4192
807.33	4154
807.472	4242
807.614	4177
807.756	4230
807.898	4207
808.04	4223
808.182	4230
808.324	4276
808.465	4344
808.607	4489
808.749	4440
808.891	4436
809.033	4508
809.174	4428
809.316	4219
809.458	4257
809.6	4150
809.741	4158
809.883	4082
810.025	4131
810.166	4192
810.308	4230
810.45	4207
810.591	4204
810.733	4280
810.875	4481
811.016	4862
811.158	5132
811.299	5258
811.441	5284
811.582	5075
811.724	4691
811.865	4474
812.007	4440
812.148	4421
812.29	4394
812.431	4405
812.573	4356
812.714	4424
812.855	4356
812.997	4405
813.138	4470
813.279	4428
813.421	4348
813.562	4363
813.703	4299
813.845	4329
813.986	4246
814.127	4223
814.268	4280
814.41	4261
814.551	4249
814.692	4333
814.833	4287
814.974	4238
815.115	4306
815.256	4223
815.397	4272
815.539	4242
815.68	4162
815.821	4181
815.962	4280
816.103	4268
816.244	4253
816.385	4200
816.526	4261
816.666	4215
816.807	4139
816.948	4196
817.089	4128
817.23	4120
817.371	4086
817.512	4048
817.653	4040
817.793	4059
817.934	3994
818.075	4067
818.216	4086
818.356	4082
818.497	3956
818.638	3979
818.778	3899
818.919	3892
819.06	3842
819.2	3888
819.341	3876
819.481	3804
819.622	3888
819.762	4002
819.903	3964
820.043	3842
820.184	3819
820.324	3816
820.465	3854
820.605	3846
820.746	3823
820.886	3793
821.026	3918
821.167	3911
821.307	3949
821.447	3979
821.588	3915
821.728	3934
821.868	3915
822.008	3850
822.149	3823
822.289	3903
822.429	3740
822.569	3743
822.709	3804
822.849	3667
822.99	3709
823.13	3732
823.27	3762
823.41	3698
823.55	3698
823.69	3690
823.83	3740
823.97	3682
824.11	3618
824.25	3580
824.389	3610
824.529	3641
824.669	3595
824.809	3717
824.949	3755
825.089	3720
825.228	3682
825.368	3542
825.508	3557
825.648	3549
825.787	3580
825.927	3625
826.067	3637
826.206	3633
826.346	3778
826.485	3797
826.625	3838
826.765	3892
826.904	3838
827.044	3618
827.183	3523
827.323	3439
827.462	3481
827.601	3424
827.741	3416
827.88	3443
828.02	3363
828.159	3401
828.298	3466
828.437	3481
828.577	3466
828.716	3534
828.855	3507
828.994	3386
829.134	3397
829.273	3367
829.412	3317
829.551	3332
829.69	3389
829.829	3393
829.968	3450
830.107	3389
830.246	3435
830.385	3344
830.524	3332
830.663	3310
830.802	3226
830.941	3222
831.08	3199
831.219	3237
831.357	3260
831.496	3397
831.635	3214
831.774	3173
831.913	3188
832.051	3161
832.19	3116
832.329	3211
832.467	3165
832.606	3081
832.744	3123
832.883	3154
833.022	3184
833.16	3241
833.299	3306
833.437	3348
833.576	3344
833.714	3374
833.852	3424
833.991	3447
834.129	3454
834.267	3428
834.406	3401
834.544	3405
834.682	3412
834.821	3367
834.959	3553
835.097	3416
835.235	3530
835.373	3500
835.511	3496
835.65	3447
835.788	3466
835.926	3363
836.064	3374
836.202	3359
836.34	3584
836.478	3595
836.615	3545
836.753	3595
836.891	3648
837.029	3610
837.167	3584
837.305	3580
837.443	3530
837.58	3534
837.718	3564
837.856	3549
837.993	3492
838.131	3603
838.269	3584
838.406	3568
838.544	3557
838.681	3477
838.819	3439
838.956	3348
839.094	3359
839.231	3412
839.369	3488
839.506	3690
839.643	3644
839.781	3492
839.918	3435
840.055	3515
840.193	3511
840.33	3511
840.467	3576
840.604	3591
840.742	3781
840.879	3545
841.016	3519
841.153	3618
841.29	3762
841.427	3701
841.564	3686
841.701	3701
841.838	3671
841.975	3682
842.112	3701
842.249	3629
842.385	3625
842.522	3797
842.659	3671
842.796	3679
842.933	3644
843.069	3679
843.206	3679
843.343	3816
843.479	3736
843.616	3804
843.752	3660
843.889	3656
844.025	3838
844.162	3709
844.298	3865
844.435	3740
844.571	3812
844.708	3918
844.844	3991
844.98	3994
845.117	4006
845.253	3899
845.389	3835
845.525	3934
845.661	3975
845.798	3941
845.934	3994
846.07	3983
846.206	4078
846.342	4093
846.478	4040
846.614	3953
846.75	3896
846.886	3899
847.022	4013
847.158	3972
847.294	3998
847.429	4002
847.565	3991
847.701	4207
847.837	3926
847.972	3869
848.108	3998
848.244	3918
848.379	3869
848.515	3831
848.65	3823
848.786	3808
848.921	3865
849.057	3945
849.192	3896
849.328	3869
849.463	3949
849.598	3857
849.734	3884
849.869	3804
850.004	3774
850.14	3827
850.275	3823
850.41	3713
850.545	3759
850.68	3743
850.815	3808
850.95	3766
851.085	3911
851.22	3857
851.355	3800
851.49	3751
851.625	3762
851.76	3804
851.895	3751
852.03	3701
852.165	3793
852.299	3816
852.434	3899
852.569	3804
852.703	3835
852.838	3922
852.973	4006
853.107	3949
853.242	3842
853.376	3888
853.511	3759
853.645	3785
853.78	3983
853.914	3876
854.048	3892
854.183	3831
854.317	3979
854.451	4051
854.585	3915
854.72	3956
854.854	4063
854.988	3918
855.122	4017
855.256	3926
855.39	4017
855.524	4109
855.658	4048
855.792	4093
855.926	4093
856.06	4166
856.194	4177
856.327	4101
856.461	4078
856.595	4143
856.729	4124
856.862	4276
856.996	4253
857.13	4299
857.263	4318
857.397	4352
857.53	4249
857.664	4341
857.797	4360
857.931	4409
858.064	4394
858.197	4432
858.331	4383
858.464	4398
858.597	4322
858.731	4436
858.864	4451
858.997	4421
859.13	4535
859.263	4504
859.396	4580
859.529	4527
859.662	4508
859.795	4516
859.928	4596
860.061	4664
860.194	4691
860.327	4660
860.46	4656
860.592	4664
860.725	4744
860.858	4740
860.99	4679
861.123	4653
861.256	4668
861.388	4790
861.521	5303
861.653	4736
861.786	4702
861.918	4706
862.05	4797
862.183	4824
862.315	4854
862.447	4866
862.58	4835
862.712	4816
862.844	4725
862.976	4877
863.108	4915
863.24	5292
863.372	4831
863.504	4850
863.636	4877
863.768	4961
863.9	4942
864.032	4881
864.164	4919
864.296	4984
864.428	5079
864.559	5056
864.691	5064
864.823	5159
864.954	5090
865.086	5079
865.217	5151
865.349	5174
865.48	5128
865.612	5170
865.743	5303
865.875	5174
866.006	5147
866.137	5250
866.269	5223
866.4	5201
866.531	5204
866.662	5181
866.793	5201
866.924	5261
867.055	5345
867.186	5349
867.317	5330
867.448	5258
867.579	5353
867.71	5353
867.841	5383
867.972	5455
868.103	5402
868.233	5512
868.364	5512
868.495	5532
868.625	5638
868.756	5809
868.886	5627
869.017	5745
869.147	5817
869.278	5912
869.408	5828
869.539	5817
869.669	5958
869.799	5859
869.929	5912
870.06	6019
870.19	6155
870.32	6213
870.45	6258
870.58	6304
870.71	6380
870.84	6395
870.97	6429
871.1	6384
871.23	6623
871.36	6711
871.489	6601
871.619	6688
871.749	6779
871.879	6821
872.008	6943
872.138	6954
872.267	7023
872.397	6943
872.526	7053
872.656	7091
872.785	7274
872.915	7335
873.044	7506
873.173	7529
873.303	7575
873.432	7780
873.561	7871
873.69	7887
873.819	7986
873.948	8107
874.077	8168
874.206	8298
874.335	8469
874.464	8644
874.593	8880
874.722	8918
874.851	9070
874.979	9188
875.108	9386
875.237	9420
875.365	9511
875.494	9599
875.623	9812
875.751	9857
875.88	9918
876.008	10135
876.136	10272
876.265	10504
876.393	10569
876.521	10672
876.65	10809
876.778	10824
876.906	10927
877.034	10850
877.162	11052
877.29	11174
877.418	11277
877.546	11337
877.674	11497
877.802	11497
877.93	11482
878.058	11482
878.185	11535
878.313	11619
878.441	11764
878.568	11570
878.696	11813
878.824	11840
878.951	11889
879.079	11992
879.206	12117
879.333	12064
879.461	11977
879.588	12072
879.715	12079
879.842	12194
879.97	12030
880.097	11813
880.224	11805
880.351	11836
880.478	11847
880.605	11756
880.732	11821
880.859	12098
880.986	11855
881.112	11912
881.239	11802
881.366	11699
881.493	11600
881.619	11516
881.746	11566
881.872	11554
881.999	11524
882.125	11383
882.252	11547
882.378	11474
882.505	11516
882.631	11345
882.757	11330
882.883	11292
883.01	11322
883.136	11296
883.262	11067
883.388	11094
883.514	11197
883.64	11174
883.766	11147
883.892	10919
884.018	10976
884.143	11025
884.269	11067
884.395	10771
884.52	10740
884.646	10793
884.772	10637
884.897	10634
885.023	10607
885.148	10630
885.274	10759
885.399	10675
885.524	10546
885.65	10592
885.775	10569
885.9	10447
886.025	10649
886.15	10538
886.275	10462
886.4	10398
886.525	10394
886.65	10409
886.775	10379
886.9	10436
887.025	10462
887.149	10314
887.274	10105
887.399	10177
887.523	10162
887.648	10074
887.773	10128
887.897	10200
888.021	10249
888.146	10204
888.27	10257
888.395	10181
888.519	10147
888.643	10131
888.767	10204
888.891	10131
889.015	10025
889.139	10013
889.263	10006
889.387	10112
889.511	10029
889.635	10025
889.759	9972
889.883	10013
890.006	9960
890.13	10139
890.254	9899
890.377	9972
890.501	9907
890.624	9854
890.748	9865
890.871	9762
890.995	9713
891.118	9759
891.241	9736
891.364	9819
891.488	9880
891.611	9701
891.734	9720
891.857	9720
891.98	9656
892.103	9743
892.226	9686
892.349	9667
892.471	9587
892.594	9686
892.717	9629
892.839	9610
892.962	9584
893.085	9606
893.207	9530
893.33	9507
893.452	9542
893.575	9595
893.697	9526
893.819	9622
893.941	9637
894.064	9606
894.186	9420
894.308	9496
894.43	9485
894.552	9572
894.674	9504
894.796	9439
894.918	9351
895.04	9363
895.161	9435
895.283	9325
895.405	9237
895.526	9195
895.648	9218
895.769	9226
895.891	9256
896.012	9218
896.134	9211
896.255	9135
896.376	9131
896.498	9123
896.619	9150
896.74	9055
896.861	9066
896.982	9256
897.103	9275
897.224	9100
897.345	9070
897.466	9009
897.587	8998
897.708	9127
897.828	8998
897.949	8857
898.07	8853
898.19	8891
898.311	8941
898.431	8872
898.552	8975
898.672	9032
898.792	8929
898.913	8891
899.033	8792
899.153	8735
899.273	8629
899.393	8613
899.513	8735
899.633	8693
899.753	8667
899.873	8701
899.993	8659
900.113	8644
900.232	8781
900.352	8697
900.472	8640
900.591	8541
900.711	8625
900.83	8503
900.95	8705
901.069	8651
901.189	8514
901.308	8419
901.427	8427
901.546	8446
901.665	8408
901.784	8492
901.904	8438
902.023	8328
902.141	8172
902.26	8180
902.379	8256
902.498	8210
902.617	8191
902.735	8294
902.854	8244
902.973	8282
903.091	8103
903.21	8062
903.328	8191
903.446	8069
903.565	8119
903.683	8107
903.801	8020
903.919	8180
904.038	8161
904.156	8027
904.274	8142
904.392	8062
904.51	8031
904.627	7997
904.745	8005
904.863	8065
904.981	7947
905.098	7883
905.216	7830
905.334	7913
905.451	7864
905.569	7902
905.686	7883
905.803	7879
905.921	7723
906.038	7833
906.155	7803
906.272	7723
906.389	7723
906.506	7662
906.623	7666
906.74	7628
906.857	7575
906.974	7601
907.091	7620
907.208	7696
907.324	7597
907.441	7514
907.557	7468
907.674	7468
907.79	7392
907.907	7388
908.023	7445
908.139	7384
908.256	7358
908.372	7335
908.488	7247
908.604	7297
908.72	7240
908.836	7259
908.952	7255
909.068	7255
909.184	7266
909.3	7190
909.415	7266
909.531	7297
909.647	7160
909.762	7065
909.878	6989
909.993	7126
910.108	7103
910.224	7095
910.339	7057
910.454	7110
910.57	7004
910.685	6958
910.8	7187
910.915	7141
911.03	7004
911.145	6863
911.259	6909
911.374	6909
911.489	6787
911.604	6829
911.718	6703
911.833	6726
911.947	6631
912.062	6582
912.176	6707
912.291	6741
912.405	6681
912.519	6821
912.633	6814
912.748	6722
912.862	6684
912.976	6627
913.09	6566
913.204	6593
913.318	6547
913.431	6623
913.545	6631
913.659	6696
913.772	6593
913.886	6589
914	6502
914.113	6597
914.226	6665
914.34	6623
914.453	6475
914.566	6555
914.68	6509
914.793	6528
914.906	6441
915.019	6369
915.132	6353
915.245	6433
915.358	6437
915.47	6388
915.583	6483
915.696	6479
915.809	6528
915.921	6547
916.034	6467
916.146	6384
916.259	6334
916.371	6498
916.483	6464
916.595	6429
916.708	6403
916.82	6384
916.932	6365
917.044	6391
917.156	6342
917.268	6308
917.38	6273
917.491	6369
917.603	6388
917.715	6391
917.826	6399
917.938	6273
918.049	6224
918.161	6281
918.272	6388
918.384	6471
918.495	6327
918.606	6262
918.717	6209
918.828	6296
918.939	6251
919.05	6186
919.161	6270
919.272	6136
919.383	6121
919.494	6281
919.604	6422
919.715	6258
919.826	6235
919.936	6201
920.047	6311
920.157	6281
920.267	6414
920.378	6311
920.488	6285
920.598	6483
920.708	6578
920.818	6407
920.928	6464
921.038	6593
921.148	6597
921.258	6414
921.368	6315
921.477	6190
921.587	6114
921.697	6076
921.806	6167
921.916	6064
922.025	5897
922.134	5897
922.244	5923
922.353	5870
922.462	5840
922.571	5809
922.68	5710
922.789	5657
922.898	5714
923.007	5600
923.116	5672
923.224	5649
923.333	5630
923.442	5562
923.55	5551
923.659	5551
923.767	5623
923.876	5535
923.984	5585
924.092	5474
924.201	5490
924.309	5535
924.417	5493
924.525	5440
924.633	5482
924.741	6308
924.849	5391
924.956	5463
925.064	5360
925.172	5292
925.279	5254
925.387	5391
925.494	5299
925.602	5357
925.709	5315
925.816	5265
925.924	5326
926.031	5372
926.138	5288
926.245	5296
926.352	5204
926.459	5296
926.566	5322
926.673	5208
926.779	5086
926.886	5052
926.993	5014
927.099	4995
927.206	4934
927.312	4949
927.419	4984
927.525	4968
927.631	4995
927.737	4953
927.843	4839
927.95	4721
928.056	4809
928.162	4843
928.267	4877
928.373	5223
928.479	4850
928.585	4637
928.69	4778
928.796	4740
928.901	4637
929.007	4535
929.112	4622
929.218	4653
929.323	4573
929.428	4550
929.533	4622
929.638	4478
929.743	4546
929.848	4573
929.953	4451
930.058	4436
930.163	4303
930.267	4348
930.372	4390
930.477	4287
930.581	4398
930.685	4314
930.79	4204
930.894	4280
930.998	4238
931.103	4367
931.207	4143
931.311	4074
931.415	4013
931.519	3899
931.623	3907
