Data from glass_V78500241_1559.txt Node
Date: Wed Sep 01 19:25:18 CST 2021
User: usil
Spectrometer: V785-0024
Trigger mode: 0
Integration Time (sec): 4.000000E-1
Scans to average: 1
Nonlinearity correction enabled: false
Boxcar width: 0
Storing dark spectrum: false
XAxis mode: Wavelengths
Number of Pixels in Spectrum: 1024
>>>>>Begin Spectral Data<<<<<
801.071	3736
801.214	3759
801.356	3675
801.499	3728
801.641	3728
801.783	3808
801.926	3892
802.068	3838
802.211	3846
802.353	3861
802.496	3854
802.638	3884
802.78	3880
802.923	3876
803.065	3857
803.208	3823
803.35	3869
803.492	3896
803.635	3915
803.777	3827
803.919	3899
804.061	4101
804.204	4040
804.346	3953
804.488	3918
804.63	4032
804.773	3956
804.915	4044
805.057	4131
805.199	4055
805.341	4067
805.483	4135
805.626	4131
805.768	4067
805.91	4223
806.052	4238
806.194	4230
806.336	4375
806.478	4246
806.62	4169
806.762	4192
806.904	4230
807.046	4337
807.188	4181
807.33	4196
807.472	4207
807.614	4188
807.756	4246
807.898	4207
808.04	4196
808.182	4318
808.324	4276
808.465	4337
808.607	4485
808.749	4447
808.891	4443
809.033	4500
809.174	4386
809.316	4249
809.458	4257
809.6	4158
809.741	4131
809.883	4112
810.025	4211
810.166	4188
810.308	4257
810.45	4291
810.591	4223
810.733	4287
810.875	4500
811.016	4820
811.158	5132
811.299	5299
811.441	5231
811.582	5079
811.724	4736
811.865	4485
812.007	4523
812.148	4459
812.29	4447
812.431	4443
812.573	4344
812.714	4405
812.855	4413
812.997	4421
813.138	4508
813.279	4379
813.421	4379
813.562	4341
813.703	4333
813.845	4371
813.986	4303
814.127	4204
814.268	4230
814.41	4318
814.551	4299
814.692	4333
814.833	4272
814.974	4276
815.115	4344
815.256	4257
815.397	4207
815.539	4261
815.68	4196
815.821	4173
815.962	4261
816.103	4261
816.244	4234
816.385	4238
816.526	4314
816.666	4207
816.807	4063
816.948	4188
817.089	4177
817.23	4116
817.371	4051
817.512	4036
817.653	4093
817.793	3991
817.934	4029
818.075	4044
818.216	4044
818.356	4074
818.497	3975
818.638	3907
818.778	3915
818.919	3899
819.06	3876
819.2	3949
819.341	3888
819.481	3831
819.622	3873
819.762	4021
819.903	3945
820.043	3876
820.184	3812
820.324	3846
820.465	3896
820.605	3896
820.746	3899
820.886	3766
821.026	3896
821.167	3934
821.307	3945
821.447	3953
821.588	3979
821.728	3922
821.868	3960
822.008	3884
822.149	3945
822.289	3922
822.429	3789
822.569	3740
822.709	3831
822.849	3675
822.99	3698
823.13	3751
823.27	3812
823.41	3724
823.55	3709
823.69	3724
823.83	3755
823.97	3679
824.11	3549
824.25	3576
824.389	3652
824.529	3629
824.669	3648
824.809	3698
824.949	3747
825.089	3701
825.228	3709
825.368	3557
825.508	3519
825.648	3584
825.787	3618
825.927	3648
826.067	3660
826.206	3675
826.346	3812
826.485	3850
826.625	3857
826.765	3941
826.904	3804
827.044	3660
827.183	3561
827.323	3454
827.462	3511
827.601	3412
827.741	3431
827.88	3435
828.02	3363
828.159	3469
828.298	3473
828.437	3523
828.577	3466
828.716	3568
828.855	3485
828.994	3420
829.134	3367
829.273	3355
829.412	3329
829.551	3294
829.69	3351
829.829	3412
829.968	3504
830.107	3469
830.246	3504
830.385	3397
830.524	3397
830.663	3310
830.802	3256
830.941	3233
831.08	3188
831.219	3256
831.357	3256
831.496	3405
831.635	3245
831.774	3180
831.913	3207
832.051	3180
832.19	3165
832.329	3214
832.467	3112
832.606	3104
832.744	3154
832.883	3214
833.022	3211
833.16	3275
833.299	3298
833.437	3310
833.576	3363
833.714	3420
833.852	3435
833.991	3450
834.129	3469
834.267	3447
834.406	3393
834.544	3409
834.682	3393
834.821	3439
834.959	3618
835.097	3443
835.235	3519
835.373	3485
835.511	3519
835.65	3462
835.788	3504
835.926	3416
836.064	3382
836.202	3431
836.34	3576
836.478	3591
836.615	3568
836.753	3595
836.891	3625
837.029	3641
837.167	3618
837.305	3534
837.443	3530
837.58	3507
837.718	3587
837.856	3545
837.993	3549
838.131	3629
838.269	3606
838.406	3618
838.544	3618
838.681	3469
838.819	3450
838.956	3393
839.094	3382
839.231	3447
839.369	3523
839.506	3720
839.643	3667
839.781	3439
839.918	3477
840.055	3568
840.193	3542
840.33	3519
840.467	3561
840.604	3610
840.742	3823
840.879	3530
841.016	3530
841.153	3610
841.29	3808
841.427	3713
841.564	3679
841.701	3728
841.838	3720
841.975	3679
842.112	3717
842.249	3663
842.385	3660
842.522	3857
842.659	3709
842.796	3671
842.933	3679
843.069	3724
843.206	3698
843.343	3827
843.479	3808
843.616	3850
843.752	3660
843.889	3652
844.025	3846
844.162	3732
844.298	3876
844.435	3759
844.571	3778
844.708	3922
844.844	3941
844.98	4032
845.117	4048
845.253	3949
845.389	3880
845.525	3975
845.661	3945
845.798	3903
845.934	3991
846.07	3983
846.206	4013
846.342	4093
846.478	4078
846.614	4002
846.75	3915
846.886	3857
847.022	4025
847.158	3960
847.294	4051
847.429	3979
847.565	3968
847.701	4253
847.837	3838
847.972	3850
848.108	3994
848.244	4002
848.379	3892
848.515	3804
848.65	3869
848.786	3812
848.921	3888
849.057	3975
849.192	3922
849.328	3926
849.463	3918
849.598	3915
849.734	3846
849.869	3876
850.004	3781
850.14	3823
850.275	3808
850.41	3701
850.545	3770
850.68	3789
850.815	3812
850.95	3770
851.085	3934
851.22	3857
851.355	3819
851.49	3800
851.625	3789
851.76	3778
851.895	3732
852.03	3759
852.165	3793
852.299	3854
852.434	3903
852.569	3873
852.703	3922
852.838	3934
852.973	4013
853.107	3998
853.242	3876
853.376	3884
853.511	3770
853.645	3819
853.78	3953
853.914	3896
854.048	3922
854.183	3842
854.317	3964
854.451	4082
854.585	3979
854.72	3915
854.854	4048
854.988	3934
855.122	3983
855.256	3892
855.39	4036
855.524	4124
855.658	4055
855.792	4097
855.926	4150
856.06	4143
856.194	4207
856.327	4154
856.461	4139
856.595	4139
856.729	4196
856.862	4314
856.996	4238
857.13	4257
857.263	4318
857.397	4341
857.53	4295
857.664	4344
857.797	4413
857.931	4440
858.064	4394
858.197	4424
858.331	4402
858.464	4348
858.597	4352
858.731	4390
858.864	4459
858.997	4489
859.13	4546
859.263	4535
859.396	4558
859.529	4565
859.662	4550
859.795	4550
859.928	4558
860.061	4691
860.194	4752
860.327	4656
860.46	4573
860.592	4774
860.725	4759
860.858	4774
860.99	4672
861.123	4675
861.256	4733
861.388	4767
861.521	5570
861.653	4725
861.786	4706
861.918	4740
862.05	4824
862.183	4812
862.315	4866
862.447	4923
862.58	4850
862.712	4786
862.844	4759
862.976	4889
863.108	4873
863.24	5246
863.372	4820
863.504	4858
863.636	4900
863.768	5003
863.9	5018
864.032	4934
864.164	4953
864.296	5033
864.428	5075
864.559	5128
864.691	5098
864.823	5094
864.954	5079
865.086	5132
865.217	5124
865.349	5166
865.48	5162
865.612	5117
865.743	5288
865.875	5189
866.006	5204
866.137	5242
866.269	5235
866.4	5250
866.531	5254
866.662	5223
866.793	5269
866.924	5235
867.055	5391
867.186	5307
867.317	5284
867.448	5315
867.579	5429
867.71	5360
867.841	5357
867.972	5444
868.103	5421
868.233	5467
868.364	5471
868.495	5535
868.625	5627
868.756	5767
868.886	5691
869.017	5756
869.147	5859
869.278	5840
869.408	5817
869.539	5847
869.669	5923
869.799	5920
869.929	5939
870.06	6030
870.19	6205
870.32	6178
870.45	6235
870.58	6365
870.71	6437
870.84	6483
870.97	6395
871.1	6429
871.23	6639
871.36	6669
871.489	6673
871.619	6692
871.749	6795
871.879	6818
872.008	6947
872.138	6981
872.267	7042
872.397	6935
872.526	7050
872.656	7088
872.785	7190
872.915	7396
873.044	7540
873.173	7533
873.303	7658
873.432	7734
873.561	7879
873.69	7906
873.819	7989
873.948	8142
874.077	8233
874.206	8362
874.335	8404
874.464	8568
874.593	8872
874.722	9009
874.851	9135
874.979	9237
875.108	9348
875.237	9428
875.365	9428
875.494	9698
875.623	9838
875.751	9755
875.88	9953
876.008	10185
876.136	10249
876.265	10535
876.393	10634
876.521	10725
876.65	10752
876.778	10885
876.906	10885
877.034	11052
877.162	11064
877.29	11227
877.418	11277
877.546	11414
877.674	11463
877.802	11539
877.93	11539
878.058	11608
878.185	11566
878.313	11691
878.441	11813
878.568	11691
878.696	11779
878.824	11942
878.951	11912
879.079	12026
879.206	12224
879.333	12049
879.461	11935
879.588	12079
879.715	12152
879.842	12190
879.97	12034
880.097	11851
880.224	11821
880.351	11988
880.478	11912
880.605	11897
880.732	11832
880.859	11950
880.986	11874
881.112	11866
881.239	11680
881.366	11691
881.493	11615
881.619	11547
881.746	11600
881.872	11562
881.999	11528
882.125	11501
882.252	11646
882.378	11592
882.505	11554
882.631	11379
882.757	11311
882.883	11341
883.01	11284
883.136	11166
883.262	11071
883.388	11071
883.514	11212
883.64	11239
883.766	11098
883.892	10965
884.018	11083
884.143	11048
884.269	11113
884.395	10812
884.52	10774
884.646	10721
884.772	10694
884.897	10725
885.023	10679
885.148	10714
885.274	10835
885.399	10679
885.524	10641
885.65	10615
885.775	10531
885.9	10558
886.025	10554
886.15	10634
886.275	10360
886.4	10329
886.525	10447
886.65	10447
886.775	10329
886.9	10440
887.025	10565
887.149	10360
887.274	10329
887.399	10219
887.523	10177
887.648	10166
887.773	10177
887.897	10219
888.021	10215
888.146	10093
888.27	10204
888.395	10257
888.519	10234
888.643	10223
888.767	10162
888.891	9994
889.015	10017
889.139	10044
889.263	9975
889.387	10051
889.511	10063
889.635	10055
889.759	10025
889.883	10013
890.006	10029
890.13	10067
890.254	9949
890.377	9964
890.501	9808
890.624	9823
890.748	9869
890.871	9823
890.995	9808
891.118	9740
891.241	9713
891.364	9713
891.488	9876
891.611	9861
891.734	9720
891.857	9701
891.98	9736
892.103	9869
892.226	9720
892.349	9720
892.471	9526
892.594	9557
892.717	9580
892.839	9622
892.962	9603
893.085	9595
893.207	9576
893.33	9477
893.452	9477
893.575	9557
893.697	9542
893.819	9652
893.941	9641
894.064	9663
894.186	9367
894.308	9370
894.43	9549
894.552	9595
894.674	9511
894.796	9382
894.918	9374
895.04	9378
895.161	9355
895.283	9351
895.405	9180
895.526	9321
895.648	9237
895.769	9287
895.891	9340
896.012	9222
896.134	9241
896.255	9154
896.376	9127
896.498	9207
896.619	9085
896.74	9097
896.861	9051
896.982	9287
897.103	9283
897.224	9150
897.345	9077
897.466	8998
897.587	9077
897.708	9097
897.828	8960
897.949	8963
898.07	8887
898.19	8914
898.311	9032
898.431	8895
898.552	8937
898.672	8937
898.792	8986
898.913	8914
899.033	8853
899.153	8773
899.273	8625
899.393	8758
899.513	8705
899.633	8845
899.753	8716
899.873	8689
899.993	8762
900.113	8731
900.232	8674
900.352	8663
900.472	8602
900.591	8552
900.711	8598
900.83	8583
900.95	8667
901.069	8693
901.189	8541
901.308	8457
901.427	8347
901.546	8389
901.665	8511
901.784	8488
901.904	8286
902.023	8355
902.141	8176
902.26	8161
902.379	8343
902.498	8206
902.617	8233
902.735	8320
902.854	8267
902.973	8267
903.091	8107
903.21	8153
903.328	8161
903.446	8092
903.565	7997
903.683	8096
903.801	8081
903.919	8111
904.038	8168
904.156	8046
904.274	8134
904.392	8058
904.51	8020
904.627	8058
904.745	8081
904.863	8100
904.981	7947
905.098	7860
905.216	7917
905.334	7902
905.451	7887
905.569	7864
905.686	7951
905.803	7963
905.921	7803
906.038	7784
906.155	7814
906.272	7689
906.389	7731
906.506	7674
906.623	7643
906.74	7628
906.857	7537
906.974	7544
907.091	7651
907.208	7681
907.324	7658
907.441	7480
907.557	7510
907.674	7430
907.79	7407
907.907	7365
908.023	7438
908.139	7476
908.256	7339
908.372	7331
908.488	7377
908.604	7266
908.72	7217
908.836	7327
908.952	7327
909.068	7240
909.184	7251
909.3	7213
909.415	7266
909.531	7320
909.647	7133
909.762	7149
909.878	7091
909.993	7145
910.108	7114
910.224	7099
910.339	7122
910.454	7069
910.57	7004
910.685	7012
910.8	7206
910.915	7099
911.03	6985
911.145	6859
911.259	6920
911.374	6878
911.489	6829
911.604	6818
911.718	6753
911.833	6696
911.947	6707
912.062	6669
912.176	6703
912.291	6692
912.405	6635
912.519	6871
912.633	6787
912.748	6726
912.862	6662
912.976	6559
913.09	6578
913.204	6604
913.318	6620
913.431	6662
913.545	6654
913.659	6700
913.772	6662
913.886	6502
914	6498
914.113	6696
914.226	6642
914.34	6566
914.453	6517
914.566	6589
914.68	6517
914.793	6471
914.906	6414
915.019	6384
915.132	6300
915.245	6464
915.358	6475
915.47	6456
915.583	6437
915.696	6475
915.809	6517
915.921	6490
916.034	6467
916.146	6422
916.259	6361
916.371	6490
916.483	6437
916.595	6353
916.708	6357
916.82	6445
916.932	6365
917.044	6441
917.156	6361
917.268	6266
917.38	6338
917.491	6372
917.603	6384
917.715	6353
917.826	6410
917.938	6281
918.049	6243
918.161	6342
918.272	6418
918.384	6448
918.495	6361
918.606	6247
918.717	6209
918.828	6311
918.939	6319
919.05	6277
919.161	6296
919.272	6117
919.383	6144
919.494	6311
919.604	6384
919.715	6266
919.826	6235
919.936	6201
920.047	6361
920.157	6281
920.267	6433
920.378	6331
920.488	6232
920.598	6429
920.708	6547
920.818	6448
920.928	6448
921.038	6582
921.148	6563
921.258	6361
921.368	6327
921.477	6190
921.587	6228
921.697	6041
921.806	6178
921.916	6026
922.025	5950
922.134	5847
922.244	5885
922.353	5965
922.462	5832
922.571	5821
922.68	5726
922.789	5710
922.898	5733
923.007	5551
923.116	5695
923.224	5615
923.333	5627
923.442	5554
923.55	5646
923.659	5604
923.767	5676
923.876	5543
923.984	5596
924.092	5493
924.201	5539
924.309	5551
924.417	5535
924.525	5524
924.633	5493
924.741	6144
924.849	5326
924.956	5459
925.064	5372
925.172	5299
925.279	5337
925.387	5364
925.494	5334
925.602	5463
925.709	5383
925.816	5227
925.924	5326
926.031	5357
926.138	5299
926.245	5368
926.352	5280
926.459	5330
926.566	5334
926.673	5231
926.779	5140
926.886	5113
926.993	5022
927.099	5060
927.206	4957
927.312	4961
927.419	5037
927.525	4984
927.631	4957
927.737	4889
927.843	4870
927.95	4771
928.056	4824
928.162	4873
928.267	4854
928.373	5292
928.479	4824
928.585	4675
928.69	4729
928.796	4725
928.901	4736
929.007	4607
929.112	4691
929.218	4656
929.323	4599
929.428	4573
929.533	4683
929.638	4561
929.743	4504
929.848	4531
929.953	4538
930.058	4451
930.163	4367
930.267	4337
930.372	4390
930.477	4299
930.581	4489
930.685	4329
930.79	4287
930.894	4280
930.998	4257
931.103	4398
931.207	4158
931.311	4078
931.415	4040
931.519	3945
931.623	3960
