Data from glass_V78500241_1367.txt Node
Date: Wed Sep 01 19:23:58 CST 2021
User: usil
Spectrometer: V785-0024
Trigger mode: 0
Integration Time (sec): 4.000000E-1
Scans to average: 1
Nonlinearity correction enabled: false
Boxcar width: 0
Storing dark spectrum: false
XAxis mode: Wavelengths
Number of Pixels in Spectrum: 1024
>>>>>Begin Spectral Data<<<<<
801.071	3713
801.214	3751
801.356	3759
801.499	3682
801.641	3781
801.783	3785
801.926	3816
802.068	3827
802.211	3861
802.353	3899
802.496	3812
802.638	3880
802.78	3854
802.923	3907
803.065	3934
803.208	3861
803.35	3857
803.492	3922
803.635	3937
803.777	3827
803.919	3899
804.061	4135
804.204	3941
804.346	3983
804.488	3945
804.63	4059
804.773	3968
804.915	4048
805.057	4086
805.199	4025
805.341	4063
805.483	4116
805.626	4101
805.768	4097
805.91	4173
806.052	4318
806.194	4211
806.336	4318
806.478	4223
806.62	4234
806.762	4261
806.904	4230
807.046	4344
807.188	4249
807.33	4162
807.472	4265
807.614	4219
807.756	4265
807.898	4219
808.04	4242
808.182	4314
808.324	4337
808.465	4356
808.607	4512
808.749	4470
808.891	4466
809.033	4500
809.174	4398
809.316	4223
809.458	4249
809.6	4147
809.741	4131
809.883	4135
810.025	4196
810.166	4207
810.308	4200
810.45	4299
810.591	4230
810.733	4299
810.875	4516
811.016	4824
811.158	5147
811.299	5277
811.441	5292
811.582	5067
811.724	4687
811.865	4424
812.007	4481
812.148	4451
812.29	4428
812.431	4455
812.573	4436
812.714	4371
812.855	4417
812.997	4459
813.138	4497
813.279	4405
813.421	4363
813.562	4417
813.703	4363
813.845	4367
813.986	4238
814.127	4207
814.268	4272
814.41	4268
814.551	4253
814.692	4284
814.833	4284
814.974	4287
815.115	4341
815.256	4268
815.397	4272
815.539	4230
815.68	4223
815.821	4257
815.962	4356
816.103	4287
816.244	4246
816.385	4284
816.526	4306
816.666	4207
816.807	4090
816.948	4192
817.089	4185
817.23	4128
817.371	4078
817.512	4025
817.653	4071
817.793	4025
817.934	4044
818.075	4139
818.216	4086
818.356	4082
818.497	3972
818.638	3903
818.778	3911
818.919	3903
819.06	3861
819.2	3903
819.341	3850
819.481	3850
819.622	3899
819.762	4029
819.903	3945
820.043	3835
820.184	3812
820.324	3800
820.465	3918
820.605	3903
820.746	3907
820.886	3838
821.026	3918
821.167	3899
821.307	4010
821.447	3998
821.588	3960
821.728	3972
821.868	3960
822.008	3857
822.149	3884
822.289	3918
822.429	3823
822.569	3766
822.709	3797
822.849	3656
822.99	3713
823.13	3774
823.27	3785
823.41	3705
823.55	3740
823.69	3778
823.83	3740
823.97	3682
824.11	3587
824.25	3603
824.389	3652
824.529	3671
824.669	3622
824.809	3736
824.949	3789
825.089	3743
825.228	3667
825.368	3622
825.508	3587
825.648	3603
825.787	3591
825.927	3652
826.067	3675
826.206	3667
826.346	3808
826.485	3842
826.625	3880
826.765	3972
826.904	3808
827.044	3610
827.183	3584
827.323	3443
827.462	3466
827.601	3431
827.741	3458
827.88	3473
828.02	3386
828.159	3435
828.298	3473
828.437	3519
828.577	3500
828.716	3568
828.855	3492
828.994	3386
829.134	3340
829.273	3389
829.412	3302
829.551	3359
829.69	3348
829.829	3462
829.968	3515
830.107	3473
830.246	3447
830.385	3393
830.524	3348
830.663	3313
830.802	3260
830.941	3157
831.08	3226
831.219	3298
831.357	3249
831.496	3431
831.635	3279
831.774	3192
831.913	3180
832.051	3157
832.19	3123
832.329	3218
832.467	3108
832.606	3131
832.744	3203
832.883	3211
833.022	3211
833.16	3302
833.299	3287
833.437	3294
833.576	3374
833.714	3416
833.852	3431
833.991	3477
834.129	3469
834.267	3420
834.406	3386
834.544	3393
834.682	3412
834.821	3393
834.959	3576
835.097	3393
835.235	3553
835.373	3454
835.511	3515
835.65	3473
835.788	3462
835.926	3405
836.064	3405
836.202	3405
836.34	3576
836.478	3584
836.615	3542
836.753	3557
836.891	3641
837.029	3648
837.167	3599
837.305	3591
837.443	3549
837.58	3526
837.718	3587
837.856	3561
837.993	3561
838.131	3572
838.269	3599
838.406	3584
838.544	3557
838.681	3454
838.819	3500
838.956	3386
839.094	3382
839.231	3439
839.369	3530
839.506	3720
839.643	3644
839.781	3473
839.918	3458
840.055	3549
840.193	3553
840.33	3568
840.467	3519
840.604	3606
840.742	3804
840.879	3542
841.016	3580
841.153	3698
841.29	3770
841.427	3724
841.564	3709
841.701	3728
841.838	3679
841.975	3690
842.112	3724
842.249	3610
842.385	3629
842.522	3850
842.659	3698
842.796	3720
842.933	3679
843.069	3732
843.206	3675
843.343	3785
843.479	3789
843.616	3838
843.752	3648
843.889	3724
844.025	3884
844.162	3698
844.298	3838
844.435	3778
844.571	3751
844.708	3926
844.844	4021
844.98	3998
845.117	4013
845.253	3956
845.389	3880
845.525	3937
845.661	3994
845.798	3899
845.934	4006
846.07	4017
846.206	4040
846.342	4147
846.478	4112
846.614	3941
846.75	3884
846.886	3926
847.022	4021
847.158	3956
847.294	3987
847.429	4006
847.565	4002
847.701	4211
847.837	3876
847.972	3850
848.108	3964
848.244	4006
848.379	3892
848.515	3800
848.65	3854
848.786	3816
848.921	3838
849.057	3937
849.192	4006
849.328	3888
849.463	3915
849.598	3911
849.734	3873
849.869	3819
850.004	3808
850.14	3816
850.275	3800
850.41	3770
850.545	3743
850.68	3781
850.815	3823
850.95	3793
851.085	3960
851.22	3896
851.355	3850
851.49	3831
851.625	3831
851.76	3789
851.895	3728
852.03	3740
852.165	3812
852.299	3835
852.434	3934
852.569	3854
852.703	3835
852.838	3899
852.973	3972
853.107	3960
853.242	3892
853.376	3823
853.511	3797
853.645	3854
853.78	4017
853.914	3930
854.048	3926
854.183	3892
854.317	3975
854.451	4044
854.585	3960
854.72	3937
854.854	4055
854.988	3941
855.122	3975
855.256	3953
855.39	4032
855.524	4154
855.658	4120
855.792	4105
855.926	4101
856.06	4169
856.194	4204
856.327	4185
856.461	4116
856.595	4154
856.729	4177
856.862	4242
856.996	4249
857.13	4310
857.263	4314
857.397	4398
857.53	4246
857.664	4379
857.797	4383
857.931	4440
858.064	4390
858.197	4459
858.331	4405
858.464	4383
858.597	4344
858.731	4447
858.864	4466
858.997	4451
859.13	4538
859.263	4577
859.396	4603
859.529	4546
859.662	4516
859.795	4508
859.928	4588
860.061	4714
860.194	4698
860.327	4615
860.46	4668
860.592	4752
860.725	4755
860.858	4733
860.99	4645
861.123	4691
861.256	4683
861.388	4755
861.521	5452
861.653	4736
861.786	4668
861.918	4725
862.05	4801
862.183	4812
862.315	4881
862.447	4896
862.58	4892
862.712	4839
862.844	4763
862.976	4911
863.108	4835
863.24	5185
863.372	4786
863.504	4911
863.636	4900
863.768	4949
863.9	5022
864.032	4896
864.164	4953
864.296	5014
864.428	5136
864.559	5098
864.691	5140
864.823	5109
864.954	5083
865.086	5147
865.217	5136
865.349	5147
865.48	5143
865.612	5204
865.743	5261
865.875	5212
866.006	5189
866.137	5250
866.269	5239
866.4	5280
866.531	5201
866.662	5296
866.793	5269
866.924	5292
867.055	5303
867.186	5364
867.317	5315
867.448	5337
867.579	5372
867.71	5402
867.841	5383
867.972	5490
868.103	5452
868.233	5482
868.364	5501
868.495	5528
868.625	5676
868.756	5813
868.886	5672
869.017	5733
869.147	5813
869.278	5840
869.408	5710
869.539	5893
869.669	5923
869.799	5946
869.929	5969
870.06	5950
870.19	6167
870.32	6155
870.45	6220
870.58	6334
870.71	6475
870.84	6460
870.97	6369
871.1	6502
871.23	6703
871.36	6707
871.489	6627
871.619	6741
871.749	6806
871.879	6856
872.008	7004
872.138	6954
872.267	7015
872.397	6977
872.526	7072
872.656	7118
872.785	7190
872.915	7396
873.044	7590
873.173	7620
873.303	7548
873.432	7772
873.561	7871
873.69	7887
873.819	8039
873.948	8134
874.077	8309
874.206	8358
874.335	8465
874.464	8667
874.593	8872
874.722	8921
874.851	9081
874.979	9329
875.108	9382
875.237	9348
875.365	9439
875.494	9717
875.623	9873
875.751	9831
875.88	10002
876.008	10101
876.136	10310
876.265	10538
876.393	10710
876.521	10736
876.65	10771
876.778	10911
876.906	10866
877.034	11041
877.162	11090
877.29	11143
877.418	11421
877.546	11356
877.674	11360
877.802	11501
877.93	11539
878.058	11486
878.185	11547
878.313	11615
878.441	11783
878.568	11707
878.696	11840
878.824	11885
878.951	11977
879.079	11984
879.206	12106
879.333	12057
879.461	11969
879.588	12125
879.715	12110
879.842	12262
879.97	12205
880.097	11866
880.224	11859
880.351	11851
880.478	11961
880.605	11817
880.732	11786
880.859	11973
880.986	11851
881.112	11885
881.239	11707
881.366	11611
881.493	11718
881.619	11516
881.746	11611
881.872	11524
881.999	11474
882.125	11532
882.252	11570
882.378	11520
882.505	11581
882.631	11410
882.757	11280
882.883	11429
883.01	11239
883.136	11231
883.262	11181
883.388	11136
883.514	11254
883.64	11064
883.766	11094
883.892	10987
884.018	10911
884.143	11121
884.269	11216
884.395	10904
884.52	10714
884.646	10812
884.772	10740
884.897	10664
885.023	10714
885.148	10763
885.274	10771
885.399	10675
885.524	10626
885.65	10630
885.775	10622
885.9	10466
886.025	10653
886.15	10512
886.275	10508
886.4	10356
886.525	10356
886.65	10451
886.775	10440
886.9	10436
887.025	10519
887.149	10356
887.274	10215
887.399	10207
887.523	10246
887.648	10131
887.773	10188
887.897	10253
888.021	10238
888.146	10139
888.27	10185
888.395	10249
888.519	10135
888.643	10200
888.767	10196
888.891	10143
889.015	9899
889.139	10112
889.263	10013
889.387	10071
889.511	10055
889.635	10074
889.759	9960
889.883	9930
890.006	10078
890.13	10090
890.254	9956
890.377	9930
890.501	9850
890.624	9911
890.748	9892
890.871	9663
890.995	9800
891.118	9774
891.241	9797
891.364	9751
891.488	9903
891.611	9743
891.734	9762
891.857	9762
891.98	9751
892.103	9774
892.226	9690
892.349	9667
892.471	9492
892.594	9591
892.717	9603
892.839	9641
892.962	9568
893.085	9682
893.207	9610
893.33	9584
893.452	9496
893.575	9534
893.697	9485
893.819	9671
893.941	9660
894.064	9595
894.186	9428
894.308	9428
894.43	9443
894.552	9599
894.674	9572
894.796	9382
894.918	9401
895.04	9287
895.161	9420
895.283	9367
895.405	9237
895.526	9363
895.648	9340
895.769	9272
895.891	9245
896.012	9268
896.134	9249
896.255	9169
896.376	9081
896.498	9154
896.619	9165
896.74	9039
896.861	9135
896.982	9256
897.103	9302
897.224	9180
897.345	9112
897.466	9058
897.587	9058
897.708	9123
897.828	9055
897.949	8956
898.07	8967
898.19	8883
898.311	9043
898.431	8902
898.552	8891
898.672	8967
898.792	8948
898.913	8899
899.033	8773
899.153	8788
899.273	8697
899.393	8727
899.513	8689
899.633	8739
899.753	8800
899.873	8678
899.993	8785
900.113	8689
900.232	8670
900.352	8670
900.472	8575
900.591	8522
900.711	8610
900.83	8552
900.95	8670
901.069	8663
901.189	8606
901.308	8488
901.427	8446
901.546	8419
901.665	8484
901.784	8434
901.904	8370
902.023	8336
902.141	8202
902.26	8210
902.379	8298
902.498	8195
902.617	8240
902.735	8298
902.854	8305
902.973	8218
903.091	8062
903.21	8134
903.328	8157
903.446	8081
903.565	8164
903.683	8111
903.801	8058
903.919	8092
904.038	8123
904.156	8043
904.274	8088
904.392	7989
904.51	7986
904.627	8031
904.745	8001
904.863	8103
904.981	7925
905.098	7902
905.216	7807
905.334	7902
905.451	7936
905.569	7811
905.686	7951
905.803	7883
905.921	7845
906.038	7860
906.155	7811
906.272	7765
906.389	7685
906.506	7632
906.623	7658
906.74	7643
906.857	7563
906.974	7556
907.091	7647
907.208	7677
907.324	7666
907.441	7613
907.557	7449
907.674	7422
907.79	7392
907.907	7457
908.023	7441
908.139	7422
908.256	7343
908.372	7384
908.488	7358
908.604	7282
908.72	7244
908.836	7244
908.952	7247
909.068	7270
909.184	7305
909.3	7293
909.415	7312
909.531	7308
909.647	7141
909.762	7118
909.878	7046
909.993	7095
910.108	7031
910.224	7034
910.339	7076
910.454	7027
910.57	7015
910.685	6985
910.8	7114
910.915	7050
911.03	7031
911.145	6932
911.259	6852
911.374	6867
911.489	6875
911.604	6783
911.718	6696
911.833	6772
911.947	6654
912.062	6593
912.176	6650
912.291	6700
912.405	6719
912.519	6837
912.633	6818
912.748	6719
912.862	6673
912.976	6612
913.09	6528
913.204	6547
913.318	6608
913.431	6700
913.545	6692
913.659	6681
913.772	6604
913.886	6585
914	6547
914.113	6612
914.226	6650
914.34	6593
914.453	6513
914.566	6703
914.68	6506
914.793	6498
914.906	6448
915.019	6418
915.132	6391
915.245	6361
915.358	6452
915.47	6490
915.583	6437
915.696	6437
915.809	6509
915.921	6513
916.034	6456
916.146	6403
916.259	6403
916.371	6441
916.483	6521
916.595	6471
916.708	6414
916.82	6403
916.932	6331
917.044	6418
917.156	6384
917.268	6346
917.38	6361
917.491	6353
917.603	6384
917.715	6464
917.826	6422
917.938	6334
918.049	6216
918.161	6346
918.272	6429
918.384	6422
918.495	6342
918.606	6254
918.717	6258
918.828	6228
918.939	6277
919.05	6213
919.161	6251
919.272	6110
919.383	6159
919.494	6361
919.604	6403
919.715	6319
919.826	6243
919.936	6251
920.047	6327
920.157	6251
920.267	6467
920.378	6308
920.488	6262
920.598	6471
920.708	6597
920.818	6471
920.928	6494
921.038	6696
921.148	6593
921.258	6327
921.368	6281
921.477	6182
921.587	6190
921.697	6102
921.806	6171
921.916	6102
922.025	5965
922.134	5908
922.244	5939
922.353	5965
922.462	5840
922.571	5817
922.68	5729
922.789	5661
922.898	5710
923.007	5589
923.116	5729
923.224	5649
923.333	5646
923.442	5581
923.55	5608
923.659	5585
923.767	5596
923.876	5516
923.984	5619
924.092	5512
924.201	5611
924.309	5577
924.417	5539
924.525	5535
924.633	5471
924.741	6296
924.849	5391
924.956	5509
925.064	5334
925.172	5303
925.279	5353
925.387	5383
925.494	5341
925.602	5395
925.709	5387
925.816	5273
925.924	5337
926.031	5326
926.138	5284
926.245	5299
926.352	5292
926.459	5311
926.566	5311
926.673	5193
926.779	5159
926.886	5128
926.993	5033
927.099	4991
927.206	4980
927.312	4972
927.419	4991
927.525	4957
927.631	4972
927.737	4900
927.843	4896
927.95	4729
928.056	4782
928.162	4831
928.267	4824
928.373	5315
928.479	4850
928.585	4664
928.69	4816
928.796	4778
928.901	4687
929.007	4577
929.112	4668
929.218	4607
929.323	4558
929.428	4577
929.533	4694
929.638	4523
929.743	4561
929.848	4531
929.953	4516
930.058	4402
930.163	4318
930.267	4402
930.372	4455
930.477	4322
930.581	4455
930.685	4287
930.79	4261
930.894	4234
930.998	4303
931.103	4375
931.207	4074
931.311	4086
931.415	4059
931.519	3964
931.623	3907
