Data from glass_V78500241_741.txt Node
Date: Wed Sep 01 19:19:38 CST 2021
User: usil
Spectrometer: V785-0024
Trigger mode: 0
Integration Time (sec): 4.000000E-1
Scans to average: 1
Nonlinearity correction enabled: false
Boxcar width: 0
Storing dark spectrum: false
XAxis mode: Wavelengths
Number of Pixels in Spectrum: 1024
>>>>>Begin Spectral Data<<<<<
801.071	3747
801.214	3781
801.356	3736
801.499	3770
801.641	3747
801.783	3819
801.926	3831
802.068	3842
802.211	3857
802.353	3934
802.496	3854
802.638	3888
802.78	3903
802.923	3972
803.065	3861
803.208	3842
803.35	3896
803.492	3922
803.635	3915
803.777	3789
803.919	3907
804.061	4166
804.204	3941
804.346	3983
804.488	3903
804.63	4036
804.773	3987
804.915	4067
805.057	4173
805.199	4059
805.341	4059
805.483	4177
805.626	4166
805.768	4139
805.91	4196
806.052	4249
806.194	4204
806.336	4394
806.478	4265
806.62	4192
806.762	4242
806.904	4257
807.046	4341
807.188	4211
807.33	4177
807.472	4242
807.614	4196
807.756	4276
807.898	4169
808.04	4253
808.182	4280
808.324	4341
808.465	4383
808.607	4470
808.749	4440
808.891	4489
809.033	4538
809.174	4432
809.316	4253
809.458	4287
809.6	4124
809.741	4192
809.883	4101
810.025	4211
810.166	4219
810.308	4192
810.45	4299
810.591	4261
810.733	4295
810.875	4577
811.016	4816
811.158	5178
811.299	5261
811.441	5292
811.582	5045
811.724	4694
811.865	4519
812.007	4462
812.148	4436
812.29	4402
812.431	4417
812.573	4417
812.714	4371
812.855	4363
812.997	4409
813.138	4497
813.279	4440
813.421	4367
813.562	4360
813.703	4356
813.845	4329
813.986	4268
814.127	4192
814.268	4204
814.41	4306
814.551	4280
814.692	4398
814.833	4318
814.974	4348
815.115	4333
815.256	4261
815.397	4257
815.539	4265
815.68	4227
815.821	4230
815.962	4341
816.103	4333
816.244	4265
816.385	4257
816.526	4287
816.666	4261
816.807	4177
816.948	4177
817.089	4234
817.23	4200
817.371	4109
817.512	4055
817.653	4093
817.793	4040
817.934	4059
818.075	4150
818.216	4116
818.356	4074
818.497	4021
818.638	3918
818.778	3884
818.919	3922
819.06	3911
819.2	3979
819.341	3846
819.481	3808
819.622	3911
819.762	4032
819.903	3956
820.043	3926
820.184	3857
820.324	3857
820.465	3903
820.605	3846
820.746	3873
820.886	3812
821.026	3926
821.167	3911
821.307	3968
821.447	3983
821.588	3998
821.728	3915
821.868	3968
822.008	3873
822.149	3930
822.289	3972
822.429	3812
822.569	3800
822.709	3819
822.849	3705
822.99	3736
823.13	3781
823.27	3774
823.41	3724
823.55	3686
823.69	3717
823.83	3762
823.97	3671
824.11	3633
824.25	3599
824.389	3663
824.529	3743
824.669	3618
824.809	3743
824.949	3728
825.089	3740
825.228	3713
825.368	3568
825.508	3542
825.648	3595
825.787	3656
825.927	3656
826.067	3660
826.206	3679
826.346	3842
826.485	3899
826.625	3876
826.765	3953
826.904	3842
827.044	3610
827.183	3568
827.323	3485
827.462	3481
827.601	3462
827.741	3435
827.88	3477
828.02	3382
828.159	3462
828.298	3504
828.437	3545
828.577	3458
828.716	3606
828.855	3511
828.994	3412
829.134	3351
829.273	3370
829.412	3359
829.551	3332
829.69	3393
829.829	3477
829.968	3515
830.107	3420
830.246	3428
830.385	3370
830.524	3393
830.663	3355
830.802	3249
830.941	3237
831.08	3180
831.219	3283
831.357	3264
831.496	3386
831.635	3268
831.774	3199
831.913	3173
832.051	3138
832.19	3135
832.329	3207
832.467	3123
832.606	3100
832.744	3169
832.883	3176
833.022	3237
833.16	3287
833.299	3279
833.437	3340
833.576	3378
833.714	3431
833.852	3435
833.991	3454
834.129	3462
834.267	3450
834.406	3420
834.544	3450
834.682	3462
834.821	3450
834.959	3595
835.097	3447
835.235	3542
835.373	3519
835.511	3511
835.65	3477
835.788	3481
835.926	3443
836.064	3389
836.202	3409
836.34	3564
836.478	3610
836.615	3557
836.753	3584
836.891	3644
837.029	3614
837.167	3629
837.305	3545
837.443	3564
837.58	3549
837.718	3667
837.856	3561
837.993	3538
838.131	3610
838.269	3618
838.406	3572
838.544	3595
838.681	3485
838.819	3443
838.956	3412
839.094	3405
839.231	3473
839.369	3542
839.506	3717
839.643	3618
839.781	3504
839.918	3458
840.055	3549
840.193	3542
840.33	3549
840.467	3595
840.604	3644
840.742	3850
840.879	3564
841.016	3545
841.153	3599
841.29	3720
841.427	3720
841.564	3732
841.701	3785
841.838	3736
841.975	3709
842.112	3759
842.249	3656
842.385	3633
842.522	3835
842.659	3709
842.796	3660
842.933	3736
843.069	3682
843.206	3694
843.343	3838
843.479	3778
843.616	3854
843.752	3663
843.889	3698
844.025	3896
844.162	3717
844.298	3888
844.435	3732
844.571	3778
844.708	3873
844.844	4036
844.98	3991
845.117	4044
845.253	3918
845.389	3945
845.525	4002
845.661	3983
845.798	3937
845.934	4017
846.07	3964
846.206	4071
846.342	4131
846.478	4051
846.614	4002
846.75	3918
846.886	3968
847.022	4040
847.158	3994
847.294	4013
847.429	4002
847.565	3994
847.701	4299
847.837	3899
847.972	3865
848.108	4021
848.244	4040
848.379	3804
848.515	3850
848.65	3842
848.786	3861
848.921	3880
849.057	3945
849.192	3968
849.328	3915
849.463	3918
849.598	3945
849.734	3899
849.869	3835
850.004	3797
850.14	3827
850.275	3793
850.41	3747
850.545	3724
850.68	3793
850.815	3808
850.95	3819
851.085	3960
851.22	3896
851.355	3861
851.49	3819
851.625	3800
851.76	3819
851.895	3781
852.03	3759
852.165	3827
852.299	3926
852.434	3960
852.569	3876
852.703	3915
852.838	3945
852.973	4029
853.107	3979
853.242	3953
853.376	3869
853.511	3785
853.645	3831
853.78	3979
853.914	3911
854.048	3899
854.183	3941
854.317	3953
854.451	4063
854.585	4017
854.72	3953
854.854	4086
854.988	3987
855.122	4013
855.256	3903
855.39	4051
855.524	4131
855.658	4090
855.792	4139
855.926	4227
856.06	4150
856.194	4185
856.327	4169
856.461	4139
856.595	4162
856.729	4188
856.862	4287
856.996	4272
857.13	4310
857.263	4329
857.397	4379
857.53	4322
857.664	4348
857.797	4405
857.931	4481
858.064	4386
858.197	4432
858.331	4394
858.464	4379
858.597	4360
858.731	4428
858.864	4485
858.997	4462
859.13	4474
859.263	4508
859.396	4607
859.529	4474
859.662	4603
859.795	4569
859.928	4626
860.061	4714
860.194	4774
860.327	4687
860.46	4683
860.592	4736
860.725	4740
860.858	4782
860.99	4714
861.123	4729
861.256	4725
861.388	4763
861.521	5395
861.653	4763
861.786	4733
861.918	4774
862.05	4797
862.183	4839
862.315	4877
862.447	4949
862.58	4850
862.712	4805
862.844	4763
862.976	4835
863.108	4843
863.24	5269
863.372	4831
863.504	4942
863.636	4896
863.768	4896
863.9	4919
864.032	4972
864.164	5022
864.296	5029
864.428	5109
864.559	5136
864.691	5212
864.823	5140
864.954	5083
865.086	5155
865.217	5132
865.349	5102
865.48	5151
865.612	5197
865.743	5288
865.875	5201
866.006	5223
866.137	5284
866.269	5246
866.4	5220
866.531	5254
866.662	5231
866.793	5311
866.924	5261
867.055	5406
867.186	5337
867.317	5379
867.448	5299
867.579	5372
867.71	5402
867.841	5410
867.972	5455
868.103	5497
868.233	5520
868.364	5486
868.495	5600
868.625	5676
868.756	5836
868.886	5718
869.017	5771
869.147	5901
869.278	5912
869.408	5805
869.539	5798
869.669	5870
869.799	5920
869.929	5996
870.06	5977
870.19	6194
870.32	6209
870.45	6285
870.58	6338
870.71	6399
870.84	6437
870.97	6445
871.1	6502
871.23	6677
871.36	6730
871.489	6703
871.619	6760
871.749	6779
871.879	6871
872.008	6958
872.138	6951
872.267	6981
872.397	6985
872.526	6996
872.656	7114
872.785	7202
872.915	7373
873.044	7518
873.173	7514
873.303	7647
873.432	7826
873.561	7921
873.69	7955
873.819	7970
873.948	8172
874.077	8263
874.206	8351
874.335	8457
874.464	8697
874.593	8838
874.722	8944
874.851	9173
874.979	9348
875.108	9374
875.237	9466
875.365	9530
875.494	9671
875.623	9857
875.751	9865
875.88	9994
876.008	10173
876.136	10280
876.265	10500
876.393	10763
876.521	10721
876.65	10736
876.778	10862
876.906	10847
877.034	11048
877.162	11174
877.29	11189
877.418	11360
877.546	11296
877.674	11448
877.802	11516
877.93	11581
878.058	11581
878.185	11691
878.313	11653
878.441	11779
878.568	11661
878.696	11889
878.824	11859
878.951	11977
879.079	11977
879.206	12197
879.333	12148
879.461	11992
879.588	12087
879.715	12106
879.842	12251
879.97	12060
880.097	11798
880.224	11836
880.351	11859
880.478	11863
880.605	11973
880.732	11920
880.859	11958
880.986	11764
881.112	11821
881.239	11707
881.366	11722
881.493	11554
881.619	11528
881.746	11600
881.872	11585
881.999	11558
882.125	11547
882.252	11581
882.378	11455
882.505	11562
882.631	11383
882.757	11315
882.883	11280
883.01	11242
883.136	11242
883.262	11105
883.388	11098
883.514	11201
883.64	11250
883.766	11102
883.892	11003
884.018	10995
884.143	11105
884.269	11102
884.395	10839
884.52	10771
884.646	10778
884.772	10698
884.897	10672
885.023	10759
885.148	10736
885.274	10763
885.399	10721
885.524	10649
885.65	10630
885.775	10603
885.9	10550
886.025	10683
886.15	10538
886.275	10474
886.4	10424
886.525	10344
886.65	10409
886.775	10386
886.9	10516
887.025	10546
887.149	10363
887.274	10219
887.399	10227
887.523	10261
887.648	10169
887.773	10105
887.897	10295
888.021	10173
888.146	10200
888.27	10227
888.395	10207
888.519	10150
888.643	10196
888.767	10219
888.891	10109
889.015	10029
889.139	10036
889.263	10040
889.387	10078
889.511	10135
889.635	10162
889.759	9941
889.883	10101
890.006	10021
890.13	10074
890.254	9949
890.377	10013
890.501	9861
890.624	9907
890.748	9926
890.871	9850
890.995	9743
891.118	9682
891.241	9827
891.364	9785
891.488	9770
891.611	9743
891.734	9728
891.857	9808
891.98	9762
892.103	9743
892.226	9717
892.349	9717
892.471	9511
892.594	9576
892.717	9648
892.839	9545
892.962	9576
893.085	9694
893.207	9584
893.33	9557
893.452	9515
893.575	9648
893.697	9481
893.819	9614
893.941	9576
894.064	9584
894.186	9435
894.308	9412
894.43	9523
894.552	9641
894.674	9549
894.796	9408
894.918	9466
895.04	9359
895.161	9408
895.283	9416
895.405	9294
895.526	9241
895.648	9256
895.769	9249
895.891	9245
896.012	9332
896.134	9272
896.255	9237
896.376	9176
896.498	9256
896.619	9192
896.74	9009
896.861	9100
896.982	9253
897.103	9279
897.224	9180
897.345	9123
897.466	9013
897.587	8960
897.708	9062
897.828	9039
897.949	8933
898.07	8830
898.19	8944
898.311	9017
898.431	8921
898.552	8979
898.672	9043
898.792	8982
898.913	8914
899.033	8807
899.153	8655
899.273	8678
899.393	8724
899.513	8777
899.633	8766
899.753	8754
899.873	8750
899.993	8708
900.113	8651
900.232	8705
900.352	8743
900.472	8571
900.591	8587
900.711	8571
900.83	8583
900.95	8697
901.069	8746
901.189	8602
901.308	8465
901.427	8404
901.546	8427
901.665	8374
901.784	8480
901.904	8358
902.023	8351
902.141	8210
902.26	8275
902.379	8294
902.498	8183
902.617	8195
902.735	8324
902.854	8347
902.973	8252
903.091	8111
903.21	8164
903.328	8187
903.446	8065
903.565	8100
903.683	8027
903.801	8012
903.919	8218
904.038	8100
904.156	7989
904.274	8058
904.392	8031
904.51	8050
904.627	8081
904.745	8073
904.863	8153
904.981	7951
905.098	7879
905.216	7852
905.334	7917
905.451	7860
905.569	7902
905.686	7921
905.803	7906
905.921	7833
906.038	7925
906.155	7750
906.272	7727
906.389	7704
906.506	7677
906.623	7616
906.74	7647
906.857	7605
906.974	7601
907.091	7624
907.208	7734
907.324	7636
907.441	7628
907.557	7483
907.674	7419
907.79	7438
907.907	7407
908.023	7487
908.139	7426
908.256	7369
908.372	7335
908.488	7324
908.604	7278
908.72	7244
908.836	7251
908.952	7247
909.068	7259
909.184	7350
909.3	7293
909.415	7278
909.531	7324
909.647	7122
909.762	7103
909.878	7107
909.993	7187
910.108	7152
910.224	7050
910.339	7072
910.454	7080
910.57	6996
910.685	6966
910.8	7217
910.915	7084
911.03	7034
911.145	6928
911.259	6837
911.374	6924
911.489	6829
911.604	6806
911.718	6730
911.833	6715
911.947	6654
912.062	6601
912.176	6802
912.291	6700
912.405	6757
912.519	6852
912.633	6867
912.748	6734
912.862	6719
912.976	6620
913.09	6532
913.204	6646
913.318	6642
913.431	6684
913.545	6696
913.659	6749
913.772	6642
913.886	6582
914	6536
914.113	6612
914.226	6650
914.34	6593
914.453	6540
914.566	6582
914.68	6521
914.793	6544
914.906	6475
915.019	6388
915.132	6361
915.245	6403
915.358	6471
915.47	6525
915.583	6460
915.696	6509
915.809	6532
915.921	6536
916.034	6448
916.146	6422
916.259	6365
916.371	6437
916.483	6429
916.595	6384
916.708	6422
916.82	6369
916.932	6471
917.044	6460
917.156	6384
917.268	6331
917.38	6361
917.491	6391
917.603	6372
917.715	6422
917.826	6418
917.938	6372
918.049	6273
918.161	6361
918.272	6486
918.384	6452
918.495	6437
918.606	6289
918.717	6285
918.828	6292
918.939	6235
919.05	6197
919.161	6292
919.272	6125
919.383	6159
919.494	6308
919.604	6456
919.715	6277
919.826	6277
919.936	6281
920.047	6308
920.157	6350
920.267	6490
920.378	6365
920.488	6315
920.598	6479
920.708	6517
920.818	6506
920.928	6433
921.038	6604
921.148	6597
921.258	6418
921.368	6311
921.477	6216
921.587	6129
921.697	6057
921.806	6178
921.916	6068
922.025	5988
922.134	5977
922.244	5828
922.353	5927
922.462	5874
922.571	5805
922.68	5737
922.789	5714
922.898	5783
923.007	5608
923.116	5714
923.224	5676
923.333	5646
923.442	5627
923.55	5653
923.659	5600
923.767	5649
923.876	5543
923.984	5577
924.092	5528
924.201	5604
924.309	5551
924.417	5562
924.525	5471
924.633	5512
924.741	6140
924.849	5357
924.956	5585
925.064	5337
925.172	5288
925.279	5307
925.387	5376
925.494	5360
925.602	5436
925.709	5417
925.816	5250
925.924	5322
926.031	5349
926.138	5292
926.245	5360
926.352	5280
926.459	5296
926.566	5303
926.673	5197
926.779	5143
926.886	5132
926.993	5079
927.099	5014
927.206	4961
927.312	4942
927.419	5056
927.525	5018
927.631	5003
927.737	4896
927.843	4820
927.95	4771
928.056	4809
928.162	4858
928.267	4870
928.373	5322
928.479	4858
928.585	4675
928.69	4782
928.796	4763
928.901	4641
929.007	4649
929.112	4725
929.218	4630
929.323	4615
929.428	4603
929.533	4702
929.638	4569
929.743	4569
929.848	4580
929.953	4535
930.058	4493
930.163	4356
930.267	4379
930.372	4432
930.477	4360
930.581	4459
930.685	4398
930.79	4329
930.894	4322
930.998	4276
931.103	4417
931.207	4143
931.311	4067
931.415	4055
931.519	3953
931.623	3930
