Data from glass_V78500241_223.txt Node
Date: Wed Sep 01 19:16:02 CST 2021
User: usil
Spectrometer: V785-0024
Trigger mode: 0
Integration Time (sec): 4.000000E-1
Scans to average: 1
Nonlinearity correction enabled: false
Boxcar width: 0
Storing dark spectrum: false
XAxis mode: Wavelengths
Number of Pixels in Spectrum: 1024
>>>>>Begin Spectral Data<<<<<
801.071	3755
801.214	3759
801.356	3705
801.499	3747
801.641	3774
801.783	3766
801.926	3888
802.068	3827
802.211	3873
802.353	3892
802.496	3816
802.638	3918
802.78	3945
802.923	3960
803.065	3941
803.208	3831
803.35	3869
803.492	3922
803.635	3945
803.777	3816
803.919	3937
804.061	4196
804.204	3975
804.346	3918
804.488	3911
804.63	4036
804.773	4013
804.915	4021
805.057	4173
805.199	4078
805.341	4116
805.483	4143
805.626	4116
805.768	4154
805.91	4276
806.052	4211
806.194	4242
806.336	4367
806.478	4230
806.62	4192
806.762	4196
806.904	4257
807.046	4398
807.188	4246
807.33	4192
807.472	4242
807.614	4246
807.756	4325
807.898	4234
808.04	4223
808.182	4287
808.324	4333
808.465	4432
808.607	4436
808.749	4474
808.891	4432
809.033	4481
809.174	4443
809.316	4268
809.458	4272
809.6	4227
809.741	4162
809.883	4169
810.025	4223
810.166	4223
810.308	4238
810.45	4234
810.591	4291
810.733	4348
810.875	4580
811.016	4774
811.158	5159
811.299	5299
811.441	5277
811.582	5105
811.724	4729
811.865	4481
812.007	4531
812.148	4485
812.29	4455
812.431	4379
812.573	4409
812.714	4379
812.855	4443
812.997	4451
813.138	4550
813.279	4386
813.421	4386
813.562	4417
813.703	4371
813.845	4348
813.986	4280
814.127	4249
814.268	4291
814.41	4318
814.551	4348
814.692	4306
814.833	4284
814.974	4352
815.115	4352
815.256	4287
815.397	4238
815.539	4344
815.68	4196
815.821	4188
815.962	4329
816.103	4246
816.244	4280
816.385	4238
816.526	4329
816.666	4215
816.807	4143
816.948	4185
817.089	4192
817.23	4128
817.371	4074
817.512	4078
817.653	4082
817.793	4048
817.934	4067
818.075	4166
818.216	4135
818.356	4090
818.497	4025
818.638	3953
818.778	3956
818.919	3876
819.06	3869
819.2	3896
819.341	3880
819.481	3873
819.622	3903
819.762	4063
819.903	3968
820.043	3865
820.184	3827
820.324	3854
820.465	3907
820.605	3842
820.746	3918
820.886	3857
821.026	3968
821.167	3918
821.307	4029
821.447	3987
821.588	3949
821.728	3964
821.868	3964
822.008	3876
822.149	3934
822.289	3934
822.429	3797
822.569	3740
822.709	3816
822.849	3698
822.99	3762
823.13	3762
823.27	3766
823.41	3682
823.55	3751
823.69	3747
823.83	3736
823.97	3701
824.11	3641
824.25	3614
824.389	3633
824.529	3667
824.669	3629
824.809	3728
824.949	3778
825.089	3785
825.228	3675
825.368	3568
825.508	3553
825.648	3564
825.787	3595
825.927	3629
826.067	3652
826.206	3641
826.346	3812
826.485	3827
826.625	3911
826.765	4006
826.904	3838
827.044	3610
827.183	3511
827.323	3447
827.462	3500
827.601	3462
827.741	3428
827.88	3454
828.02	3397
828.159	3443
828.298	3488
828.437	3534
828.577	3530
828.716	3648
828.855	3511
828.994	3405
829.134	3424
829.273	3428
829.412	3386
829.551	3401
829.69	3378
829.829	3439
829.968	3564
830.107	3458
830.246	3447
830.385	3405
830.524	3393
830.663	3264
830.802	3317
830.941	3211
831.08	3211
831.219	3241
831.357	3279
831.496	3393
831.635	3222
831.774	3226
831.913	3188
832.051	3169
832.19	3142
832.329	3226
832.467	3169
832.606	3150
832.744	3161
832.883	3184
833.022	3203
833.16	3268
833.299	3325
833.437	3340
833.576	3386
833.714	3405
833.852	3485
833.991	3435
834.129	3488
834.267	3454
834.406	3409
834.544	3458
834.682	3420
834.821	3416
834.959	3599
835.097	3428
835.235	3564
835.373	3519
835.511	3526
835.65	3443
835.788	3515
835.926	3401
836.064	3405
836.202	3420
836.34	3599
836.478	3648
836.615	3576
836.753	3587
836.891	3633
837.029	3610
837.167	3629
837.305	3530
837.443	3557
837.58	3504
837.718	3610
837.856	3568
837.993	3538
838.131	3580
838.269	3603
838.406	3530
838.544	3622
838.681	3473
838.819	3412
838.956	3382
839.094	3370
839.231	3439
839.369	3481
839.506	3705
839.643	3629
839.781	3481
839.918	3511
840.055	3545
840.193	3545
840.33	3538
840.467	3610
840.604	3599
840.742	3838
840.879	3542
841.016	3584
841.153	3603
841.29	3743
841.427	3755
841.564	3713
841.701	3770
841.838	3717
841.975	3675
842.112	3743
842.249	3671
842.385	3671
842.522	3846
842.659	3720
842.796	3713
842.933	3724
843.069	3717
843.206	3736
843.343	3770
843.479	3808
843.616	3823
843.752	3652
843.889	3694
844.025	3850
844.162	3732
844.298	3880
844.435	3766
844.571	3770
844.708	3911
844.844	3941
844.98	4051
845.117	4025
845.253	3922
845.389	3922
845.525	3987
845.661	3983
845.798	3934
845.934	4013
846.07	3991
846.206	4101
846.342	4120
846.478	4078
846.614	3964
846.75	3964
846.886	3949
847.022	4051
847.158	4002
847.294	4055
847.429	4055
847.565	4021
847.701	4265
847.837	3873
847.972	3857
848.108	3987
848.244	3960
848.379	3934
848.515	3808
848.65	3819
848.786	3869
848.921	3865
849.057	3930
849.192	3972
849.328	3930
849.463	3903
849.598	3903
849.734	3876
849.869	3835
850.004	3797
850.14	3831
850.275	3781
850.41	3736
850.545	3770
850.68	3781
850.815	3846
850.95	3797
851.085	3968
851.22	3892
851.355	3846
851.49	3835
851.625	3816
851.76	3842
851.895	3797
852.03	3743
852.165	3857
852.299	3896
852.434	3911
852.569	3876
852.703	3892
852.838	3998
852.973	4021
853.107	4055
853.242	3922
853.376	3899
853.511	3770
853.645	3850
853.78	4032
853.914	3903
854.048	3892
854.183	3934
854.317	3975
854.451	4105
854.585	3949
854.72	3972
854.854	4036
854.988	3964
855.122	4025
855.256	3964
855.39	4029
855.524	4082
855.658	4109
855.792	4120
855.926	4131
856.06	4215
856.194	4249
856.327	4139
856.461	4135
856.595	4188
856.729	4200
856.862	4303
856.996	4253
857.13	4295
857.263	4363
857.397	4367
857.53	4318
857.664	4394
857.797	4402
857.931	4462
858.064	4394
858.197	4440
858.331	4424
858.464	4398
858.597	4318
858.731	4481
858.864	4481
858.997	4447
859.13	4531
859.263	4531
859.396	4603
859.529	4542
859.662	4596
859.795	4516
859.928	4580
860.061	4694
860.194	4725
860.327	4660
860.46	4641
860.592	4740
860.725	4793
860.858	4797
860.99	4736
861.123	4710
861.256	4725
861.388	4793
861.521	5364
861.653	4736
861.786	4740
861.918	4744
862.05	4828
862.183	4816
862.315	4919
862.447	4984
862.58	4911
862.712	4774
862.844	4816
862.976	4873
863.108	4881
863.24	5162
863.372	4820
863.504	4930
863.636	4896
863.768	4976
863.9	4972
864.032	4965
864.164	4934
864.296	5029
864.428	5090
864.559	5109
864.691	5121
864.823	5140
864.954	5147
865.086	5140
865.217	5174
865.349	5140
865.48	5166
865.612	5223
865.743	5368
865.875	5197
866.006	5235
866.137	5254
866.269	5231
866.4	5242
866.531	5250
866.662	5258
866.793	5326
866.924	5288
867.055	5372
867.186	5341
867.317	5341
867.448	5326
867.579	5383
867.71	5402
867.841	5448
867.972	5429
868.103	5509
868.233	5528
868.364	5486
868.495	5570
868.625	5714
868.756	5748
868.886	5676
869.017	5745
869.147	5851
869.278	5912
869.408	5798
869.539	5840
869.669	5950
869.799	5912
869.929	6030
870.06	5973
870.19	6232
870.32	6247
870.45	6281
870.58	6365
870.71	6369
870.84	6471
870.97	6441
871.1	6460
871.23	6665
871.36	6673
871.489	6658
871.619	6734
871.749	6837
871.879	6859
872.008	7042
872.138	7034
872.267	7023
872.397	7008
872.526	7072
872.656	7141
872.785	7175
872.915	7350
873.044	7502
873.173	7552
873.303	7689
873.432	7746
873.561	7852
873.69	7917
873.819	7989
873.948	8176
874.077	8252
874.206	8267
874.335	8495
874.464	8720
874.593	8853
874.722	8941
874.851	9165
874.979	9256
875.108	9389
875.237	9443
875.365	9507
875.494	9671
875.623	9835
875.751	9880
875.88	10036
876.008	10101
876.136	10238
876.265	10531
876.393	10774
876.521	10725
876.65	10877
876.778	10919
876.906	10930
877.034	10991
877.162	11113
877.29	11170
877.418	11341
877.546	11383
877.674	11459
877.802	11440
877.93	11455
878.058	11566
878.185	11589
878.313	11680
878.441	11794
878.568	11611
878.696	11748
878.824	11904
878.951	11977
879.079	12125
879.206	12053
879.333	12045
879.461	11999
879.588	12152
879.715	12152
879.842	12251
879.97	12136
880.097	11950
880.224	11874
880.351	11904
880.478	11904
880.605	11885
880.732	11824
880.859	11999
880.986	11729
881.112	11855
881.239	11661
881.366	11699
881.493	11695
881.619	11543
881.746	11562
881.872	11448
881.999	11501
882.125	11482
882.252	11554
882.378	11524
882.505	11562
882.631	11398
882.757	11318
882.883	11299
883.01	11231
883.136	11178
883.262	11140
883.388	11124
883.514	11197
883.64	11242
883.766	11098
883.892	10976
884.018	10904
884.143	11109
884.269	11151
884.395	10847
884.52	10774
884.646	10793
884.772	10759
884.897	10675
885.023	10672
885.148	10752
885.274	10774
885.399	10672
885.524	10599
885.65	10656
885.775	10634
885.9	10538
886.025	10615
886.15	10523
886.275	10470
886.4	10409
886.525	10390
886.65	10413
886.775	10348
886.9	10500
887.025	10531
887.149	10318
887.274	10265
887.399	10188
887.523	10200
887.648	10131
887.773	10082
887.897	10287
888.021	10162
888.146	10181
888.27	10257
888.395	10306
888.519	10173
888.643	10177
888.767	10261
888.891	10109
889.015	10013
889.139	10078
889.263	9972
889.387	10116
889.511	10120
889.635	10090
889.759	10002
889.883	9968
890.006	10055
890.13	10078
890.254	9941
890.377	9937
890.501	9857
890.624	9876
890.748	9937
890.871	9861
890.995	9816
891.118	9755
891.241	9789
891.364	9755
891.488	9903
891.611	9755
891.734	9804
891.857	9759
891.98	9736
892.103	9774
892.226	9785
892.349	9732
892.471	9557
892.594	9584
892.717	9637
892.839	9572
892.962	9637
893.085	9633
893.207	9633
893.33	9504
893.452	9542
893.575	9580
893.697	9450
893.819	9633
893.941	9663
894.064	9564
894.186	9469
894.308	9412
894.43	9492
894.552	9671
894.674	9591
894.796	9416
894.918	9363
895.04	9393
895.161	9359
895.283	9367
895.405	9298
895.526	9325
895.648	9226
895.769	9211
895.891	9233
896.012	9310
896.134	9283
896.255	9180
896.376	9127
896.498	9184
896.619	9169
896.74	9127
896.861	9123
896.982	9256
897.103	9214
897.224	9192
897.345	9093
897.466	9013
897.587	9104
897.708	9093
897.828	9058
897.949	8971
898.07	8842
898.19	8948
898.311	9013
898.431	8876
898.552	8906
898.672	9005
898.792	9017
898.913	8929
899.033	8800
899.153	8766
899.273	8670
899.393	8689
899.513	8811
899.633	8735
899.753	8708
899.873	8773
899.993	8777
900.113	8636
900.232	8697
900.352	8689
900.472	8697
900.591	8522
900.711	8629
900.83	8583
900.95	8670
901.069	8697
901.189	8617
901.308	8488
901.427	8415
901.546	8381
901.665	8484
901.784	8484
901.904	8286
902.023	8385
902.141	8279
902.26	8142
902.379	8290
902.498	8248
902.617	8252
902.735	8366
902.854	8263
902.973	8237
903.091	8123
903.21	8119
903.328	8153
903.446	8126
903.565	7967
903.683	8161
903.801	8134
903.919	8100
904.038	8172
904.156	8111
904.274	8100
904.392	8084
904.51	8088
904.627	8092
904.745	8145
904.863	8027
904.981	7925
905.098	7959
905.216	7883
905.334	7906
905.451	7898
905.569	7887
905.686	7967
905.803	7940
905.921	7830
906.038	7902
906.155	7826
906.272	7757
906.389	7807
906.506	7620
906.623	7696
906.74	7571
906.857	7529
906.974	7575
907.091	7662
907.208	7738
907.324	7594
907.441	7552
907.557	7495
907.674	7472
907.79	7403
907.907	7422
908.023	7434
908.139	7453
908.256	7384
908.372	7460
908.488	7327
908.604	7289
908.72	7263
908.836	7297
908.952	7240
909.068	7213
909.184	7339
909.3	7247
909.415	7301
909.531	7278
909.647	7133
909.762	7141
909.878	7126
909.993	7133
910.108	7118
910.224	7057
910.339	7099
910.454	7076
910.57	7000
910.685	6871
910.8	7152
910.915	7061
911.03	6989
911.145	6894
911.259	6913
911.374	6886
911.489	6840
911.604	6802
911.718	6730
911.833	6688
911.947	6627
912.062	6639
912.176	6783
912.291	6753
912.405	6703
912.519	6890
912.633	6821
912.748	6707
912.862	6688
912.976	6639
913.09	6521
913.204	6616
913.318	6597
913.431	6677
913.545	6681
913.659	6760
913.772	6646
913.886	6563
914	6574
914.113	6627
914.226	6681
914.34	6662
914.453	6540
914.566	6578
914.68	6544
914.793	6509
914.906	6448
915.019	6433
915.132	6388
915.245	6429
915.358	6467
915.47	6456
915.583	6445
915.696	6483
915.809	6555
915.921	6566
916.034	6448
916.146	6407
916.259	6372
916.371	6475
916.483	6441
916.595	6441
916.708	6426
916.82	6388
916.932	6399
917.044	6372
917.156	6350
917.268	6346
917.38	6376
917.491	6338
917.603	6372
917.715	6418
917.826	6429
917.938	6319
918.049	6273
918.161	6384
918.272	6403
918.384	6467
918.495	6346
918.606	6254
918.717	6186
918.828	6270
918.939	6300
919.05	6205
919.161	6254
919.272	6171
919.383	6224
919.494	6338
919.604	6403
919.715	6273
919.826	6224
919.936	6281
920.047	6365
920.157	6369
920.267	6483
920.378	6304
920.488	6308
920.598	6433
920.708	6642
920.818	6506
920.928	6498
921.038	6646
921.148	6574
921.258	6372
921.368	6292
921.477	6216
921.587	6167
921.697	6136
921.806	6209
921.916	6087
922.025	5980
922.134	5931
922.244	5885
922.353	5977
922.462	5870
922.571	5832
922.68	5737
922.789	5688
922.898	5737
923.007	5649
923.116	5707
923.224	5745
923.333	5676
923.442	5611
923.55	5577
923.659	5615
923.767	5566
923.876	5585
923.984	5585
924.092	5577
924.201	5535
924.309	5554
924.417	5547
924.525	5490
924.633	5532
924.741	6273
924.849	5372
924.956	5512
925.064	5402
925.172	5292
925.279	5341
925.387	5383
925.494	5311
925.602	5402
925.709	5402
925.816	5280
925.924	5364
926.031	5360
926.138	5315
926.245	5357
926.352	5174
926.459	5376
926.566	5368
926.673	5242
926.779	5162
926.886	5132
926.993	5037
927.099	5033
927.206	4953
927.312	4987
927.419	5010
927.525	4991
927.631	5041
927.737	4877
927.843	4896
927.95	4763
928.056	4820
928.162	4873
928.267	4850
928.373	5288
928.479	4828
928.585	4702
928.69	4790
928.796	4752
928.901	4660
929.007	4660
929.112	4687
929.218	4672
929.323	4596
929.428	4588
929.533	4687
929.638	4489
929.743	4569
929.848	4527
929.953	4527
930.058	4428
930.163	4363
930.267	4375
930.372	4447
930.477	4329
930.581	4497
930.685	4379
930.79	4268
930.894	4314
930.998	4272
931.103	4398
931.207	4135
931.311	4067
931.415	4071
931.519	3930
931.623	3998
