Data from glass_V78500241_1592.txt Node
Date: Wed Sep 01 19:25:32 CST 2021
User: usil
Spectrometer: V785-0024
Trigger mode: 0
Integration Time (sec): 4.000000E-1
Scans to average: 1
Nonlinearity correction enabled: false
Boxcar width: 0
Storing dark spectrum: false
XAxis mode: Wavelengths
Number of Pixels in Spectrum: 1024
>>>>>Begin Spectral Data<<<<<
801.071	3705
801.214	3759
801.356	3675
801.499	3759
801.641	3694
801.783	3789
801.926	3842
802.068	3846
802.211	3850
802.353	3869
802.496	3823
802.638	3861
802.78	3884
802.923	3907
803.065	3907
803.208	3857
803.35	3850
803.492	3907
803.635	3922
803.777	3808
803.919	3907
804.061	4124
804.204	3945
804.346	3964
804.488	3892
804.63	4013
804.773	4017
804.915	4032
805.057	4131
805.199	4063
805.341	4093
805.483	4131
805.626	4116
805.768	4116
805.91	4234
806.052	4207
806.194	4249
806.336	4325
806.478	4196
806.62	4223
806.762	4185
806.904	4295
807.046	4356
807.188	4135
807.33	4181
807.472	4242
807.614	4249
807.756	4238
807.898	4211
808.04	4234
808.182	4310
808.324	4341
808.465	4398
808.607	4481
808.749	4432
808.891	4508
809.033	4485
809.174	4424
809.316	4291
809.458	4223
809.6	4147
809.741	4120
809.883	4162
810.025	4196
810.166	4230
810.308	4223
810.45	4242
810.591	4215
810.733	4268
810.875	4455
811.016	4797
811.158	5143
811.299	5280
811.441	5265
811.582	5067
811.724	4710
811.865	4504
812.007	4455
812.148	4436
812.29	4421
812.431	4417
812.573	4409
812.714	4398
812.855	4466
812.997	4398
813.138	4451
813.279	4398
813.421	4413
813.562	4428
813.703	4348
813.845	4295
813.986	4272
814.127	4204
814.268	4295
814.41	4272
814.551	4238
814.692	4314
814.833	4272
814.974	4280
815.115	4333
815.256	4261
815.397	4253
815.539	4253
815.68	4211
815.821	4219
815.962	4348
816.103	4268
816.244	4230
816.385	4230
816.526	4299
816.666	4204
816.807	4078
816.948	4196
817.089	4154
817.23	4116
817.371	4074
817.512	4067
817.653	4090
817.793	3998
817.934	4040
818.075	4101
818.216	4078
818.356	4093
818.497	4006
818.638	3941
818.778	3903
818.919	3915
819.06	3884
819.2	3930
819.341	3819
819.481	3854
819.622	3918
819.762	4017
819.903	3934
820.043	3869
820.184	3854
820.324	3854
820.465	3865
820.605	3850
820.746	3880
820.886	3789
821.026	3930
821.167	3907
821.307	3953
821.447	3979
821.588	3964
821.728	3926
821.868	3975
822.008	3865
822.149	3888
822.289	3918
822.429	3762
822.569	3785
822.709	3797
822.849	3701
822.99	3720
823.13	3766
823.27	3751
823.41	3717
823.55	3728
823.69	3778
823.83	3747
823.97	3701
824.11	3610
824.25	3599
824.389	3625
824.529	3671
824.669	3641
824.809	3713
824.949	3759
825.089	3705
825.228	3698
825.368	3580
825.508	3606
825.648	3553
825.787	3629
825.927	3614
826.067	3610
826.206	3610
826.346	3755
826.485	3842
826.625	3876
826.765	3949
826.904	3861
827.044	3641
827.183	3534
827.323	3431
827.462	3477
827.601	3428
827.741	3378
827.88	3431
828.02	3389
828.159	3409
828.298	3504
828.437	3526
828.577	3507
828.716	3568
828.855	3500
828.994	3363
829.134	3370
829.273	3389
829.412	3351
829.551	3348
829.69	3359
829.829	3439
829.968	3496
830.107	3443
830.246	3435
830.385	3370
830.524	3351
830.663	3298
830.802	3260
830.941	3203
831.08	3184
831.219	3264
831.357	3260
831.496	3405
831.635	3230
831.774	3188
831.913	3214
832.051	3123
832.19	3150
832.329	3260
832.467	3127
832.606	3097
832.744	3211
832.883	3222
833.022	3184
833.16	3237
833.299	3317
833.437	3348
833.576	3332
833.714	3382
833.852	3431
833.991	3416
834.129	3462
834.267	3416
834.406	3447
834.544	3389
834.682	3428
834.821	3428
834.959	3553
835.097	3443
835.235	3557
835.373	3534
835.511	3538
835.65	3435
835.788	3511
835.926	3439
836.064	3435
836.202	3367
836.34	3561
836.478	3576
836.615	3534
836.753	3603
836.891	3633
837.029	3641
837.167	3595
837.305	3568
837.443	3561
837.58	3492
837.718	3622
837.856	3534
837.993	3557
838.131	3580
838.269	3534
838.406	3587
838.544	3580
838.681	3462
838.819	3447
838.956	3378
839.094	3370
839.231	3466
839.369	3496
839.506	3762
839.643	3625
839.781	3500
839.918	3466
840.055	3545
840.193	3526
840.33	3530
840.467	3561
840.604	3591
840.742	3797
840.879	3561
841.016	3587
841.153	3576
841.29	3743
841.427	3736
841.564	3705
841.701	3785
841.838	3720
841.975	3717
842.112	3755
842.249	3633
842.385	3656
842.522	3808
842.659	3694
842.796	3690
842.933	3690
843.069	3701
843.206	3694
843.343	3850
843.479	3785
843.616	3793
843.752	3679
843.889	3671
844.025	3861
844.162	3747
844.298	3831
844.435	3778
844.571	3785
844.708	3888
844.844	4002
844.98	3998
845.117	4010
845.253	3945
845.389	3953
845.525	3979
845.661	3956
845.798	3892
845.934	3949
846.07	3964
846.206	4044
846.342	4143
846.478	3987
846.614	3975
846.75	3903
846.886	3911
847.022	4040
847.158	3994
847.294	3975
847.429	4040
847.565	3994
847.701	4253
847.837	3892
847.972	3861
848.108	4002
848.244	3960
848.379	3884
848.515	3816
848.65	3789
848.786	3842
848.921	3861
849.057	3934
849.192	3953
849.328	3884
849.463	3934
849.598	3838
849.734	3869
849.869	3838
850.004	3808
850.14	3778
850.275	3785
850.41	3747
850.545	3759
850.68	3766
850.815	3770
850.95	3785
851.085	3915
851.22	3865
851.355	3838
851.49	3759
851.625	3808
851.76	3778
851.895	3736
852.03	3717
852.165	3781
852.299	3873
852.434	3918
852.569	3865
852.703	3899
852.838	3918
852.973	3968
853.107	3968
853.242	3869
853.376	3819
853.511	3743
853.645	3774
853.78	3930
853.914	3907
854.048	3876
854.183	3869
854.317	3987
854.451	4097
854.585	3991
854.72	3934
854.854	4025
854.988	3941
855.122	3941
855.256	3907
855.39	4067
855.524	4131
855.658	4097
855.792	4112
855.926	4116
856.06	4158
856.194	4154
856.327	4124
856.461	4082
856.595	4162
856.729	4169
856.862	4303
856.996	4234
857.13	4276
857.263	4348
857.397	4356
857.53	4284
857.664	4337
857.797	4405
857.931	4413
858.064	4417
858.197	4440
858.331	4409
858.464	4371
858.597	4325
858.731	4432
858.864	4478
858.997	4424
859.13	4516
859.263	4558
859.396	4504
859.529	4504
859.662	4550
859.795	4478
859.928	4618
860.061	4702
860.194	4729
860.327	4637
860.46	4668
860.592	4717
860.725	4774
860.858	4771
860.99	4710
861.123	4679
861.256	4672
861.388	4771
861.521	5528
861.653	4702
861.786	4687
861.918	4771
862.05	4809
862.183	4896
862.315	4816
862.447	4927
862.58	4839
862.712	4786
862.844	4782
862.976	4885
863.108	4870
863.24	5223
863.372	4892
863.504	4927
863.636	4885
863.768	4987
863.9	4972
864.032	4949
864.164	4946
864.296	5018
864.428	5060
864.559	5140
864.691	5128
864.823	5151
864.954	5067
865.086	5132
865.217	5121
865.349	5086
865.48	5147
865.612	5162
865.743	5299
865.875	5242
866.006	5212
866.137	5292
866.269	5280
866.4	5212
866.531	5223
866.662	5113
866.793	5250
866.924	5288
867.055	5265
867.186	5349
867.317	5345
867.448	5315
867.579	5376
867.71	5368
867.841	5421
867.972	5482
868.103	5474
868.233	5501
868.364	5501
868.495	5566
868.625	5691
868.756	5805
868.886	5703
869.017	5729
869.147	5874
869.278	5809
869.408	5813
869.539	5783
869.669	5878
869.799	5931
869.929	5992
870.06	6019
870.19	6152
870.32	6178
870.45	6258
870.58	6331
870.71	6391
870.84	6418
870.97	6429
871.1	6452
871.23	6604
871.36	6703
871.489	6654
871.619	6802
871.749	6814
871.879	6894
872.008	7038
872.138	6924
872.267	7004
872.397	7004
872.526	7057
872.656	7145
872.785	7209
872.915	7362
873.044	7525
873.173	7605
873.303	7639
873.432	7761
873.561	7860
873.69	7928
873.819	8069
873.948	8138
874.077	8237
874.206	8244
874.335	8404
874.464	8701
874.593	8861
874.722	8925
874.851	9138
874.979	9249
875.108	9344
875.237	9473
875.365	9439
875.494	9667
875.623	9838
875.751	9785
875.88	10002
876.008	10131
876.136	10325
876.265	10500
876.393	10664
876.521	10710
876.65	10915
876.778	10847
876.906	10927
877.034	11041
877.162	11079
877.29	11143
877.418	11299
877.546	11368
877.674	11490
877.802	11448
877.93	11592
878.058	11528
878.185	11566
878.313	11668
878.441	11798
878.568	11684
878.696	11748
878.824	11786
878.951	11954
879.079	12019
879.206	12030
879.333	12072
879.461	12007
879.588	12003
879.715	12079
879.842	12247
879.97	12148
880.097	11889
880.224	11847
880.351	11927
880.478	11889
880.605	11824
880.732	11824
880.859	11946
880.986	11790
881.112	11870
881.239	11661
881.366	11649
881.493	11604
881.619	11505
881.746	11596
881.872	11520
881.999	11452
882.125	11448
882.252	11547
882.378	11501
882.505	11573
882.631	11318
882.757	11284
882.883	11315
883.01	11254
883.136	11204
883.262	11181
883.388	11083
883.514	11170
883.64	11140
883.766	11067
883.892	11003
884.018	10965
884.143	11079
884.269	11052
884.395	10843
884.52	10805
884.646	10850
884.772	10687
884.897	10710
885.023	10691
885.148	10630
885.274	10748
885.399	10645
885.524	10672
885.65	10615
885.775	10637
885.9	10603
886.025	10611
886.15	10561
886.275	10478
886.4	10367
886.525	10322
886.65	10363
886.775	10314
886.9	10459
887.025	10516
887.149	10333
887.274	10223
887.399	10116
887.523	10215
887.648	10154
887.773	10143
887.897	10287
888.021	10284
888.146	10223
888.27	10238
888.395	10181
888.519	10143
888.643	10166
888.767	10192
888.891	10128
889.015	9956
889.139	10090
889.263	9994
889.387	10048
889.511	10112
889.635	10051
889.759	9937
889.883	10036
890.006	9998
890.13	10082
890.254	9922
890.377	9873
890.501	9846
890.624	9854
890.748	9926
890.871	9816
890.995	9705
891.118	9732
891.241	9831
891.364	9785
891.488	9846
891.611	9793
891.734	9751
891.857	9804
891.98	9663
892.103	9701
892.226	9774
892.349	9644
892.471	9545
892.594	9553
892.717	9614
892.839	9637
892.962	9610
893.085	9732
893.207	9568
893.33	9553
893.452	9530
893.575	9587
893.697	9447
893.819	9663
893.941	9606
894.064	9622
894.186	9408
894.308	9382
894.43	9511
894.552	9587
894.674	9538
894.796	9447
894.918	9466
895.04	9317
895.161	9382
895.283	9359
895.405	9241
895.526	9237
895.648	9245
895.769	9272
895.891	9249
896.012	9329
896.134	9173
896.255	9188
896.376	9119
896.498	9169
896.619	9104
896.74	9131
896.861	9089
896.982	9264
897.103	9321
897.224	9100
897.345	9119
897.466	9013
897.587	9001
897.708	9085
897.828	8986
897.949	9017
898.07	8883
898.19	8956
898.311	9043
898.431	8845
898.552	8944
898.672	8910
898.792	8937
898.913	8918
899.033	8876
899.153	8758
899.273	8667
899.393	8670
899.513	8773
899.633	8743
899.753	8727
899.873	8651
899.993	8667
900.113	8724
900.232	8663
900.352	8655
900.472	8579
900.591	8590
900.711	8522
900.83	8552
900.95	8682
901.069	8735
901.189	8617
901.308	8434
901.427	8396
901.546	8457
901.665	8404
901.784	8499
901.904	8385
902.023	8336
902.141	8214
902.26	8225
902.379	8301
902.498	8191
902.617	8202
902.735	8282
902.854	8317
902.973	8259
903.091	8149
903.21	8168
903.328	8088
903.446	8081
903.565	8088
903.683	8065
903.801	8012
903.919	8149
904.038	8111
904.156	8012
904.274	8119
904.392	8054
904.51	8035
904.627	8039
904.745	8027
904.863	8149
904.981	7978
905.098	7940
905.216	7875
905.334	7963
905.451	7879
905.569	7887
905.686	7997
905.803	7906
905.921	7723
906.038	7841
906.155	7734
906.272	7704
906.389	7662
906.506	7559
906.623	7628
906.74	7590
906.857	7491
906.974	7537
907.091	7651
907.208	7712
907.324	7636
907.441	7529
907.557	7403
907.674	7415
907.79	7407
907.907	7449
908.023	7563
908.139	7438
908.256	7453
908.372	7327
908.488	7324
908.604	7240
908.72	7225
908.836	7289
908.952	7232
909.068	7297
909.184	7293
909.3	7206
909.415	7263
909.531	7343
909.647	7023
909.762	7034
909.878	7122
909.993	7129
910.108	7099
910.224	7091
910.339	7137
910.454	6958
910.57	6989
910.685	6962
910.8	7152
910.915	7103
911.03	7008
911.145	6878
911.259	6802
911.374	6875
911.489	6852
911.604	6776
911.718	6734
911.833	6753
911.947	6684
912.062	6597
912.176	6673
912.291	6707
912.405	6700
912.519	6829
912.633	6818
912.748	6688
912.862	6700
912.976	6635
913.09	6544
913.204	6654
913.318	6593
913.431	6642
913.545	6711
913.659	6749
913.772	6612
913.886	6566
914	6471
914.113	6623
914.226	6635
914.34	6585
914.453	6464
914.566	6597
914.68	6460
914.793	6582
914.906	6452
915.019	6414
915.132	6403
915.245	6429
915.358	6391
915.47	6467
915.583	6471
915.696	6494
915.809	6540
915.921	6494
916.034	6399
916.146	6399
916.259	6380
916.371	6540
916.483	6418
916.595	6407
916.708	6361
916.82	6384
916.932	6361
917.044	6384
917.156	6353
917.268	6331
917.38	6353
917.491	6308
917.603	6346
917.715	6418
917.826	6365
917.938	6331
918.049	6232
918.161	6331
918.272	6418
918.384	6452
918.495	6308
918.606	6285
918.717	6235
918.828	6327
918.939	6270
919.05	6247
919.161	6258
919.272	6194
919.383	6140
919.494	6273
919.604	6426
919.715	6285
919.826	6285
919.936	6205
920.047	6391
920.157	6213
920.267	6433
920.378	6319
920.488	6311
920.598	6471
920.708	6589
920.818	6475
920.928	6483
921.038	6658
921.148	6555
921.258	6342
921.368	6384
921.477	6224
921.587	6178
921.697	6079
921.806	6220
921.916	6076
922.025	5904
922.134	5946
922.244	5855
922.353	5942
922.462	5828
922.571	5809
922.68	5691
922.789	5729
922.898	5741
923.007	5672
923.116	5676
923.224	5680
923.333	5661
923.442	5558
923.55	5592
923.659	5604
923.767	5638
923.876	5524
923.984	5562
924.092	5509
924.201	5554
924.309	5570
924.417	5547
924.525	5471
924.633	5516
924.741	6262
924.849	5334
924.956	5501
925.064	5322
925.172	5337
925.279	5265
925.387	5341
925.494	5353
925.602	5421
925.709	5383
925.816	5258
925.924	5311
926.031	5357
926.138	5311
926.245	5341
926.352	5273
926.459	5311
926.566	5337
926.673	5223
926.779	5136
926.886	5132
926.993	5003
927.099	5033
927.206	4995
927.312	4976
927.419	4999
927.525	4946
927.631	4953
927.737	4881
927.843	4870
927.95	4755
928.056	4824
928.162	4790
928.267	4919
928.373	5326
928.479	4889
928.585	4672
928.69	4805
928.796	4767
928.901	4668
929.007	4626
929.112	4645
929.218	4611
929.323	4603
929.428	4580
929.533	4675
929.638	4561
929.743	4546
929.848	4584
929.953	4512
930.058	4432
930.163	4360
930.267	4367
930.372	4432
930.477	4348
930.581	4474
930.685	4390
930.79	4287
930.894	4253
930.998	4253
931.103	4379
931.207	4101
931.311	4074
931.415	4021
931.519	3915
931.623	3922
