Data from glass_V78500241_466.txt Node
Date: Wed Sep 01 19:17:43 CST 2021
User: usil
Spectrometer: V785-0024
Trigger mode: 0
Integration Time (sec): 4.000000E-1
Scans to average: 1
Nonlinearity correction enabled: false
Boxcar width: 0
Storing dark spectrum: false
XAxis mode: Wavelengths
Number of Pixels in Spectrum: 1024
>>>>>Begin Spectral Data<<<<<
801.071	3747
801.214	3770
801.356	3709
801.499	3743
801.641	3705
801.783	3804
801.926	3896
802.068	3846
802.211	3838
802.353	3850
802.496	3907
802.638	3888
802.78	3915
802.923	3975
803.065	3930
803.208	3884
803.35	3880
803.492	3934
803.635	3960
803.777	3808
803.919	3949
804.061	4173
804.204	3983
804.346	3922
804.488	3907
804.63	4067
804.773	3953
804.915	4036
805.057	4173
805.199	4063
805.341	4112
805.483	4158
805.626	4169
805.768	4112
805.91	4204
806.052	4215
806.194	4196
806.336	4356
806.478	4204
806.62	4192
806.762	4192
806.904	4265
807.046	4379
807.188	4196
807.33	4147
807.472	4242
807.614	4223
807.756	4257
807.898	4253
808.04	4265
808.182	4287
808.324	4295
808.465	4379
808.607	4436
808.749	4443
808.891	4493
809.033	4504
809.174	4447
809.316	4261
809.458	4257
809.6	4196
809.741	4188
809.883	4227
810.025	4242
810.166	4219
810.308	4265
810.45	4204
810.591	4306
810.733	4303
810.875	4554
811.016	4843
811.158	5143
811.299	5265
811.441	5303
811.582	5124
811.724	4664
811.865	4440
812.007	4462
812.148	4440
812.29	4432
812.431	4409
812.573	4421
812.714	4337
812.855	4428
812.997	4409
813.138	4443
813.279	4405
813.421	4375
813.562	4367
813.703	4272
813.845	4360
813.986	4257
814.127	4230
814.268	4272
814.41	4337
814.551	4261
814.692	4337
814.833	4268
814.974	4333
815.115	4363
815.256	4242
815.397	4246
815.539	4310
815.68	4207
815.821	4204
815.962	4352
816.103	4265
816.244	4207
816.385	4249
816.526	4314
816.666	4238
816.807	4109
816.948	4200
817.089	4147
817.23	4109
817.371	4029
817.512	4078
817.653	4067
817.793	4029
817.934	4120
818.075	4124
818.216	4074
818.356	4097
818.497	3964
818.638	3892
818.778	3915
818.919	3892
819.06	3861
819.2	3937
819.341	3888
819.481	3842
819.622	3941
819.762	4032
819.903	3968
820.043	3854
820.184	3876
820.324	3766
820.465	3892
820.605	3873
820.746	3892
820.886	3774
821.026	3922
821.167	3945
821.307	3975
821.447	4021
821.588	3998
821.728	3941
821.868	3949
822.008	3842
822.149	3911
822.289	3911
822.429	3759
822.569	3766
822.709	3819
822.849	3698
822.99	3766
823.13	3770
823.27	3808
823.41	3732
823.55	3766
823.69	3736
823.83	3743
823.97	3743
824.11	3622
824.25	3618
824.389	3637
824.529	3675
824.669	3622
824.809	3690
824.949	3785
825.089	3800
825.228	3732
825.368	3610
825.508	3572
825.648	3576
825.787	3679
825.927	3682
826.067	3629
826.206	3686
826.346	3831
826.485	3827
826.625	3846
826.765	3968
826.904	3785
827.044	3633
827.183	3603
827.323	3443
827.462	3530
827.601	3466
827.741	3454
827.88	3477
828.02	3386
828.159	3462
828.298	3504
828.437	3523
828.577	3469
828.716	3618
828.855	3515
828.994	3378
829.134	3374
829.273	3420
829.412	3348
829.551	3340
829.69	3374
829.829	3443
829.968	3538
830.107	3496
830.246	3454
830.385	3386
830.524	3359
830.663	3344
830.802	3283
830.941	3207
831.08	3207
831.219	3283
831.357	3264
831.496	3435
831.635	3260
831.774	3211
831.913	3230
832.051	3150
832.19	3123
832.329	3253
832.467	3165
832.606	3085
832.744	3180
832.883	3192
833.022	3222
833.16	3279
833.299	3310
833.437	3321
833.576	3332
833.714	3405
833.852	3409
833.991	3500
834.129	3492
834.267	3447
834.406	3401
834.544	3466
834.682	3458
834.821	3466
834.959	3587
835.097	3397
835.235	3523
835.373	3515
835.511	3523
835.65	3477
835.788	3526
835.926	3370
836.064	3378
836.202	3439
836.34	3568
836.478	3606
836.615	3557
836.753	3625
836.891	3675
837.029	3629
837.167	3610
837.305	3576
837.443	3553
837.58	3469
837.718	3603
837.856	3580
837.993	3515
838.131	3637
838.269	3610
838.406	3614
838.544	3557
838.681	3488
838.819	3450
838.956	3428
839.094	3439
839.231	3466
839.369	3572
839.506	3770
839.643	3686
839.781	3504
839.918	3492
840.055	3519
840.193	3549
840.33	3530
840.467	3545
840.604	3622
840.742	3800
840.879	3576
841.016	3599
841.153	3599
841.29	3747
841.427	3717
841.564	3724
841.701	3755
841.838	3743
841.975	3682
842.112	3736
842.249	3637
842.385	3625
842.522	3835
842.659	3694
842.796	3686
842.933	3724
843.069	3713
843.206	3720
843.343	3823
843.479	3774
843.616	3854
843.752	3698
843.889	3747
844.025	3842
844.162	3755
844.298	3899
844.435	3823
844.571	3816
844.708	3922
844.844	3987
844.98	4063
845.117	4036
845.253	3937
845.389	3941
845.525	3998
845.661	3956
845.798	3941
845.934	4051
846.07	3964
846.206	3987
846.342	4116
846.478	4078
846.614	3994
846.75	3964
846.886	3941
847.022	4006
847.158	3983
847.294	4002
847.429	3994
847.565	4021
847.701	4280
847.837	3896
847.972	3903
848.108	3972
848.244	4006
848.379	3831
848.515	3869
848.65	3831
848.786	3892
848.921	3899
849.057	3918
849.192	3960
849.328	3922
849.463	3956
849.598	3918
849.734	3876
849.869	3804
850.004	3823
850.14	3865
850.275	3804
850.41	3778
850.545	3770
850.68	3789
850.815	3827
850.95	3831
851.085	3937
851.22	3907
851.355	3861
851.49	3823
851.625	3819
851.76	3793
851.895	3762
852.03	3743
852.165	3781
852.299	3876
852.434	3911
852.569	3896
852.703	3892
852.838	3953
852.973	3987
853.107	4025
853.242	3873
853.376	3869
853.511	3812
853.645	3865
853.78	3975
853.914	3899
854.048	3926
854.183	3915
854.317	3956
854.451	4090
854.585	3968
854.72	3934
854.854	4093
854.988	3972
855.122	4055
855.256	3949
855.39	4048
855.524	4135
855.658	4139
855.792	4082
855.926	4173
856.06	4150
856.194	4246
856.327	4139
856.461	4185
856.595	4158
856.729	4196
856.862	4310
856.996	4291
857.13	4352
857.263	4306
857.397	4367
857.53	4333
857.664	4348
857.797	4390
857.931	4432
858.064	4386
858.197	4447
858.331	4394
858.464	4402
858.597	4383
858.731	4455
858.864	4497
858.997	4443
859.13	4508
859.263	4561
859.396	4584
859.529	4538
859.662	4531
859.795	4538
859.928	4611
860.061	4748
860.194	4710
860.327	4725
860.46	4656
860.592	4748
860.725	4831
860.858	4767
860.99	4698
861.123	4687
861.256	4656
861.388	4850
861.521	5357
861.653	4740
861.786	4721
861.918	4752
862.05	4774
862.183	4873
862.315	4873
862.447	4953
862.58	4881
862.712	4820
862.844	4790
862.976	4866
863.108	4919
863.24	5204
863.372	4835
863.504	4908
863.636	4911
863.768	4987
863.9	4927
864.032	4911
864.164	4976
864.296	5064
864.428	5124
864.559	5102
864.691	5140
864.823	5045
864.954	5147
865.086	5174
865.217	5117
865.349	5121
865.48	5189
865.612	5185
865.743	5311
865.875	5231
866.006	5223
866.137	5254
866.269	5212
866.4	5227
866.531	5269
866.662	5280
866.793	5292
866.924	5277
867.055	5376
867.186	5318
867.317	5326
867.448	5330
867.579	5357
867.71	5364
867.841	5387
867.972	5414
868.103	5490
868.233	5486
868.364	5532
868.495	5535
868.625	5672
868.756	5847
868.886	5672
869.017	5737
869.147	5832
869.278	5821
869.408	5821
869.539	5832
869.669	5920
869.799	5908
869.929	6026
870.06	5992
870.19	6232
870.32	6171
870.45	6247
870.58	6327
870.71	6437
870.84	6429
870.97	6395
871.1	6479
871.23	6620
871.36	6726
871.489	6627
871.619	6760
871.749	6776
871.879	6913
872.008	7004
872.138	6989
872.267	6973
872.397	6981
872.526	7076
872.656	7099
872.785	7206
872.915	7407
873.044	7529
873.173	7552
873.303	7651
873.432	7715
873.561	7841
873.69	7944
873.819	8031
873.948	8229
874.077	8282
874.206	8389
874.335	8457
874.464	8682
874.593	8868
874.722	8921
874.851	9112
874.979	9272
875.108	9397
875.237	9515
875.365	9473
875.494	9705
875.623	9880
875.751	9880
875.88	9998
876.008	10112
876.136	10295
876.265	10493
876.393	10714
876.521	10736
876.65	10820
876.778	10877
876.906	10953
877.034	10995
877.162	11132
877.29	11143
877.418	11246
877.546	11387
877.674	11444
877.802	11452
877.93	11524
878.058	11585
878.185	11611
878.313	11649
878.441	11836
878.568	11707
878.696	11870
878.824	11912
878.951	11927
879.079	12098
879.206	12133
879.333	11992
879.461	12030
879.588	12110
879.715	11984
879.842	12251
879.97	12072
880.097	11965
880.224	11870
880.351	11923
880.478	11870
880.605	11817
880.732	11843
880.859	11973
880.986	11764
881.112	11920
881.239	11817
881.366	11684
881.493	11573
881.619	11501
881.746	11528
881.872	11467
881.999	11505
882.125	11520
882.252	11638
882.378	11539
882.505	11566
882.631	11452
882.757	11258
882.883	11311
883.01	11250
883.136	11242
883.262	11143
883.388	11166
883.514	11174
883.64	11231
883.766	11216
883.892	11022
884.018	10991
884.143	11075
884.269	11143
884.395	10824
884.52	10809
884.646	10771
884.772	10683
884.897	10660
885.023	10729
885.148	10801
885.274	10782
885.399	10733
885.524	10675
885.65	10599
885.775	10630
885.9	10531
886.025	10592
886.15	10603
886.275	10421
886.4	10360
886.525	10440
886.65	10428
886.775	10394
886.9	10481
887.025	10538
887.149	10405
887.274	10204
887.399	10257
887.523	10200
887.648	10162
887.773	10131
887.897	10185
888.021	10265
888.146	10166
888.27	10181
888.395	10150
888.519	10105
888.643	10207
888.767	10242
888.891	10097
889.015	9987
889.139	10059
889.263	9953
889.387	10116
889.511	10109
889.635	10036
889.759	9994
889.883	10040
890.006	9968
890.13	10173
890.254	9945
890.377	10010
890.501	9804
890.624	9895
890.748	9827
890.871	9774
890.995	9759
891.118	9701
891.241	9743
891.364	9800
891.488	9854
891.611	9720
891.734	9778
891.857	9800
891.98	9759
892.103	9774
892.226	9671
892.349	9690
892.471	9511
892.594	9641
892.717	9614
892.839	9545
892.962	9564
893.085	9545
893.207	9580
893.33	9534
893.452	9504
893.575	9660
893.697	9488
893.819	9633
893.941	9591
894.064	9641
894.186	9428
894.308	9340
894.43	9549
894.552	9603
894.674	9542
894.796	9310
894.918	9450
895.04	9370
895.161	9359
895.283	9370
895.405	9325
895.526	9321
895.648	9272
895.769	9237
895.891	9233
896.012	9279
896.134	9214
896.255	9180
896.376	9100
896.498	9180
896.619	9131
896.74	9123
896.861	9146
896.982	9264
897.103	9359
897.224	9131
897.345	9085
897.466	9028
897.587	9020
897.708	9097
897.828	8994
897.949	8941
898.07	8914
898.19	8956
898.311	9020
898.431	8967
898.552	9017
898.672	8986
898.792	8967
898.913	8937
899.033	8857
899.153	8743
899.273	8670
899.393	8746
899.513	8739
899.633	8788
899.753	8758
899.873	8697
899.993	8739
900.113	8720
900.232	8712
900.352	8659
900.472	8617
900.591	8590
900.711	8632
900.83	8545
900.95	8701
901.069	8693
901.189	8560
901.308	8446
901.427	8389
901.546	8434
901.665	8488
901.784	8499
901.904	8457
902.023	8370
902.141	8290
902.26	8187
902.379	8225
902.498	8221
902.617	8252
902.735	8286
902.854	8290
902.973	8332
903.091	8115
903.21	8176
903.328	8164
903.446	8081
903.565	8073
903.683	8187
903.801	8058
903.919	8153
904.038	8138
904.156	8111
904.274	8149
904.392	8031
904.51	8077
904.627	8062
904.745	8149
904.863	8145
904.981	7913
905.098	7887
905.216	7902
905.334	7917
905.451	7913
905.569	7856
905.686	7909
905.803	7951
905.921	7776
906.038	7826
906.155	7826
906.272	7734
906.389	7746
906.506	7651
906.623	7712
906.74	7639
906.857	7518
906.974	7586
907.091	7647
907.208	7788
907.324	7601
907.441	7601
907.557	7460
907.674	7476
907.79	7403
907.907	7426
908.023	7453
908.139	7396
908.256	7441
908.372	7369
908.488	7400
908.604	7316
908.72	7270
908.836	7312
908.952	7358
909.068	7225
909.184	7301
909.3	7244
909.415	7369
909.531	7312
909.647	7156
909.762	7129
909.878	7103
909.993	7198
910.108	7141
910.224	7027
910.339	7171
910.454	7110
910.57	6989
910.685	6951
910.8	7126
910.915	7137
911.03	7019
911.145	6871
911.259	6890
911.374	6913
911.489	6852
911.604	6810
911.718	6795
911.833	6749
911.947	6646
912.062	6631
912.176	6757
912.291	6768
912.405	6696
912.519	6871
912.633	6810
912.748	6741
912.862	6692
912.976	6547
913.09	6544
913.204	6563
913.318	6669
913.431	6700
913.545	6642
913.659	6764
913.772	6650
913.886	6639
914	6528
914.113	6585
914.226	6646
914.34	6582
914.453	6513
914.566	6593
914.68	6521
914.793	6521
914.906	6350
915.019	6437
915.132	6388
915.245	6388
915.358	6445
915.47	6486
915.583	6494
915.696	6437
915.809	6574
915.921	6563
916.034	6452
916.146	6467
916.259	6353
916.371	6490
916.483	6460
916.595	6433
916.708	6399
916.82	6494
916.932	6399
917.044	6441
917.156	6410
917.268	6334
917.38	6388
917.491	6399
917.603	6376
917.715	6403
917.826	6399
917.938	6338
918.049	6247
918.161	6304
918.272	6433
918.384	6418
918.495	6342
918.606	6235
918.717	6251
918.828	6266
918.939	6281
919.05	6239
919.161	6254
919.272	6110
919.383	6159
919.494	6296
919.604	6414
919.715	6342
919.826	6220
919.936	6304
920.047	6361
920.157	6292
920.267	6521
920.378	6388
920.488	6285
920.598	6429
920.708	6593
920.818	6513
920.928	6513
921.038	6604
921.148	6627
921.258	6418
921.368	6247
921.477	6220
921.587	6117
921.697	6110
921.806	6258
921.916	6091
922.025	5958
922.134	5942
922.244	5897
922.353	5954
922.462	5866
922.571	5802
922.68	5684
922.789	5722
922.898	5703
923.007	5691
923.116	5714
923.224	5653
923.333	5611
923.442	5619
923.55	5596
923.659	5577
923.767	5638
923.876	5512
923.984	5562
924.092	5463
924.201	5589
924.309	5577
924.417	5535
924.525	5562
924.633	5516
924.741	6338
924.849	5360
924.956	5467
925.064	5322
925.172	5372
925.279	5288
925.387	5417
925.494	5379
925.602	5414
925.709	5402
925.816	5299
925.924	5318
926.031	5337
926.138	5299
926.245	5322
926.352	5242
926.459	5337
926.566	5326
926.673	5254
926.779	5113
926.886	5113
926.993	5041
927.099	4995
927.206	4991
927.312	4957
927.419	5045
927.525	5014
927.631	5003
927.737	4866
927.843	4877
927.95	4778
928.056	4824
928.162	4786
928.267	4858
928.373	5223
928.479	4915
928.585	4664
928.69	4774
928.796	4774
928.901	4691
929.007	4618
929.112	4763
929.218	4672
929.323	4637
929.428	4596
929.533	4645
929.638	4569
929.743	4523
929.848	4645
929.953	4508
930.058	4481
930.163	4390
930.267	4367
930.372	4443
930.477	4287
930.581	4500
930.685	4360
930.79	4265
930.894	4325
930.998	4257
931.103	4424
931.207	4173
931.311	4086
931.415	4078
931.519	3922
931.623	4025
