Data from glass_V78500241_1432.txt Node
Date: Wed Sep 01 19:24:25 CST 2021
User: usil
Spectrometer: V785-0024
Trigger mode: 0
Integration Time (sec): 4.000000E-1
Scans to average: 1
Nonlinearity correction enabled: false
Boxcar width: 0
Storing dark spectrum: false
XAxis mode: Wavelengths
Number of Pixels in Spectrum: 1024
>>>>>Begin Spectral Data<<<<<
801.071	3720
801.214	3759
801.356	3728
801.499	3755
801.641	3800
801.783	3774
801.926	3857
802.068	3838
802.211	3838
802.353	3861
802.496	3857
802.638	3903
802.78	3922
802.923	3934
803.065	3918
803.208	3842
803.35	3816
803.492	3911
803.635	3873
803.777	3827
803.919	3918
804.061	4150
804.204	3994
804.346	3975
804.488	3918
804.63	4025
804.773	3983
804.915	4010
805.057	4090
805.199	3998
805.341	4112
805.483	4147
805.626	4135
805.768	4097
805.91	4181
806.052	4181
806.194	4249
806.336	4352
806.478	4196
806.62	4150
806.762	4230
806.904	4284
807.046	4348
807.188	4219
807.33	4211
807.472	4249
807.614	4181
807.756	4234
807.898	4204
808.04	4207
808.182	4284
808.324	4367
808.465	4405
808.607	4470
808.749	4512
808.891	4489
809.033	4481
809.174	4379
809.316	4276
809.458	4287
809.6	4154
809.741	4162
809.883	4139
810.025	4268
810.166	4223
810.308	4257
810.45	4272
810.591	4238
810.733	4314
810.875	4535
811.016	4824
811.158	5105
811.299	5296
811.441	5246
811.582	5079
811.724	4653
811.865	4474
812.007	4466
812.148	4462
812.29	4421
812.431	4462
812.573	4432
812.714	4413
812.855	4375
812.997	4417
813.138	4508
813.279	4424
813.421	4436
813.562	4405
813.703	4314
813.845	4337
813.986	4249
814.127	4230
814.268	4268
814.41	4306
814.551	4295
814.692	4333
814.833	4291
814.974	4291
815.115	4344
815.256	4284
815.397	4219
815.539	4272
815.68	4223
815.821	4169
815.962	4310
816.103	4287
816.244	4284
816.385	4215
816.526	4276
816.666	4181
816.807	4082
816.948	4185
817.089	4185
817.23	4120
817.371	4059
817.512	4044
817.653	4029
817.793	3991
817.934	4101
818.075	4071
818.216	4116
818.356	4093
818.497	3998
818.638	3903
818.778	3915
818.919	3941
819.06	3850
819.2	3915
819.341	3865
819.481	3861
819.622	3896
819.762	3979
819.903	3915
820.043	3873
820.184	3819
820.324	3800
820.465	3896
820.605	3880
820.746	3846
820.886	3789
821.026	3915
821.167	3911
821.307	3975
821.447	3941
821.588	3972
821.728	3922
821.868	3930
822.008	3884
822.149	3888
822.289	3964
822.429	3747
822.569	3762
822.709	3816
822.849	3732
822.99	3736
823.13	3728
823.27	3804
823.41	3713
823.55	3720
823.69	3751
823.83	3770
823.97	3671
824.11	3614
824.25	3603
824.389	3644
824.529	3641
824.669	3644
824.809	3690
824.949	3732
825.089	3701
825.228	3728
825.368	3599
825.508	3561
825.648	3587
825.787	3614
825.927	3641
826.067	3625
826.206	3717
826.346	3797
826.485	3838
826.625	3873
826.765	3937
826.904	3835
827.044	3622
827.183	3530
827.323	3485
827.462	3462
827.601	3492
827.741	3405
827.88	3458
828.02	3386
828.159	3428
828.298	3450
828.437	3534
828.577	3504
828.716	3648
828.855	3473
828.994	3393
829.134	3382
829.273	3363
829.412	3374
829.551	3298
829.69	3374
829.829	3397
829.968	3542
830.107	3439
830.246	3428
830.385	3378
830.524	3348
830.663	3325
830.802	3264
830.941	3184
831.08	3211
831.219	3256
831.357	3294
831.496	3435
831.635	3211
831.774	3211
831.913	3214
832.051	3127
832.19	3142
832.329	3245
832.467	3116
832.606	3093
832.744	3169
832.883	3157
833.022	3211
833.16	3214
833.299	3336
833.437	3317
833.576	3363
833.714	3382
833.852	3466
833.991	3435
834.129	3485
834.267	3393
834.406	3370
834.544	3447
834.682	3488
834.821	3428
834.959	3545
835.097	3409
835.235	3519
835.373	3496
835.511	3504
835.65	3450
835.788	3492
835.926	3386
836.064	3389
836.202	3420
836.34	3568
836.478	3599
836.615	3614
836.753	3614
836.891	3614
837.029	3637
837.167	3595
837.305	3591
837.443	3534
837.58	3485
837.718	3599
837.856	3557
837.993	3519
838.131	3644
838.269	3587
838.406	3572
838.544	3587
838.681	3469
838.819	3435
838.956	3389
839.094	3409
839.231	3450
839.369	3473
839.506	3705
839.643	3595
839.781	3504
839.918	3488
840.055	3549
840.193	3492
840.33	3500
840.467	3568
840.604	3549
840.742	3774
840.879	3519
841.016	3576
841.153	3629
841.29	3747
841.427	3717
841.564	3720
841.701	3736
841.838	3713
841.975	3671
842.112	3701
842.249	3648
842.385	3686
842.522	3781
842.659	3679
842.796	3641
842.933	3667
843.069	3709
843.206	3724
843.343	3800
843.479	3812
843.616	3842
843.752	3663
843.889	3660
844.025	3842
844.162	3728
844.298	3873
844.435	3762
844.571	3774
844.708	3918
844.844	3964
844.98	4021
845.117	4010
845.253	3968
845.389	3880
845.525	3918
845.661	3972
845.798	3907
845.934	3987
846.07	3937
846.206	4071
846.342	4128
846.478	4063
846.614	3949
846.75	3888
846.886	3899
847.022	3979
847.158	3945
847.294	3994
847.429	4029
847.565	4002
847.701	4230
847.837	3888
847.972	3835
848.108	3972
848.244	4010
848.379	3899
848.515	3800
848.65	3804
848.786	3857
848.921	3854
849.057	3926
849.192	3907
849.328	3892
849.463	3850
849.598	3873
849.734	3876
849.869	3835
850.004	3823
850.14	3842
850.275	3793
850.41	3740
850.545	3762
850.68	3747
850.815	3797
850.95	3823
851.085	3903
851.22	3865
851.355	3835
851.49	3804
851.625	3800
851.76	3800
851.895	3770
852.03	3751
852.165	3800
852.299	3812
852.434	3911
852.569	3903
852.703	3873
852.838	3911
852.973	4002
853.107	4017
853.242	3911
853.376	3827
853.511	3774
853.645	3831
853.78	3994
853.914	3899
854.048	3911
854.183	3846
854.317	3941
854.451	4093
854.585	3945
854.72	3926
854.854	4032
854.988	3876
855.122	4021
855.256	3907
855.39	4010
855.524	4139
855.658	4097
855.792	4116
855.926	4116
856.06	4154
856.194	4219
856.327	4135
856.461	4135
856.595	4139
856.729	4150
856.862	4287
856.996	4246
857.13	4284
857.263	4329
857.397	4352
857.53	4291
857.664	4314
857.797	4402
857.931	4459
858.064	4383
858.197	4455
858.331	4371
858.464	4386
858.597	4371
858.731	4443
858.864	4436
858.997	4451
859.13	4531
859.263	4519
859.396	4538
859.529	4489
859.662	4523
859.795	4542
859.928	4592
860.061	4710
860.194	4748
860.327	4691
860.46	4653
860.592	4702
860.725	4805
860.858	4763
860.99	4710
861.123	4721
861.256	4733
861.388	4748
861.521	5299
861.653	4740
861.786	4702
861.918	4774
862.05	4801
862.183	4843
862.315	4908
862.447	4862
862.58	4885
862.712	4778
862.844	4763
862.976	4858
863.108	4858
863.24	5197
863.372	4824
863.504	4934
863.636	4858
863.768	4961
863.9	4953
864.032	4930
864.164	4953
864.296	5098
864.428	5083
864.559	5075
864.691	5064
864.823	5102
864.954	5124
865.086	5121
865.217	5140
865.349	5136
865.48	5159
865.612	5193
865.743	5292
865.875	5189
866.006	5197
866.137	5204
866.269	5235
866.4	5261
866.531	5235
866.662	5242
866.793	5280
866.924	5261
867.055	5368
867.186	5330
867.317	5311
867.448	5303
867.579	5402
867.71	5372
867.841	5349
867.972	5497
868.103	5444
868.233	5524
868.364	5474
868.495	5562
868.625	5672
868.756	5783
868.886	5695
869.017	5729
869.147	5855
869.278	5859
869.408	5859
869.539	5889
869.669	5942
869.799	5889
869.929	6053
870.06	5992
870.19	6144
870.32	6125
870.45	6247
870.58	6388
870.71	6422
870.84	6441
870.97	6407
871.1	6456
871.23	6646
871.36	6662
871.489	6639
871.619	6734
871.749	6821
871.879	6833
872.008	7042
872.138	6920
872.267	6993
872.397	7012
872.526	6985
872.656	7107
872.785	7232
872.915	7407
873.044	7502
873.173	7578
873.303	7571
873.432	7742
873.561	7890
873.69	7898
873.819	7993
873.948	8138
874.077	8248
874.206	8339
874.335	8457
874.464	8682
874.593	8857
874.722	8899
874.851	9173
874.979	9230
875.108	9378
875.237	9447
875.365	9488
875.494	9595
875.623	9865
875.751	9812
875.88	10032
876.008	10143
876.136	10276
876.265	10573
876.393	10675
876.521	10710
876.65	10801
876.778	10896
876.906	10938
877.034	11022
877.162	11181
877.29	11140
877.418	11299
877.546	11280
877.674	11433
877.802	11528
877.93	11539
878.058	11543
878.185	11543
878.313	11596
878.441	11824
878.568	11608
878.696	11836
878.824	11832
878.951	11847
879.079	11931
879.206	12121
879.333	12064
879.461	11935
879.588	12022
879.715	12087
879.842	12232
879.97	12026
880.097	11897
880.224	11961
880.351	11813
880.478	11878
880.605	11863
880.732	11813
880.859	12034
880.986	11794
881.112	11855
881.239	11707
881.366	11695
881.493	11714
881.619	11493
881.746	11657
881.872	11478
881.999	11478
882.125	11478
882.252	11543
882.378	11558
882.505	11551
882.631	11322
882.757	11254
882.883	11356
883.01	11269
883.136	11204
883.262	11174
883.388	11098
883.514	11250
883.64	11216
883.766	11098
883.892	11045
884.018	10972
884.143	10984
884.269	11067
884.395	10843
884.52	10767
884.646	10710
884.772	10698
884.897	10622
885.023	10691
885.148	10702
885.274	10778
885.399	10698
885.524	10603
885.65	10618
885.775	10546
885.9	10641
886.025	10611
886.15	10554
886.275	10474
886.4	10371
886.525	10447
886.65	10325
886.775	10291
886.9	10516
887.025	10516
887.149	10363
887.274	10253
887.399	10207
887.523	10150
887.648	10234
887.773	10131
887.897	10303
888.021	10299
888.146	10097
888.27	10192
888.395	10276
888.519	10200
888.643	10204
888.767	10265
888.891	10105
889.015	10059
889.139	10105
889.263	9922
889.387	10097
889.511	10036
889.635	9994
889.759	10010
889.883	10051
890.006	10010
890.13	10093
890.254	9937
890.377	10006
890.501	9892
890.624	9922
890.748	9865
890.871	9789
890.995	9762
891.118	9705
891.241	9762
891.364	9751
891.488	9827
891.611	9747
891.734	9682
891.857	9808
891.98	9766
892.103	9774
892.226	9762
892.349	9660
892.471	9511
892.594	9679
892.717	9614
892.839	9587
892.962	9656
893.085	9660
893.207	9633
893.33	9485
893.452	9507
893.575	9606
893.697	9435
893.819	9561
893.941	9614
894.064	9553
894.186	9378
894.308	9473
894.43	9538
894.552	9561
894.674	9538
894.796	9420
894.918	9374
895.04	9374
895.161	9351
895.283	9355
895.405	9283
895.526	9233
895.648	9264
895.769	9211
895.891	9302
896.012	9230
896.134	9173
896.255	9226
896.376	9142
896.498	9161
896.619	9161
896.74	9089
896.861	9135
896.982	9256
897.103	9279
897.224	9207
897.345	9085
897.466	8967
897.587	9036
897.708	9066
897.828	9047
897.949	8971
898.07	8830
898.19	8941
898.311	8975
898.431	8899
898.552	8887
898.672	8986
898.792	8948
898.913	8910
899.033	8830
899.153	8777
899.273	8640
899.393	8712
899.513	8769
899.633	8724
899.753	8724
899.873	8636
899.993	8781
900.113	8667
900.232	8648
900.352	8587
900.472	8606
900.591	8514
900.711	8598
900.83	8587
900.95	8659
901.069	8655
901.189	8629
901.308	8427
901.427	8366
901.546	8408
901.665	8438
901.784	8503
901.904	8419
902.023	8355
902.141	8218
902.26	8206
902.379	8202
902.498	8248
902.617	8202
902.735	8343
902.854	8267
902.973	8279
903.091	8153
903.21	8119
903.328	8206
903.446	8020
903.565	8123
903.683	8153
903.801	8001
903.919	8081
904.038	8161
904.156	8043
904.274	8065
904.392	8039
904.51	8050
904.627	8008
904.745	8096
904.863	8096
904.981	7894
905.098	7856
905.216	7833
905.334	7921
905.451	7898
905.569	7852
905.686	7917
905.803	7959
905.921	7864
906.038	7871
906.155	7837
906.272	7734
906.389	7753
906.506	7655
906.623	7624
906.74	7613
906.857	7601
906.974	7601
907.091	7696
907.208	7731
907.324	7647
907.441	7571
907.557	7499
907.674	7369
907.79	7426
907.907	7362
908.023	7445
908.139	7426
908.256	7426
908.372	7301
908.488	7369
908.604	7312
908.72	7266
908.836	7285
908.952	7270
909.068	7270
909.184	7335
909.3	7244
909.415	7320
909.531	7293
909.647	7145
909.762	7076
909.878	7099
909.993	7209
910.108	7122
910.224	7091
910.339	7099
910.454	7046
910.57	6985
910.685	6920
910.8	7187
910.915	7129
911.03	7050
911.145	6920
911.259	6878
911.374	6894
911.489	6818
911.604	6779
911.718	6696
911.833	6719
911.947	6684
912.062	6627
912.176	6688
912.291	6741
912.405	6673
912.519	6787
912.633	6798
912.748	6692
912.862	6741
912.976	6593
913.09	6513
913.204	6563
913.318	6597
913.431	6669
913.545	6688
913.659	6719
913.772	6642
913.886	6620
914	6604
914.113	6627
914.226	6707
914.34	6578
914.453	6513
914.566	6604
914.68	6502
914.793	6544
914.906	6471
915.019	6395
915.132	6464
915.245	6372
915.358	6384
915.47	6483
915.583	6437
915.696	6528
915.809	6467
915.921	6555
916.034	6448
916.146	6448
916.259	6384
916.371	6471
916.483	6410
916.595	6407
916.708	6361
916.82	6433
916.932	6388
917.044	6399
917.156	6353
917.268	6395
917.38	6315
917.491	6270
917.603	6292
917.715	6380
917.826	6399
917.938	6319
918.049	6266
918.161	6353
918.272	6418
918.384	6456
918.495	6372
918.606	6262
918.717	6182
918.828	6273
918.939	6346
919.05	6178
919.161	6239
919.272	6155
919.383	6186
919.494	6315
919.604	6407
919.715	6334
919.826	6228
919.936	6216
920.047	6346
920.157	6262
920.267	6395
920.378	6300
920.488	6251
920.598	6433
920.708	6574
920.818	6506
920.928	6513
921.038	6601
921.148	6544
921.258	6357
921.368	6331
921.477	6175
921.587	6175
921.697	6121
921.806	6224
921.916	6079
922.025	5950
922.134	5927
922.244	5824
922.353	5901
922.462	5832
922.571	5775
922.68	5707
922.789	5581
922.898	5707
923.007	5676
923.116	5741
923.224	5608
923.333	5764
923.442	5619
923.55	5535
923.659	5634
923.767	5657
923.876	5566
923.984	5608
924.092	5493
924.201	5600
924.309	5589
924.417	5566
924.525	5478
924.633	5524
924.741	6163
924.849	5379
924.956	5505
925.064	5391
925.172	5277
925.279	5288
925.387	5379
925.494	5322
925.602	5383
925.709	5357
925.816	5269
925.924	5376
926.031	5311
926.138	5318
926.245	5379
926.352	5227
926.459	5322
926.566	5322
926.673	5307
926.779	5140
926.886	5117
926.993	5014
927.099	4980
927.206	4946
927.312	4946
927.419	5014
927.525	4987
927.631	5025
927.737	4870
927.843	4892
927.95	4752
928.056	4839
928.162	4809
928.267	4816
928.373	5254
928.479	4850
928.585	4660
928.69	4767
928.796	4786
928.901	4683
929.007	4592
929.112	4660
929.218	4622
929.323	4569
929.428	4550
929.533	4687
929.638	4538
929.743	4565
929.848	4611
929.953	4478
930.058	4421
930.163	4356
930.267	4329
930.372	4462
930.477	4257
930.581	4451
930.685	4356
930.79	4276
930.894	4310
930.998	4253
931.103	4344
931.207	4143
931.311	4112
931.415	4021
931.519	3926
931.623	3964
