Data from glass_V78500241_2836.txt Node
Date: Wed Sep 01 19:34:09 CST 2021
User: usil
Spectrometer: V785-0024
Trigger mode: 0
Integration Time (sec): 4.000000E-1
Scans to average: 1
Nonlinearity correction enabled: false
Boxcar width: 0
Storing dark spectrum: false
XAxis mode: Wavelengths
Number of Pixels in Spectrum: 1024
>>>>>Begin Spectral Data<<<<<
801.071	3705
801.214	3781
801.356	3709
801.499	3709
801.641	3709
801.783	3781
801.926	3835
802.068	3774
802.211	3819
802.353	3880
802.496	3766
802.638	3808
802.78	3873
802.923	3907
803.065	3865
803.208	3819
803.35	3850
803.492	3869
803.635	3926
803.777	3789
803.919	3937
804.061	4158
804.204	3937
804.346	3911
804.488	3865
804.63	3994
804.773	3926
804.915	4010
805.057	4109
805.199	4055
805.341	4074
805.483	4135
805.626	4067
805.768	4105
805.91	4143
806.052	4234
806.194	4192
806.336	4337
806.478	4192
806.62	4150
806.762	4150
806.904	4207
807.046	4299
807.188	4169
807.33	4097
807.472	4211
807.614	4177
807.756	4242
807.898	4169
808.04	4150
808.182	4246
808.324	4287
808.465	4337
808.607	4462
808.749	4474
808.891	4432
809.033	4466
809.174	4405
809.316	4242
809.458	4230
809.6	4143
809.741	4109
809.883	4143
810.025	4177
810.166	4188
810.308	4181
810.45	4246
810.591	4242
810.733	4291
810.875	4478
811.016	4755
811.158	5159
811.299	5204
811.441	5254
811.582	5045
811.724	4706
811.865	4497
812.007	4417
812.148	4375
812.29	4383
812.431	4333
812.573	4360
812.714	4341
812.855	4386
812.997	4352
813.138	4504
813.279	4371
813.421	4363
813.562	4352
813.703	4310
813.845	4329
813.986	4242
814.127	4192
814.268	4181
814.41	4253
814.551	4219
814.692	4291
814.833	4261
814.974	4291
815.115	4314
815.256	4253
815.397	4223
815.539	4223
815.68	4234
815.821	4181
815.962	4318
816.103	4280
816.244	4227
816.385	4192
816.526	4219
816.666	4200
816.807	4044
816.948	4173
817.089	4158
817.23	4105
817.371	4071
817.512	4029
817.653	4006
817.793	4006
817.934	4010
818.075	4074
818.216	4029
818.356	4055
818.497	3994
818.638	3911
818.778	3854
818.919	3876
819.06	3873
819.2	3892
819.341	3835
819.481	3812
819.622	3861
819.762	4029
819.903	3983
820.043	3804
820.184	3797
820.324	3797
820.465	3850
820.605	3854
820.746	3846
820.886	3766
821.026	3892
821.167	3869
821.307	4010
821.447	3964
821.588	3953
821.728	3934
821.868	3926
822.008	3835
822.149	3949
822.289	3888
822.429	3724
822.569	3778
822.709	3751
822.849	3667
822.99	3686
823.13	3743
823.27	3743
823.41	3675
823.55	3705
823.69	3724
823.83	3778
823.97	3656
824.11	3599
824.25	3545
824.389	3603
824.529	3618
824.669	3572
824.809	3705
824.949	3724
825.089	3701
825.228	3720
825.368	3534
825.508	3538
825.648	3568
825.787	3530
825.927	3595
826.067	3580
826.206	3629
826.346	3770
826.485	3865
826.625	3854
826.765	3956
826.904	3819
827.044	3561
827.183	3492
827.323	3424
827.462	3454
827.601	3409
827.741	3420
827.88	3409
828.02	3332
828.159	3424
828.298	3469
828.437	3492
828.577	3420
828.716	3564
828.855	3485
828.994	3386
829.134	3374
829.273	3363
829.412	3306
829.551	3351
829.69	3325
829.829	3412
829.968	3507
830.107	3409
830.246	3416
830.385	3329
830.524	3344
830.663	3294
830.802	3245
830.941	3169
831.08	3161
831.219	3207
831.357	3291
831.496	3367
831.635	3173
831.774	3195
831.913	3195
832.051	3070
832.19	3131
832.329	3188
832.467	3119
832.606	3093
832.744	3180
832.883	3161
833.022	3195
833.16	3275
833.299	3287
833.437	3332
833.576	3325
833.714	3378
833.852	3420
833.991	3420
834.129	3443
834.267	3424
834.406	3382
834.544	3431
834.682	3397
834.821	3386
834.959	3568
835.097	3412
835.235	3568
835.373	3504
835.511	3492
835.65	3477
835.788	3454
835.926	3374
836.064	3336
836.202	3443
836.34	3538
836.478	3580
836.615	3545
836.753	3606
836.891	3595
837.029	3595
837.167	3549
837.305	3572
837.443	3485
837.58	3469
837.718	3599
837.856	3549
837.993	3496
838.131	3568
838.269	3542
838.406	3572
838.544	3564
838.681	3500
838.819	3450
838.956	3389
839.094	3351
839.231	3443
839.369	3561
839.506	3679
839.643	3595
839.781	3454
839.918	3447
840.055	3473
840.193	3530
840.33	3534
840.467	3542
840.604	3606
840.742	3766
840.879	3557
841.016	3538
841.153	3587
841.29	3759
841.427	3690
841.564	3701
841.701	3698
841.838	3698
841.975	3663
842.112	3705
842.249	3690
842.385	3576
842.522	3804
842.659	3690
842.796	3671
842.933	3667
843.069	3698
843.206	3701
843.343	3812
843.479	3743
843.616	3831
843.752	3671
843.889	3686
844.025	3800
844.162	3694
844.298	3831
844.435	3770
844.571	3800
844.708	3899
844.844	3975
844.98	3987
845.117	3994
845.253	3903
845.389	3854
845.525	3922
845.661	3945
845.798	3926
845.934	3998
846.07	3934
846.206	4040
846.342	4101
846.478	4071
846.614	3930
846.75	3896
846.886	3907
847.022	4017
847.158	3949
847.294	3960
847.429	3979
847.565	3949
847.701	4238
847.837	3869
847.972	3816
848.108	3934
848.244	3994
848.379	3850
848.515	3778
848.65	3812
848.786	3854
848.921	3819
849.057	3956
849.192	3911
849.328	3865
849.463	3876
849.598	3846
849.734	3896
849.869	3823
850.004	3736
850.14	3808
850.275	3751
850.41	3740
850.545	3751
850.68	3736
850.815	3770
850.95	3755
851.085	3934
851.22	3816
851.355	3781
851.49	3789
851.625	3751
851.76	3800
851.895	3732
852.03	3709
852.165	3816
852.299	3823
852.434	3861
852.569	3857
852.703	3842
852.838	3930
852.973	3953
853.107	3998
853.242	3880
853.376	3808
853.511	3759
853.645	3846
853.78	3968
853.914	3880
854.048	3876
854.183	3854
854.317	3880
854.451	4040
854.585	3922
854.72	3960
854.854	3953
854.988	3918
855.122	3983
855.256	3907
855.39	4071
855.524	4109
855.658	4040
855.792	4101
855.926	4188
856.06	4093
856.194	4181
856.327	4090
856.461	4131
856.595	4150
856.729	4166
856.862	4230
856.996	4185
857.13	4238
857.263	4276
857.397	4325
857.53	4276
857.664	4333
857.797	4386
857.931	4390
858.064	4402
858.197	4398
858.331	4394
858.464	4352
858.597	4363
858.731	4402
858.864	4432
858.997	4409
859.13	4504
859.263	4504
859.396	4580
859.529	4516
859.662	4470
859.795	4497
859.928	4550
860.061	4656
860.194	4706
860.327	4675
860.46	4626
860.592	4687
860.725	4714
860.858	4714
860.99	4694
861.123	4653
861.256	4687
861.388	4793
861.521	5223
861.653	4729
861.786	4664
861.918	4698
862.05	4759
862.183	4809
862.315	4896
862.447	4892
862.58	4862
862.712	4774
862.844	4717
862.976	4923
863.108	4824
863.24	5162
863.372	4854
863.504	4858
863.636	4828
863.768	4984
863.9	4995
864.032	4900
864.164	4866
864.296	5014
864.428	5064
864.559	5071
864.691	5083
864.823	5086
864.954	5090
865.086	5128
865.217	5159
865.349	5109
865.48	5162
865.612	5136
865.743	5265
865.875	5170
866.006	5178
866.137	5197
866.269	5223
866.4	5269
866.531	5212
866.662	5147
866.793	5269
866.924	5254
867.055	5368
867.186	5284
867.317	5307
867.448	5322
867.579	5364
867.71	5364
867.841	5353
867.972	5387
868.103	5448
868.233	5436
868.364	5486
868.495	5566
868.625	5668
868.756	5748
868.886	5668
869.017	5722
869.147	5836
869.278	5866
869.408	5847
869.539	5851
869.669	5912
869.799	5977
869.929	5980
870.06	5950
870.19	6117
870.32	6163
870.45	6254
870.58	6323
870.71	6353
870.84	6399
870.97	6357
871.1	6433
871.23	6650
871.36	6677
871.489	6646
871.619	6684
871.749	6776
871.879	6882
872.008	6954
872.138	6935
872.267	7000
872.397	6981
872.526	6996
872.656	7069
872.785	7152
872.915	7403
873.044	7495
873.173	7518
873.303	7685
873.432	7753
873.561	7871
873.69	7894
873.819	7967
873.948	8161
874.077	8161
874.206	8294
874.335	8423
874.464	8632
874.593	8777
874.722	8918
874.851	9043
874.979	9195
875.108	9233
875.237	9412
875.365	9496
875.494	9675
875.623	9865
875.751	9823
875.88	9964
876.008	10071
876.136	10261
876.265	10535
876.393	10729
876.521	10683
876.65	10797
876.778	10812
876.906	10938
877.034	11006
877.162	11147
877.29	11178
877.418	11326
877.546	11364
877.674	11429
877.802	11387
877.93	11543
878.058	11558
878.185	11490
878.313	11596
878.441	11737
878.568	11653
878.696	11798
878.824	11878
878.951	11954
879.079	12045
879.206	12079
879.333	12003
879.461	11984
879.588	12102
879.715	12022
879.842	12175
879.97	12026
880.097	11942
880.224	11904
880.351	11946
880.478	11855
880.605	11855
880.732	11779
880.859	11946
880.986	11912
881.112	11817
881.239	11661
881.366	11604
881.493	11691
881.619	11551
881.746	11566
881.872	11425
881.999	11558
882.125	11482
882.252	11467
882.378	11421
882.505	11611
882.631	11337
882.757	11277
882.883	11303
883.01	11223
883.136	11220
883.262	11083
883.388	11071
883.514	11162
883.64	11189
883.766	11025
883.892	11014
884.018	10961
884.143	11128
884.269	11113
884.395	10793
884.52	10824
884.646	10755
884.772	10618
884.897	10698
885.023	10733
885.148	10694
885.274	10854
885.399	10698
885.524	10664
885.65	10615
885.775	10561
885.9	10527
886.025	10611
886.15	10519
886.275	10478
886.4	10367
886.525	10394
886.65	10341
886.775	10379
886.9	10504
887.025	10592
887.149	10402
887.274	10207
887.399	10173
887.523	10173
887.648	10105
887.773	10143
887.897	10204
888.021	10162
888.146	10139
888.27	10227
888.395	10128
888.519	10192
888.643	10124
888.767	10211
888.891	10105
889.015	9960
889.139	10040
889.263	9930
889.387	10021
889.511	10139
889.635	10078
889.759	9945
889.883	9979
890.006	9892
890.13	10040
890.254	9934
890.377	9934
890.501	9835
890.624	9835
890.748	9892
890.871	9755
890.995	9755
891.118	9709
891.241	9717
891.364	9781
891.488	9785
891.611	9652
891.734	9747
891.857	9778
891.98	9660
892.103	9671
892.226	9682
892.349	9618
892.471	9526
892.594	9614
892.717	9496
892.839	9553
892.962	9542
893.085	9667
893.207	9553
893.33	9496
893.452	9519
893.575	9557
893.697	9538
893.819	9580
893.941	9572
894.064	9557
894.186	9397
894.308	9401
894.43	9454
894.552	9526
894.674	9504
894.796	9287
894.918	9340
895.04	9306
895.161	9344
895.283	9336
895.405	9222
895.526	9207
895.648	9241
895.769	9226
895.891	9245
896.012	9302
896.134	9131
896.255	9131
896.376	9180
896.498	9097
896.619	9047
896.74	9020
896.861	9100
896.982	9188
897.103	9302
897.224	9131
897.345	9062
897.466	8982
897.587	8982
897.708	9058
897.828	8963
897.949	8902
898.07	8830
898.19	8925
898.311	8971
898.431	8880
898.552	8902
898.672	8849
898.792	8906
898.913	8861
899.033	8811
899.153	8758
899.273	8625
899.393	8693
899.513	8750
899.633	8693
899.753	8697
899.873	8655
899.993	8762
900.113	8701
900.232	8674
900.352	8659
900.472	8594
900.591	8530
900.711	8537
900.83	8511
900.95	8682
901.069	8644
901.189	8602
901.308	8385
901.427	8332
901.546	8427
901.665	8434
901.784	8427
901.904	8377
902.023	8347
902.141	8210
902.26	8225
902.379	8256
902.498	8244
902.617	8153
902.735	8279
902.854	8248
902.973	8233
903.091	8145
903.21	8111
903.328	8107
903.446	8081
903.565	8092
903.683	8050
903.801	8050
903.919	8035
904.038	8092
904.156	8012
904.274	8054
904.392	7974
904.51	7993
904.627	7993
904.745	8077
904.863	8092
904.981	7879
905.098	7811
905.216	7860
905.334	7852
905.451	7841
905.569	7894
905.686	7917
905.803	7837
905.921	7784
906.038	7917
906.155	7761
906.272	7704
906.389	7666
906.506	7624
906.623	7586
906.74	7548
906.857	7594
906.974	7578
907.091	7616
907.208	7677
907.324	7609
907.441	7624
907.557	7434
907.674	7411
907.79	7369
907.907	7415
908.023	7419
908.139	7388
908.256	7400
908.372	7400
908.488	7301
908.604	7289
908.72	7209
908.836	7244
908.952	7183
909.068	7274
909.184	7259
909.3	7232
909.415	7285
909.531	7312
909.647	7103
909.762	7080
909.878	7069
909.993	7069
910.108	7091
910.224	7050
910.339	7095
910.454	6985
910.57	6951
910.685	6966
910.8	7129
910.915	7088
911.03	6970
911.145	6916
911.259	6901
911.374	6821
911.489	6768
911.604	6837
911.718	6745
911.833	6711
911.947	6646
912.062	6521
912.176	6700
912.291	6700
912.405	6646
912.519	6787
912.633	6795
912.748	6681
912.862	6760
912.976	6665
913.09	6540
913.204	6578
913.318	6563
913.431	6662
913.545	6623
913.659	6673
913.772	6654
913.886	6494
914	6502
914.113	6582
914.226	6620
914.34	6593
914.453	6490
914.566	6612
914.68	6555
914.793	6544
914.906	6399
915.019	6334
915.132	6331
915.245	6407
915.358	6426
915.47	6403
915.583	6467
915.696	6483
915.809	6509
915.921	6486
916.034	6376
916.146	6380
916.259	6327
916.371	6399
916.483	6452
916.595	6380
916.708	6365
916.82	6350
916.932	6361
917.044	6369
917.156	6296
917.268	6331
917.38	6300
917.491	6327
917.603	6331
917.715	6369
917.826	6369
917.938	6239
918.049	6254
918.161	6346
918.272	6422
918.384	6437
918.495	6311
918.606	6201
918.717	6133
918.828	6258
918.939	6239
919.05	6140
919.161	6273
919.272	6087
919.383	6106
919.494	6296
919.604	6369
919.715	6194
919.826	6129
919.936	6201
920.047	6308
920.157	6239
920.267	6372
920.378	6289
920.488	6266
920.598	6384
920.708	6532
920.818	6452
920.928	6456
921.038	6612
921.148	6494
921.258	6300
921.368	6285
921.477	6220
921.587	6136
921.697	6049
921.806	6175
921.916	6045
922.025	5912
922.134	5878
922.244	5863
922.353	5923
922.462	5859
922.571	5786
922.68	5710
922.789	5688
922.898	5714
923.007	5668
923.116	5665
923.224	5672
923.333	5642
923.442	5596
923.55	5509
923.659	5581
923.767	5661
923.876	5539
923.984	5608
924.092	5505
924.201	5543
924.309	5524
924.417	5524
924.525	5467
924.633	5478
924.741	6262
924.849	5368
924.956	5474
925.064	5364
925.172	5303
925.279	5284
925.387	5315
925.494	5273
925.602	5387
925.709	5425
925.816	5250
925.924	5273
926.031	5376
926.138	5261
926.245	5311
926.352	5193
926.459	5273
926.566	5269
926.673	5204
926.779	5105
926.886	5071
926.993	5014
927.099	4972
927.206	4972
927.312	4911
927.419	5014
927.525	4942
927.631	4934
927.737	4900
927.843	4831
927.95	4759
928.056	4805
928.162	4824
928.267	4782
928.373	5250
928.479	4816
928.585	4683
928.69	4824
928.796	4763
928.901	4691
929.007	4577
929.112	4645
929.218	4622
929.323	4565
929.428	4550
929.533	4630
929.638	4455
929.743	4481
929.848	4538
929.953	4504
930.058	4447
930.163	4284
930.267	4337
930.372	4383
930.477	4268
930.581	4462
930.685	4306
930.79	4242
930.894	4257
930.998	4257
931.103	4333
931.207	4093
931.311	4082
931.415	4040
931.519	3880
931.623	3964
