Data from glass_V78500241_1097.txt Node
Date: Wed Sep 01 19:22:06 CST 2021
User: usil
Spectrometer: V785-0024
Trigger mode: 0
Integration Time (sec): 4.000000E-1
Scans to average: 1
Nonlinearity correction enabled: false
Boxcar width: 0
Storing dark spectrum: false
XAxis mode: Wavelengths
Number of Pixels in Spectrum: 1024
>>>>>Begin Spectral Data<<<<<
801.071	3740
801.214	3759
801.356	3736
801.499	3781
801.641	3724
801.783	3766
801.926	3873
802.068	3819
802.211	3827
802.353	3911
802.496	3838
802.638	3911
802.78	3896
802.923	3953
803.065	3899
803.208	3899
803.35	3899
803.492	3964
803.635	3903
803.777	3842
803.919	3941
804.061	4162
804.204	3987
804.346	3972
804.488	3949
804.63	4082
804.773	3975
804.915	4025
805.057	4204
805.199	4048
805.341	4135
805.483	4135
805.626	4147
805.768	4158
805.91	4246
806.052	4207
806.194	4242
806.336	4348
806.478	4227
806.62	4207
806.762	4204
806.904	4227
807.046	4341
807.188	4249
807.33	4204
807.472	4234
807.614	4192
807.756	4261
807.898	4219
808.04	4238
808.182	4287
808.324	4337
808.465	4348
808.607	4497
808.749	4466
808.891	4481
809.033	4523
809.174	4398
809.316	4337
809.458	4272
809.6	4169
809.741	4120
809.883	4131
810.025	4211
810.166	4177
810.308	4230
810.45	4211
810.591	4230
810.733	4299
810.875	4516
811.016	4858
811.158	5155
811.299	5315
811.441	5250
811.582	5113
811.724	4683
811.865	4500
812.007	4421
812.148	4428
812.29	4409
812.431	4451
812.573	4405
812.714	4348
812.855	4432
812.997	4424
813.138	4459
813.279	4440
813.421	4379
813.562	4436
813.703	4341
813.845	4367
813.986	4192
814.127	4249
814.268	4276
814.41	4295
814.551	4253
814.692	4341
814.833	4257
814.974	4352
815.115	4344
815.256	4253
815.397	4246
815.539	4261
815.68	4223
815.821	4173
815.962	4314
816.103	4276
816.244	4227
816.385	4238
816.526	4291
816.666	4196
816.807	4112
816.948	4177
817.089	4154
817.23	4120
817.371	4063
817.512	4048
817.653	4059
817.793	4036
817.934	4029
818.075	4116
818.216	4074
818.356	4086
818.497	3991
818.638	3918
818.778	3922
818.919	3857
819.06	3861
819.2	3934
819.341	3857
819.481	3869
819.622	3945
819.762	3991
819.903	3972
820.043	3846
820.184	3857
820.324	3819
820.465	3911
820.605	3873
820.746	3876
820.886	3812
821.026	3930
821.167	3945
821.307	3975
821.447	3994
821.588	3926
821.728	3998
821.868	3983
822.008	3949
822.149	3915
822.289	3907
822.429	3781
822.569	3785
822.709	3850
822.849	3728
822.99	3762
823.13	3762
823.27	3774
823.41	3717
823.55	3743
823.69	3762
823.83	3736
823.97	3705
824.11	3591
824.25	3622
824.389	3663
824.529	3698
824.669	3625
824.809	3717
824.949	3778
825.089	3736
825.228	3720
825.368	3637
825.508	3568
825.648	3580
825.787	3595
825.927	3648
826.067	3599
826.206	3705
826.346	3781
826.485	3781
826.625	3865
826.765	3960
826.904	3850
827.044	3633
827.183	3568
827.323	3469
827.462	3523
827.601	3439
827.741	3416
827.88	3428
828.02	3370
828.159	3439
828.298	3504
828.437	3507
828.577	3481
828.716	3637
828.855	3492
828.994	3405
829.134	3378
829.273	3405
829.412	3351
829.551	3336
829.69	3348
829.829	3428
829.968	3542
830.107	3443
830.246	3439
830.385	3409
830.524	3348
830.663	3298
830.802	3237
830.941	3222
831.08	3218
831.219	3256
831.357	3272
831.496	3409
831.635	3214
831.774	3195
831.913	3165
832.051	3112
832.19	3173
832.329	3207
832.467	3199
832.606	3173
832.744	3173
832.883	3180
833.022	3226
833.16	3272
833.299	3283
833.437	3325
833.576	3329
833.714	3412
833.852	3439
833.991	3504
834.129	3466
834.267	3473
834.406	3416
834.544	3416
834.682	3443
834.821	3424
834.959	3618
835.097	3420
835.235	3538
835.373	3492
835.511	3538
835.65	3462
835.788	3504
835.926	3416
836.064	3412
836.202	3393
836.34	3599
836.478	3629
836.615	3519
836.753	3595
836.891	3656
837.029	3656
837.167	3614
837.305	3584
837.443	3553
837.58	3488
837.718	3606
837.856	3561
837.993	3561
838.131	3625
838.269	3576
838.406	3561
838.544	3561
838.681	3454
838.819	3454
838.956	3340
839.094	3397
839.231	3485
839.369	3519
839.506	3770
839.643	3644
839.781	3492
839.918	3485
840.055	3530
840.193	3553
840.33	3534
840.467	3545
840.604	3614
840.742	3812
840.879	3576
841.016	3542
841.153	3644
841.29	3740
841.427	3736
841.564	3728
841.701	3797
841.838	3701
841.975	3663
842.112	3717
842.249	3610
842.385	3606
842.522	3869
842.659	3656
842.796	3709
842.933	3724
843.069	3720
843.206	3694
843.343	3835
843.479	3835
843.616	3857
843.752	3660
843.889	3679
844.025	3865
844.162	3709
844.298	3854
844.435	3819
844.571	3778
844.708	3937
844.844	4021
844.98	4029
845.117	3998
845.253	3953
845.389	3922
845.525	3979
845.661	3994
845.798	3964
845.934	4021
846.07	3960
846.206	4010
846.342	4135
846.478	4044
846.614	3994
846.75	3907
846.886	3937
847.022	4025
847.158	3953
847.294	4021
847.429	4074
847.565	4032
847.701	4284
847.837	3884
847.972	3876
848.108	3956
848.244	4029
848.379	3880
848.515	3819
848.65	3831
848.786	3835
848.921	3899
849.057	3934
849.192	3941
849.328	3896
849.463	3903
849.598	3937
849.734	3888
849.869	3823
850.004	3808
850.14	3857
850.275	3793
850.41	3770
850.545	3793
850.68	3770
850.815	3789
850.95	3808
851.085	3934
851.22	3915
851.355	3861
851.49	3819
851.625	3823
851.76	3797
851.895	3717
852.03	3762
852.165	3800
852.299	3880
852.434	3873
852.569	3899
852.703	3937
852.838	3896
852.973	4010
853.107	3998
853.242	3899
853.376	3846
853.511	3819
853.645	3865
853.78	3960
853.914	3907
854.048	3934
854.183	3880
854.317	3975
854.451	4135
854.585	3915
854.72	3941
854.854	4059
854.988	3937
855.122	3998
855.256	3949
855.39	4048
855.524	4158
855.658	4124
855.792	4093
855.926	4135
856.06	4154
856.194	4249
856.327	4101
856.461	4162
856.595	4166
856.729	4215
856.862	4284
856.996	4246
857.13	4303
857.263	4325
857.397	4352
857.53	4314
857.664	4329
857.797	4405
857.931	4432
858.064	4409
858.197	4485
858.331	4417
858.464	4352
858.597	4348
858.731	4485
858.864	4462
858.997	4474
859.13	4523
859.263	4538
859.396	4531
859.529	4523
859.662	4535
859.795	4535
859.928	4653
860.061	4736
860.194	4797
860.327	4664
860.46	4668
860.592	4733
860.725	4752
860.858	4767
860.99	4710
861.123	4656
861.256	4744
861.388	4767
861.521	5414
861.653	4668
861.786	4717
861.918	4797
862.05	4828
862.183	4839
862.315	4900
862.447	5003
862.58	4961
862.712	4812
862.844	4793
862.976	4976
863.108	4942
863.24	5159
863.372	4877
863.504	4904
863.636	4889
863.768	5006
863.9	4987
864.032	4915
864.164	4987
864.296	5025
864.428	5113
864.559	5109
864.691	5121
864.823	5090
864.954	5136
865.086	5193
865.217	5223
865.349	5113
865.48	5117
865.612	5174
865.743	5288
865.875	5223
866.006	5189
866.137	5223
866.269	5250
866.4	5269
866.531	5246
866.662	5273
866.793	5216
866.924	5307
867.055	5311
867.186	5406
867.317	5364
867.448	5376
867.579	5368
867.71	5421
867.841	5395
867.972	5448
868.103	5471
868.233	5528
868.364	5482
868.495	5505
868.625	5718
868.756	5779
868.886	5661
869.017	5726
869.147	5863
869.278	5901
869.408	5817
869.539	5824
869.669	5855
869.799	5904
869.929	5969
870.06	6003
870.19	6175
870.32	6213
870.45	6235
870.58	6304
870.71	6452
870.84	6502
870.97	6441
871.1	6479
871.23	6589
871.36	6707
871.489	6654
871.619	6768
871.749	6779
871.879	6894
872.008	7000
872.138	7004
872.267	7027
872.397	6958
872.526	7050
872.656	7057
872.785	7247
872.915	7384
873.044	7491
873.173	7559
873.303	7647
873.432	7765
873.561	7875
873.69	7875
873.819	8077
873.948	8176
874.077	8244
874.206	8347
874.335	8438
874.464	8674
874.593	8838
874.722	8941
874.851	9116
874.979	9253
875.108	9348
875.237	9462
875.365	9507
875.494	9652
875.623	9857
875.751	9804
875.88	9972
876.008	10154
876.136	10249
876.265	10527
876.393	10649
876.521	10744
876.65	10847
876.778	10839
876.906	10927
877.034	10976
877.162	11094
877.29	11189
877.418	11303
877.546	11376
877.674	11505
877.802	11482
877.93	11547
878.058	11539
878.185	11589
878.313	11676
878.441	11783
878.568	11745
878.696	11786
878.824	11828
878.951	12007
879.079	11980
879.206	12068
879.333	12034
879.461	11950
879.588	12076
879.715	12068
879.842	12289
879.97	12030
880.097	11851
880.224	11897
880.351	11889
880.478	11882
880.605	11863
880.732	11874
880.859	12098
880.986	11798
881.112	11874
881.239	11684
881.366	11646
881.493	11558
881.619	11562
881.746	11589
881.872	11524
881.999	11573
882.125	11493
882.252	11486
882.378	11486
882.505	11573
882.631	11356
882.757	11326
882.883	11360
883.01	11326
883.136	11109
883.262	11121
883.388	11109
883.514	11170
883.64	11162
883.766	11060
883.892	11025
884.018	10980
884.143	11102
884.269	11140
884.395	10847
884.52	10835
884.646	10812
884.772	10687
884.897	10668
885.023	10714
885.148	10809
885.274	10771
885.399	10702
885.524	10645
885.65	10561
885.775	10675
885.9	10580
886.025	10645
886.15	10615
886.275	10512
886.4	10394
886.525	10421
886.65	10314
886.775	10367
886.9	10493
887.025	10546
887.149	10379
887.274	10268
887.399	10268
887.523	10177
887.648	10158
887.773	10002
887.897	10284
888.021	10299
888.146	10158
888.27	10306
888.395	10234
888.519	10219
888.643	10150
888.767	10215
888.891	10124
889.015	10071
889.139	10067
889.263	10010
889.387	10074
889.511	10150
889.635	10120
889.759	9956
889.883	9979
890.006	10017
890.13	10097
890.254	9911
890.377	10017
890.501	9854
890.624	9915
890.748	9915
890.871	9808
890.995	9766
891.118	9800
891.241	9785
891.364	9797
891.488	9873
891.611	9781
891.734	9751
891.857	9755
891.98	9743
892.103	9759
892.226	9819
892.349	9610
892.471	9542
892.594	9629
892.717	9675
892.839	9561
892.962	9610
893.085	9641
893.207	9481
893.33	9587
893.452	9564
893.575	9656
893.697	9523
893.819	9618
893.941	9622
894.064	9663
894.186	9485
894.308	9469
894.43	9492
894.552	9561
894.674	9507
894.796	9351
894.918	9408
895.04	9359
895.161	9439
895.283	9367
895.405	9237
895.526	9226
895.648	9310
895.769	9180
895.891	9237
896.012	9317
896.134	9256
896.255	9207
896.376	9138
896.498	9180
896.619	9131
896.74	9131
896.861	9123
896.982	9241
897.103	9287
897.224	9184
897.345	9055
897.466	8960
897.587	9051
897.708	9119
897.828	9043
897.949	8948
898.07	8842
898.19	8899
898.311	8971
898.431	8880
898.552	8910
898.672	9047
898.792	8849
898.913	8933
899.033	8834
899.153	8823
899.273	8689
899.393	8796
899.513	8746
899.633	8697
899.753	8712
899.873	8674
899.993	8727
900.113	8739
900.232	8746
900.352	8648
900.472	8625
900.591	8583
900.711	8640
900.83	8590
900.95	8632
901.069	8773
901.189	8625
901.308	8381
901.427	8454
901.546	8404
901.665	8488
901.784	8522
901.904	8408
902.023	8351
902.141	8225
902.26	8221
902.379	8183
902.498	8221
902.617	8237
902.735	8275
902.854	8305
902.973	8248
903.091	8172
903.21	8157
903.328	8214
903.446	8092
903.565	8142
903.683	8142
903.801	8119
903.919	8168
904.038	8187
904.156	8046
904.274	8134
904.392	8069
904.51	8046
904.627	8027
904.745	8149
904.863	8138
904.981	8012
905.098	7860
905.216	7875
905.334	7921
905.451	7940
905.569	7830
905.686	7982
905.803	7917
905.921	7792
906.038	7837
906.155	7738
906.272	7727
906.389	7769
906.506	7700
906.623	7620
906.74	7624
906.857	7563
906.974	7582
907.091	7628
907.208	7693
907.324	7662
907.441	7556
907.557	7537
907.674	7396
907.79	7419
907.907	7483
908.023	7415
908.139	7434
908.256	7411
908.372	7373
908.488	7331
908.604	7282
908.72	7225
908.836	7293
908.952	7244
909.068	7236
909.184	7343
909.3	7411
909.415	7331
909.531	7327
909.647	7103
909.762	7088
909.878	7145
909.993	7145
910.108	7114
910.224	7122
910.339	7107
910.454	7023
910.57	7065
910.685	7000
910.8	7133
910.915	7080
911.03	7072
911.145	6867
911.259	6897
911.374	6901
911.489	6814
911.604	6859
911.718	6734
911.833	6738
911.947	6623
912.062	6658
912.176	6726
912.291	6700
912.405	6722
912.519	6806
912.633	6920
912.748	6734
912.862	6669
912.976	6642
913.09	6513
913.204	6627
913.318	6631
913.431	6662
913.545	6734
913.659	6772
913.772	6612
913.886	6582
914	6547
914.113	6623
914.226	6662
914.34	6601
914.453	6498
914.566	6620
914.68	6559
914.793	6551
914.906	6441
915.019	6456
915.132	6357
915.245	6448
915.358	6448
915.47	6414
915.583	6445
915.696	6471
915.809	6525
915.921	6517
916.034	6410
916.146	6429
916.259	6380
916.371	6486
916.483	6471
916.595	6380
916.708	6338
916.82	6403
916.932	6414
917.044	6448
917.156	6331
917.268	6331
917.38	6399
917.491	6281
917.603	6361
917.715	6399
917.826	6372
917.938	6357
918.049	6258
918.161	6342
918.272	6441
918.384	6429
918.495	6452
918.606	6270
918.717	6201
918.828	6213
918.939	6334
919.05	6197
919.161	6292
919.272	6114
919.383	6182
919.494	6353
919.604	6391
919.715	6365
919.826	6228
919.936	6213
920.047	6327
920.157	6308
920.267	6460
920.378	6365
920.488	6365
920.598	6494
920.708	6506
920.818	6433
920.928	6502
921.038	6559
921.148	6589
921.258	6365
921.368	6251
921.477	6232
921.587	6186
921.697	6102
921.806	6224
921.916	6095
922.025	5946
922.134	5901
922.244	5851
922.353	5977
922.462	5855
922.571	5771
922.68	5748
922.789	5722
922.898	5745
923.007	5642
923.116	5798
923.224	5676
923.333	5695
923.442	5649
923.55	5554
923.659	5547
923.767	5589
923.876	5528
923.984	5566
924.092	5570
924.201	5551
924.309	5566
924.417	5562
924.525	5516
924.633	5512
924.741	6292
924.849	5322
924.956	5455
925.064	5376
925.172	5296
925.279	5277
925.387	5349
925.494	5364
925.602	5414
925.709	5398
925.816	5288
925.924	5395
926.031	5349
926.138	5303
926.245	5368
926.352	5220
926.459	5334
926.566	5292
926.673	5193
926.779	5117
926.886	5151
926.993	5045
927.099	4984
927.206	5006
927.312	4999
927.419	5022
927.525	5037
927.631	4987
927.737	4949
927.843	4866
927.95	4744
928.056	4816
928.162	4850
928.267	4862
928.373	5345
928.479	4862
928.585	4683
928.69	4767
928.796	4824
928.901	4691
929.007	4649
929.112	4691
929.218	4679
929.323	4611
929.428	4558
929.533	4694
929.638	4535
929.743	4538
929.848	4561
929.953	4527
930.058	4455
930.163	4367
930.267	4344
930.372	4417
930.477	4344
930.581	4481
930.685	4379
930.79	4238
930.894	4287
930.998	4219
931.103	4363
931.207	4131
931.311	4109
931.415	4048
931.519	3945
931.623	3911
