Data from glass_V78500241_2111.txt Node
Date: Wed Sep 01 19:29:08 CST 2021
User: usil
Spectrometer: V785-0024
Trigger mode: 0
Integration Time (sec): 4.000000E-1
Scans to average: 1
Nonlinearity correction enabled: false
Boxcar width: 0
Storing dark spectrum: false
XAxis mode: Wavelengths
Number of Pixels in Spectrum: 1024
>>>>>Begin Spectral Data<<<<<
801.071	3751
801.214	3747
801.356	3698
801.499	3720
801.641	3747
801.783	3785
801.926	3869
802.068	3800
802.211	3857
802.353	3876
802.496	3835
802.638	3846
802.78	3876
802.923	3903
803.065	3857
803.208	3880
803.35	3873
803.492	3857
803.635	3899
803.777	3800
803.919	3922
804.061	4154
804.204	3907
804.346	3922
804.488	3926
804.63	4010
804.773	3975
804.915	4017
805.057	4162
805.199	4051
805.341	4051
805.483	4131
805.626	4169
805.768	4154
805.91	4196
806.052	4246
806.194	4173
806.336	4371
806.478	4204
806.62	4166
806.762	4173
806.904	4276
807.046	4329
807.188	4215
807.33	4139
807.472	4257
807.614	4181
807.756	4287
807.898	4177
808.04	4234
808.182	4268
808.324	4344
808.465	4371
808.607	4462
808.749	4470
808.891	4447
809.033	4455
809.174	4390
809.316	4253
809.458	4238
809.6	4143
809.741	4162
809.883	4173
810.025	4173
810.166	4215
810.308	4200
810.45	4238
810.591	4238
810.733	4249
810.875	4516
811.016	4793
811.158	5151
811.299	5273
811.441	5273
811.582	5064
811.724	4740
811.865	4432
812.007	4451
812.148	4451
812.29	4405
812.431	4413
812.573	4421
812.714	4367
812.855	4390
812.997	4417
813.138	4523
813.279	4405
813.421	4329
813.562	4390
813.703	4284
813.845	4314
813.986	4318
814.127	4238
814.268	4325
814.41	4295
814.551	4196
814.692	4344
814.833	4238
814.974	4276
815.115	4299
815.256	4234
815.397	4287
815.539	4261
815.68	4196
815.821	4219
815.962	4352
816.103	4295
816.244	4227
816.385	4204
816.526	4287
816.666	4196
816.807	4154
816.948	4135
817.089	4169
817.23	4116
817.371	4048
817.512	4021
817.653	4067
817.793	4032
817.934	4059
818.075	4063
818.216	4086
818.356	4090
818.497	4002
818.638	3876
818.778	3903
818.919	3899
819.06	3888
819.2	3873
819.341	3850
819.481	3842
819.622	3880
819.762	4025
819.903	3937
820.043	3827
820.184	3808
820.324	3808
820.465	3899
820.605	3838
820.746	3850
820.886	3793
821.026	3941
821.167	3941
821.307	3987
821.447	3956
821.588	3926
821.728	3949
821.868	3934
822.008	3876
822.149	3888
822.289	3922
822.429	3804
822.569	3755
822.709	3781
822.849	3701
822.99	3709
823.13	3774
823.27	3778
823.41	3720
823.55	3720
823.69	3686
823.83	3762
823.97	3637
824.11	3637
824.25	3606
824.389	3610
824.529	3637
824.669	3591
824.809	3660
824.949	3793
825.089	3743
825.228	3686
825.368	3580
825.508	3526
825.648	3557
825.787	3622
825.927	3675
826.067	3603
826.206	3629
826.346	3797
826.485	3876
826.625	3831
826.765	3953
826.904	3823
827.044	3606
827.183	3511
827.323	3443
827.462	3450
827.601	3447
827.741	3412
827.88	3481
828.02	3382
828.159	3454
828.298	3530
828.437	3526
828.577	3481
828.716	3591
828.855	3473
828.994	3355
829.134	3397
829.273	3359
829.412	3325
829.551	3370
829.69	3355
829.829	3428
829.968	3500
830.107	3443
830.246	3462
830.385	3382
830.524	3359
830.663	3291
830.802	3268
830.941	3214
831.08	3211
831.219	3249
831.357	3264
831.496	3405
831.635	3241
831.774	3165
831.913	3138
832.051	3097
832.19	3131
832.329	3218
832.467	3161
832.606	3085
832.744	3161
832.883	3135
833.022	3180
833.16	3253
833.299	3298
833.437	3313
833.576	3389
833.714	3424
833.852	3428
833.991	3401
834.129	3431
834.267	3443
834.406	3378
834.544	3393
834.682	3431
834.821	3412
834.959	3591
835.097	3443
835.235	3564
835.373	3485
835.511	3431
835.65	3477
835.788	3477
835.926	3397
836.064	3332
836.202	3424
836.34	3549
836.478	3584
836.615	3523
836.753	3633
836.891	3595
837.029	3614
837.167	3584
837.305	3557
837.443	3488
837.58	3530
837.718	3622
837.856	3549
837.993	3511
838.131	3622
838.269	3568
838.406	3549
838.544	3576
838.681	3424
838.819	3458
838.956	3355
839.094	3382
839.231	3462
839.369	3481
839.506	3736
839.643	3637
839.781	3477
839.918	3454
840.055	3462
840.193	3542
840.33	3530
840.467	3542
840.604	3576
840.742	3827
840.879	3538
841.016	3587
841.153	3587
841.29	3724
841.427	3747
841.564	3701
841.701	3759
841.838	3682
841.975	3618
842.112	3698
842.249	3606
842.385	3595
842.522	3816
842.659	3667
842.796	3698
842.933	3720
843.069	3709
843.206	3660
843.343	3823
843.479	3774
843.616	3804
843.752	3667
843.889	3701
844.025	3850
844.162	3717
844.298	3812
844.435	3789
844.571	3770
844.708	3873
844.844	4025
844.98	4055
845.117	3945
845.253	3911
845.389	3892
845.525	3956
845.661	3953
845.798	3896
845.934	3975
846.07	3964
846.206	4048
846.342	4097
846.478	4071
846.614	3964
846.75	3922
846.886	3930
847.022	4051
847.158	3968
847.294	4017
847.429	4029
847.565	4010
847.701	4227
847.837	3888
847.972	3884
848.108	3983
848.244	3983
848.379	3831
848.515	3789
848.65	3831
848.786	3808
848.921	3869
849.057	3937
849.192	3911
849.328	3953
849.463	3953
849.598	3892
849.734	3857
849.869	3850
850.004	3762
850.14	3854
850.275	3762
850.41	3774
850.545	3762
850.68	3755
850.815	3812
850.95	3770
851.085	3930
851.22	3842
851.355	3812
851.49	3751
851.625	3720
851.76	3812
851.895	3774
852.03	3759
852.165	3827
852.299	3842
852.434	3915
852.569	3846
852.703	3861
852.838	3907
852.973	3960
853.107	4010
853.242	3888
853.376	3838
853.511	3781
853.645	3846
853.78	4010
853.914	3930
854.048	3896
854.183	3888
854.317	3941
854.451	4040
854.585	3945
854.72	3934
854.854	4021
854.988	3918
855.122	4032
855.256	3918
855.39	4006
855.524	4105
855.658	4071
855.792	4093
855.926	4074
856.06	4166
856.194	4227
856.327	4135
856.461	4101
856.595	4131
856.729	4181
856.862	4257
856.996	4230
857.13	4299
857.263	4306
857.397	4409
857.53	4287
857.664	4375
857.797	4383
857.931	4409
858.064	4409
858.197	4447
858.331	4402
858.464	4360
858.597	4348
858.731	4394
858.864	4459
858.997	4455
859.13	4512
859.263	4527
859.396	4592
859.529	4550
859.662	4554
859.795	4546
859.928	4554
860.061	4679
860.194	4687
860.327	4653
860.46	4626
860.592	4778
860.725	4721
860.858	4793
860.99	4717
861.123	4702
861.256	4668
861.388	4733
861.521	5425
861.653	4702
861.786	4702
861.918	4755
862.05	4816
862.183	4816
862.315	4889
862.447	4900
862.58	4892
862.712	4805
862.844	4763
862.976	4885
863.108	4896
863.24	5201
863.372	4870
863.504	4911
863.636	4915
863.768	4976
863.9	4911
864.032	4908
864.164	4995
864.296	4968
864.428	5079
864.559	5121
864.691	5121
864.823	5136
864.954	5193
865.086	5159
865.217	5185
865.349	5086
865.48	5193
865.612	5189
865.743	5288
865.875	5151
866.006	5155
866.137	5235
866.269	5201
866.4	5216
866.531	5250
866.662	5223
866.793	5250
866.924	5292
867.055	5349
867.186	5322
867.317	5326
867.448	5280
867.579	5410
867.71	5364
867.841	5345
867.972	5471
868.103	5516
868.233	5478
868.364	5471
868.495	5528
868.625	5695
868.756	5790
868.886	5646
869.017	5714
869.147	5859
869.278	5870
869.408	5821
869.539	5874
869.669	5923
869.799	5961
869.929	5954
870.06	5980
870.19	6186
870.32	6171
870.45	6205
870.58	6353
870.71	6448
870.84	6475
870.97	6376
871.1	6426
871.23	6620
871.36	6700
871.489	6642
871.619	6791
871.749	6768
871.879	6840
872.008	6935
872.138	7004
872.267	6970
872.397	7015
872.526	7103
872.656	7095
872.785	7232
872.915	7327
873.044	7506
873.173	7480
873.303	7609
873.432	7727
873.561	7909
873.69	7959
873.819	7997
873.948	8157
874.077	8225
874.206	8355
874.335	8415
874.464	8644
874.593	8887
874.722	8921
874.851	9165
874.979	9195
875.108	9298
875.237	9431
875.365	9485
875.494	9709
875.623	9823
875.751	9778
875.88	10006
876.008	10124
876.136	10291
876.265	10554
876.393	10615
876.521	10733
876.65	10847
876.778	10896
876.906	10866
877.034	11075
877.162	11094
877.29	11216
877.418	11258
877.546	11383
877.674	11467
877.802	11467
877.93	11592
878.058	11535
878.185	11589
878.313	11668
878.441	11764
878.568	11676
878.696	11783
878.824	11840
878.951	11980
879.079	11961
879.206	12110
879.333	11988
879.461	12015
879.588	12057
879.715	11999
879.842	12254
879.97	11999
880.097	11863
880.224	11950
880.351	11882
880.478	11870
880.605	11863
880.732	11859
880.859	11946
880.986	11741
881.112	11828
881.239	11668
881.366	11653
881.493	11649
881.619	11532
881.746	11604
881.872	11566
881.999	11520
882.125	11490
882.252	11570
882.378	11505
882.505	11577
882.631	11349
882.757	11220
882.883	11345
883.01	11277
883.136	11216
883.262	11147
883.388	11124
883.514	11094
883.64	11223
883.766	11064
883.892	10980
884.018	10976
884.143	11041
884.269	11147
884.395	10831
884.52	10828
884.646	10774
884.772	10656
884.897	10611
885.023	10660
885.148	10721
885.274	10748
885.399	10710
885.524	10615
885.65	10523
885.775	10569
885.9	10481
886.025	10634
886.15	10523
886.275	10417
886.4	10402
886.525	10432
886.65	10363
886.775	10306
886.9	10474
887.025	10504
887.149	10382
887.274	10211
887.399	10192
887.523	10169
887.648	10143
887.773	10067
887.897	10143
888.021	10268
888.146	10196
888.27	10188
888.395	10234
888.519	10143
888.643	10135
888.767	10227
888.891	10078
889.015	10010
889.139	10055
889.263	9960
889.387	10078
889.511	10017
889.635	10051
889.759	9907
889.883	10021
890.006	10063
890.13	10135
890.254	9991
890.377	9960
890.501	9846
890.624	9937
890.748	9911
890.871	9732
890.995	9755
891.118	9762
891.241	9774
891.364	9766
891.488	9842
891.611	9713
891.734	9800
891.857	9717
891.98	9751
892.103	9895
892.226	9686
892.349	9633
892.471	9507
892.594	9625
892.717	9614
892.839	9576
892.962	9625
893.085	9667
893.207	9591
893.33	9473
893.452	9466
893.575	9622
893.697	9515
893.819	9610
893.941	9561
894.064	9625
894.186	9420
894.308	9401
894.43	9507
894.552	9587
894.674	9511
894.796	9336
894.918	9435
895.04	9351
895.161	9336
895.283	9321
895.405	9161
895.526	9279
895.648	9226
895.769	9272
895.891	9241
896.012	9245
896.134	9203
896.255	9173
896.376	9127
896.498	9116
896.619	9192
896.74	9085
896.861	9104
896.982	9207
897.103	9256
897.224	9108
897.345	9039
897.466	8979
897.587	9051
897.708	9085
897.828	9058
897.949	8971
898.07	8876
898.19	8902
898.311	9043
898.431	8902
898.552	8918
898.672	9017
898.792	8952
898.913	8902
899.033	8792
899.153	8804
899.273	8727
899.393	8804
899.513	8750
899.633	8693
899.753	8781
899.873	8720
899.993	8701
900.113	8689
900.232	8621
900.352	8682
900.472	8571
900.591	8511
900.711	8549
900.83	8598
900.95	8693
901.069	8674
901.189	8507
901.308	8419
901.427	8362
901.546	8358
901.665	8488
901.784	8507
901.904	8393
902.023	8279
902.141	8195
902.26	8263
902.379	8290
902.498	8176
902.617	8214
902.735	8221
902.854	8324
902.973	8282
903.091	8164
903.21	8096
903.328	8134
903.446	8088
903.565	8111
903.683	8092
903.801	8046
903.919	8096
904.038	8149
904.156	8077
904.274	8043
904.392	7997
904.51	8054
904.627	8073
904.745	8077
904.863	8138
904.981	7890
905.098	7845
905.216	7879
905.334	7913
905.451	7902
905.569	7875
905.686	7909
905.803	7902
905.921	7670
906.038	7879
906.155	7761
906.272	7677
906.389	7761
906.506	7639
906.623	7624
906.74	7613
906.857	7502
906.974	7616
907.091	7704
907.208	7738
907.324	7594
907.441	7658
907.557	7457
907.674	7460
907.79	7358
907.907	7331
908.023	7441
908.139	7441
908.256	7369
908.372	7400
908.488	7365
908.604	7244
908.72	7266
908.836	7255
908.952	7297
909.068	7221
909.184	7343
909.3	7263
909.415	7278
909.531	7301
909.647	7088
909.762	7107
909.878	7072
909.993	7133
910.108	7168
910.224	7099
910.339	7110
910.454	7069
910.57	7019
910.685	6951
910.8	7206
910.915	7171
911.03	7084
911.145	6886
911.259	6798
911.374	6871
911.489	6783
911.604	6791
911.718	6738
911.833	6738
911.947	6673
912.062	6612
912.176	6753
912.291	6700
912.405	6692
912.519	6814
912.633	6818
912.748	6711
912.862	6738
912.976	6597
913.09	6490
913.204	6578
913.318	6635
913.431	6677
913.545	6673
913.659	6726
913.772	6639
913.886	6551
914	6525
914.113	6620
914.226	6620
914.34	6528
914.453	6483
914.566	6635
914.68	6506
914.793	6498
914.906	6407
915.019	6433
915.132	6350
915.245	6418
915.358	6517
915.47	6437
915.583	6471
915.696	6429
915.809	6525
915.921	6563
916.034	6350
916.146	6407
916.259	6384
916.371	6536
916.483	6445
916.595	6361
916.708	6414
916.82	6403
916.932	6376
917.044	6426
917.156	6410
917.268	6353
917.38	6319
917.491	6273
917.603	6308
917.715	6407
917.826	6391
917.938	6327
918.049	6239
918.161	6361
918.272	6407
918.384	6422
918.495	6331
918.606	6285
918.717	6254
918.828	6258
918.939	6247
919.05	6159
919.161	6243
919.272	6190
919.383	6064
919.494	6289
919.604	6426
919.715	6228
919.826	6247
919.936	6239
920.047	6311
920.157	6209
920.267	6426
920.378	6365
920.488	6209
920.598	6448
920.708	6486
920.818	6353
920.928	6479
921.038	6570
921.148	6566
921.258	6338
921.368	6266
921.477	6182
921.587	6129
921.697	6106
921.806	6178
921.916	6072
922.025	5927
922.134	5916
922.244	5935
922.353	5939
922.462	5844
922.571	5794
922.68	5699
922.789	5688
922.898	5737
923.007	5619
923.116	5649
923.224	5668
923.333	5684
923.442	5589
923.55	5589
923.659	5585
923.767	5649
923.876	5577
923.984	5600
924.092	5535
924.201	5581
924.309	5524
924.417	5566
924.525	5474
924.633	5501
924.741	6262
924.849	5395
924.956	5436
925.064	5307
925.172	5258
925.279	5292
925.387	5349
925.494	5322
925.602	5395
925.709	5330
925.816	5318
925.924	5284
926.031	5326
926.138	5277
926.245	5334
926.352	5197
926.459	5303
926.566	5269
926.673	5239
926.779	5094
926.886	5124
926.993	5041
927.099	5029
927.206	4949
927.312	4919
927.419	5025
927.525	4972
927.631	4968
927.737	4873
927.843	4858
927.95	4805
928.056	4774
928.162	4812
928.267	4889
928.373	5379
928.479	4824
928.585	4660
928.69	4752
928.796	4740
928.901	4637
929.007	4516
929.112	4656
929.218	4645
929.323	4607
929.428	4577
929.533	4691
929.638	4508
929.743	4535
929.848	4573
929.953	4462
930.058	4474
930.163	4310
930.267	4299
930.372	4474
930.477	4318
930.581	4462
930.685	4356
930.79	4200
930.894	4276
930.998	4272
931.103	4352
931.207	4143
931.311	4082
931.415	4002
931.519	3991
931.623	3968
