Data from glass_V78500241_2135.txt Node
Date: Wed Sep 01 19:29:18 CST 2021
User: usil
Spectrometer: V785-0024
Trigger mode: 0
Integration Time (sec): 4.000000E-1
Scans to average: 1
Nonlinearity correction enabled: false
Boxcar width: 0
Storing dark spectrum: false
XAxis mode: Wavelengths
Number of Pixels in Spectrum: 1024
>>>>>Begin Spectral Data<<<<<
801.071	3743
801.214	3766
801.356	3694
801.499	3766
801.641	3724
801.783	3747
801.926	3850
802.068	3797
802.211	3835
802.353	3873
802.496	3861
802.638	3876
802.78	3838
802.923	3926
803.065	3937
803.208	3854
803.35	3854
803.492	3915
803.635	3873
803.777	3781
803.919	3884
804.061	4124
804.204	3930
804.346	3934
804.488	3903
804.63	4017
804.773	3964
804.915	3998
805.057	4139
805.199	4029
805.341	4063
805.483	4154
805.626	4112
805.768	4082
805.91	4204
806.052	4200
806.194	4192
806.336	4367
806.478	4166
806.62	4150
806.762	4211
806.904	4230
807.046	4314
807.188	4215
807.33	4139
807.472	4249
807.614	4181
807.756	4276
807.898	4173
808.04	4204
808.182	4306
808.324	4314
808.465	4390
808.607	4398
808.749	4440
808.891	4440
809.033	4489
809.174	4474
809.316	4276
809.458	4227
809.6	4139
809.741	4158
809.883	4131
810.025	4181
810.166	4234
810.308	4177
810.45	4253
810.591	4223
810.733	4276
810.875	4516
811.016	4866
811.158	5094
811.299	5223
811.441	5277
811.582	5056
811.724	4706
811.865	4485
812.007	4432
812.148	4470
812.29	4424
812.431	4417
812.573	4436
812.714	4337
812.855	4417
812.997	4375
813.138	4466
813.279	4394
813.421	4386
813.562	4398
813.703	4352
813.845	4367
813.986	4314
814.127	4215
814.268	4284
814.41	4318
814.551	4230
814.692	4291
814.833	4253
814.974	4261
815.115	4356
815.256	4246
815.397	4227
815.539	4242
815.68	4166
815.821	4246
815.962	4322
816.103	4257
816.244	4181
816.385	4169
816.526	4253
816.666	4230
816.807	4067
816.948	4116
817.089	4196
817.23	4086
817.371	4055
817.512	4055
817.653	4017
817.793	4032
817.934	4036
818.075	4097
818.216	4105
818.356	4105
818.497	3975
818.638	3899
818.778	3941
818.919	3876
819.06	3884
819.2	3953
819.341	3850
819.481	3854
819.622	3926
819.762	4013
819.903	3934
820.043	3846
820.184	3812
820.324	3785
820.465	3835
820.605	3888
820.746	3918
820.886	3789
821.026	3956
821.167	3907
821.307	3972
821.447	3964
821.588	3945
821.728	3960
821.868	3934
822.008	3880
822.149	3922
822.289	3956
822.429	3831
822.569	3740
822.709	3827
822.849	3675
822.99	3713
823.13	3701
823.27	3778
823.41	3705
823.55	3682
823.69	3690
823.83	3747
823.97	3675
824.11	3622
824.25	3576
824.389	3629
824.529	3641
824.669	3625
824.809	3686
824.949	3698
825.089	3698
825.228	3686
825.368	3614
825.508	3530
825.648	3576
825.787	3599
825.927	3614
826.067	3584
826.206	3633
826.346	3770
826.485	3827
826.625	3854
826.765	3949
826.904	3835
827.044	3625
827.183	3542
827.323	3412
827.462	3450
827.601	3386
827.741	3420
827.88	3428
828.02	3386
828.159	3435
828.298	3447
828.437	3553
828.577	3469
828.716	3580
828.855	3496
828.994	3370
829.134	3355
829.273	3374
829.412	3321
829.551	3321
829.69	3317
829.829	3462
829.968	3492
830.107	3462
830.246	3439
830.385	3367
830.524	3329
830.663	3332
830.802	3260
830.941	3188
831.08	3154
831.219	3287
831.357	3298
831.496	3409
831.635	3226
831.774	3154
831.913	3192
832.051	3097
832.19	3116
832.329	3154
832.467	3116
832.606	3119
832.744	3161
832.883	3192
833.022	3195
833.16	3253
833.299	3294
833.437	3336
833.576	3393
833.714	3420
833.852	3397
833.991	3405
834.129	3439
834.267	3477
834.406	3409
834.544	3431
834.682	3374
834.821	3367
834.959	3584
835.097	3409
835.235	3542
835.373	3515
835.511	3431
835.65	3443
835.788	3473
835.926	3397
836.064	3370
836.202	3393
836.34	3568
836.478	3595
836.615	3553
836.753	3625
836.891	3641
837.029	3622
837.167	3595
837.305	3526
837.443	3519
837.58	3504
837.718	3564
837.856	3549
837.993	3515
838.131	3603
838.269	3587
838.406	3568
838.544	3572
838.681	3481
838.819	3435
838.956	3340
839.094	3378
839.231	3428
839.369	3526
839.506	3705
839.643	3637
839.781	3458
839.918	3485
840.055	3538
840.193	3545
840.33	3496
840.467	3576
840.604	3610
840.742	3785
840.879	3561
841.016	3568
841.153	3587
841.29	3743
841.427	3701
841.564	3717
841.701	3774
841.838	3686
841.975	3694
842.112	3701
842.249	3660
842.385	3663
842.522	3846
842.659	3660
842.796	3694
842.933	3682
843.069	3713
843.206	3690
843.343	3819
843.479	3774
843.616	3800
843.752	3663
843.889	3644
844.025	3842
844.162	3694
844.298	3835
844.435	3755
844.571	3762
844.708	3827
844.844	3956
844.98	3998
845.117	3994
845.253	3903
845.389	3896
845.525	3911
845.661	3934
845.798	3903
845.934	4010
846.07	3960
846.206	4048
846.342	4139
846.478	4025
846.614	3960
846.75	3926
846.886	3892
847.022	3991
847.158	3968
847.294	3991
847.429	4013
847.565	3975
847.701	4219
847.837	3930
847.972	3876
848.108	3945
848.244	3983
848.379	3854
848.515	3816
848.65	3823
848.786	3842
848.921	3835
849.057	3934
849.192	3960
849.328	3918
849.463	3930
849.598	3831
849.734	3842
849.869	3823
850.004	3770
850.14	3835
850.275	3778
850.41	3736
850.545	3743
850.68	3797
850.815	3755
850.95	3785
851.085	3968
851.22	3861
851.355	3838
851.49	3789
851.625	3781
851.76	3793
851.895	3698
852.03	3728
852.165	3804
852.299	3850
852.434	3873
852.569	3819
852.703	3857
852.838	3930
852.973	3998
853.107	3934
853.242	3880
853.376	3842
853.511	3789
853.645	3873
853.78	3926
853.914	3842
854.048	3888
854.183	3888
854.317	3960
854.451	4025
854.585	3918
854.72	3934
854.854	4074
854.988	3922
855.122	4017
855.256	3907
855.39	4036
855.524	4078
855.658	4048
855.792	4093
855.926	4158
856.06	4185
856.194	4192
856.327	4150
856.461	4147
856.595	4150
856.729	4116
856.862	4291
856.996	4265
857.13	4322
857.263	4322
857.397	4367
857.53	4246
857.664	4344
857.797	4379
857.931	4428
858.064	4402
858.197	4413
858.331	4409
858.464	4375
858.597	4322
858.731	4432
858.864	4432
858.997	4478
859.13	4508
859.263	4489
859.396	4603
859.529	4542
859.662	4508
859.795	4535
859.928	4550
860.061	4660
860.194	4710
860.327	4626
860.46	4622
860.592	4725
860.725	4702
860.858	4774
860.99	4714
861.123	4714
861.256	4702
861.388	4755
861.521	5421
861.653	4729
861.786	4649
861.918	4706
862.05	4744
862.183	4790
862.315	4877
862.447	4938
862.58	4850
862.712	4797
862.844	4759
862.976	4828
863.108	4847
863.24	5155
863.372	4816
863.504	4877
863.636	4843
863.768	4957
863.9	4949
864.032	4881
864.164	4957
864.296	4957
864.428	5094
864.559	5094
864.691	5086
864.823	5147
864.954	5109
865.086	5113
865.217	5071
865.349	5113
865.48	5181
865.612	5197
865.743	5330
865.875	5254
866.006	5170
866.137	5239
866.269	5193
866.4	5239
866.531	5185
866.662	5231
866.793	5231
866.924	5254
867.055	5341
867.186	5292
867.317	5299
867.448	5307
867.579	5349
867.71	5421
867.841	5395
867.972	5402
868.103	5452
868.233	5478
868.364	5493
868.495	5577
868.625	5611
868.756	5745
868.886	5661
869.017	5733
869.147	5836
869.278	5863
869.408	5775
869.539	5836
869.669	5859
869.799	5923
869.929	5973
870.06	6019
870.19	6144
870.32	6178
870.45	6247
870.58	6353
870.71	6376
870.84	6456
870.97	6395
871.1	6429
871.23	6616
871.36	6654
871.489	6677
871.619	6753
871.749	6837
871.879	6871
872.008	6947
872.138	6962
872.267	7027
872.397	6954
872.526	6958
872.656	7076
872.785	7198
872.915	7289
873.044	7407
873.173	7594
873.303	7639
873.432	7772
873.561	7841
873.69	7887
873.819	8031
873.948	8206
874.077	8259
874.206	8259
874.335	8431
874.464	8575
874.593	8883
874.722	8948
874.851	9146
874.979	9218
875.108	9332
875.237	9412
875.365	9466
875.494	9667
875.623	9918
875.751	9899
875.88	10010
876.008	10124
876.136	10310
876.265	10459
876.393	10702
876.521	10725
876.65	10809
876.778	10816
876.906	10862
877.034	11079
877.162	11102
877.29	11193
877.418	11322
877.546	11334
877.674	11417
877.802	11482
877.93	11467
878.058	11512
878.185	11524
878.313	11630
878.441	11710
878.568	11653
878.696	11710
878.824	11897
878.951	12007
879.079	11939
879.206	12110
879.333	12095
879.461	11984
879.588	12060
879.715	12079
879.842	12201
879.97	12060
880.097	11821
880.224	11859
880.351	11760
880.478	11863
880.605	11824
880.732	11813
880.859	12026
880.986	11805
881.112	11832
881.239	11703
881.366	11600
881.493	11619
881.619	11512
881.746	11493
881.872	11455
881.999	11490
882.125	11440
882.252	11520
882.378	11566
882.505	11592
882.631	11311
882.757	11288
882.883	11265
883.01	11227
883.136	11235
883.262	11121
883.388	11124
883.514	11193
883.64	11212
883.766	11067
883.892	10923
884.018	11003
884.143	11109
884.269	11086
884.395	10843
884.52	10744
884.646	10774
884.772	10634
884.897	10618
885.023	10641
885.148	10729
885.274	10801
885.399	10645
885.524	10607
885.65	10561
885.775	10596
885.9	10504
886.025	10645
886.15	10558
886.275	10436
886.4	10360
886.525	10344
886.65	10398
886.775	10348
886.9	10421
887.025	10577
887.149	10310
887.274	10200
887.399	10234
887.523	10154
887.648	10158
887.773	10166
887.897	10181
888.021	10181
888.146	10090
888.27	10162
888.395	10181
888.519	10162
888.643	10219
888.767	10188
888.891	10101
889.015	10010
889.139	10071
889.263	9960
889.387	9983
889.511	10120
889.635	10116
889.759	9922
889.883	9922
890.006	9941
890.13	10147
890.254	9869
890.377	9899
890.501	9812
890.624	9907
890.748	9968
890.871	9808
890.995	9720
891.118	9709
891.241	9724
891.364	9728
891.488	9819
891.611	9701
891.734	9736
891.857	9762
891.98	9709
892.103	9808
892.226	9743
892.349	9652
892.471	9523
892.594	9564
892.717	9587
892.839	9591
892.962	9606
893.085	9641
893.207	9572
893.33	9500
893.452	9496
893.575	9603
893.697	9492
893.819	9561
893.941	9561
894.064	9629
894.186	9507
894.308	9450
894.43	9477
894.552	9580
894.674	9481
894.796	9370
894.918	9401
895.04	9363
895.161	9310
895.283	9405
895.405	9207
895.526	9302
895.648	9214
895.769	9226
895.891	9264
896.012	9294
896.134	9184
896.255	9203
896.376	9123
896.498	9127
896.619	9161
896.74	9116
896.861	9093
896.982	9245
897.103	9310
897.224	9157
897.345	9051
897.466	9001
897.587	8998
897.708	9100
897.828	9039
897.949	8921
898.07	8902
898.19	8929
898.311	9062
898.431	8876
898.552	8937
898.672	8975
898.792	8868
898.913	8918
899.033	8849
899.153	8777
899.273	8686
899.393	8640
899.513	8773
899.633	8731
899.753	8754
899.873	8674
899.993	8762
900.113	8743
900.232	8708
900.352	8648
900.472	8537
900.591	8545
900.711	8583
900.83	8492
900.95	8712
901.069	8629
901.189	8556
901.308	8450
901.427	8355
901.546	8355
901.665	8400
901.784	8514
901.904	8400
902.023	8332
902.141	8202
902.26	8172
902.379	8282
902.498	8202
902.617	8218
902.735	8301
902.854	8282
902.973	8275
903.091	8081
903.21	8191
903.328	8096
903.446	8172
903.565	8081
903.683	8119
903.801	8043
903.919	8096
904.038	8111
904.156	7986
904.274	8058
904.392	8005
904.51	8054
904.627	8035
904.745	8130
904.863	8027
904.981	7868
905.098	7902
905.216	7868
905.334	7894
905.451	7814
905.569	7879
905.686	7909
905.803	7909
905.921	7795
906.038	7875
906.155	7811
906.272	7700
906.389	7727
906.506	7677
906.623	7628
906.74	7597
906.857	7537
906.974	7597
907.091	7658
907.208	7708
907.324	7651
907.441	7613
907.557	7464
907.674	7419
907.79	7362
907.907	7369
908.023	7430
908.139	7419
908.256	7320
908.372	7346
908.488	7339
908.604	7270
908.72	7206
908.836	7324
908.952	7251
909.068	7316
909.184	7240
909.3	7274
909.415	7247
909.531	7274
909.647	7141
909.762	7069
909.878	7114
909.993	7114
910.108	7038
910.224	7076
910.339	7110
910.454	7069
910.57	6993
910.685	6890
910.8	7145
910.915	7164
911.03	7015
911.145	6878
911.259	6856
911.374	6848
911.489	6863
911.604	6810
911.718	6749
911.833	6749
911.947	6627
912.062	6544
912.176	6715
912.291	6730
912.405	6662
912.519	6779
912.633	6859
912.748	6745
912.862	6707
912.976	6582
913.09	6517
913.204	6540
913.318	6639
913.431	6639
913.545	6631
913.659	6696
913.772	6654
913.886	6536
914	6582
914.113	6631
914.226	6677
914.34	6578
914.453	6433
914.566	6631
914.68	6513
914.793	6475
914.906	6384
915.019	6376
915.132	6410
915.245	6422
915.358	6418
915.47	6448
915.583	6391
915.696	6475
915.809	6498
915.921	6547
916.034	6369
916.146	6433
916.259	6334
916.371	6437
916.483	6464
916.595	6437
916.708	6437
916.82	6361
916.932	6448
917.044	6429
917.156	6384
917.268	6331
917.38	6304
917.491	6334
917.603	6308
917.715	6289
917.826	6376
917.938	6319
918.049	6220
918.161	6315
918.272	6369
918.384	6403
918.495	6311
918.606	6224
918.717	6197
918.828	6232
918.939	6258
919.05	6186
919.161	6277
919.272	6144
919.383	6148
919.494	6262
919.604	6426
919.715	6296
919.826	6224
919.936	6232
920.047	6365
920.157	6273
920.267	6395
920.378	6262
920.488	6319
920.598	6426
920.708	6525
920.818	6437
920.928	6437
921.038	6574
921.148	6589
921.258	6357
921.368	6296
921.477	6247
921.587	6209
921.697	6057
921.806	6205
921.916	6083
922.025	5973
922.134	5958
922.244	5878
922.353	5980
922.462	5840
922.571	5767
922.68	5680
922.789	5737
922.898	5691
923.007	5596
923.116	5649
923.224	5600
923.333	5604
923.442	5581
923.55	5577
923.659	5577
923.767	5604
923.876	5566
923.984	5589
924.092	5497
924.201	5558
924.309	5570
924.417	5573
924.525	5463
924.633	5532
924.741	6296
924.849	5379
924.956	5471
925.064	5357
925.172	5296
925.279	5318
925.387	5341
925.494	5345
925.602	5368
925.709	5410
925.816	5254
925.924	5280
926.031	5330
926.138	5303
926.245	5296
926.352	5223
926.459	5334
926.566	5299
926.673	5212
926.779	5140
926.886	5102
926.993	5014
927.099	5018
927.206	4976
927.312	4961
927.419	5018
927.525	4987
927.631	4930
927.737	4908
927.843	4790
927.95	4729
928.056	4793
928.162	4831
928.267	4866
928.373	5334
928.479	4843
928.585	4679
928.69	4740
928.796	4782
928.901	4736
929.007	4577
929.112	4683
929.218	4634
929.323	4618
929.428	4580
929.533	4660
929.638	4523
929.743	4512
929.848	4577
929.953	4508
930.058	4462
930.163	4303
930.267	4352
930.372	4447
930.477	4329
930.581	4474
930.685	4337
930.79	4265
930.894	4284
930.998	4280
931.103	4367
931.207	4128
931.311	4040
931.415	4040
931.519	3896
931.623	4002
