Data from glass_V78500241_2524.txt Node
Date: Wed Sep 01 19:31:59 CST 2021
User: usil
Spectrometer: V785-0024
Trigger mode: 0
Integration Time (sec): 4.000000E-1
Scans to average: 1
Nonlinearity correction enabled: false
Boxcar width: 0
Storing dark spectrum: false
XAxis mode: Wavelengths
Number of Pixels in Spectrum: 1024
>>>>>Begin Spectral Data<<<<<
801.071	3743
801.214	3701
801.356	3709
801.499	3785
801.641	3671
801.783	3785
801.926	3823
802.068	3770
802.211	3827
802.353	3857
802.496	3835
802.638	3808
802.78	3899
802.923	3880
803.065	3876
803.208	3819
803.35	3831
803.492	3903
803.635	3903
803.777	3793
803.919	3926
804.061	4090
804.204	3945
804.346	3960
804.488	3907
804.63	3994
804.773	3983
804.915	4036
805.057	4120
805.199	4013
805.341	4093
805.483	4162
805.626	4086
805.768	4059
805.91	4188
806.052	4181
806.194	4223
806.336	4299
806.478	4211
806.62	4181
806.762	4185
806.904	4299
807.046	4314
807.188	4211
807.33	4185
807.472	4234
807.614	4177
807.756	4276
807.898	4223
808.04	4188
808.182	4280
808.324	4314
808.465	4386
808.607	4455
808.749	4447
808.891	4493
809.033	4451
809.174	4367
809.316	4265
809.458	4253
809.6	4135
809.741	4093
809.883	4128
810.025	4227
810.166	4204
810.308	4192
810.45	4230
810.591	4219
810.733	4310
810.875	4542
811.016	4828
811.158	5090
811.299	5242
811.441	5231
811.582	5064
811.724	4660
811.865	4462
812.007	4447
812.148	4455
812.29	4390
812.431	4371
812.573	4363
812.714	4352
812.855	4386
812.997	4394
813.138	4462
813.279	4459
813.421	4375
813.562	4360
813.703	4329
813.845	4344
813.986	4185
814.127	4234
814.268	4295
814.41	4291
814.551	4242
814.692	4325
814.833	4261
814.974	4272
815.115	4363
815.256	4242
815.397	4234
815.539	4249
815.68	4135
815.821	4227
815.962	4329
816.103	4238
816.244	4227
816.385	4253
816.526	4261
816.666	4150
816.807	4086
816.948	4192
817.089	4154
817.23	4112
817.371	4086
817.512	4048
817.653	4044
817.793	3983
817.934	4013
818.075	4116
818.216	4071
818.356	4074
818.497	3991
818.638	3918
818.778	3907
818.919	3876
819.06	3876
819.2	3861
819.341	3808
819.481	3842
819.622	3876
819.762	4025
819.903	3937
820.043	3850
820.184	3816
820.324	3804
820.465	3865
820.605	3842
820.746	3865
820.886	3804
821.026	3956
821.167	3880
821.307	3975
821.447	3945
821.588	3915
821.728	3968
821.868	3956
822.008	3865
822.149	3945
822.289	3892
822.429	3797
822.569	3732
822.709	3770
822.849	3679
822.99	3686
823.13	3728
823.27	3789
823.41	3679
823.55	3720
823.69	3736
823.83	3747
823.97	3648
824.11	3576
824.25	3622
824.389	3561
824.529	3663
824.669	3591
824.809	3690
824.949	3774
825.089	3701
825.228	3663
825.368	3595
825.508	3564
825.648	3576
825.787	3595
825.927	3648
826.067	3629
826.206	3690
826.346	3793
826.485	3797
826.625	3838
826.765	3964
826.904	3800
827.044	3584
827.183	3504
827.323	3443
827.462	3454
827.601	3420
827.741	3393
827.88	3416
828.02	3393
828.159	3435
828.298	3485
828.437	3557
828.577	3435
828.716	3614
828.855	3500
828.994	3355
829.134	3374
829.273	3386
829.412	3344
829.551	3336
829.69	3386
829.829	3401
829.968	3523
830.107	3454
830.246	3431
830.385	3393
830.524	3306
830.663	3321
830.802	3222
830.941	3169
831.08	3176
831.219	3230
831.357	3268
831.496	3378
831.635	3260
831.774	3176
831.913	3237
832.051	3146
832.19	3104
832.329	3214
832.467	3123
832.606	3127
832.744	3123
832.883	3184
833.022	3169
833.16	3222
833.299	3298
833.437	3332
833.576	3374
833.714	3397
833.852	3473
833.991	3401
834.129	3458
834.267	3443
834.406	3428
834.544	3428
834.682	3443
834.821	3409
834.959	3553
835.097	3370
835.235	3515
835.373	3477
835.511	3481
835.65	3466
835.788	3504
835.926	3386
836.064	3351
836.202	3378
836.34	3568
836.478	3625
836.615	3515
836.753	3606
836.891	3637
837.029	3580
837.167	3580
837.305	3561
837.443	3568
837.58	3530
837.718	3564
837.856	3568
837.993	3485
838.131	3595
838.269	3545
838.406	3564
838.544	3572
838.681	3386
838.819	3454
838.956	3370
839.094	3386
839.231	3420
839.369	3488
839.506	3720
839.643	3614
839.781	3507
839.918	3458
840.055	3485
840.193	3534
840.33	3553
840.467	3545
840.604	3564
840.742	3842
840.879	3530
841.016	3530
841.153	3572
841.29	3732
841.427	3705
841.564	3747
841.701	3675
841.838	3698
841.975	3671
842.112	3705
842.249	3595
842.385	3595
842.522	3835
842.659	3686
842.796	3675
842.933	3701
843.069	3660
843.206	3698
843.343	3812
843.479	3743
843.616	3797
843.752	3671
843.889	3667
844.025	3880
844.162	3713
844.298	3861
844.435	3808
844.571	3808
844.708	3918
844.844	3979
844.98	4029
845.117	4048
845.253	3953
845.389	3861
845.525	3975
845.661	3949
845.798	3918
845.934	4006
846.07	3964
846.206	4025
846.342	4097
846.478	4097
846.614	3930
846.75	3922
846.886	3880
847.022	4036
847.158	3972
847.294	4021
847.429	4010
847.565	3972
847.701	4215
847.837	3884
847.972	3888
848.108	3998
848.244	3960
848.379	3854
848.515	3808
848.65	3835
848.786	3835
848.921	3876
849.057	3907
849.192	3926
849.328	3899
849.463	3915
849.598	3922
849.734	3838
849.869	3816
850.004	3808
850.14	3797
850.275	3759
850.41	3747
850.545	3774
850.68	3740
850.815	3865
850.95	3755
851.085	3911
851.22	3846
851.355	3785
851.49	3747
851.625	3816
851.76	3759
851.895	3740
852.03	3720
852.165	3785
852.299	3823
852.434	3892
852.569	3865
852.703	3888
852.838	3899
852.973	3960
853.107	3945
853.242	3865
853.376	3854
853.511	3740
853.645	3850
853.78	3979
853.914	3854
854.048	3915
854.183	3873
854.317	3945
854.451	4055
854.585	3899
854.72	3941
854.854	4002
854.988	3930
855.122	3994
855.256	3930
855.39	4006
855.524	4105
855.658	4086
855.792	4097
855.926	4116
856.06	4158
856.194	4223
856.327	4128
856.461	4139
856.595	4135
856.729	4185
856.862	4246
856.996	4219
857.13	4303
857.263	4303
857.397	4360
857.53	4268
857.664	4363
857.797	4409
857.931	4409
858.064	4367
858.197	4424
858.331	4394
858.464	4333
858.597	4363
858.731	4409
858.864	4413
858.997	4462
859.13	4459
859.263	4497
859.396	4558
859.529	4474
859.662	4500
859.795	4558
859.928	4565
860.061	4706
860.194	4725
860.327	4645
860.46	4596
860.592	4740
860.725	4721
860.858	4721
860.99	4637
861.123	4645
861.256	4664
861.388	4706
861.521	5421
861.653	4729
861.786	4679
861.918	4729
862.05	4801
862.183	4843
862.315	4885
862.447	4900
862.58	4911
862.712	4763
862.844	4759
862.976	4866
863.108	4824
863.24	5185
863.372	4816
863.504	4904
863.636	4930
863.768	5029
863.9	4980
864.032	4873
864.164	4965
864.296	5037
864.428	5064
864.559	5064
864.691	5136
864.823	5113
864.954	5102
865.086	5075
865.217	5151
865.349	5098
865.48	5124
865.612	5159
865.743	5269
865.875	5159
866.006	5178
866.137	5201
866.269	5227
866.4	5227
866.531	5181
866.662	5204
866.793	5239
866.924	5223
867.055	5398
867.186	5360
867.317	5322
867.448	5254
867.579	5364
867.71	5349
867.841	5315
867.972	5383
868.103	5436
868.233	5493
868.364	5528
868.495	5535
868.625	5707
868.756	5760
868.886	5619
869.017	5767
869.147	5794
869.278	5824
869.408	5786
869.539	5863
869.669	5859
869.799	5912
869.929	5988
870.06	6011
870.19	6140
870.32	6163
870.45	6262
870.58	6334
870.71	6452
870.84	6380
870.97	6418
871.1	6403
871.23	6597
871.36	6745
871.489	6681
871.619	6707
871.749	6783
871.879	6863
872.008	6966
872.138	6935
872.267	7019
872.397	6981
872.526	7034
872.656	7126
872.785	7217
872.915	7445
873.044	7540
873.173	7578
873.303	7590
873.432	7731
873.561	7849
873.69	7909
873.819	8020
873.948	8130
874.077	8202
874.206	8294
874.335	8480
874.464	8731
874.593	8891
874.722	8956
874.851	9047
874.979	9218
875.108	9329
875.237	9374
875.365	9431
875.494	9625
875.623	9823
875.751	9789
875.88	9991
876.008	10181
876.136	10341
876.265	10512
876.393	10679
876.521	10698
876.65	10850
876.778	10763
876.906	10942
877.034	10991
877.162	11102
877.29	11235
877.418	11315
877.546	11372
877.674	11417
877.802	11486
877.93	11539
878.058	11467
878.185	11589
878.313	11573
878.441	11634
878.568	11688
878.696	11756
878.824	11722
878.951	11939
879.079	11996
879.206	12057
879.333	12072
879.461	12003
879.588	12011
879.715	12022
879.842	12228
879.97	12091
880.097	11809
880.224	11794
880.351	11870
880.478	11923
880.605	11840
880.732	11790
880.859	11980
880.986	11767
881.112	11764
881.239	11691
881.366	11707
881.493	11539
881.619	11577
881.746	11547
881.872	11467
881.999	11520
882.125	11395
882.252	11440
882.378	11524
882.505	11444
882.631	11433
882.757	11269
882.883	11387
883.01	11193
883.136	11231
883.262	11143
883.388	11037
883.514	11193
883.64	11140
883.766	11086
883.892	10987
884.018	10991
884.143	11071
884.269	11151
884.395	10904
884.52	10702
884.646	10763
884.772	10702
884.897	10660
885.023	10683
885.148	10714
885.274	10733
885.399	10714
885.524	10546
885.65	10580
885.775	10596
885.9	10554
886.025	10535
886.15	10538
886.275	10432
886.4	10329
886.525	10386
886.65	10341
886.775	10352
886.9	10455
887.025	10512
887.149	10333
887.274	10204
887.399	10143
887.523	10166
887.648	10101
887.773	10101
887.897	10215
888.021	10272
888.146	10040
888.27	10200
888.395	10116
888.519	10143
888.643	10139
888.767	10188
888.891	10029
889.015	10029
889.139	10086
889.263	9918
889.387	10029
889.511	10093
889.635	10093
889.759	9956
889.883	9972
890.006	9899
890.13	10078
890.254	9941
890.377	9945
890.501	9876
890.624	9903
890.748	9861
890.871	9789
890.995	9774
891.118	9713
891.241	9766
891.364	9747
891.488	9732
891.611	9690
891.734	9751
891.857	9675
891.98	9667
892.103	9770
892.226	9717
892.349	9641
892.471	9549
892.594	9580
892.717	9618
892.839	9610
892.962	9561
893.085	9641
893.207	9545
893.33	9511
893.452	9477
893.575	9584
893.697	9572
893.819	9629
893.941	9603
894.064	9534
894.186	9458
894.308	9424
894.43	9507
894.552	9500
894.674	9496
894.796	9386
894.918	9378
895.04	9310
895.161	9401
895.283	9336
895.405	9222
895.526	9237
895.648	9233
895.769	9241
895.891	9226
896.012	9230
896.134	9199
896.255	9268
896.376	9142
896.498	9150
896.619	9116
896.74	9024
896.861	9077
896.982	9218
897.103	9359
897.224	9169
897.345	9070
897.466	9009
897.587	8971
897.708	9173
897.828	9024
897.949	9009
898.07	8887
898.19	8918
898.311	9036
898.431	8902
898.552	8902
898.672	8975
898.792	8986
898.913	8933
899.033	8762
899.153	8807
899.273	8712
899.393	8788
899.513	8746
899.633	8720
899.753	8720
899.873	8670
899.993	8716
900.113	8746
900.232	8708
900.352	8613
900.472	8602
900.591	8545
900.711	8602
900.83	8537
900.95	8655
901.069	8750
901.189	8556
901.308	8347
901.427	8381
901.546	8446
901.665	8507
901.784	8461
901.904	8400
902.023	8328
902.141	8195
902.26	8157
902.379	8328
902.498	8199
902.617	8237
902.735	8282
902.854	8290
902.973	8290
903.091	8096
903.21	8138
903.328	8202
903.446	8088
903.565	8012
903.683	8107
903.801	8050
903.919	8134
904.038	8149
904.156	8012
904.274	8096
904.392	7993
904.51	8046
904.627	8012
904.745	8073
904.863	8073
904.981	7940
905.098	7841
905.216	7898
905.334	7811
905.451	7913
905.569	7803
905.686	7890
905.803	7959
905.921	7822
906.038	7856
906.155	7784
906.272	7696
906.389	7723
906.506	7639
906.623	7616
906.74	7571
906.857	7556
906.974	7559
907.091	7597
907.208	7708
907.324	7670
907.441	7548
907.557	7445
907.674	7384
907.79	7377
907.907	7411
908.023	7464
908.139	7392
908.256	7343
908.372	7316
908.488	7327
908.604	7251
908.72	7198
908.836	7297
908.952	7225
909.068	7202
909.184	7289
909.3	7263
909.415	7263
909.531	7251
909.647	7114
909.762	7095
909.878	7057
909.993	7091
910.108	7095
910.224	7080
910.339	7103
910.454	6973
910.57	7015
910.685	6916
910.8	7107
910.915	7095
911.03	7027
911.145	6856
911.259	6947
911.374	6821
911.489	6859
911.604	6764
911.718	6688
911.833	6745
911.947	6654
912.062	6642
912.176	6738
912.291	6722
912.405	6673
912.519	6719
912.633	6779
912.748	6726
912.862	6696
912.976	6631
913.09	6490
913.204	6593
913.318	6528
913.431	6631
913.545	6662
913.659	6760
913.772	6593
913.886	6502
914	6536
914.113	6604
914.226	6616
914.34	6589
914.453	6460
914.566	6662
914.68	6429
914.793	6509
914.906	6403
915.019	6350
915.132	6342
915.245	6441
915.358	6388
915.47	6426
915.583	6494
915.696	6479
915.809	6502
915.921	6555
916.034	6445
916.146	6376
916.259	6346
916.371	6448
916.483	6494
916.595	6315
916.708	6384
916.82	6395
916.932	6395
917.044	6323
917.156	6327
917.268	6319
917.38	6334
917.491	6273
917.603	6334
917.715	6365
917.826	6372
917.938	6285
918.049	6239
918.161	6300
918.272	6414
918.384	6437
918.495	6292
918.606	6273
918.717	6144
918.828	6228
918.939	6235
919.05	6182
919.161	6254
919.272	6110
919.383	6110
919.494	6300
919.604	6426
919.715	6220
919.826	6213
919.936	6220
920.047	6285
920.157	6254
920.267	6506
920.378	6285
920.488	6308
920.598	6429
920.708	6578
920.818	6418
920.928	6490
921.038	6589
921.148	6589
921.258	6308
921.368	6224
921.477	6182
921.587	6152
921.697	6079
921.806	6098
921.916	6076
922.025	6026
922.134	5931
922.244	5908
922.353	5866
922.462	5878
922.571	5824
922.68	5699
922.789	5684
922.898	5653
923.007	5657
923.116	5726
923.224	5665
923.333	5653
923.442	5570
923.55	5528
923.659	5581
923.767	5577
923.876	5467
923.984	5592
924.092	5509
924.201	5520
924.309	5543
924.417	5554
924.525	5486
924.633	5532
924.741	6251
924.849	5353
924.956	5452
925.064	5322
925.172	5299
925.279	5307
925.387	5341
925.494	5330
925.602	5364
925.709	5402
925.816	5292
925.924	5311
926.031	5315
926.138	5273
926.245	5303
926.352	5185
926.459	5326
926.566	5372
926.673	5185
926.779	5140
926.886	5045
926.993	5025
927.099	5029
927.206	4957
927.312	4885
927.419	4999
927.525	5010
927.631	4942
927.737	4896
927.843	4862
927.95	4786
928.056	4847
928.162	4828
928.267	4828
928.373	5159
928.479	4862
928.585	4702
928.69	4782
928.796	4847
928.901	4691
929.007	4622
929.112	4656
929.218	4672
929.323	4607
929.428	4523
929.533	4645
929.638	4500
929.743	4535
929.848	4538
929.953	4500
930.058	4436
930.163	4291
930.267	4265
930.372	4394
930.477	4299
930.581	4447
930.685	4333
930.79	4295
930.894	4238
930.998	4238
931.103	4360
931.207	4128
931.311	4055
931.415	4002
931.519	3922
931.623	3918
