Data from glass_V78500241_176.txt Node
Date: Wed Sep 01 19:15:43 CST 2021
User: usil
Spectrometer: V785-0024
Trigger mode: 0
Integration Time (sec): 4.000000E-1
Scans to average: 1
Nonlinearity correction enabled: false
Boxcar width: 0
Storing dark spectrum: false
XAxis mode: Wavelengths
Number of Pixels in Spectrum: 1024
>>>>>Begin Spectral Data<<<<<
801.071	3717
801.214	3785
801.356	3728
801.499	3717
801.641	3751
801.783	3774
801.926	3876
802.068	3816
802.211	3846
802.353	3907
802.496	3842
802.638	3876
802.78	3907
802.923	3934
803.065	3915
803.208	3850
803.35	3876
803.492	3896
803.635	3911
803.777	3888
803.919	3949
804.061	4204
804.204	4006
804.346	3941
804.488	3937
804.63	4067
804.773	4021
804.915	4131
805.057	4147
805.199	4029
805.341	4112
805.483	4139
805.626	4105
805.768	4131
805.91	4200
806.052	4246
806.194	4192
806.336	4329
806.478	4242
806.62	4196
806.762	4211
806.904	4284
807.046	4348
807.188	4238
807.33	4177
807.472	4253
807.614	4253
807.756	4242
807.898	4230
808.04	4238
808.182	4291
808.324	4314
808.465	4390
808.607	4474
808.749	4409
808.891	4481
809.033	4489
809.174	4447
809.316	4276
809.458	4249
809.6	4192
809.741	4128
809.883	4173
810.025	4253
810.166	4230
810.308	4192
810.45	4234
810.591	4230
810.733	4318
810.875	4519
811.016	4797
811.158	5166
811.299	5315
811.441	5315
811.582	5052
811.724	4736
811.865	4455
812.007	4500
812.148	4474
812.29	4421
812.431	4440
812.573	4417
812.714	4386
812.855	4409
812.997	4440
813.138	4466
813.279	4398
813.421	4424
813.562	4413
813.703	4352
813.845	4306
813.986	4276
814.127	4306
814.268	4299
814.41	4318
814.551	4318
814.692	4352
814.833	4238
814.974	4284
815.115	4344
815.256	4253
815.397	4303
815.539	4257
815.68	4204
815.821	4249
815.962	4348
816.103	4352
816.244	4295
816.385	4261
816.526	4287
816.666	4242
816.807	4120
816.948	4177
817.089	4185
817.23	4131
817.371	4071
817.512	4048
817.653	4051
817.793	4044
817.934	4036
818.075	4101
818.216	4032
818.356	4139
818.497	4021
818.638	3937
818.778	3941
818.919	3876
819.06	3869
819.2	3945
819.341	3869
819.481	3838
819.622	3915
819.762	4013
819.903	3945
820.043	3876
820.184	3857
820.324	3896
820.465	3880
820.605	3861
820.746	3915
820.886	3831
821.026	3930
821.167	3941
821.307	4025
821.447	4029
821.588	3960
821.728	3987
821.868	3953
822.008	3861
822.149	3911
822.289	3926
822.429	3842
822.569	3781
822.709	3865
822.849	3724
822.99	3766
823.13	3793
823.27	3781
823.41	3720
823.55	3804
823.69	3740
823.83	3717
823.97	3698
824.11	3622
824.25	3633
824.389	3641
824.529	3751
824.669	3701
824.809	3717
824.949	3774
825.089	3743
825.228	3743
825.368	3614
825.508	3549
825.648	3561
825.787	3591
825.927	3644
826.067	3633
826.206	3679
826.346	3804
826.485	3850
826.625	3918
826.765	3953
826.904	3854
827.044	3614
827.183	3591
827.323	3458
827.462	3500
827.601	3466
827.741	3431
827.88	3447
828.02	3382
828.159	3496
828.298	3469
828.437	3614
828.577	3530
828.716	3610
828.855	3496
828.994	3340
829.134	3412
829.273	3416
829.412	3344
829.551	3374
829.69	3355
829.829	3401
829.968	3530
830.107	3473
830.246	3477
830.385	3412
830.524	3344
830.663	3313
830.802	3249
830.941	3199
831.08	3241
831.219	3313
831.357	3287
831.496	3412
831.635	3272
831.774	3214
831.913	3253
832.051	3138
832.19	3150
832.329	3233
832.467	3150
832.606	3127
832.744	3207
832.883	3199
833.022	3207
833.16	3275
833.299	3325
833.437	3344
833.576	3382
833.714	3454
833.852	3454
833.991	3439
834.129	3507
834.267	3420
834.406	3393
834.544	3401
834.682	3458
834.821	3435
834.959	3614
835.097	3450
835.235	3530
835.373	3492
835.511	3511
835.65	3504
835.788	3519
835.926	3401
836.064	3401
836.202	3443
836.34	3603
836.478	3633
836.615	3557
836.753	3591
836.891	3614
837.029	3652
837.167	3637
837.305	3622
837.443	3564
837.58	3538
837.718	3618
837.856	3576
837.993	3545
838.131	3595
838.269	3599
838.406	3622
838.544	3584
838.681	3538
838.819	3466
838.956	3378
839.094	3397
839.231	3458
839.369	3519
839.506	3690
839.643	3633
839.781	3561
839.918	3496
840.055	3587
840.193	3545
840.33	3538
840.467	3523
840.604	3641
840.742	3846
840.879	3587
841.016	3561
841.153	3633
841.29	3789
841.427	3728
841.564	3774
841.701	3770
841.838	3709
841.975	3675
842.112	3728
842.249	3675
842.385	3663
842.522	3823
842.659	3694
842.796	3690
842.933	3694
843.069	3736
843.206	3682
843.343	3800
843.479	3778
843.616	3827
843.752	3701
843.889	3709
844.025	3854
844.162	3736
844.298	3846
844.435	3800
844.571	3800
844.708	3854
844.844	4025
844.98	4055
845.117	3991
845.253	3934
845.389	3869
845.525	3956
845.661	3994
845.798	3964
845.934	4032
846.07	3975
846.206	4074
846.342	4154
846.478	4071
846.614	3937
846.75	3991
846.886	3915
847.022	4040
847.158	3983
847.294	4032
847.429	4021
847.565	4006
847.701	4238
847.837	3911
847.972	3922
848.108	3975
848.244	3975
848.379	3838
848.515	3846
848.65	3827
848.786	3861
848.921	3842
849.057	3949
849.192	3949
849.328	3926
849.463	3907
849.598	3911
849.734	3873
849.869	3869
850.004	3778
850.14	3835
850.275	3762
850.41	3740
850.545	3766
850.68	3781
850.815	3831
850.95	3819
851.085	3998
851.22	3850
851.355	3838
851.49	3869
851.625	3778
851.76	3812
851.895	3785
852.03	3736
852.165	3804
852.299	3846
852.434	3911
852.569	3907
852.703	3926
852.838	3941
852.973	4013
853.107	4002
853.242	3876
853.376	3888
853.511	3800
853.645	3838
853.78	3972
853.914	3926
854.048	3941
854.183	3918
854.317	3941
854.451	4051
854.585	4010
854.72	3934
854.854	4078
854.988	3956
855.122	4025
855.256	3953
855.39	4013
855.524	4158
855.658	4105
855.792	4105
855.926	4173
856.06	4185
856.194	4230
856.327	4166
856.461	4147
856.595	4207
856.729	4200
856.862	4325
856.996	4234
857.13	4325
857.263	4383
857.397	4352
857.53	4314
857.664	4352
857.797	4440
857.931	4497
858.064	4451
858.197	4443
858.331	4413
858.464	4367
858.597	4371
858.731	4424
858.864	4470
858.997	4451
859.13	4470
859.263	4512
859.396	4577
859.529	4565
859.662	4546
859.795	4565
859.928	4542
860.061	4717
860.194	4744
860.327	4641
860.46	4668
860.592	4740
860.725	4767
860.858	4752
860.99	4717
861.123	4729
861.256	4694
861.388	4744
861.521	5402
861.653	4752
861.786	4729
861.918	4748
862.05	4782
862.183	4862
862.315	4870
862.447	4987
862.58	4911
862.712	4843
862.844	4786
862.976	4885
863.108	4873
863.24	5212
863.372	4839
863.504	4999
863.636	4896
863.768	4976
863.9	4968
864.032	4896
864.164	4942
864.296	5014
864.428	5109
864.559	5109
864.691	5124
864.823	5151
864.954	5132
865.086	5143
865.217	5113
865.349	5166
865.48	5178
865.612	5178
865.743	5330
865.875	5220
866.006	5155
866.137	5227
866.269	5235
866.4	5318
866.531	5265
866.662	5265
866.793	5322
866.924	5288
867.055	5345
867.186	5383
867.317	5353
867.448	5357
867.579	5410
867.71	5383
867.841	5402
867.972	5509
868.103	5486
868.233	5512
868.364	5558
868.495	5577
868.625	5688
868.756	5805
868.886	5676
869.017	5748
869.147	5863
869.278	5805
869.408	5840
869.539	5885
869.669	5999
869.799	5931
869.929	5977
870.06	6034
870.19	6194
870.32	6205
870.45	6331
870.58	6346
870.71	6395
870.84	6433
870.97	6467
871.1	6422
871.23	6597
871.36	6665
871.489	6677
871.619	6703
871.749	6840
871.879	6890
872.008	7000
872.138	6996
872.267	7042
872.397	7042
872.526	7046
872.656	7107
872.785	7175
872.915	7419
873.044	7571
873.173	7605
873.303	7693
873.432	7723
873.561	7928
873.69	7928
873.819	8027
873.948	8096
874.077	8301
874.206	8320
874.335	8396
874.464	8686
874.593	8834
874.722	8944
874.851	9074
874.979	9226
875.108	9397
875.237	9386
875.365	9428
875.494	9648
875.623	9838
875.751	9831
875.88	10036
876.008	10128
876.136	10276
876.265	10470
876.393	10691
876.521	10797
876.65	10797
876.778	10847
876.906	10873
877.034	10934
877.162	11098
877.29	11113
877.418	11280
877.546	11337
877.674	11417
877.802	11467
877.93	11505
878.058	11516
878.185	11524
878.313	11642
878.441	11737
878.568	11703
878.696	11805
878.824	11855
878.951	11961
879.079	11996
879.206	12190
879.333	12083
879.461	11935
879.588	12106
879.715	12041
879.842	12277
879.97	12110
880.097	11923
880.224	11973
880.351	11828
880.478	11866
880.605	11870
880.732	11863
880.859	11965
880.986	11866
881.112	11786
881.239	11786
881.366	11684
881.493	11649
881.619	11524
881.746	11642
881.872	11558
881.999	11509
882.125	11528
882.252	11535
882.378	11509
882.505	11509
882.631	11387
882.757	11277
882.883	11322
883.01	11341
883.136	11204
883.262	11067
883.388	11151
883.514	11235
883.64	11109
883.766	11102
883.892	11064
884.018	11029
884.143	11079
884.269	11094
884.395	10946
884.52	10740
884.646	10820
884.772	10698
884.897	10558
885.023	10748
885.148	10752
885.274	10748
885.399	10649
885.524	10618
885.65	10569
885.775	10577
885.9	10588
886.025	10622
886.15	10523
886.275	10451
886.4	10413
886.525	10481
886.65	10333
886.775	10386
886.9	10405
887.025	10504
887.149	10325
887.274	10303
887.399	10188
887.523	10196
887.648	10120
887.773	10154
887.897	10284
888.021	10284
888.146	10131
888.27	10200
888.395	10169
888.519	10139
888.643	10139
888.767	10147
888.891	10074
889.015	9987
889.139	10010
889.263	9975
889.387	10036
889.511	10207
889.635	10025
889.759	10051
889.883	9975
890.006	10025
890.13	10139
890.254	9945
890.377	9899
890.501	9869
890.624	9911
890.748	9930
890.871	9827
890.995	9732
891.118	9724
891.241	9743
891.364	9740
891.488	9804
891.611	9781
891.734	9759
891.857	9690
891.98	9667
892.103	9804
892.226	9743
892.349	9724
892.471	9504
892.594	9599
892.717	9679
892.839	9587
892.962	9622
893.085	9622
893.207	9511
893.33	9428
893.452	9500
893.575	9625
893.697	9580
893.819	9618
893.941	9686
894.064	9572
894.186	9424
894.308	9401
894.43	9447
894.552	9576
894.674	9515
894.796	9401
894.918	9420
895.04	9431
895.161	9332
895.283	9348
895.405	9180
895.526	9325
895.648	9279
895.769	9192
895.891	9268
896.012	9283
896.134	9237
896.255	9119
896.376	9195
896.498	9100
896.619	9119
896.74	9074
896.861	9116
896.982	9253
897.103	9401
897.224	9199
897.345	9058
897.466	9032
897.587	9005
897.708	9154
897.828	9058
897.949	8990
898.07	8902
898.19	8906
898.311	9039
898.431	8921
898.552	8979
898.672	8956
898.792	8918
898.913	8902
899.033	8800
899.153	8766
899.273	8693
899.393	8667
899.513	8807
899.633	8739
899.753	8750
899.873	8693
899.993	8823
900.113	8758
900.232	8792
900.352	8663
900.472	8629
900.591	8587
900.711	8598
900.83	8617
900.95	8663
901.069	8712
901.189	8610
901.308	8427
901.427	8415
901.546	8480
901.665	8434
901.784	8552
901.904	8412
902.023	8290
902.141	8248
902.26	8199
902.379	8324
902.498	8195
902.617	8233
902.735	8317
902.854	8252
902.973	8259
903.091	8138
903.21	8187
903.328	8145
903.446	8123
903.565	8134
903.683	8153
903.801	8012
903.919	8199
904.038	8149
904.156	8050
904.274	8035
904.392	8035
904.51	8035
904.627	8035
904.745	8065
904.863	8077
904.981	7997
905.098	7947
905.216	7868
905.334	7936
905.451	7989
905.569	7898
905.686	7936
905.803	7951
905.921	7818
906.038	7879
906.155	7780
906.272	7670
906.389	7772
906.506	7647
906.623	7636
906.74	7685
906.857	7575
906.974	7601
907.091	7647
907.208	7685
907.324	7655
907.441	7559
907.557	7460
907.674	7422
907.79	7430
907.907	7457
908.023	7449
908.139	7434
908.256	7419
908.372	7331
908.488	7373
908.604	7270
908.72	7213
908.836	7301
908.952	7297
909.068	7301
909.184	7324
909.3	7228
909.415	7301
909.531	7365
909.647	7091
909.762	7118
909.878	7076
909.993	7107
910.108	7099
910.224	7065
910.339	7187
910.454	7133
910.57	7076
910.685	6939
910.8	7187
910.915	7141
911.03	7061
911.145	6916
911.259	6875
911.374	6905
911.489	6802
911.604	6848
911.718	6677
911.833	6730
911.947	6677
912.062	6631
912.176	6757
912.291	6760
912.405	6700
912.519	6875
912.633	6844
912.748	6730
912.862	6787
912.976	6616
913.09	6555
913.204	6593
913.318	6616
913.431	6681
913.545	6696
913.659	6726
913.772	6650
913.886	6578
914	6540
914.113	6627
914.226	6646
914.34	6631
914.453	6498
914.566	6563
914.68	6513
914.793	6559
914.906	6475
915.019	6456
915.132	6407
915.245	6464
915.358	6418
915.47	6445
915.583	6441
915.696	6509
915.809	6566
915.921	6566
916.034	6407
916.146	6414
916.259	6372
916.371	6441
916.483	6494
916.595	6445
916.708	6407
916.82	6388
916.932	6418
917.044	6395
917.156	6410
917.268	6289
917.38	6391
917.491	6361
917.603	6331
917.715	6399
917.826	6376
917.938	6338
918.049	6251
918.161	6353
918.272	6433
918.384	6464
918.495	6365
918.606	6281
918.717	6258
918.828	6338
918.939	6270
919.05	6243
919.161	6243
919.272	6106
919.383	6205
919.494	6315
919.604	6414
919.715	6311
919.826	6254
919.936	6251
920.047	6357
920.157	6281
920.267	6433
920.378	6346
920.488	6315
920.598	6448
920.708	6563
920.818	6471
920.928	6521
921.038	6616
921.148	6547
921.258	6399
921.368	6334
921.477	6273
921.587	6197
921.697	6098
921.806	6277
921.916	6057
922.025	5980
922.134	5946
922.244	5882
922.353	6007
922.462	5847
922.571	5844
922.68	5665
922.789	5707
922.898	5710
923.007	5634
923.116	5718
923.224	5718
923.333	5745
923.442	5642
923.55	5608
923.659	5551
923.767	5600
923.876	5528
923.984	5577
924.092	5554
924.201	5573
924.309	5592
924.417	5535
924.525	5497
924.633	5547
924.741	6155
924.849	5379
924.956	5471
925.064	5353
925.172	5284
925.279	5315
925.387	5410
925.494	5360
925.602	5459
925.709	5440
925.816	5265
925.924	5383
926.031	5345
926.138	5334
926.245	5349
926.352	5265
926.459	5318
926.566	5368
926.673	5254
926.779	5109
926.886	5178
926.993	5067
927.099	5025
927.206	5003
927.312	4949
927.419	5052
927.525	4991
927.631	4984
927.737	4930
927.843	4843
927.95	4736
928.056	4816
928.162	4820
928.267	4930
928.373	5292
928.479	4858
928.585	4706
928.69	4786
928.796	4797
928.901	4736
929.007	4565
929.112	4637
929.218	4649
929.323	4637
929.428	4561
929.533	4679
929.638	4523
929.743	4527
929.848	4558
929.953	4569
930.058	4489
930.163	4417
930.267	4390
930.372	4398
930.477	4333
930.581	4493
930.685	4413
930.79	4265
930.894	4318
930.998	4253
931.103	4409
931.207	4147
931.311	4071
931.415	4025
931.519	3930
931.623	3998
