Data from glass_V78500241_2196.txt Node
Date: Wed Sep 01 19:29:43 CST 2021
User: usil
Spectrometer: V785-0024
Trigger mode: 0
Integration Time (sec): 4.000000E-1
Scans to average: 1
Nonlinearity correction enabled: false
Boxcar width: 0
Storing dark spectrum: false
XAxis mode: Wavelengths
Number of Pixels in Spectrum: 1024
>>>>>Begin Spectral Data<<<<<
801.071	3755
801.214	3724
801.356	3679
801.499	3781
801.641	3720
801.783	3789
801.926	3835
802.068	3850
802.211	3812
802.353	3922
802.496	3827
802.638	3865
802.78	3876
802.923	3918
803.065	3892
803.208	3888
803.35	3861
803.492	3888
803.635	3892
803.777	3804
803.919	3918
804.061	4135
804.204	3983
804.346	3979
804.488	3926
804.63	3994
804.773	3953
804.915	4025
805.057	4177
805.199	4059
805.341	4105
805.483	4124
805.626	4097
805.768	4139
805.91	4234
806.052	4238
806.194	4223
806.336	4375
806.478	4204
806.62	4204
806.762	4227
806.904	4223
807.046	4291
807.188	4192
807.33	4200
807.472	4246
807.614	4215
807.756	4238
807.898	4181
808.04	4181
808.182	4295
808.324	4303
808.465	4375
808.607	4500
808.749	4481
808.891	4436
809.033	4512
809.174	4413
809.316	4265
809.458	4276
809.6	4166
809.741	4131
809.883	4147
810.025	4188
810.166	4227
810.308	4230
810.45	4177
810.591	4215
810.733	4306
810.875	4443
811.016	4843
811.158	5136
811.299	5261
811.441	5239
811.582	5045
811.724	4656
811.865	4478
812.007	4493
812.148	4428
812.29	4375
812.431	4417
812.573	4352
812.714	4325
812.855	4386
812.997	4413
813.138	4417
813.279	4424
813.421	4379
813.562	4348
813.703	4322
813.845	4352
813.986	4238
814.127	4185
814.268	4325
814.41	4303
814.551	4234
814.692	4337
814.833	4265
814.974	4253
815.115	4337
815.256	4261
815.397	4227
815.539	4257
815.68	4204
815.821	4238
815.962	4280
816.103	4268
816.244	4204
816.385	4185
816.526	4314
816.666	4207
816.807	4090
816.948	4139
817.089	4173
817.23	4105
817.371	4074
817.512	4055
817.653	4082
817.793	3998
817.934	4029
818.075	4078
818.216	4074
818.356	4109
818.497	3998
818.638	3857
818.778	3911
818.919	3873
819.06	3876
819.2	3918
819.341	3884
819.481	3854
819.622	3869
819.762	4002
819.903	3899
820.043	3861
820.184	3816
820.324	3831
820.465	3873
820.605	3892
820.746	3876
820.886	3850
821.026	3949
821.167	3918
821.307	3979
821.447	4010
821.588	3922
821.728	3899
821.868	3915
822.008	3838
822.149	3926
822.289	3888
822.429	3751
822.569	3762
822.709	3804
822.849	3694
822.99	3690
823.13	3755
823.27	3800
823.41	3705
823.55	3709
823.69	3690
823.83	3751
823.97	3667
824.11	3633
824.25	3584
824.389	3637
824.529	3656
824.669	3644
824.809	3690
824.949	3728
825.089	3728
825.228	3671
825.368	3572
825.508	3564
825.648	3568
825.787	3648
825.927	3595
826.067	3610
826.206	3686
826.346	3785
826.485	3831
826.625	3865
826.765	3903
826.904	3823
827.044	3633
827.183	3507
827.323	3458
827.462	3481
827.601	3416
827.741	3424
827.88	3435
828.02	3370
828.159	3428
828.298	3515
828.437	3530
828.577	3454
828.716	3557
828.855	3473
828.994	3397
829.134	3389
829.273	3363
829.412	3313
829.551	3340
829.69	3336
829.829	3405
829.968	3500
830.107	3462
830.246	3428
830.385	3367
830.524	3310
830.663	3321
830.802	3279
830.941	3176
831.08	3203
831.219	3283
831.357	3233
831.496	3409
831.635	3230
831.774	3203
831.913	3199
832.051	3100
832.19	3146
832.329	3218
832.467	3131
832.606	3100
832.744	3146
832.883	3154
833.022	3218
833.16	3256
833.299	3294
833.437	3291
833.576	3355
833.714	3370
833.852	3420
833.991	3424
834.129	3454
834.267	3393
834.406	3401
834.544	3370
834.682	3431
834.821	3431
834.959	3576
835.097	3431
835.235	3504
835.373	3481
835.511	3492
835.65	3443
835.788	3485
835.926	3435
836.064	3409
836.202	3424
836.34	3549
836.478	3652
836.615	3519
836.753	3572
836.891	3656
837.029	3614
837.167	3572
837.305	3534
837.443	3523
837.58	3496
837.718	3595
837.856	3564
837.993	3492
838.131	3587
838.269	3595
838.406	3584
838.544	3538
838.681	3454
838.819	3450
838.956	3405
839.094	3397
839.231	3424
839.369	3481
839.506	3705
839.643	3629
839.781	3477
839.918	3481
840.055	3534
840.193	3542
840.33	3523
840.467	3561
840.604	3568
840.742	3804
840.879	3530
841.016	3557
841.153	3576
841.29	3720
841.427	3701
841.564	3720
841.701	3701
841.838	3732
841.975	3682
842.112	3694
842.249	3652
842.385	3618
842.522	3789
842.659	3694
842.796	3671
842.933	3690
843.069	3694
843.206	3694
843.343	3789
843.479	3732
843.616	3819
843.752	3614
843.889	3686
844.025	3884
844.162	3724
844.298	3823
844.435	3789
844.571	3785
844.708	3896
844.844	3987
844.98	3994
845.117	4036
845.253	3934
845.389	3926
845.525	3979
845.661	3934
845.798	3911
845.934	3983
846.07	3960
846.206	4029
846.342	4071
846.478	4032
846.614	3979
846.75	3899
846.886	3892
847.022	4051
847.158	4036
847.294	4002
847.429	4013
847.565	4013
847.701	4204
847.837	3876
847.972	3869
848.108	3979
848.244	3911
848.379	3846
848.515	3797
848.65	3823
848.786	3827
848.921	3838
849.057	3869
849.192	3857
849.328	3903
849.463	3937
849.598	3884
849.734	3888
849.869	3865
850.004	3755
850.14	3789
850.275	3778
850.41	3743
850.545	3759
850.68	3770
850.815	3766
850.95	3762
851.085	3934
851.22	3899
851.355	3800
851.49	3774
851.625	3838
851.76	3789
851.895	3698
852.03	3698
852.165	3770
852.299	3838
852.434	3880
852.569	3873
852.703	3876
852.838	3899
852.973	4002
853.107	3975
853.242	3865
853.376	3842
853.511	3755
853.645	3800
853.78	4013
853.914	3915
854.048	3876
854.183	3903
854.317	3953
854.451	4082
854.585	3987
854.72	3922
854.854	4044
854.988	3945
855.122	3979
855.256	3918
855.39	3945
855.524	4078
855.658	4105
855.792	4082
855.926	4090
856.06	4192
856.194	4185
856.327	4063
856.461	4116
856.595	4101
856.729	4169
856.862	4238
856.996	4265
857.13	4257
857.263	4337
857.397	4356
857.53	4284
857.664	4356
857.797	4352
857.931	4417
858.064	4447
858.197	4383
858.331	4356
858.464	4356
858.597	4337
858.731	4367
858.864	4443
858.997	4436
859.13	4523
859.263	4485
859.396	4550
859.529	4546
859.662	4546
859.795	4459
859.928	4618
860.061	4675
860.194	4771
860.327	4611
860.46	4645
860.592	4740
860.725	4672
860.858	4774
860.99	4698
861.123	4641
861.256	4752
861.388	4771
861.521	5444
861.653	4767
861.786	4714
861.918	4736
862.05	4812
862.183	4793
862.315	4835
862.447	4915
862.58	4877
862.712	4778
862.844	4778
862.976	4881
863.108	4854
863.24	5159
863.372	4790
863.504	4911
863.636	4896
863.768	4980
863.9	4953
864.032	4904
864.164	4938
864.296	4961
864.428	5090
864.559	5109
864.691	5064
864.823	5162
864.954	5113
865.086	5090
865.217	5155
865.349	5128
865.48	5147
865.612	5193
865.743	5334
865.875	5151
866.006	5197
866.137	5258
866.269	5208
866.4	5250
866.531	5265
866.662	5231
866.793	5223
866.924	5265
867.055	5345
867.186	5334
867.317	5368
867.448	5303
867.579	5353
867.71	5330
867.841	5410
867.972	5436
868.103	5440
868.233	5490
868.364	5512
868.495	5551
868.625	5604
868.756	5828
868.886	5653
869.017	5756
869.147	5832
869.278	5874
869.408	5783
869.539	5817
869.669	5973
869.799	5923
869.929	6007
870.06	5980
870.19	6171
870.32	6171
870.45	6327
870.58	6372
870.71	6471
870.84	6414
870.97	6369
871.1	6448
871.23	6608
871.36	6684
871.489	6646
871.619	6658
871.749	6806
871.879	6806
872.008	6962
872.138	6970
872.267	6981
872.397	7019
872.526	7046
872.656	7129
872.785	7175
872.915	7400
873.044	7529
873.173	7521
873.303	7704
873.432	7750
873.561	7902
873.69	7841
873.819	7993
873.948	8157
874.077	8256
874.206	8324
874.335	8438
874.464	8682
874.593	8823
874.722	8910
874.851	9089
874.979	9245
875.108	9374
875.237	9412
875.365	9481
875.494	9644
875.623	9892
875.751	9861
875.88	9975
876.008	10181
876.136	10314
876.265	10432
876.393	10694
876.521	10752
876.65	10767
876.778	10847
876.906	10927
877.034	11037
877.162	11056
877.29	11128
877.418	11280
877.546	11402
877.674	11353
877.802	11562
877.93	11490
878.058	11539
878.185	11570
878.313	11630
878.441	11672
878.568	11661
878.696	11737
878.824	11882
878.951	11999
879.079	11988
879.206	12087
879.333	12019
879.461	12045
879.588	12125
879.715	12019
879.842	12277
879.97	11980
880.097	11916
880.224	11980
880.351	11885
880.478	11927
880.605	11843
880.732	11741
880.859	11863
880.986	11805
881.112	11847
881.239	11771
881.366	11596
881.493	11554
881.619	11558
881.746	11566
881.872	11577
881.999	11524
882.125	11429
882.252	11543
882.378	11535
882.505	11463
882.631	11364
882.757	11330
882.883	11246
883.01	11265
883.136	11223
883.262	11121
883.388	11109
883.514	11159
883.64	11170
883.766	11025
883.892	10946
884.018	11064
884.143	11018
884.269	11048
884.395	10908
884.52	10706
884.646	10748
884.772	10630
884.897	10626
885.023	10698
885.148	10714
885.274	10820
885.399	10744
885.524	10664
885.65	10523
885.775	10618
885.9	10519
886.025	10558
886.15	10542
886.275	10516
886.4	10390
886.525	10394
886.65	10428
886.775	10344
886.9	10421
887.025	10466
887.149	10291
887.274	10219
887.399	10116
887.523	10204
887.648	10158
887.773	10071
887.897	10257
888.021	10204
888.146	10162
888.27	10211
888.395	10177
888.519	10238
888.643	10131
888.767	10112
888.891	10082
889.015	9968
889.139	10090
889.263	9949
889.387	10063
889.511	10105
889.635	10044
889.759	9934
889.883	9968
890.006	10021
890.13	10131
890.254	9987
890.377	9911
890.501	9785
890.624	9899
890.748	9941
890.871	9854
890.995	9743
891.118	9663
891.241	9736
891.364	9648
891.488	9804
891.611	9778
891.734	9724
891.857	9762
891.98	9663
892.103	9770
892.226	9747
892.349	9743
892.471	9500
892.594	9682
892.717	9618
892.839	9644
892.962	9542
893.085	9606
893.207	9633
893.33	9576
893.452	9450
893.575	9587
893.697	9466
893.819	9633
893.941	9656
894.064	9625
894.186	9496
894.308	9386
894.43	9511
894.552	9530
894.674	9572
894.796	9355
894.918	9325
895.04	9412
895.161	9336
895.283	9287
895.405	9237
895.526	9245
895.648	9230
895.769	9260
895.891	9233
896.012	9214
896.134	9188
896.255	9138
896.376	9112
896.498	9199
896.619	9123
896.74	9051
896.861	9154
896.982	9230
897.103	9272
897.224	9116
897.345	9135
897.466	9005
897.587	9001
897.708	9100
897.828	8990
897.949	8933
898.07	8925
898.19	8918
898.311	9051
898.431	8849
898.552	9024
898.672	8948
898.792	8921
898.913	8899
899.033	8819
899.153	8701
899.273	8617
899.393	8686
899.513	8708
899.633	8773
899.753	8678
899.873	8739
899.993	8758
900.113	8659
900.232	8697
900.352	8629
900.472	8602
900.591	8537
900.711	8549
900.83	8583
900.95	8663
901.069	8678
901.189	8503
901.308	8457
901.427	8427
901.546	8415
901.665	8423
901.784	8450
901.904	8374
902.023	8328
902.141	8164
902.26	8172
902.379	8317
902.498	8279
902.617	8229
902.735	8298
902.854	8176
902.973	8248
903.091	8164
903.21	8138
903.328	8073
903.446	8058
903.565	8016
903.683	8054
903.801	8050
903.919	8111
904.038	8134
904.156	8107
904.274	8073
904.392	8050
904.51	8012
904.627	8084
904.745	8092
904.863	8073
904.981	7875
905.098	7814
905.216	7845
905.334	7890
905.451	7917
905.569	7818
905.686	7963
905.803	7871
905.921	7769
906.038	7772
906.155	7772
906.272	7704
906.389	7731
906.506	7651
906.623	7712
906.74	7616
906.857	7518
906.974	7537
907.091	7613
907.208	7704
907.324	7613
907.441	7521
907.557	7445
907.674	7468
907.79	7358
907.907	7301
908.023	7403
908.139	7506
908.256	7320
908.372	7407
908.488	7362
908.604	7259
908.72	7228
908.836	7263
908.952	7263
909.068	7259
909.184	7335
909.3	7244
909.415	7274
909.531	7335
909.647	7065
909.762	7152
909.878	7050
909.993	7145
910.108	7122
910.224	7072
910.339	7072
910.454	7050
910.57	6973
910.685	6996
910.8	7179
910.915	7023
911.03	7015
911.145	6875
911.259	6875
911.374	6962
911.489	6859
911.604	6760
911.718	6722
911.833	6711
911.947	6623
912.062	6566
912.176	6696
912.291	6665
912.405	6703
912.519	6757
912.633	6806
912.748	6787
912.862	6738
912.976	6578
913.09	6525
913.204	6597
913.318	6593
913.431	6650
913.545	6703
913.659	6677
913.772	6654
913.886	6563
914	6483
914.113	6620
914.226	6585
914.34	6627
914.453	6456
914.566	6601
914.68	6513
914.793	6536
914.906	6376
915.019	6365
915.132	6353
915.245	6414
915.358	6376
915.47	6475
915.583	6391
915.696	6452
915.809	6525
915.921	6582
916.034	6353
916.146	6361
916.259	6346
916.371	6513
916.483	6395
916.595	6365
916.708	6380
916.82	6357
916.932	6361
917.044	6361
917.156	6395
917.268	6277
917.38	6334
917.491	6251
917.603	6372
917.715	6350
917.826	6395
917.938	6327
918.049	6235
918.161	6296
918.272	6414
918.384	6403
918.495	6323
918.606	6190
918.717	6186
918.828	6270
918.939	6266
919.05	6190
919.161	6311
919.272	6079
919.383	6190
919.494	6292
919.604	6433
919.715	6285
919.826	6209
919.936	6205
920.047	6285
920.157	6243
920.267	6486
920.378	6300
920.488	6247
920.598	6448
920.708	6555
920.818	6479
920.928	6460
921.038	6612
921.148	6551
921.258	6395
921.368	6342
921.477	6235
921.587	6220
921.697	6148
921.806	6194
921.916	6110
922.025	5946
922.134	5935
922.244	5794
922.353	5904
922.462	5851
922.571	5786
922.68	5661
922.789	5684
922.898	5668
923.007	5695
923.116	5745
923.224	5745
923.333	5714
923.442	5608
923.55	5554
923.659	5589
923.767	5665
923.876	5528
923.984	5566
924.092	5497
924.201	5516
924.309	5501
924.417	5589
924.525	5474
924.633	5512
924.741	6289
924.849	5368
924.956	5509
925.064	5311
925.172	5261
925.279	5334
925.387	5318
925.494	5292
925.602	5402
925.709	5345
925.816	5254
925.924	5334
926.031	5334
926.138	5269
926.245	5258
926.352	5250
926.459	5299
926.566	5299
926.673	5204
926.779	5117
926.886	5140
926.993	5052
927.099	5003
927.206	4995
927.312	4927
927.419	4987
927.525	4984
927.631	4961
927.737	4908
927.843	4854
927.95	4755
928.056	4828
928.162	4831
928.267	4850
928.373	5349
928.479	4847
928.585	4630
928.69	4778
928.796	4763
928.901	4653
929.007	4577
929.112	4664
929.218	4615
929.323	4592
929.428	4561
929.533	4634
929.638	4527
929.743	4546
929.848	4550
929.953	4500
930.058	4459
930.163	4363
930.267	4375
930.372	4447
930.477	4295
930.581	4455
930.685	4344
930.79	4234
930.894	4272
930.998	4242
931.103	4341
931.207	4131
931.311	4090
931.415	4051
931.519	3888
931.623	3937
