Data from glass_V78500241_933.txt Node
Date: Wed Sep 01 19:20:58 CST 2021
User: usil
Spectrometer: V785-0024
Trigger mode: 0
Integration Time (sec): 4.000000E-1
Scans to average: 1
Nonlinearity correction enabled: false
Boxcar width: 0
Storing dark spectrum: false
XAxis mode: Wavelengths
Number of Pixels in Spectrum: 1024
>>>>>Begin Spectral Data<<<<<
801.071	3732
801.214	3713
801.356	3728
801.499	3762
801.641	3755
801.783	3797
801.926	3857
802.068	3857
802.211	3819
802.353	3907
802.496	3842
802.638	3907
802.78	3922
802.923	3941
803.065	3903
803.208	3838
803.35	3880
803.492	3892
803.635	3930
803.777	3766
803.919	3930
804.061	4154
804.204	3960
804.346	3991
804.488	3903
804.63	4032
804.773	3975
804.915	4051
805.057	4143
805.199	4078
805.341	4082
805.483	4169
805.626	4097
805.768	4154
805.91	4204
806.052	4261
806.194	4211
806.336	4363
806.478	4223
806.62	4150
806.762	4211
806.904	4265
807.046	4352
807.188	4234
807.33	4192
807.472	4253
807.614	4181
807.756	4284
807.898	4242
808.04	4192
808.182	4253
808.324	4356
808.465	4386
808.607	4455
808.749	4443
808.891	4474
809.033	4504
809.174	4443
809.316	4284
809.458	4238
809.6	4154
809.741	4101
809.883	4150
810.025	4238
810.166	4192
810.308	4249
810.45	4253
810.591	4257
810.733	4314
810.875	4527
811.016	4782
811.158	5162
811.299	5296
811.441	5277
811.582	5071
811.724	4653
811.865	4508
812.007	4519
812.148	4421
812.29	4436
812.431	4421
812.573	4337
812.714	4363
812.855	4428
812.997	4409
813.138	4481
813.279	4402
813.421	4413
813.562	4379
813.703	4352
813.845	4386
813.986	4261
814.127	4287
814.268	4211
814.41	4287
814.551	4265
814.692	4333
814.833	4280
814.974	4329
815.115	4356
815.256	4276
815.397	4249
815.539	4272
815.68	4230
815.821	4185
815.962	4322
816.103	4295
816.244	4261
816.385	4227
816.526	4299
816.666	4192
816.807	4109
816.948	4150
817.089	4181
817.23	4143
817.371	4048
817.512	4082
817.653	4078
817.793	4044
817.934	4048
818.075	4105
818.216	4090
818.356	4120
818.497	4002
818.638	3979
818.778	3937
818.919	3869
819.06	3865
819.2	3903
819.341	3873
819.481	3785
819.622	3930
819.762	4025
819.903	3930
820.043	3892
820.184	3857
820.324	3884
820.465	3873
820.605	3831
820.746	3892
820.886	3827
821.026	3911
821.167	3915
821.307	3949
821.447	3949
821.588	3960
821.728	3934
821.868	3941
822.008	3899
822.149	3926
822.289	3983
822.429	3785
822.569	3789
822.709	3812
822.849	3690
822.99	3751
823.13	3747
823.27	3774
823.41	3762
823.55	3740
823.69	3759
823.83	3785
823.97	3671
824.11	3618
824.25	3614
824.389	3663
824.529	3720
824.669	3644
824.809	3751
824.949	3762
825.089	3747
825.228	3743
825.368	3591
825.508	3587
825.648	3591
825.787	3610
825.927	3663
826.067	3637
826.206	3671
826.346	3789
826.485	3846
826.625	3896
826.765	3956
826.904	3850
827.044	3603
827.183	3519
827.323	3412
827.462	3466
827.601	3458
827.741	3450
827.88	3492
828.02	3416
828.159	3454
828.298	3443
828.437	3519
828.577	3500
828.716	3584
828.855	3481
828.994	3424
829.134	3409
829.273	3401
829.412	3351
829.551	3367
829.69	3374
829.829	3443
829.968	3534
830.107	3439
830.246	3462
830.385	3424
830.524	3405
830.663	3291
830.802	3272
830.941	3226
831.08	3195
831.219	3275
831.357	3260
831.496	3393
831.635	3233
831.774	3203
831.913	3230
832.051	3135
832.19	3157
832.329	3199
832.467	3127
832.606	3119
832.744	3184
832.883	3173
833.022	3184
833.16	3260
833.299	3332
833.437	3344
833.576	3351
833.714	3439
833.852	3454
833.991	3435
834.129	3500
834.267	3473
834.406	3412
834.544	3454
834.682	3431
834.821	3412
834.959	3599
835.097	3450
835.235	3542
835.373	3519
835.511	3500
835.65	3477
835.788	3530
835.926	3386
836.064	3397
836.202	3431
836.34	3561
836.478	3637
836.615	3523
836.753	3606
836.891	3652
837.029	3610
837.167	3622
837.305	3584
837.443	3572
837.58	3530
837.718	3610
837.856	3515
837.993	3534
838.131	3633
838.269	3599
838.406	3587
838.544	3595
838.681	3462
838.819	3462
838.956	3378
839.094	3416
839.231	3496
839.369	3515
839.506	3762
839.643	3682
839.781	3530
839.918	3462
840.055	3557
840.193	3511
840.33	3526
840.467	3568
840.604	3625
840.742	3808
840.879	3568
841.016	3557
841.153	3610
841.29	3759
841.427	3720
841.564	3690
841.701	3759
841.838	3747
841.975	3682
842.112	3717
842.249	3675
842.385	3614
842.522	3800
842.659	3682
842.796	3728
842.933	3713
843.069	3732
843.206	3709
843.343	3838
843.479	3785
843.616	3842
843.752	3713
843.889	3690
844.025	3857
844.162	3751
844.298	3854
844.435	3778
844.571	3804
844.708	3911
844.844	4036
844.98	3979
845.117	4021
845.253	3956
845.389	3907
845.525	3968
845.661	3968
845.798	3915
845.934	3979
846.07	3960
846.206	4090
846.342	4090
846.478	4071
846.614	4017
846.75	3930
846.886	3892
847.022	4048
847.158	3998
847.294	3975
847.429	4021
847.565	3968
847.701	4280
847.837	3884
847.972	3922
848.108	3991
848.244	4013
848.379	3888
848.515	3816
848.65	3789
848.786	3838
848.921	3857
849.057	3903
849.192	3987
849.328	3956
849.463	3968
849.598	3892
849.734	3892
849.869	3812
850.004	3831
850.14	3831
850.275	3797
850.41	3762
850.545	3785
850.68	3785
850.815	3778
850.95	3808
851.085	3918
851.22	3922
851.355	3850
851.49	3808
851.625	3827
851.76	3789
851.895	3751
852.03	3781
852.165	3800
852.299	3907
852.434	3911
852.569	3880
852.703	3896
852.838	3960
852.973	3972
853.107	4040
853.242	3892
853.376	3869
853.511	3808
853.645	3831
853.78	3994
853.914	3892
854.048	3915
854.183	3903
854.317	3926
854.451	4071
854.585	3949
854.72	3922
854.854	4109
854.988	3907
855.122	3994
855.256	3911
855.39	4040
855.524	4078
855.658	4128
855.792	4116
855.926	4109
856.06	4200
856.194	4242
856.327	4131
856.461	4112
856.595	4181
856.729	4211
856.862	4234
856.996	4234
857.13	4337
857.263	4329
857.397	4386
857.53	4272
857.664	4383
857.797	4390
857.931	4405
858.064	4383
858.197	4508
858.331	4428
858.464	4363
858.597	4363
858.731	4493
858.864	4474
858.997	4451
859.13	4481
859.263	4561
859.396	4584
859.529	4535
859.662	4527
859.795	4546
859.928	4649
860.061	4702
860.194	4786
860.327	4675
860.46	4626
860.592	4778
860.725	4736
860.858	4771
860.99	4694
861.123	4668
861.256	4717
861.388	4725
861.521	5524
861.653	4793
861.786	4717
861.918	4782
862.05	4774
862.183	4873
862.315	4873
862.447	4938
862.58	4850
862.712	4790
862.844	4763
862.976	4904
863.108	4900
863.24	5204
863.372	4866
863.504	4885
863.636	4930
863.768	4984
863.9	5022
864.032	4915
864.164	4930
864.296	5025
864.428	5124
864.559	5132
864.691	5124
864.823	5128
864.954	5105
865.086	5132
865.217	5151
865.349	5170
865.48	5147
865.612	5216
865.743	5258
865.875	5239
866.006	5193
866.137	5299
866.269	5254
866.4	5292
866.531	5265
866.662	5258
866.793	5258
866.924	5288
867.055	5360
867.186	5368
867.317	5364
867.448	5292
867.579	5376
867.71	5414
867.841	5482
867.972	5486
868.103	5505
868.233	5444
868.364	5478
868.495	5532
868.625	5668
868.756	5794
868.886	5703
869.017	5714
869.147	5885
869.278	5912
869.408	5783
869.539	5878
869.669	5973
869.799	5904
869.929	5954
870.06	6026
870.19	6220
870.32	6201
870.45	6254
870.58	6365
870.71	6460
870.84	6452
870.97	6395
871.1	6441
871.23	6646
871.36	6692
871.489	6707
871.619	6741
871.749	6802
871.879	6859
872.008	7076
872.138	6970
872.267	6993
872.397	6947
872.526	7031
872.656	7099
872.785	7244
872.915	7407
873.044	7586
873.173	7578
873.303	7674
873.432	7727
873.561	7822
873.69	7917
873.819	7963
873.948	8168
874.077	8267
874.206	8286
874.335	8465
874.464	8682
874.593	8914
874.722	8925
874.851	9157
874.979	9207
875.108	9393
875.237	9454
875.365	9485
875.494	9686
875.623	9899
875.751	9861
875.88	10090
876.008	10173
876.136	10234
876.265	10527
876.393	10683
876.521	10675
876.65	10843
876.778	10915
876.906	10816
877.034	11045
877.162	11109
877.29	11128
877.418	11364
877.546	11364
877.674	11360
877.802	11543
877.93	11528
878.058	11516
878.185	11585
878.313	11668
878.441	11783
878.568	11710
878.696	11756
878.824	11885
878.951	11961
879.079	12015
879.206	12171
879.333	12083
879.461	11992
879.588	12072
879.715	12140
879.842	12224
879.97	12076
880.097	11859
880.224	11977
880.351	11836
880.478	11889
880.605	11828
880.732	11745
880.859	11946
880.986	11882
881.112	11802
881.239	11832
881.366	11638
881.493	11539
881.619	11551
881.746	11653
881.872	11585
881.999	11524
882.125	11402
882.252	11543
882.378	11509
882.505	11627
882.631	11372
882.757	11364
882.883	11330
883.01	11269
883.136	11220
883.262	11143
883.388	11105
883.514	11212
883.64	11174
883.766	11105
883.892	10984
884.018	10980
884.143	11075
884.269	11056
884.395	10866
884.52	10778
884.646	10828
884.772	10656
884.897	10672
885.023	10714
885.148	10763
885.274	10793
885.399	10706
885.524	10580
885.65	10592
885.775	10626
885.9	10516
886.025	10588
886.15	10569
886.275	10481
886.4	10356
886.525	10447
886.65	10367
886.775	10333
886.9	10500
887.025	10531
887.149	10382
887.274	10310
887.399	10200
887.523	10158
887.648	10154
887.773	10154
887.897	10219
888.021	10181
888.146	10086
888.27	10291
888.395	10204
888.519	10204
888.643	10143
888.767	10143
888.891	10150
889.015	10044
889.139	10131
889.263	10021
889.387	10097
889.511	10242
889.635	10032
889.759	9941
889.883	10029
890.006	10078
890.13	10051
890.254	9922
890.377	9949
890.501	9835
890.624	9854
890.748	9869
890.871	9800
890.995	9789
891.118	9686
891.241	9808
891.364	9759
891.488	9884
891.611	9740
891.734	9736
891.857	9755
891.98	9709
892.103	9812
892.226	9747
892.349	9747
892.471	9530
892.594	9629
892.717	9705
892.839	9530
892.962	9576
893.085	9652
893.207	9545
893.33	9530
893.452	9469
893.575	9603
893.697	9587
893.819	9698
893.941	9663
894.064	9694
894.186	9469
894.308	9389
894.43	9523
894.552	9591
894.674	9523
894.796	9401
894.918	9348
895.04	9374
895.161	9435
895.283	9393
895.405	9214
895.526	9249
895.648	9256
895.769	9237
895.891	9340
896.012	9344
896.134	9173
896.255	9241
896.376	9176
896.498	9161
896.619	9157
896.74	9070
896.861	9108
896.982	9302
897.103	9291
897.224	9192
897.345	9081
897.466	8975
897.587	9055
897.708	9176
897.828	9127
897.949	8941
898.07	8834
898.19	8925
898.311	9017
898.431	8952
898.552	8902
898.672	8986
898.792	8925
898.913	8933
899.033	8804
899.153	8743
899.273	8655
899.393	8712
899.513	8724
899.633	8754
899.753	8727
899.873	8766
899.993	8773
900.113	8716
900.232	8720
900.352	8686
900.472	8648
900.591	8541
900.711	8625
900.83	8579
900.95	8674
901.069	8712
901.189	8583
901.308	8446
901.427	8396
901.546	8454
901.665	8507
901.784	8495
901.904	8396
902.023	8294
902.141	8202
902.26	8202
902.379	8358
902.498	8248
902.617	8142
902.735	8267
902.854	8366
902.973	8240
903.091	8115
903.21	8138
903.328	8275
903.446	8103
903.565	8050
903.683	8100
903.801	8100
903.919	8096
904.038	8153
904.156	8024
904.274	8119
904.392	8103
904.51	8043
904.627	8039
904.745	8145
904.863	8111
904.981	7921
905.098	7894
905.216	7860
905.334	7940
905.451	7967
905.569	7860
905.686	8001
905.803	7890
905.921	7780
906.038	7864
906.155	7826
906.272	7700
906.389	7696
906.506	7639
906.623	7594
906.74	7624
906.857	7620
906.974	7571
907.091	7734
907.208	7704
907.324	7674
907.441	7518
907.557	7441
907.674	7438
907.79	7400
907.907	7331
908.023	7518
908.139	7449
908.256	7411
908.372	7373
908.488	7358
908.604	7255
908.72	7179
908.836	7247
908.952	7236
909.068	7259
909.184	7316
909.3	7244
909.415	7369
909.531	7301
909.647	7034
909.762	7129
909.878	7084
909.993	7038
910.108	7084
910.224	7141
910.339	7152
910.454	7118
910.57	7015
910.685	7004
910.8	7198
910.915	7099
911.03	7000
911.145	6970
911.259	6894
911.374	6939
911.489	6852
911.604	6825
911.718	6688
911.833	6719
911.947	6684
912.062	6608
912.176	6722
912.291	6722
912.405	6722
912.519	6821
912.633	6856
912.748	6722
912.862	6726
912.976	6620
913.09	6578
913.204	6597
913.318	6601
913.431	6627
913.545	6684
913.659	6749
913.772	6711
913.886	6536
914	6559
914.113	6662
914.226	6642
914.34	6604
914.453	6509
914.566	6574
914.68	6521
914.793	6536
914.906	6395
915.019	6403
915.132	6319
915.245	6445
915.358	6433
915.47	6399
915.583	6513
915.696	6467
915.809	6570
915.921	6551
916.034	6395
916.146	6395
916.259	6445
916.371	6509
916.483	6486
916.595	6418
916.708	6445
916.82	6445
916.932	6334
917.044	6418
917.156	6410
917.268	6273
917.38	6327
917.491	6357
917.603	6308
917.715	6410
917.826	6403
917.938	6331
918.049	6197
918.161	6357
918.272	6410
918.384	6445
918.495	6357
918.606	6277
918.717	6197
918.828	6289
918.939	6262
919.05	6190
919.161	6235
919.272	6117
919.383	6148
919.494	6273
919.604	6437
919.715	6281
919.826	6277
919.936	6243
920.047	6327
920.157	6247
920.267	6410
920.378	6331
920.488	6254
920.598	6441
920.708	6566
920.818	6494
920.928	6509
921.038	6620
921.148	6525
921.258	6376
921.368	6315
921.477	6216
921.587	6163
921.697	6102
921.806	6136
921.916	6152
922.025	5988
922.134	5939
922.244	5927
922.353	5977
922.462	5885
922.571	5779
922.68	5653
922.789	5703
922.898	5764
923.007	5642
923.116	5710
923.224	5703
923.333	5634
923.442	5585
923.55	5547
923.659	5551
923.767	5627
923.876	5535
923.984	5577
924.092	5524
924.201	5589
924.309	5562
924.417	5554
924.525	5493
924.633	5509
924.741	6171
924.849	5410
924.956	5478
925.064	5364
925.172	5303
925.279	5341
925.387	5341
925.494	5372
925.602	5395
925.709	5406
925.816	5280
925.924	5307
926.031	5387
926.138	5326
926.245	5337
926.352	5254
926.459	5318
926.566	5318
926.673	5254
926.779	5155
926.886	5159
926.993	5083
927.099	5022
927.206	5003
927.312	4987
927.419	4995
927.525	5029
927.631	4984
927.737	4900
927.843	4877
927.95	4740
928.056	4824
928.162	4839
928.267	4889
928.373	5341
928.479	4839
928.585	4691
928.69	4786
928.796	4778
928.901	4725
929.007	4558
929.112	4683
929.218	4630
929.323	4637
929.428	4546
929.533	4706
929.638	4527
929.743	4584
929.848	4531
929.953	4565
930.058	4466
930.163	4344
930.267	4360
930.372	4443
930.477	4314
930.581	4519
930.685	4333
930.79	4253
930.894	4306
930.998	4253
931.103	4428
931.207	4147
931.311	4097
931.415	4074
931.519	3953
931.623	3911
