Data from glass_V78500241_303.txt Node
Date: Wed Sep 01 19:16:35 CST 2021
User: usil
Spectrometer: V785-0024
Trigger mode: 0
Integration Time (sec): 4.000000E-1
Scans to average: 1
Nonlinearity correction enabled: false
Boxcar width: 0
Storing dark spectrum: false
XAxis mode: Wavelengths
Number of Pixels in Spectrum: 1024
>>>>>Begin Spectral Data<<<<<
801.071	3808
801.214	3785
801.356	3740
801.499	3747
801.641	3736
801.783	3770
801.926	3842
802.068	3838
802.211	3873
802.353	3880
802.496	3846
802.638	3857
802.78	3922
802.923	3884
803.065	3884
803.208	3888
803.35	3876
803.492	3941
803.635	3907
803.777	3747
803.919	3911
804.061	4162
804.204	4002
804.346	3956
804.488	3934
804.63	4006
804.773	4013
804.915	4002
805.057	4154
805.199	4067
805.341	4109
805.483	4166
805.626	4139
805.768	4147
805.91	4238
806.052	4207
806.194	4162
806.336	4352
806.478	4242
806.62	4188
806.762	4207
806.904	4265
807.046	4333
807.188	4246
807.33	4185
807.472	4265
807.614	4147
807.756	4249
807.898	4207
808.04	4196
808.182	4329
808.324	4299
808.465	4405
808.607	4527
808.749	4485
808.891	4462
809.033	4508
809.174	4424
809.316	4249
809.458	4230
809.6	4177
809.741	4150
809.883	4139
810.025	4242
810.166	4215
810.308	4246
810.45	4230
810.591	4287
810.733	4306
810.875	4516
811.016	4831
811.158	5189
811.299	5284
811.441	5322
811.582	5052
811.724	4725
811.865	4493
812.007	4459
812.148	4478
812.29	4398
812.431	4417
812.573	4394
812.714	4386
812.855	4428
812.997	4424
813.138	4523
813.279	4447
813.421	4447
813.562	4398
813.703	4291
813.845	4371
813.986	4253
814.127	4211
814.268	4268
814.41	4287
814.551	4261
814.692	4348
814.833	4295
814.974	4344
815.115	4322
815.256	4261
815.397	4242
815.539	4272
815.68	4169
815.821	4200
815.962	4284
816.103	4284
816.244	4257
816.385	4253
816.526	4276
816.666	4249
816.807	4116
816.948	4188
817.089	4207
817.23	4150
817.371	4040
817.512	4059
817.653	4078
817.793	4044
817.934	4086
818.075	4124
818.216	4086
818.356	4128
818.497	4029
818.638	3915
818.778	3896
818.919	3892
819.06	3869
819.2	3953
819.341	3857
819.481	3850
819.622	3903
819.762	3994
819.903	3991
820.043	3899
820.184	3899
820.324	3850
820.465	3907
820.605	3857
820.746	3911
820.886	3804
821.026	3934
821.167	3934
821.307	4006
821.447	3991
821.588	3964
821.728	4006
821.868	3979
822.008	3930
822.149	3934
822.289	3922
822.429	3762
822.569	3812
822.709	3800
822.849	3686
822.99	3709
823.13	3778
823.27	3781
823.41	3720
823.55	3774
823.69	3736
823.83	3747
823.97	3690
824.11	3614
824.25	3610
824.389	3633
824.529	3660
824.669	3625
824.809	3732
824.949	3793
825.089	3747
825.228	3698
825.368	3648
825.508	3549
825.648	3580
825.787	3606
825.927	3652
826.067	3660
826.206	3717
826.346	3842
826.485	3819
826.625	3869
826.765	3960
826.904	3888
827.044	3633
827.183	3545
827.323	3447
827.462	3519
827.601	3428
827.741	3420
827.88	3469
828.02	3409
828.159	3443
828.298	3485
828.437	3538
828.577	3450
828.716	3641
828.855	3564
828.994	3393
829.134	3393
829.273	3412
829.412	3348
829.551	3348
829.69	3409
829.829	3439
829.968	3564
830.107	3519
830.246	3462
830.385	3424
830.524	3405
830.663	3272
830.802	3279
830.941	3222
831.08	3230
831.219	3291
831.357	3268
831.496	3439
831.635	3233
831.774	3233
831.913	3199
832.051	3157
832.19	3157
832.329	3233
832.467	3154
832.606	3112
832.744	3233
832.883	3184
833.022	3169
833.16	3291
833.299	3348
833.437	3351
833.576	3340
833.714	3416
833.852	3469
833.991	3431
834.129	3488
834.267	3450
834.406	3386
834.544	3439
834.682	3435
834.821	3416
834.959	3584
835.097	3420
835.235	3534
835.373	3511
835.511	3530
835.65	3473
835.788	3488
835.926	3405
836.064	3378
836.202	3447
836.34	3606
836.478	3644
836.615	3549
836.753	3606
836.891	3629
837.029	3610
837.167	3580
837.305	3511
837.443	3580
837.58	3507
837.718	3610
837.856	3561
837.993	3542
838.131	3606
838.269	3587
838.406	3606
838.544	3564
838.681	3496
838.819	3447
838.956	3405
839.094	3424
839.231	3443
839.369	3530
839.506	3740
839.643	3652
839.781	3549
839.918	3469
840.055	3553
840.193	3538
840.33	3572
840.467	3587
840.604	3648
840.742	3819
840.879	3557
841.016	3622
841.153	3629
841.29	3770
841.427	3747
841.564	3759
841.701	3781
841.838	3717
841.975	3682
842.112	3774
842.249	3694
842.385	3648
842.522	3793
842.659	3728
842.796	3667
842.933	3709
843.069	3720
843.206	3759
843.343	3785
843.479	3816
843.616	3812
843.752	3656
843.889	3698
844.025	3896
844.162	3717
844.298	3880
844.435	3838
844.571	3774
844.708	3930
844.844	3991
844.98	4013
845.117	4082
845.253	3949
845.389	3934
845.525	3975
845.661	4006
845.798	3960
845.934	4006
846.07	3953
846.206	4074
846.342	4109
846.478	4086
846.614	3998
846.75	3930
846.886	3892
847.022	4044
847.158	4006
847.294	4032
847.429	4017
847.565	4032
847.701	4276
847.837	3869
847.972	3907
848.108	3972
848.244	4021
848.379	3884
848.515	3819
848.65	3808
848.786	3892
848.921	3873
849.057	3884
849.192	3968
849.328	3884
849.463	3945
849.598	3903
849.734	3869
849.869	3850
850.004	3850
850.14	3819
850.275	3785
850.41	3793
850.545	3755
850.68	3759
850.815	3766
850.95	3812
851.085	3918
851.22	3896
851.355	3861
851.49	3793
851.625	3800
851.76	3785
851.895	3713
852.03	3781
852.165	3827
852.299	3899
852.434	3941
852.569	3888
852.703	3880
852.838	3972
852.973	4006
853.107	3983
853.242	3911
853.376	3903
853.511	3766
853.645	3888
853.78	3964
853.914	3888
854.048	3884
854.183	3930
854.317	3960
854.451	4059
854.585	4002
854.72	3922
854.854	4090
854.988	3945
855.122	3998
855.256	3953
855.39	4048
855.524	4158
855.658	4116
855.792	4116
855.926	4109
856.06	4162
856.194	4192
856.327	4169
856.461	4181
856.595	4162
856.729	4162
856.862	4287
856.996	4261
857.13	4337
857.263	4310
857.397	4375
857.53	4287
857.664	4360
857.797	4394
857.931	4413
858.064	4375
858.197	4474
858.331	4402
858.464	4405
858.597	4367
858.731	4519
858.864	4455
858.997	4440
859.13	4519
859.263	4565
859.396	4577
859.529	4546
859.662	4561
859.795	4527
859.928	4596
860.061	4740
860.194	4748
860.327	4691
860.46	4717
860.592	4752
860.725	4816
860.858	4767
860.99	4702
861.123	4733
861.256	4710
861.388	4809
861.521	5261
861.653	4771
861.786	4736
861.918	4797
862.05	4824
862.183	4839
862.315	4885
862.447	4930
862.58	4915
862.712	4854
862.844	4752
862.976	4934
863.108	4858
863.24	5258
863.372	4858
863.504	4885
863.636	4953
863.768	4987
863.9	4991
864.032	4904
864.164	4995
864.296	5029
864.428	5128
864.559	5121
864.691	5132
864.823	5124
864.954	5128
865.086	5083
865.217	5132
865.349	5121
865.48	5201
865.612	5227
865.743	5315
865.875	5208
866.006	5223
866.137	5246
866.269	5261
866.4	5292
866.531	5204
866.662	5265
866.793	5303
866.924	5273
867.055	5368
867.186	5318
867.317	5360
867.448	5326
867.579	5376
867.71	5372
867.841	5383
867.972	5486
868.103	5482
868.233	5551
868.364	5535
868.495	5581
868.625	5680
868.756	5764
868.886	5710
869.017	5729
869.147	5870
869.278	5866
869.408	5828
869.539	5802
869.669	5920
869.799	5920
869.929	5984
870.06	6011
870.19	6224
870.32	6220
870.45	6304
870.58	6395
870.71	6448
870.84	6445
870.97	6426
871.1	6441
871.23	6627
871.36	6745
871.489	6688
871.619	6741
871.749	6814
871.879	6924
872.008	7031
872.138	6989
872.267	7023
872.397	6981
872.526	6962
872.656	7137
872.785	7160
872.915	7301
873.044	7594
873.173	7586
873.303	7567
873.432	7792
873.561	7845
873.69	7982
873.819	8054
873.948	8183
874.077	8263
874.206	8404
874.335	8503
874.464	8674
874.593	8861
874.722	8914
874.851	9135
874.979	9207
875.108	9370
875.237	9393
875.365	9435
875.494	9660
875.623	9838
875.751	9880
875.88	10013
876.008	10204
876.136	10344
876.265	10519
876.393	10801
876.521	10755
876.65	10805
876.778	10881
876.906	10896
877.034	11006
877.162	11090
877.29	11170
877.418	11250
877.546	11398
877.674	11433
877.802	11448
877.93	11600
878.058	11570
878.185	11623
878.313	11638
878.441	11726
878.568	11657
878.696	11756
878.824	11878
878.951	11927
879.079	11992
879.206	12144
879.333	12060
879.461	11999
879.588	12133
879.715	12125
879.842	12163
879.97	12041
880.097	11855
880.224	11878
880.351	11931
880.478	11942
880.605	11802
880.732	11874
880.859	12038
880.986	11863
881.112	11897
881.239	11737
881.366	11710
881.493	11604
881.619	11634
881.746	11585
881.872	11505
881.999	11516
882.125	11566
882.252	11547
882.378	11535
882.505	11512
882.631	11360
882.757	11288
882.883	11360
883.01	11280
883.136	11143
883.262	11067
883.388	11056
883.514	11170
883.64	11242
883.766	11094
883.892	10980
884.018	10987
884.143	11029
884.269	11140
884.395	10892
884.52	10862
884.646	10850
884.772	10687
884.897	10637
885.023	10774
885.148	10694
885.274	10763
885.399	10736
885.524	10694
885.65	10698
885.775	10558
885.9	10558
886.025	10645
886.15	10592
886.275	10478
886.4	10440
886.525	10413
886.65	10382
886.775	10360
886.9	10508
887.025	10481
887.149	10386
887.274	10265
887.399	10238
887.523	10185
887.648	10169
887.773	10109
887.897	10227
888.021	10242
888.146	10188
888.27	10215
888.395	10257
888.519	10143
888.643	10238
888.767	10219
888.891	10109
889.015	10063
889.139	10097
889.263	9972
889.387	10071
889.511	10185
889.635	10078
889.759	9884
889.883	9895
890.006	10086
890.13	10128
890.254	10078
890.377	9987
890.501	9873
890.624	9876
890.748	9945
890.871	9701
890.995	9774
891.118	9663
891.241	9789
891.364	9709
891.488	9888
891.611	9709
891.734	9778
891.857	9762
891.98	9800
892.103	9743
892.226	9720
892.349	9667
892.471	9488
892.594	9625
892.717	9637
892.839	9530
892.962	9679
893.085	9572
893.207	9519
893.33	9511
893.452	9515
893.575	9625
893.697	9443
893.819	9694
893.941	9663
894.064	9591
894.186	9447
894.308	9401
894.43	9439
894.552	9549
894.674	9469
894.796	9397
894.918	9389
895.04	9325
895.161	9405
895.283	9401
895.405	9272
895.526	9245
895.648	9237
895.769	9249
895.891	9268
896.012	9249
896.134	9211
896.255	9268
896.376	9180
896.498	9154
896.619	9074
896.74	9119
896.861	9165
896.982	9317
897.103	9275
897.224	9180
897.345	9001
897.466	9020
897.587	9074
897.708	9089
897.828	9074
897.949	8948
898.07	8895
898.19	8960
898.311	9055
898.431	8914
898.552	8941
898.672	9020
898.792	8948
898.913	8975
899.033	8819
899.153	8739
899.273	8716
899.393	8678
899.513	8735
899.633	8762
899.753	8826
899.873	8697
899.993	8788
900.113	8754
900.232	8720
900.352	8735
900.472	8697
900.591	8511
900.711	8610
900.83	8552
900.95	8655
901.069	8724
901.189	8503
901.308	8469
901.427	8415
901.546	8457
901.665	8404
901.784	8476
901.904	8362
902.023	8336
902.141	8252
902.26	8218
902.379	8328
902.498	8138
902.617	8206
902.735	8305
902.854	8298
902.973	8263
903.091	8214
903.21	8107
903.328	8206
903.446	8153
903.565	8111
903.683	8123
903.801	8058
903.919	8157
904.038	8149
904.156	8058
904.274	8111
904.392	8065
904.51	8016
904.627	8035
904.745	8081
904.863	8115
904.981	7940
905.098	7936
905.216	7913
905.334	7917
905.451	7913
905.569	7932
905.686	7913
905.803	7967
905.921	7738
906.038	7837
906.155	7784
906.272	7723
906.389	7715
906.506	7632
906.623	7662
906.74	7578
906.857	7655
906.974	7563
907.091	7670
907.208	7761
907.324	7578
907.441	7578
907.557	7514
907.674	7502
907.79	7449
907.907	7358
908.023	7426
908.139	7495
908.256	7453
908.372	7403
908.488	7407
908.604	7396
908.72	7149
908.836	7289
908.952	7247
909.068	7244
909.184	7400
909.3	7240
909.415	7312
909.531	7339
909.647	7118
909.762	7133
909.878	7129
909.993	7156
910.108	7027
910.224	7080
910.339	7190
910.454	7050
910.57	7023
910.685	6996
910.8	7137
910.915	7129
911.03	7061
911.145	6920
911.259	6901
911.374	6913
911.489	6890
911.604	6890
911.718	6642
911.833	6753
911.947	6642
912.062	6620
912.176	6673
912.291	6696
912.405	6677
912.519	6859
912.633	6840
912.748	6806
912.862	6681
912.976	6589
913.09	6582
913.204	6616
913.318	6646
913.431	6684
913.545	6688
913.659	6707
913.772	6646
913.886	6544
914	6585
914.113	6608
914.226	6623
914.34	6574
914.453	6555
914.566	6612
914.68	6532
914.793	6494
914.906	6403
915.019	6448
915.132	6346
915.245	6407
915.358	6448
915.47	6490
915.583	6452
915.696	6445
915.809	6585
915.921	6528
916.034	6410
916.146	6384
916.259	6391
916.371	6452
916.483	6479
916.595	6448
916.708	6426
916.82	6372
916.932	6403
917.044	6353
917.156	6456
917.268	6292
917.38	6372
917.491	6277
917.603	6331
917.715	6380
917.826	6376
917.938	6331
918.049	6220
918.161	6403
918.272	6376
918.384	6517
918.495	6342
918.606	6224
918.717	6243
918.828	6292
918.939	6300
919.05	6213
919.161	6277
919.272	6155
919.383	6163
919.494	6357
919.604	6414
919.715	6266
919.826	6243
919.936	6251
920.047	6384
920.157	6285
920.267	6475
920.378	6311
920.488	6247
920.598	6456
920.708	6574
920.818	6445
920.928	6433
921.038	6589
921.148	6517
921.258	6342
921.368	6266
921.477	6239
921.587	6155
921.697	6068
921.806	6235
921.916	6060
922.025	5958
922.134	5954
922.244	5874
922.353	5958
922.462	5885
922.571	5798
922.68	5748
922.789	5634
922.898	5722
923.007	5668
923.116	5710
923.224	5646
923.333	5684
923.442	5566
923.55	5611
923.659	5611
923.767	5604
923.876	5566
923.984	5646
924.092	5516
924.201	5532
924.309	5562
924.417	5512
924.525	5604
924.633	5505
924.741	6270
924.849	5410
924.956	5524
925.064	5368
925.172	5345
925.279	5334
925.387	5368
925.494	5406
925.602	5406
925.709	5425
925.816	5239
925.924	5307
926.031	5379
926.138	5284
926.245	5391
926.352	5220
926.459	5341
926.566	5387
926.673	5261
926.779	5128
926.886	5159
926.993	5014
927.099	5033
927.206	5029
927.312	5010
927.419	4968
927.525	4980
927.631	4957
927.737	4915
927.843	4885
927.95	4801
928.056	4839
928.162	4831
928.267	4850
928.373	5288
928.479	4900
928.585	4660
928.69	4763
928.796	4824
928.901	4717
929.007	4664
929.112	4679
929.218	4630
929.323	4622
929.428	4588
929.533	4649
929.638	4538
929.743	4523
929.848	4573
929.953	4531
930.058	4462
930.163	4344
930.267	4356
930.372	4451
930.477	4299
930.581	4489
930.685	4363
930.79	4325
930.894	4337
930.998	4268
931.103	4409
931.207	4169
931.311	4109
931.415	4040
931.519	3918
931.623	3922
