Data from glass_V78500241_2038.txt Node
Date: Wed Sep 01 19:28:37 CST 2021
User: usil
Spectrometer: V785-0024
Trigger mode: 0
Integration Time (sec): 4.000000E-1
Scans to average: 1
Nonlinearity correction enabled: false
Boxcar width: 0
Storing dark spectrum: false
XAxis mode: Wavelengths
Number of Pixels in Spectrum: 1024
>>>>>Begin Spectral Data<<<<<
801.071	3778
801.214	3743
801.356	3717
801.499	3724
801.641	3705
801.783	3762
801.926	3842
802.068	3831
802.211	3896
802.353	3873
802.496	3804
802.638	3869
802.78	3880
802.923	3907
803.065	3899
803.208	3838
803.35	3850
803.492	3907
803.635	3934
803.777	3789
803.919	3888
804.061	4112
804.204	3964
804.346	3972
804.488	3911
804.63	4063
804.773	4021
804.915	4006
805.057	4128
805.199	4059
805.341	4105
805.483	4143
805.626	4135
805.768	4109
805.91	4200
806.052	4246
806.194	4188
806.336	4379
806.478	4200
806.62	4185
806.762	4219
806.904	4196
807.046	4348
807.188	4249
807.33	4120
807.472	4242
807.614	4188
807.756	4284
807.898	4181
808.04	4257
808.182	4276
808.324	4291
808.465	4375
808.607	4466
808.749	4466
808.891	4421
809.033	4489
809.174	4394
809.316	4257
809.458	4219
809.6	4158
809.741	4116
809.883	4131
810.025	4200
810.166	4192
810.308	4249
810.45	4211
810.591	4234
810.733	4246
810.875	4500
811.016	4839
811.158	5109
811.299	5231
811.441	5261
811.582	5041
811.724	4725
811.865	4459
812.007	4462
812.148	4409
812.29	4451
812.431	4409
812.573	4398
812.714	4341
812.855	4375
812.997	4417
813.138	4443
813.279	4443
813.421	4386
813.562	4394
813.703	4291
813.845	4356
813.986	4265
814.127	4204
814.268	4333
814.41	4291
814.551	4223
814.692	4329
814.833	4257
814.974	4280
815.115	4284
815.256	4303
815.397	4257
815.539	4268
815.68	4223
815.821	4211
815.962	4314
816.103	4291
816.244	4249
816.385	4219
816.526	4291
816.666	4196
816.807	4074
816.948	4154
817.089	4154
817.23	4101
817.371	4055
817.512	4051
817.653	4067
817.793	4055
817.934	4013
818.075	4120
818.216	4048
818.356	4078
818.497	4036
818.638	3930
818.778	3930
818.919	3865
819.06	3861
819.2	3934
819.341	3865
819.481	3842
819.622	3926
819.762	3941
819.903	3926
820.043	3850
820.184	3808
820.324	3835
820.465	3831
820.605	3842
820.746	3899
820.886	3778
821.026	3892
821.167	3907
821.307	3983
821.447	3975
821.588	3945
821.728	3956
821.868	3880
822.008	3861
822.149	3911
822.289	3922
822.429	3781
822.569	3728
822.709	3804
822.849	3675
822.99	3724
823.13	3728
823.27	3759
823.41	3698
823.55	3740
823.69	3701
823.83	3770
823.97	3633
824.11	3648
824.25	3603
824.389	3614
824.529	3637
824.669	3618
824.809	3682
824.949	3774
825.089	3717
825.228	3698
825.368	3576
825.508	3587
825.648	3595
825.787	3557
825.927	3629
826.067	3633
826.206	3698
826.346	3793
826.485	3774
826.625	3869
826.765	3945
826.904	3812
827.044	3587
827.183	3523
827.323	3416
827.462	3477
827.601	3439
827.741	3443
827.88	3424
828.02	3363
828.159	3450
828.298	3481
828.437	3519
828.577	3496
828.716	3568
828.855	3485
828.994	3363
829.134	3374
829.273	3370
829.412	3386
829.551	3355
829.69	3389
829.829	3424
829.968	3519
830.107	3405
830.246	3431
830.385	3386
830.524	3355
830.663	3272
830.802	3237
830.941	3195
831.08	3169
831.219	3253
831.357	3253
831.496	3420
831.635	3260
831.774	3192
831.913	3264
832.051	3112
832.19	3135
832.329	3203
832.467	3108
832.606	3127
832.744	3188
832.883	3169
833.022	3176
833.16	3256
833.299	3317
833.437	3336
833.576	3336
833.714	3405
833.852	3393
833.991	3462
834.129	3462
834.267	3428
834.406	3386
834.544	3420
834.682	3420
834.821	3428
834.959	3557
835.097	3416
835.235	3534
835.373	3443
835.511	3542
835.65	3447
835.788	3500
835.926	3370
836.064	3370
836.202	3416
836.34	3557
836.478	3587
836.615	3500
836.753	3595
836.891	3656
837.029	3667
837.167	3561
837.305	3519
837.443	3538
837.58	3481
837.718	3580
837.856	3549
837.993	3576
838.131	3572
838.269	3557
838.406	3564
838.544	3549
838.681	3477
838.819	3462
838.956	3367
839.094	3389
839.231	3428
839.369	3507
839.506	3751
839.643	3622
839.781	3515
839.918	3466
840.055	3564
840.193	3519
840.33	3526
840.467	3507
840.604	3599
840.742	3812
840.879	3526
841.016	3572
841.153	3572
841.29	3720
841.427	3747
841.564	3740
841.701	3759
841.838	3698
841.975	3675
842.112	3732
842.249	3656
842.385	3610
842.522	3857
842.659	3698
842.796	3713
842.933	3701
843.069	3705
843.206	3705
843.343	3789
843.479	3781
843.616	3804
843.752	3667
843.889	3667
844.025	3873
844.162	3698
844.298	3816
844.435	3793
844.571	3774
844.708	3907
844.844	3979
844.98	3998
845.117	3983
845.253	3918
845.389	3907
845.525	3953
845.661	3979
845.798	3930
845.934	4010
846.07	3926
846.206	4055
846.342	4112
846.478	4093
846.614	3987
846.75	3907
846.886	3907
847.022	4032
847.158	3975
847.294	3994
847.429	4048
847.565	3987
847.701	4227
847.837	3884
847.972	3857
848.108	3953
848.244	3964
848.379	3876
848.515	3861
848.65	3785
848.786	3831
848.921	3831
849.057	3926
849.192	3892
849.328	3915
849.463	3930
849.598	3873
849.734	3831
849.869	3857
850.004	3823
850.14	3800
850.275	3778
850.41	3717
850.545	3778
850.68	3759
850.815	3781
850.95	3812
851.085	3911
851.22	3838
851.355	3846
851.49	3800
851.625	3778
851.76	3804
851.895	3740
852.03	3709
852.165	3808
852.299	3873
852.434	3899
852.569	3854
852.703	3865
852.838	3926
852.973	4029
853.107	3960
853.242	3865
853.376	3838
853.511	3743
853.645	3816
853.78	3949
853.914	3865
854.048	3861
854.183	3854
854.317	3975
854.451	4040
854.585	3972
854.72	3934
854.854	4013
854.988	3949
855.122	4021
855.256	3960
855.39	4025
855.524	4147
855.658	4071
855.792	4082
855.926	4116
856.06	4135
856.194	4204
856.327	4162
856.461	4120
856.595	4173
856.729	4128
856.862	4291
856.996	4265
857.13	4333
857.263	4318
857.397	4318
857.53	4272
857.664	4310
857.797	4371
857.931	4379
858.064	4383
858.197	4421
858.331	4428
858.464	4360
858.597	4310
858.731	4447
858.864	4489
858.997	4417
859.13	4504
859.263	4527
859.396	4584
859.529	4500
859.662	4558
859.795	4512
859.928	4569
860.061	4664
860.194	4736
860.327	4649
860.46	4569
860.592	4668
860.725	4729
860.858	4771
860.99	4698
861.123	4698
861.256	4717
861.388	4797
861.521	5349
861.653	4740
861.786	4725
861.918	4733
862.05	4752
862.183	4816
862.315	4889
862.447	4968
862.58	4850
862.712	4782
862.844	4733
862.976	4831
863.108	4900
863.24	5193
863.372	4793
863.504	4866
863.636	4885
863.768	4961
863.9	4949
864.032	4957
864.164	4953
864.296	5018
864.428	5071
864.559	5090
864.691	5109
864.823	5128
864.954	5102
865.086	5170
865.217	5128
865.349	5113
865.48	5143
865.612	5147
865.743	5341
865.875	5151
866.006	5124
866.137	5254
866.269	5227
866.4	5254
866.531	5250
866.662	5201
866.793	5242
866.924	5284
867.055	5322
867.186	5349
867.317	5364
867.448	5303
867.579	5330
867.71	5402
867.841	5391
867.972	5467
868.103	5520
868.233	5471
868.364	5520
868.495	5505
868.625	5684
868.756	5745
868.886	5729
869.017	5707
869.147	5779
869.278	5824
869.408	5790
869.539	5817
869.669	5916
869.799	5916
869.929	5969
870.06	5988
870.19	6175
870.32	6182
870.45	6323
870.58	6376
870.71	6418
870.84	6521
870.97	6460
871.1	6399
871.23	6677
871.36	6745
871.489	6642
871.619	6783
871.749	6802
871.879	6798
872.008	6973
872.138	6916
872.267	7000
872.397	6973
872.526	7004
872.656	7072
872.785	7175
872.915	7293
873.044	7506
873.173	7521
873.303	7620
873.432	7776
873.561	7913
873.69	7917
873.819	7936
873.948	8164
874.077	8248
874.206	8324
874.335	8446
874.464	8610
874.593	8899
874.722	8902
874.851	9150
874.979	9264
875.108	9355
875.237	9443
875.365	9462
875.494	9629
875.623	9808
875.751	9789
875.88	10021
876.008	10177
876.136	10230
876.265	10470
876.393	10694
876.521	10729
876.65	10873
876.778	10869
876.906	10866
877.034	10930
877.162	11033
877.29	11113
877.418	11265
877.546	11429
877.674	11455
877.802	11490
877.93	11501
878.058	11501
878.185	11577
878.313	11657
878.441	11748
878.568	11676
878.696	11771
878.824	11802
878.951	11988
879.079	11999
879.206	12087
879.333	12034
879.461	12030
879.588	11980
879.715	11984
879.842	12266
879.97	12030
880.097	11786
880.224	11783
880.351	11927
880.478	11847
880.605	11874
880.732	11855
880.859	11988
880.986	11851
881.112	11809
881.239	11726
881.366	11771
881.493	11623
881.619	11573
881.746	11516
881.872	11524
881.999	11509
882.125	11516
882.252	11619
882.378	11505
882.505	11474
882.631	11326
882.757	11288
882.883	11337
883.01	11231
883.136	11136
883.262	11094
883.388	11025
883.514	11174
883.64	11124
883.766	11098
883.892	11109
884.018	10980
884.143	11048
884.269	11105
884.395	10816
884.52	10782
884.646	10736
884.772	10702
884.897	10653
885.023	10702
885.148	10679
885.274	10733
885.399	10664
885.524	10573
885.65	10554
885.775	10561
885.9	10478
886.025	10588
886.15	10664
886.275	10481
886.4	10310
886.525	10443
886.65	10440
886.775	10402
886.9	10508
887.025	10462
887.149	10382
887.274	10215
887.399	10169
887.523	10135
887.648	10074
887.773	10215
887.897	10192
888.021	10234
888.146	10166
888.27	10204
888.395	10162
888.519	10162
888.643	10196
888.767	10169
888.891	10082
889.015	10013
889.139	10048
889.263	9991
889.387	10154
889.511	10097
889.635	9975
889.759	9972
889.883	10002
890.006	9972
890.13	10071
890.254	9934
890.377	9937
890.501	9846
890.624	9823
890.748	9857
890.871	9804
890.995	9740
891.118	9724
891.241	9720
891.364	9713
891.488	9770
891.611	9641
891.734	9755
891.857	9698
891.98	9717
892.103	9789
892.226	9740
892.349	9694
892.471	9584
892.594	9591
892.717	9587
892.839	9629
892.962	9561
893.085	9675
893.207	9584
893.33	9511
893.452	9488
893.575	9587
893.697	9492
893.819	9652
893.941	9584
894.064	9606
894.186	9340
894.308	9370
894.43	9466
894.552	9496
894.674	9496
894.796	9382
894.918	9397
895.04	9249
895.161	9367
895.283	9310
895.405	9275
895.526	9241
895.648	9279
895.769	9176
895.891	9256
896.012	9287
896.134	9127
896.255	9131
896.376	9135
896.498	9207
896.619	9135
896.74	9112
896.861	9089
896.982	9233
897.103	9192
897.224	9089
897.345	9043
897.466	8952
897.587	9005
897.708	9058
897.828	8990
897.949	8925
898.07	8823
898.19	8842
898.311	9028
898.431	8823
898.552	8864
898.672	8975
898.792	8918
898.913	8925
899.033	8815
899.153	8705
899.273	8686
899.393	8743
899.513	8804
899.633	8697
899.753	8629
899.873	8697
899.993	8739
900.113	8766
900.232	8739
900.352	8640
900.472	8564
900.591	8636
900.711	8537
900.83	8606
900.95	8655
901.069	8678
901.189	8602
901.308	8431
901.427	8370
901.546	8412
901.665	8385
901.784	8499
901.904	8370
902.023	8324
902.141	8298
902.26	8210
902.379	8267
902.498	8168
902.617	8275
902.735	8298
902.854	8259
902.973	8267
903.091	8107
903.21	8164
903.328	8126
903.446	8046
903.565	8012
903.683	8073
903.801	8031
903.919	8142
904.038	8111
904.156	8035
904.274	8077
904.392	8008
904.51	7989
904.627	8073
904.745	8088
904.863	8084
904.981	7902
905.098	7925
905.216	7795
905.334	7925
905.451	7887
905.569	7799
905.686	7902
905.803	7898
905.921	7780
906.038	7841
906.155	7780
906.272	7674
906.389	7681
906.506	7613
906.623	7624
906.74	7647
906.857	7518
906.974	7537
907.091	7616
907.208	7765
907.324	7594
907.441	7613
907.557	7514
907.674	7415
907.79	7377
907.907	7381
908.023	7415
908.139	7434
908.256	7407
908.372	7331
908.488	7373
908.604	7251
908.72	7190
908.836	7308
908.952	7278
909.068	7236
909.184	7373
909.3	7278
909.415	7320
909.531	7228
909.647	7122
909.762	7175
909.878	7038
909.993	7091
910.108	7126
910.224	7027
910.339	7069
910.454	7034
910.57	7008
910.685	6932
910.8	7206
910.915	7149
911.03	7000
911.145	6916
911.259	6901
911.374	6829
911.489	6871
911.604	6787
911.718	6692
911.833	6745
911.947	6642
912.062	6658
912.176	6696
912.291	6757
912.405	6757
912.519	6757
912.633	6768
912.748	6749
912.862	6669
912.976	6589
913.09	6521
913.204	6616
913.318	6601
913.431	6681
913.545	6585
913.659	6719
913.772	6681
913.886	6536
914	6566
914.113	6631
914.226	6631
914.34	6566
914.453	6509
914.566	6555
914.68	6521
914.793	6494
914.906	6441
915.019	6380
915.132	6357
915.245	6395
915.358	6471
915.47	6452
915.583	6464
915.696	6509
915.809	6509
915.921	6540
916.034	6418
916.146	6338
916.259	6407
916.371	6441
916.483	6422
916.595	6399
916.708	6429
916.82	6410
916.932	6376
917.044	6388
917.156	6376
917.268	6331
917.38	6331
917.491	6308
917.603	6350
917.715	6365
917.826	6372
917.938	6342
918.049	6232
918.161	6258
918.272	6418
918.384	6399
918.495	6270
918.606	6205
918.717	6205
918.828	6239
918.939	6285
919.05	6186
919.161	6213
919.272	6110
919.383	6182
919.494	6277
919.604	6384
919.715	6304
919.826	6216
919.936	6247
920.047	6372
920.157	6235
920.267	6418
920.378	6270
920.488	6285
920.598	6483
920.708	6593
920.818	6486
920.928	6441
921.038	6570
921.148	6551
921.258	6395
921.368	6311
921.477	6133
921.587	6190
921.697	6079
921.806	6148
921.916	6060
922.025	5954
922.134	5935
922.244	5859
922.353	5893
922.462	5855
922.571	5764
922.68	5722
922.789	5638
922.898	5748
923.007	5581
923.116	5695
923.224	5611
923.333	5615
923.442	5604
923.55	5592
923.659	5630
923.767	5668
923.876	5516
923.984	5615
924.092	5486
924.201	5585
924.309	5554
924.417	5573
924.525	5490
924.633	5471
924.741	6311
924.849	5379
924.956	5505
925.064	5376
925.172	5307
925.279	5334
925.387	5376
925.494	5349
925.602	5406
925.709	5402
925.816	5299
925.924	5322
926.031	5334
926.138	5299
926.245	5273
926.352	5231
926.459	5311
926.566	5326
926.673	5174
926.779	5151
926.886	5140
926.993	5060
927.099	4987
927.206	5003
927.312	4915
927.419	5041
927.525	4942
927.631	4984
927.737	4896
927.843	4812
927.95	4771
928.056	4805
928.162	4835
928.267	4805
928.373	5208
928.479	4797
928.585	4672
928.69	4782
928.796	4759
928.901	4672
929.007	4603
929.112	4664
929.218	4584
929.323	4622
929.428	4519
929.533	4641
929.638	4558
929.743	4516
929.848	4599
929.953	4474
930.058	4417
930.163	4371
930.267	4329
930.372	4474
930.477	4272
930.581	4451
930.685	4363
930.79	4249
930.894	4276
930.998	4227
931.103	4379
931.207	4097
931.311	4090
931.415	4029
931.519	3941
931.623	3918
