Data from glass_V78500241_635.txt Node
Date: Wed Sep 01 19:18:54 CST 2021
User: usil
Spectrometer: V785-0024
Trigger mode: 0
Integration Time (sec): 4.000000E-1
Scans to average: 1
Nonlinearity correction enabled: false
Boxcar width: 0
Storing dark spectrum: false
XAxis mode: Wavelengths
Number of Pixels in Spectrum: 1024
>>>>>Begin Spectral Data<<<<<
801.071	3720
801.214	3785
801.356	3686
801.499	3709
801.641	3743
801.783	3797
801.926	3846
802.068	3850
802.211	3888
802.353	3842
802.496	3865
802.638	3857
802.78	3922
802.923	3941
803.065	3915
803.208	3838
803.35	3892
803.492	3926
803.635	3945
803.777	3835
803.919	3888
804.061	4150
804.204	3956
804.346	3979
804.488	3945
804.63	4082
804.773	4013
804.915	4021
805.057	4162
805.199	4101
805.341	4071
805.483	4169
805.626	4169
805.768	4063
805.91	4207
806.052	4253
806.194	4207
806.336	4352
806.478	4268
806.62	4177
806.762	4215
806.904	4257
807.046	4360
807.188	4188
807.33	4238
807.472	4253
807.614	4207
807.756	4291
807.898	4223
808.04	4223
808.182	4284
808.324	4337
808.465	4386
808.607	4443
808.749	4508
808.891	4474
809.033	4481
809.174	4375
809.316	4299
809.458	4306
809.6	4166
809.741	4124
809.883	4169
810.025	4230
810.166	4219
810.308	4234
810.45	4295
810.591	4196
810.733	4299
810.875	4558
811.016	4839
811.158	5136
811.299	5277
811.441	5322
811.582	5094
811.724	4714
811.865	4474
812.007	4451
812.148	4436
812.29	4417
812.431	4440
812.573	4409
812.714	4398
812.855	4455
812.997	4409
813.138	4459
813.279	4436
813.421	4375
813.562	4367
813.703	4337
813.845	4291
813.986	4295
814.127	4242
814.268	4253
814.41	4272
814.551	4284
814.692	4356
814.833	4223
814.974	4329
815.115	4367
815.256	4246
815.397	4242
815.539	4257
815.68	4207
815.821	4219
815.962	4287
816.103	4325
816.244	4276
816.385	4207
816.526	4306
816.666	4230
816.807	4090
816.948	4105
817.089	4188
817.23	4166
817.371	4032
817.512	4093
817.653	4074
817.793	4044
817.934	4029
818.075	4173
818.216	4139
818.356	4086
818.497	3979
818.638	3972
818.778	3956
818.919	3915
819.06	3903
819.2	3911
819.341	3907
819.481	3880
819.622	3861
819.762	4059
819.903	3956
820.043	3880
820.184	3850
820.324	3816
820.465	3857
820.605	3892
820.746	3865
820.886	3789
821.026	3956
821.167	3926
821.307	4010
821.447	3956
821.588	3968
821.728	3998
821.868	3960
822.008	3899
822.149	3945
822.289	3953
822.429	3785
822.569	3766
822.709	3797
822.849	3720
822.99	3747
823.13	3778
823.27	3808
823.41	3740
823.55	3747
823.69	3751
823.83	3762
823.97	3679
824.11	3606
824.25	3618
824.389	3610
824.529	3675
824.669	3652
824.809	3705
824.949	3774
825.089	3720
825.228	3679
825.368	3587
825.508	3576
825.648	3561
825.787	3637
825.927	3686
826.067	3629
826.206	3652
826.346	3816
826.485	3876
826.625	3892
826.765	3956
826.904	3842
827.044	3618
827.183	3534
827.323	3462
827.462	3507
827.601	3405
827.741	3409
827.88	3450
828.02	3386
828.159	3420
828.298	3492
828.437	3523
828.577	3473
828.716	3663
828.855	3473
828.994	3386
829.134	3374
829.273	3405
829.412	3344
829.551	3367
829.69	3389
829.829	3447
829.968	3538
830.107	3458
830.246	3447
830.385	3348
830.524	3389
830.663	3272
830.802	3275
830.941	3214
831.08	3222
831.219	3245
831.357	3275
831.496	3416
831.635	3279
831.774	3203
831.913	3230
832.051	3161
832.19	3138
832.329	3226
832.467	3173
832.606	3112
832.744	3142
832.883	3184
833.022	3233
833.16	3268
833.299	3325
833.437	3336
833.576	3355
833.714	3367
833.852	3439
833.991	3450
834.129	3466
834.267	3462
834.406	3420
834.544	3454
834.682	3416
834.821	3412
834.959	3580
835.097	3428
835.235	3549
835.373	3504
835.511	3523
835.65	3435
835.788	3542
835.926	3424
836.064	3389
836.202	3435
836.34	3542
836.478	3633
836.615	3564
836.753	3595
836.891	3663
837.029	3584
837.167	3542
837.305	3557
837.443	3526
837.58	3507
837.718	3610
837.856	3553
837.993	3568
838.131	3564
838.269	3603
838.406	3599
838.544	3587
838.681	3450
838.819	3450
838.956	3370
839.094	3409
839.231	3454
839.369	3526
839.506	3728
839.643	3660
839.781	3530
839.918	3450
840.055	3526
840.193	3511
840.33	3526
840.467	3591
840.604	3599
840.742	3838
840.879	3519
841.016	3572
841.153	3637
841.29	3762
841.427	3728
841.564	3720
841.701	3743
841.838	3728
841.975	3690
842.112	3736
842.249	3648
842.385	3641
842.522	3850
842.659	3709
842.796	3656
842.933	3694
843.069	3747
843.206	3747
843.343	3827
843.479	3793
843.616	3804
843.752	3686
843.889	3698
844.025	3869
844.162	3724
844.298	3918
844.435	3835
844.571	3793
844.708	3930
844.844	3983
844.98	4082
845.117	3998
845.253	3956
845.389	3888
845.525	4017
845.661	4025
845.798	3975
845.934	4002
846.07	3994
846.206	4021
846.342	4112
846.478	4036
846.614	4013
846.75	3987
846.886	3922
847.022	4017
847.158	3983
847.294	4021
847.429	4021
847.565	4013
847.701	4284
847.837	3896
847.972	3876
848.108	3983
848.244	3975
848.379	3823
848.515	3827
848.65	3831
848.786	3816
848.921	3873
849.057	3915
849.192	3911
849.328	3922
849.463	3915
849.598	3930
849.734	3911
849.869	3884
850.004	3819
850.14	3854
850.275	3804
850.41	3740
850.545	3740
850.68	3800
850.815	3861
850.95	3800
851.085	3960
851.22	3869
851.355	3835
851.49	3800
851.625	3819
851.76	3831
851.895	3755
852.03	3705
852.165	3816
852.299	3835
852.434	3911
852.569	3876
852.703	3960
852.838	3975
852.973	3987
853.107	4029
853.242	3907
853.376	3869
853.511	3816
853.645	3861
853.78	3991
853.914	3888
854.048	3945
854.183	3861
854.317	3930
854.451	4029
854.585	3968
854.72	3991
854.854	4078
854.988	3953
855.122	4025
855.256	3937
855.39	4067
855.524	4105
855.658	4124
855.792	4090
855.926	4166
856.06	4204
856.194	4249
856.327	4166
856.461	4128
856.595	4154
856.729	4207
856.862	4261
856.996	4261
857.13	4303
857.263	4348
857.397	4337
857.53	4356
857.664	4360
857.797	4379
857.931	4443
858.064	4447
858.197	4417
858.331	4474
858.464	4367
858.597	4363
858.731	4443
858.864	4443
858.997	4421
859.13	4519
859.263	4535
859.396	4569
859.529	4561
859.662	4558
859.795	4523
859.928	4634
860.061	4733
860.194	4778
860.327	4675
860.46	4645
860.592	4710
860.725	4733
860.858	4816
860.99	4679
861.123	4698
861.256	4691
861.388	4748
861.521	5292
861.653	4748
861.786	4710
861.918	4744
862.05	4812
862.183	4812
862.315	4904
862.447	4927
862.58	4923
862.712	4752
862.844	4809
862.976	4847
863.108	4904
863.24	5178
863.372	4847
863.504	4896
863.636	4911
863.768	5006
863.9	4953
864.032	4965
864.164	4984
864.296	5060
864.428	5124
864.559	5094
864.691	5178
864.823	5147
864.954	5105
865.086	5155
865.217	5124
865.349	5121
865.48	5143
865.612	5147
865.743	5288
865.875	5220
866.006	5166
866.137	5261
866.269	5197
866.4	5220
866.531	5231
866.662	5258
866.793	5250
866.924	5273
867.055	5334
867.186	5349
867.317	5318
867.448	5353
867.579	5402
867.71	5402
867.841	5433
867.972	5482
868.103	5505
868.233	5463
868.364	5535
868.495	5547
868.625	5646
868.756	5798
868.886	5653
869.017	5786
869.147	5832
869.278	5855
869.408	5817
869.539	5870
869.669	5939
869.799	5870
869.929	6007
870.06	5996
870.19	6213
870.32	6190
870.45	6331
870.58	6292
870.71	6437
870.84	6460
870.97	6441
871.1	6486
871.23	6650
871.36	6700
871.489	6753
871.619	6814
871.749	6856
871.879	6859
872.008	7034
872.138	6973
872.267	7012
872.397	7012
872.526	6996
872.656	7133
872.785	7225
872.915	7441
873.044	7476
873.173	7609
873.303	7662
873.432	7765
873.561	7803
873.69	7944
873.819	8024
873.948	8202
874.077	8229
874.206	8347
874.335	8461
874.464	8716
874.593	8872
874.722	8925
874.851	9230
874.979	9218
875.108	9329
875.237	9450
875.365	9507
875.494	9580
875.623	9876
875.751	9823
875.88	9991
876.008	10154
876.136	10303
876.265	10527
876.393	10698
876.521	10752
876.65	10869
876.778	10892
876.906	10927
877.034	10953
877.162	11140
877.29	11170
877.418	11269
877.546	11318
877.674	11463
877.802	11486
877.93	11471
878.058	11493
878.185	11577
878.313	11653
878.441	11786
878.568	11672
878.696	11843
878.824	11813
878.951	11984
879.079	12087
879.206	12190
879.333	12038
879.461	12034
879.588	12117
879.715	12079
879.842	12175
879.97	12045
880.097	11901
880.224	11908
880.351	11912
880.478	11996
880.605	11828
880.732	11874
880.859	11996
880.986	11779
881.112	11870
881.239	11771
881.366	11676
881.493	11672
881.619	11596
881.746	11596
881.872	11463
881.999	11535
882.125	11585
882.252	11558
882.378	11551
882.505	11562
882.631	11448
882.757	11280
882.883	11379
883.01	11269
883.136	11223
883.262	11136
883.388	11117
883.514	11212
883.64	11166
883.766	11113
883.892	11029
884.018	10938
884.143	11045
884.269	11079
884.395	10816
884.52	10820
884.646	10790
884.772	10717
884.897	10592
885.023	10580
885.148	10790
885.274	10828
885.399	10675
885.524	10656
885.65	10561
885.775	10615
885.9	10611
886.025	10603
886.15	10573
886.275	10497
886.4	10375
886.525	10478
886.65	10413
886.775	10356
886.9	10398
887.025	10512
887.149	10325
887.274	10207
887.399	10158
887.523	10249
887.648	10147
887.773	10101
887.897	10329
888.021	10192
888.146	10112
888.27	10215
888.395	10238
888.519	10204
888.643	10181
888.767	10177
888.891	10029
889.015	10063
889.139	10112
889.263	9922
889.387	10135
889.511	10124
889.635	10055
889.759	9930
889.883	10021
890.006	9953
890.13	10139
890.254	9934
890.377	9968
890.501	9873
890.624	9884
890.748	9888
890.871	9816
890.995	9740
891.118	9778
891.241	9701
891.364	9812
891.488	9808
891.611	9740
891.734	9728
891.857	9717
891.98	9732
892.103	9724
892.226	9732
892.349	9720
892.471	9507
892.594	9603
892.717	9606
892.839	9622
892.962	9614
893.085	9720
893.207	9618
893.33	9507
893.452	9553
893.575	9549
893.697	9515
893.819	9591
893.941	9629
894.064	9622
894.186	9473
894.308	9405
894.43	9519
894.552	9614
894.674	9625
894.796	9428
894.918	9523
895.04	9306
895.161	9431
895.283	9355
895.405	9329
895.526	9256
895.648	9256
895.769	9264
895.891	9332
896.012	9298
896.134	9233
896.255	9207
896.376	9127
896.498	9180
896.619	9195
896.74	9085
896.861	9131
896.982	9218
897.103	9287
897.224	9135
897.345	9074
897.466	8967
897.587	9058
897.708	9047
897.828	9005
897.949	8887
898.07	8910
898.19	8883
898.311	8952
898.431	8925
898.552	8872
898.672	9005
898.792	8933
898.913	8861
899.033	8777
899.153	8705
899.273	8655
899.393	8800
899.513	8701
899.633	8689
899.753	8720
899.873	8697
899.993	8743
900.113	8708
900.232	8746
900.352	8689
900.472	8594
900.591	8564
900.711	8594
900.83	8598
900.95	8686
901.069	8720
901.189	8579
901.308	8522
901.427	8377
901.546	8492
901.665	8461
901.784	8556
901.904	8492
902.023	8320
902.141	8172
902.26	8298
902.379	8343
902.498	8210
902.617	8267
902.735	8275
902.854	8286
902.973	8301
903.091	8126
903.21	8191
903.328	8172
903.446	8046
903.565	8081
903.683	8115
903.801	8012
903.919	8191
904.038	8103
904.156	8005
904.274	8153
904.392	8065
904.51	8046
904.627	8100
904.745	8081
904.863	8115
904.981	7936
905.098	7879
905.216	7913
905.334	7963
905.451	7898
905.569	7959
905.686	7890
905.803	7944
905.921	7753
906.038	7925
906.155	7841
906.272	7780
906.389	7772
906.506	7651
906.623	7651
906.74	7613
906.857	7578
906.974	7586
907.091	7689
907.208	7757
907.324	7639
907.441	7609
907.557	7537
907.674	7438
907.79	7449
907.907	7411
908.023	7430
908.139	7457
908.256	7457
908.372	7346
908.488	7373
908.604	7285
908.72	7244
908.836	7293
908.952	7244
909.068	7236
909.184	7308
909.3	7289
909.415	7278
909.531	7270
909.647	7084
909.762	7080
909.878	7149
909.993	7202
910.108	7080
910.224	7141
910.339	7072
910.454	7015
910.57	7027
910.685	6989
910.8	7175
910.915	7110
911.03	7072
911.145	6966
911.259	6932
911.374	6943
911.489	6878
911.604	6825
911.718	6734
911.833	6741
911.947	6681
912.062	6616
912.176	6669
912.291	6757
912.405	6692
912.519	6802
912.633	6821
912.748	6669
912.862	6692
912.976	6658
913.09	6536
913.204	6658
913.318	6570
913.431	6673
913.545	6665
913.659	6814
913.772	6700
913.886	6563
914	6559
914.113	6654
914.226	6589
914.34	6574
914.453	6490
914.566	6677
914.68	6506
914.793	6483
914.906	6429
915.019	6407
915.132	6399
915.245	6452
915.358	6448
915.47	6467
915.583	6441
915.696	6460
915.809	6528
915.921	6540
916.034	6456
916.146	6422
916.259	6350
916.371	6517
916.483	6441
916.595	6441
916.708	6429
916.82	6437
916.932	6388
917.044	6365
917.156	6380
917.268	6350
917.38	6365
917.491	6311
917.603	6353
917.715	6414
917.826	6395
917.938	6350
918.049	6239
918.161	6380
918.272	6418
918.384	6467
918.495	6319
918.606	6262
918.717	6235
918.828	6304
918.939	6346
919.05	6213
919.161	6262
919.272	6098
919.383	6155
919.494	6300
919.604	6399
919.715	6331
919.826	6239
919.936	6262
920.047	6350
920.157	6289
920.267	6464
920.378	6315
920.488	6270
920.598	6429
920.708	6612
920.818	6471
920.928	6456
921.038	6585
921.148	6566
921.258	6372
921.368	6308
921.477	6194
921.587	6235
921.697	6087
921.806	6163
921.916	6106
922.025	5950
922.134	5965
922.244	5855
922.353	5901
922.462	5851
922.571	5813
922.68	5714
922.789	5672
922.898	5718
923.007	5623
923.116	5741
923.224	5752
923.333	5710
923.442	5630
923.55	5596
923.659	5577
923.767	5646
923.876	5577
923.984	5630
924.092	5562
924.201	5558
924.309	5585
924.417	5653
924.525	5459
924.633	5516
924.741	6319
924.849	5421
924.956	5459
925.064	5315
925.172	5296
925.279	5326
925.387	5307
925.494	5318
925.602	5436
925.709	5414
925.816	5318
925.924	5265
926.031	5395
926.138	5360
926.245	5360
926.352	5239
926.459	5307
926.566	5330
926.673	5189
926.779	5132
926.886	5124
926.993	5045
927.099	5037
927.206	4968
927.312	4980
927.419	5033
927.525	4972
927.631	5025
927.737	4877
927.843	4858
927.95	4820
928.056	4778
928.162	4839
928.267	4831
928.373	5204
928.479	4843
928.585	4702
928.69	4782
928.796	4748
928.901	4679
929.007	4599
929.112	4675
929.218	4672
929.323	4599
929.428	4599
929.533	4637
929.638	4565
929.743	4611
929.848	4580
929.953	4493
930.058	4466
930.163	4352
930.267	4375
930.372	4421
930.477	4295
930.581	4485
930.685	4333
930.79	4257
930.894	4299
930.998	4284
931.103	4424
931.207	4173
931.311	4071
931.415	4071
931.519	3956
931.623	3956
