Data from glass_V78500241_564.txt Node
Date: Wed Sep 01 19:18:24 CST 2021
User: usil
Spectrometer: V785-0024
Trigger mode: 0
Integration Time (sec): 4.000000E-1
Scans to average: 1
Nonlinearity correction enabled: false
Boxcar width: 0
Storing dark spectrum: false
XAxis mode: Wavelengths
Number of Pixels in Spectrum: 1024
>>>>>Begin Spectral Data<<<<<
801.071	3747
801.214	3766
801.356	3740
801.499	3766
801.641	3774
801.783	3800
801.926	3888
802.068	3865
802.211	3842
802.353	3865
802.496	3865
802.638	3937
802.78	3918
802.923	3945
803.065	3937
803.208	3850
803.35	3857
803.492	3876
803.635	3937
803.777	3793
803.919	3922
804.061	4143
804.204	3953
804.346	3945
804.488	3930
804.63	4063
804.773	3953
804.915	4044
805.057	4124
805.199	4109
805.341	4090
805.483	4147
805.626	4154
805.768	4109
805.91	4204
806.052	4234
806.194	4227
806.336	4314
806.478	4238
806.62	4154
806.762	4200
806.904	4261
807.046	4333
807.188	4223
807.33	4147
807.472	4249
807.614	4169
807.756	4287
807.898	4246
808.04	4234
808.182	4348
808.324	4360
808.465	4432
808.607	4493
808.749	4466
808.891	4447
809.033	4489
809.174	4375
809.316	4276
809.458	4215
809.6	4173
809.741	4154
809.883	4192
810.025	4135
810.166	4215
810.308	4223
810.45	4219
810.591	4223
810.733	4261
810.875	4512
811.016	4831
811.158	5197
811.299	5261
811.441	5299
811.582	5056
811.724	4683
811.865	4455
812.007	4440
812.148	4413
812.29	4436
812.431	4462
812.573	4375
812.714	4375
812.855	4409
812.997	4409
813.138	4535
813.279	4428
813.421	4421
813.562	4402
813.703	4383
813.845	4367
813.986	4265
814.127	4234
814.268	4276
814.41	4322
814.551	4291
814.692	4344
814.833	4227
814.974	4344
815.115	4383
815.256	4291
815.397	4238
815.539	4246
815.68	4177
815.821	4215
815.962	4363
816.103	4314
816.244	4246
816.385	4242
816.526	4314
816.666	4249
816.807	4078
816.948	4185
817.089	4196
817.23	4143
817.371	4071
817.512	4071
817.653	4086
817.793	4048
817.934	4048
818.075	4101
818.216	4097
818.356	4105
818.497	3987
818.638	3960
818.778	3934
818.919	3896
819.06	3865
819.2	3941
819.341	3876
819.481	3869
819.622	3922
819.762	4086
819.903	3994
820.043	3926
820.184	3842
820.324	3835
820.465	3873
820.605	3880
820.746	3861
820.886	3778
821.026	3903
821.167	3937
821.307	3968
821.447	4002
821.588	3964
821.728	3964
821.868	3915
822.008	3892
822.149	3949
822.289	3926
822.429	3770
822.569	3774
822.709	3778
822.849	3679
822.99	3732
823.13	3785
823.27	3808
823.41	3713
823.55	3736
823.69	3766
823.83	3770
823.97	3682
824.11	3656
824.25	3648
824.389	3644
824.529	3698
824.669	3629
824.809	3717
824.949	3743
825.089	3762
825.228	3720
825.368	3663
825.508	3599
825.648	3530
825.787	3629
825.927	3606
826.067	3625
826.206	3671
826.346	3808
826.485	3819
826.625	3888
826.765	3964
826.904	3827
827.044	3663
827.183	3572
827.323	3454
827.462	3519
827.601	3447
827.741	3431
827.88	3469
828.02	3401
828.159	3488
828.298	3481
828.437	3507
828.577	3504
828.716	3633
828.855	3492
828.994	3370
829.134	3409
829.273	3401
829.412	3374
829.551	3340
829.69	3359
829.829	3462
829.968	3572
830.107	3504
830.246	3443
830.385	3397
830.524	3374
830.663	3355
830.802	3272
830.941	3226
831.08	3180
831.219	3298
831.357	3306
831.496	3416
831.635	3249
831.774	3226
831.913	3222
832.051	3138
832.19	3142
832.329	3192
832.467	3157
832.606	3127
832.744	3188
832.883	3176
833.022	3188
833.16	3272
833.299	3329
833.437	3351
833.576	3355
833.714	3420
833.852	3424
833.991	3428
834.129	3481
834.267	3447
834.406	3428
834.544	3443
834.682	3428
834.821	3420
834.959	3610
835.097	3458
835.235	3526
835.373	3492
835.511	3530
835.65	3473
835.788	3511
835.926	3420
836.064	3397
836.202	3416
836.34	3584
836.478	3641
836.615	3564
836.753	3603
836.891	3660
837.029	3652
837.167	3591
837.305	3549
837.443	3542
837.58	3492
837.718	3625
837.856	3538
837.993	3538
838.131	3610
838.269	3568
838.406	3656
838.544	3603
838.681	3458
838.819	3473
838.956	3363
839.094	3409
839.231	3447
839.369	3549
839.506	3755
839.643	3641
839.781	3515
839.918	3485
840.055	3545
840.193	3542
840.33	3572
840.467	3523
840.604	3614
840.742	3835
840.879	3564
841.016	3576
841.153	3614
841.29	3740
841.427	3747
841.564	3747
841.701	3694
841.838	3698
841.975	3713
842.112	3671
842.249	3667
842.385	3618
842.522	3842
842.659	3736
842.796	3663
842.933	3724
843.069	3705
843.206	3709
843.343	3850
843.479	3781
843.616	3857
843.752	3690
843.889	3724
844.025	3854
844.162	3728
844.298	3876
844.435	3789
844.571	3785
844.708	3899
844.844	3987
844.98	3979
845.117	4036
845.253	3991
845.389	3934
845.525	3979
845.661	3979
845.798	3930
845.934	3991
846.07	3979
846.206	4059
846.342	4143
846.478	4086
846.614	4006
846.75	3960
846.886	3896
847.022	4078
847.158	3994
847.294	4021
847.429	4025
847.565	3972
847.701	4257
847.837	3888
847.972	3842
848.108	3987
848.244	4006
848.379	3880
848.515	3823
848.65	3835
848.786	3842
848.921	3907
849.057	3956
849.192	3949
849.328	3937
849.463	3915
849.598	3903
849.734	3876
849.869	3819
850.004	3785
850.14	3793
850.275	3785
850.41	3755
850.545	3781
850.68	3774
850.815	3823
850.95	3816
851.085	3937
851.22	3892
851.355	3816
851.49	3759
851.625	3831
851.76	3797
851.895	3747
852.03	3740
852.165	3785
852.299	3873
852.434	3941
852.569	3880
852.703	3911
852.838	3968
852.973	4025
853.107	3956
853.242	3876
853.376	3873
853.511	3781
853.645	3854
853.78	3956
853.914	3899
854.048	3899
854.183	3896
854.317	3972
854.451	4074
854.585	3956
854.72	3926
854.854	4109
854.988	3956
855.122	4017
855.256	3922
855.39	4044
855.524	4150
855.658	4116
855.792	4093
855.926	4158
856.06	4158
856.194	4207
856.327	4173
856.461	4158
856.595	4177
856.729	4181
856.862	4253
856.996	4230
857.13	4318
857.263	4341
857.397	4333
857.53	4284
857.664	4360
857.797	4417
857.931	4413
858.064	4417
858.197	4424
858.331	4455
858.464	4417
858.597	4394
858.731	4443
858.864	4519
858.997	4451
859.13	4535
859.263	4527
859.396	4607
859.529	4531
859.662	4565
859.795	4558
859.928	4580
860.061	4733
860.194	4752
860.327	4637
860.46	4645
860.592	4755
860.725	4786
860.858	4778
860.99	4740
861.123	4683
861.256	4710
861.388	4774
861.521	5406
861.653	4706
861.786	4706
861.918	4774
862.05	4820
862.183	4843
862.315	4877
862.447	4953
862.58	4854
862.712	4790
862.844	4771
862.976	4885
863.108	4911
863.24	5204
863.372	4854
863.504	4908
863.636	4938
863.768	4946
863.9	4949
864.032	4968
864.164	5006
864.296	4984
864.428	5086
864.559	5113
864.691	5132
864.823	5128
864.954	5147
865.086	5151
865.217	5090
865.349	5094
865.48	5208
865.612	5197
865.743	5273
865.875	5223
866.006	5132
866.137	5284
866.269	5185
866.4	5254
866.531	5242
866.662	5231
866.793	5330
866.924	5242
867.055	5360
867.186	5303
867.317	5387
867.448	5322
867.579	5372
867.71	5345
867.841	5433
867.972	5471
868.103	5535
868.233	5482
868.364	5490
868.495	5551
868.625	5657
868.756	5790
868.886	5703
869.017	5752
869.147	5874
869.278	5920
869.408	5832
869.539	5821
869.669	5901
869.799	5893
869.929	5980
870.06	6102
870.19	6205
870.32	6178
870.45	6247
870.58	6357
870.71	6471
870.84	6464
870.97	6506
871.1	6460
871.23	6688
871.36	6715
871.489	6669
871.619	6757
871.749	6859
871.879	6897
872.008	7023
872.138	6981
872.267	7038
872.397	6985
872.526	7015
872.656	7171
872.785	7202
872.915	7403
873.044	7544
873.173	7609
873.303	7662
873.432	7753
873.561	7803
873.69	7936
873.819	8062
873.948	8210
874.077	8202
874.206	8324
874.335	8480
874.464	8613
874.593	8914
874.722	8853
874.851	9104
874.979	9256
875.108	9435
875.237	9435
875.365	9542
875.494	9660
875.623	9793
875.751	9804
875.88	10032
876.008	10131
876.136	10253
876.265	10481
876.393	10748
876.521	10675
876.65	10782
876.778	10923
876.906	10942
877.034	11052
877.162	11136
877.29	11208
877.418	11227
877.546	11330
877.674	11486
877.802	11497
877.93	11649
878.058	11619
878.185	11608
878.313	11729
878.441	11707
878.568	11726
878.696	11836
878.824	11866
878.951	11980
879.079	12003
879.206	12175
879.333	12019
879.461	12038
879.588	12102
879.715	12125
879.842	12209
879.97	12098
880.097	11897
880.224	11901
880.351	11878
880.478	11958
880.605	11832
880.732	11775
880.859	12057
880.986	11790
881.112	11859
881.239	11745
881.366	11676
881.493	11615
881.619	11505
881.746	11585
881.872	11528
881.999	11516
882.125	11554
882.252	11505
882.378	11497
882.505	11611
882.631	11379
882.757	11406
882.883	11307
883.01	11322
883.136	11284
883.262	11094
883.388	11147
883.514	11235
883.64	11208
883.766	11124
883.892	10995
884.018	11003
884.143	11117
884.269	11105
884.395	10900
884.52	10801
884.646	10778
884.772	10778
884.897	10683
885.023	10725
885.148	10755
885.274	10706
885.399	10729
885.524	10618
885.65	10641
885.775	10615
885.9	10584
886.025	10588
886.15	10607
886.275	10424
886.4	10405
886.525	10360
886.65	10379
886.775	10360
886.9	10497
887.025	10535
887.149	10363
887.274	10284
887.399	10253
887.523	10150
887.648	10147
887.773	10124
887.897	10188
888.021	10234
888.146	10093
888.27	10280
888.395	10276
888.519	10181
888.643	10188
888.767	10249
888.891	10093
889.015	9994
889.139	10002
889.263	9972
889.387	10051
889.511	10188
889.635	10036
889.759	9922
889.883	9964
890.006	10029
890.13	10074
890.254	9937
890.377	10010
890.501	9789
890.624	9865
890.748	9903
890.871	9797
890.995	9778
891.118	9694
891.241	9808
891.364	9774
891.488	9831
891.611	9797
891.734	9785
891.857	9838
891.98	9751
892.103	9755
892.226	9724
892.349	9675
892.471	9557
892.594	9614
892.717	9641
892.839	9641
892.962	9633
893.085	9648
893.207	9534
893.33	9504
893.452	9496
893.575	9561
893.697	9542
893.819	9564
893.941	9648
894.064	9660
894.186	9462
894.308	9340
894.43	9534
894.552	9587
894.674	9481
894.796	9317
894.918	9420
895.04	9306
895.161	9408
895.283	9393
895.405	9332
895.526	9260
895.648	9310
895.769	9313
895.891	9275
896.012	9256
896.134	9272
896.255	9173
896.376	9226
896.498	9176
896.619	9058
896.74	9032
896.861	9173
896.982	9283
897.103	9268
897.224	9123
897.345	9116
897.466	9066
897.587	9024
897.708	9119
897.828	9047
897.949	8979
898.07	8807
898.19	8925
898.311	9005
898.431	8895
898.552	8948
898.672	8925
898.792	8948
898.913	8941
899.033	8845
899.153	8773
899.273	8644
899.393	8743
899.513	8758
899.633	8724
899.753	8762
899.873	8708
899.993	8762
900.113	8823
900.232	8720
900.352	8655
900.472	8617
900.591	8545
900.711	8602
900.83	8545
900.95	8617
901.069	8667
901.189	8621
901.308	8450
901.427	8393
901.546	8438
901.665	8412
901.784	8499
901.904	8423
902.023	8358
902.141	8252
902.26	8210
902.379	8256
902.498	8263
902.617	8183
902.735	8290
902.854	8332
902.973	8248
903.091	8183
903.21	8123
903.328	8142
903.446	8176
903.565	8134
903.683	8126
903.801	8138
903.919	8168
904.038	8153
904.156	8065
904.274	8092
904.392	8031
904.51	8046
904.627	8001
904.745	8058
904.863	8103
904.981	7947
905.098	7974
905.216	7833
905.334	7913
905.451	7883
905.569	7837
905.686	7925
905.803	7909
905.921	7769
906.038	7875
906.155	7807
906.272	7731
906.389	7761
906.506	7685
906.623	7700
906.74	7575
906.857	7548
906.974	7613
907.091	7666
907.208	7723
907.324	7613
907.441	7567
907.557	7483
907.674	7438
907.79	7441
907.907	7388
908.023	7487
908.139	7487
908.256	7426
908.372	7343
908.488	7350
908.604	7263
908.72	7206
908.836	7293
908.952	7255
909.068	7263
909.184	7297
909.3	7266
909.415	7331
909.531	7362
909.647	7091
909.762	7103
909.878	7129
909.993	7141
910.108	7103
910.224	7114
910.339	7179
910.454	7053
910.57	7042
910.685	6985
910.8	7107
910.915	7095
911.03	7023
911.145	6875
911.259	6867
911.374	6905
911.489	6875
911.604	6818
911.718	6757
911.833	6703
911.947	6650
912.062	6612
912.176	6719
912.291	6760
912.405	6692
912.519	6783
912.633	6837
912.748	6696
912.862	6741
912.976	6650
913.09	6513
913.204	6662
913.318	6635
913.431	6658
913.545	6684
913.659	6741
913.772	6650
913.886	6620
914	6506
914.113	6620
914.226	6719
914.34	6620
914.453	6479
914.566	6582
914.68	6563
914.793	6585
914.906	6456
915.019	6414
915.132	6372
915.245	6429
915.358	6445
915.47	6456
915.583	6376
915.696	6460
915.809	6502
915.921	6563
916.034	6422
916.146	6448
916.259	6410
916.371	6456
916.483	6494
916.595	6441
916.708	6395
916.82	6391
916.932	6391
917.044	6391
917.156	6372
917.268	6334
917.38	6395
917.491	6323
917.603	6403
917.715	6426
917.826	6475
917.938	6327
918.049	6228
918.161	6327
918.272	6426
918.384	6422
918.495	6357
918.606	6296
918.717	6216
918.828	6319
918.939	6338
919.05	6239
919.161	6224
919.272	6144
919.383	6182
919.494	6289
919.604	6456
919.715	6308
919.826	6220
919.936	6239
920.047	6361
920.157	6220
920.267	6448
920.378	6292
920.488	6319
920.598	6498
920.708	6506
920.818	6441
920.928	6517
921.038	6658
921.148	6578
921.258	6407
921.368	6308
921.477	6213
921.587	6178
921.697	6110
921.806	6201
921.916	6098
922.025	5942
922.134	5931
922.244	5950
922.353	5977
922.462	5851
922.571	5809
922.68	5676
922.789	5680
922.898	5714
923.007	5558
923.116	5745
923.224	5722
923.333	5665
923.442	5615
923.55	5596
923.659	5611
923.767	5627
923.876	5516
923.984	5665
924.092	5509
924.201	5596
924.309	5615
924.417	5520
924.525	5486
924.633	5566
924.741	6292
924.849	5364
924.956	5429
925.064	5372
925.172	5315
925.279	5292
925.387	5387
925.494	5303
925.602	5467
925.709	5395
925.816	5326
925.924	5318
926.031	5353
926.138	5280
926.245	5315
926.352	5201
926.459	5326
926.566	5353
926.673	5265
926.779	5124
926.886	5143
926.993	5075
927.099	4995
927.206	5041
927.312	4999
927.419	4987
927.525	4991
927.631	5006
927.737	4900
927.843	4854
927.95	4763
928.056	4854
928.162	4831
928.267	4877
928.373	5292
928.479	4843
928.585	4691
928.69	4729
928.796	4809
928.901	4675
929.007	4622
929.112	4687
929.218	4626
929.323	4565
929.428	4607
929.533	4740
929.638	4542
929.743	4516
929.848	4554
929.953	4500
930.058	4474
930.163	4295
930.267	4371
930.372	4447
930.477	4303
930.581	4459
930.685	4360
930.79	4276
930.894	4295
930.998	4268
931.103	4394
931.207	4147
931.311	4101
931.415	4051
931.519	3960
931.623	3949
