Data from glass_V78500241_2485.txt Node
Date: Wed Sep 01 19:31:43 CST 2021
User: usil
Spectrometer: V785-0024
Trigger mode: 0
Integration Time (sec): 4.000000E-1
Scans to average: 1
Nonlinearity correction enabled: false
Boxcar width: 0
Storing dark spectrum: false
XAxis mode: Wavelengths
Number of Pixels in Spectrum: 1024
>>>>>Begin Spectral Data<<<<<
801.071	3686
801.214	3717
801.356	3652
801.499	3732
801.641	3736
801.783	3755
801.926	3865
802.068	3842
802.211	3854
802.353	3896
802.496	3835
802.638	3793
802.78	3880
802.923	3915
803.065	3922
803.208	3850
803.35	3861
803.492	3873
803.635	3884
803.777	3827
803.919	3873
804.061	4128
804.204	3937
804.346	3937
804.488	3896
804.63	4006
804.773	3968
804.915	3991
805.057	4105
805.199	4002
805.341	4086
805.483	4139
805.626	4128
805.768	4116
805.91	4230
806.052	4166
806.194	4173
806.336	4310
806.478	4223
806.62	4162
806.762	4177
806.904	4219
807.046	4287
807.188	4257
807.33	4150
807.472	4238
807.614	4219
807.756	4219
807.898	4166
808.04	4227
808.182	4268
808.324	4268
808.465	4398
808.607	4455
808.749	4462
808.891	4474
809.033	4432
809.174	4371
809.316	4223
809.458	4200
809.6	4139
809.741	4169
809.883	4112
810.025	4166
810.166	4204
810.308	4204
810.45	4192
810.591	4253
810.733	4249
810.875	4508
811.016	4820
811.158	5083
811.299	5254
811.441	5288
811.582	5060
811.724	4694
811.865	4440
812.007	4455
812.148	4440
812.29	4421
812.431	4413
812.573	4417
812.714	4371
812.855	4386
812.997	4390
813.138	4417
813.279	4432
813.421	4356
813.562	4325
813.703	4341
813.845	4333
813.986	4295
814.127	4200
814.268	4242
814.41	4257
814.551	4211
814.692	4344
814.833	4272
814.974	4261
815.115	4318
815.256	4257
815.397	4173
815.539	4234
815.68	4185
815.821	4223
815.962	4295
816.103	4219
816.244	4227
816.385	4227
816.526	4280
816.666	4223
816.807	4071
816.948	4188
817.089	4147
817.23	4082
817.371	4032
817.512	4067
817.653	4055
817.793	4025
817.934	4017
818.075	4055
818.216	4090
818.356	4086
818.497	3983
818.638	3907
818.778	3979
818.919	3930
819.06	3835
819.2	3907
819.341	3857
819.481	3812
819.622	3896
819.762	4029
819.903	3911
820.043	3842
820.184	3827
820.324	3804
820.465	3873
820.605	3876
820.746	3804
820.886	3823
821.026	3937
821.167	3892
821.307	3937
821.447	3956
821.588	3941
821.728	3945
821.868	3941
822.008	3854
822.149	3899
822.289	3911
822.429	3793
822.569	3724
822.709	3797
822.849	3701
822.99	3720
823.13	3781
823.27	3759
823.41	3694
823.55	3709
823.69	3698
823.83	3728
823.97	3656
824.11	3610
824.25	3660
824.389	3599
824.529	3667
824.669	3606
824.809	3709
824.949	3713
825.089	3736
825.228	3740
825.368	3572
825.508	3530
825.648	3542
825.787	3599
825.927	3599
826.067	3622
826.206	3633
826.346	3797
826.485	3831
826.625	3861
826.765	3918
826.904	3827
827.044	3633
827.183	3515
827.323	3481
827.462	3504
827.601	3424
827.741	3412
827.88	3469
828.02	3378
828.159	3428
828.298	3488
828.437	3538
828.577	3447
828.716	3603
828.855	3515
828.994	3389
829.134	3386
829.273	3355
829.412	3317
829.551	3302
829.69	3351
829.829	3420
829.968	3462
830.107	3447
830.246	3431
830.385	3348
830.524	3382
830.663	3260
830.802	3256
830.941	3199
831.08	3188
831.219	3245
831.357	3260
831.496	3424
831.635	3207
831.774	3222
831.913	3150
832.051	3123
832.19	3123
832.329	3233
832.467	3154
832.606	3093
832.744	3161
832.883	3157
833.022	3211
833.16	3245
833.299	3268
833.437	3317
833.576	3302
833.714	3355
833.852	3485
833.991	3397
834.129	3477
834.267	3424
834.406	3393
834.544	3416
834.682	3405
834.821	3405
834.959	3568
835.097	3401
835.235	3511
835.373	3428
835.511	3466
835.65	3462
835.788	3462
835.926	3397
836.064	3355
836.202	3393
836.34	3538
836.478	3580
836.615	3549
836.753	3545
836.891	3629
837.029	3603
837.167	3587
837.305	3534
837.443	3515
837.58	3481
837.718	3625
837.856	3545
837.993	3523
838.131	3599
838.269	3625
838.406	3587
838.544	3595
838.681	3473
838.819	3420
838.956	3317
839.094	3393
839.231	3412
839.369	3496
839.506	3713
839.643	3595
839.781	3435
839.918	3454
840.055	3530
840.193	3469
840.33	3515
840.467	3526
840.604	3564
840.742	3808
840.879	3564
841.016	3561
841.153	3610
841.29	3770
841.427	3694
841.564	3717
841.701	3728
841.838	3652
841.975	3644
842.112	3717
842.249	3660
842.385	3675
842.522	3838
842.659	3652
842.796	3671
842.933	3671
843.069	3682
843.206	3732
843.343	3789
843.479	3766
843.616	3812
843.752	3671
843.889	3660
844.025	3846
844.162	3675
844.298	3846
844.435	3800
844.571	3766
844.708	3884
844.844	3979
844.98	4048
845.117	3991
845.253	3911
845.389	3884
845.525	3972
845.661	3983
845.798	3838
845.934	3975
846.07	3964
846.206	4059
846.342	4131
846.478	4051
846.614	4017
846.75	3945
846.886	3873
847.022	3998
847.158	3975
847.294	3983
847.429	4036
847.565	3953
847.701	4215
847.837	3873
847.972	3835
848.108	3956
848.244	3964
848.379	3861
848.515	3819
848.65	3823
848.786	3842
848.921	3888
849.057	3922
849.192	3930
849.328	3884
849.463	3903
849.598	3838
849.734	3835
849.869	3827
850.004	3819
850.14	3762
850.275	3759
850.41	3762
850.545	3762
850.68	3781
850.815	3823
850.95	3747
851.085	3907
851.22	3854
851.355	3785
851.49	3759
851.625	3781
851.76	3778
851.895	3717
852.03	3740
852.165	3804
852.299	3842
852.434	3876
852.569	3842
852.703	3869
852.838	3915
852.973	3975
853.107	3964
853.242	3869
853.376	3819
853.511	3781
853.645	3831
853.78	3964
853.914	3857
854.048	3865
854.183	3899
854.317	3949
854.451	4093
854.585	3934
854.72	3972
854.854	4067
854.988	3888
855.122	3994
855.256	3915
855.39	4029
855.524	4059
855.658	4101
855.792	4086
855.926	4139
856.06	4177
856.194	4227
856.327	4116
856.461	4116
856.595	4150
856.729	4166
856.862	4257
856.996	4215
857.13	4261
857.263	4276
857.397	4306
857.53	4291
857.664	4322
857.797	4375
857.931	4363
858.064	4341
858.197	4451
858.331	4424
858.464	4356
858.597	4371
858.731	4443
858.864	4432
858.997	4489
859.13	4489
859.263	4489
859.396	4592
859.529	4504
859.662	4561
859.795	4485
859.928	4618
860.061	4706
860.194	4691
860.327	4641
860.46	4664
860.592	4748
860.725	4694
860.858	4755
860.99	4637
861.123	4721
861.256	4687
861.388	4809
861.521	5482
861.653	4755
861.786	4656
861.918	4721
862.05	4828
862.183	4847
862.315	4885
862.447	4919
862.58	4881
862.712	4763
862.844	4748
862.976	4885
863.108	4885
863.24	5261
863.372	4831
863.504	4923
863.636	4896
863.768	4934
863.9	4957
864.032	4877
864.164	4961
864.296	5014
864.428	5109
864.559	5083
864.691	5098
864.823	5113
864.954	5143
865.086	5159
865.217	5128
865.349	5124
865.48	5162
865.612	5174
865.743	5307
865.875	5185
866.006	5109
866.137	5250
866.269	5246
866.4	5254
866.531	5185
866.662	5216
866.793	5239
866.924	5269
867.055	5372
867.186	5299
867.317	5273
867.448	5303
867.579	5349
867.71	5337
867.841	5372
867.972	5474
868.103	5410
868.233	5474
868.364	5532
868.495	5524
868.625	5680
868.756	5802
868.886	5668
869.017	5726
869.147	5844
869.278	5809
869.408	5817
869.539	5817
869.669	5889
869.799	5942
869.929	6015
870.06	5977
870.19	6216
870.32	6140
870.45	6315
870.58	6319
870.71	6456
870.84	6422
870.97	6395
871.1	6456
871.23	6658
871.36	6665
871.489	6673
871.619	6760
871.749	6779
871.879	6802
872.008	6905
872.138	6970
872.267	6977
872.397	7008
872.526	7053
872.656	7122
872.785	7183
872.915	7407
873.044	7518
873.173	7590
873.303	7620
873.432	7761
873.561	7879
873.69	7974
873.819	7955
873.948	8161
874.077	8248
874.206	8336
874.335	8427
874.464	8629
874.593	8902
874.722	8883
874.851	9085
874.979	9249
875.108	9351
875.237	9416
875.365	9431
875.494	9610
875.623	9819
875.751	9850
875.88	9972
876.008	10120
876.136	10200
876.265	10504
876.393	10668
876.521	10759
876.65	10710
876.778	10908
876.906	10896
877.034	11014
877.162	11109
877.29	11113
877.418	11242
877.546	11364
877.674	11471
877.802	11471
877.93	11524
878.058	11535
878.185	11608
878.313	11729
878.441	11726
878.568	11707
878.696	11821
878.824	11946
878.951	11942
879.079	11973
879.206	12148
879.333	11999
879.461	11958
879.588	12102
879.715	12064
879.842	12190
879.97	12064
880.097	11843
880.224	11832
880.351	11832
880.478	11863
880.605	11851
880.732	11764
880.859	11946
880.986	11741
881.112	11817
881.239	11668
881.366	11589
881.493	11589
881.619	11573
881.746	11649
881.872	11532
881.999	11535
882.125	11467
882.252	11493
882.378	11463
882.505	11539
882.631	11318
882.757	11284
882.883	11277
883.01	11220
883.136	11124
883.262	11105
883.388	11117
883.514	11227
883.64	11029
883.766	11124
883.892	11052
884.018	10957
884.143	10984
884.269	11048
884.395	10854
884.52	10828
884.646	10801
884.772	10702
884.897	10588
885.023	10706
885.148	10740
885.274	10847
885.399	10748
885.524	10649
885.65	10615
885.775	10554
885.9	10554
886.025	10489
886.15	10504
886.275	10424
886.4	10409
886.525	10424
886.65	10272
886.775	10371
886.9	10402
887.025	10478
887.149	10287
887.274	10188
887.399	10280
887.523	10147
887.648	10166
887.773	10169
887.897	10276
888.021	10207
888.146	10181
888.27	10246
888.395	10230
888.519	10158
888.643	10204
888.767	10211
888.891	10067
889.015	10021
889.139	10002
889.263	10006
889.387	10071
889.511	10086
889.635	10090
889.759	9979
889.883	9953
890.006	10002
890.13	10158
890.254	9964
890.377	9915
890.501	9903
890.624	9880
890.748	9968
890.871	9789
890.995	9823
891.118	9705
891.241	9732
891.364	9747
891.488	9838
891.611	9770
891.734	9762
891.857	9759
891.98	9667
892.103	9781
892.226	9720
892.349	9660
892.471	9469
892.594	9584
892.717	9644
892.839	9572
892.962	9610
893.085	9641
893.207	9557
893.33	9473
893.452	9564
893.575	9606
893.697	9481
893.819	9557
893.941	9625
894.064	9564
894.186	9374
894.308	9389
894.43	9564
894.552	9564
894.674	9507
894.796	9382
894.918	9428
895.04	9351
895.161	9351
895.283	9268
895.405	9260
895.526	9218
895.648	9245
895.769	9272
895.891	9245
896.012	9306
896.134	9180
896.255	9169
896.376	9195
896.498	9104
896.619	9188
896.74	9039
896.861	9074
896.982	9226
897.103	9272
897.224	9230
897.345	9070
897.466	8982
897.587	9036
897.708	9085
897.828	8967
897.949	8910
898.07	8857
898.19	8971
898.311	8956
898.431	8979
898.552	8902
898.672	8982
898.792	8956
898.913	8933
899.033	8807
899.153	8743
899.273	8663
899.393	8697
899.513	8731
899.633	8708
899.753	8708
899.873	8644
899.993	8720
900.113	8743
900.232	8724
900.352	8636
900.472	8598
900.591	8564
900.711	8613
900.83	8484
900.95	8636
901.069	8632
901.189	8579
901.308	8442
901.427	8400
901.546	8400
901.665	8377
901.784	8396
901.904	8324
902.023	8343
902.141	8191
902.26	8199
902.379	8240
902.498	8206
902.617	8210
902.735	8317
902.854	8240
902.973	8259
903.091	8092
903.21	8081
903.328	8134
903.446	8103
903.565	8058
903.683	8092
903.801	8134
903.919	8119
904.038	8081
904.156	8005
904.274	8100
904.392	7974
904.51	8043
904.627	8050
904.745	8043
904.863	8111
904.981	7868
905.098	7864
905.216	7883
905.334	7940
905.451	7902
905.569	7868
905.686	7902
905.803	7925
905.921	7765
906.038	7864
906.155	7723
906.272	7734
906.389	7666
906.506	7636
906.623	7616
906.74	7544
906.857	7559
906.974	7594
907.091	7693
907.208	7681
907.324	7689
907.441	7594
907.557	7464
907.674	7426
907.79	7358
907.907	7419
908.023	7460
908.139	7350
908.256	7346
908.372	7335
908.488	7324
908.604	7209
908.72	7308
908.836	7259
908.952	7266
909.068	7217
909.184	7289
909.3	7236
909.415	7263
909.531	7244
909.647	7129
909.762	7160
909.878	7069
909.993	7107
910.108	7072
910.224	7061
910.339	7152
910.454	6962
910.57	6954
910.685	6970
910.8	7137
910.915	7080
911.03	7004
911.145	6909
911.259	6894
911.374	6901
911.489	6814
911.604	6810
911.718	6711
911.833	6650
911.947	6707
912.062	6601
912.176	6684
912.291	6700
912.405	6658
912.519	6821
912.633	6753
912.748	6642
912.862	6707
912.976	6563
913.09	6502
913.204	6570
913.318	6658
913.431	6658
913.545	6730
913.659	6684
913.772	6623
913.886	6521
914	6601
914.113	6585
914.226	6635
914.34	6612
914.453	6498
914.566	6582
914.68	6486
914.793	6551
914.906	6410
915.019	6407
915.132	6350
915.245	6433
915.358	6464
915.47	6433
915.583	6441
915.696	6445
915.809	6517
915.921	6506
916.034	6426
916.146	6384
916.259	6414
916.371	6426
916.483	6407
916.595	6380
916.708	6391
916.82	6361
916.932	6342
917.044	6342
917.156	6433
917.268	6342
917.38	6273
917.491	6270
917.603	6323
917.715	6357
917.826	6410
917.938	6292
918.049	6148
918.161	6292
918.272	6422
918.384	6407
918.495	6323
918.606	6213
918.717	6239
918.828	6243
918.939	6254
919.05	6144
919.161	6296
919.272	6060
919.383	6114
919.494	6266
919.604	6418
919.715	6308
919.826	6182
919.936	6175
920.047	6357
920.157	6228
920.267	6433
920.378	6311
920.488	6270
920.598	6414
920.708	6604
920.818	6452
920.928	6437
921.038	6566
921.148	6551
921.258	6334
921.368	6277
921.477	6201
921.587	6140
921.697	6060
921.806	6171
921.916	6125
922.025	5923
922.134	5893
922.244	5878
922.353	5931
922.462	5855
922.571	5802
922.68	5710
922.789	5680
922.898	5688
923.007	5600
923.116	5714
923.224	5695
923.333	5638
923.442	5619
923.55	5592
923.659	5627
923.767	5608
923.876	5570
923.984	5566
924.092	5493
924.201	5562
924.309	5501
924.417	5543
924.525	5452
924.633	5482
924.741	6152
924.849	5353
924.956	5448
925.064	5330
925.172	5261
925.279	5269
925.387	5292
925.494	5288
925.602	5372
925.709	5368
925.816	5231
925.924	5307
926.031	5341
926.138	5273
926.245	5326
926.352	5174
926.459	5315
926.566	5284
926.673	5185
926.779	5067
926.886	5094
926.993	5037
927.099	4980
927.206	5010
927.312	4957
927.419	4999
927.525	4957
927.631	4965
927.737	4919
927.843	4831
927.95	4824
928.056	4824
928.162	4835
928.267	4828
928.373	5231
928.479	4828
928.585	4672
928.69	4782
928.796	4740
928.901	4664
929.007	4573
929.112	4630
929.218	4649
929.323	4611
929.428	4550
929.533	4656
929.638	4481
929.743	4535
929.848	4512
929.953	4546
930.058	4413
930.163	4314
930.267	4322
930.372	4432
930.477	4306
930.581	4451
930.685	4390
930.79	4287
930.894	4253
930.998	4223
931.103	4337
931.207	4124
931.311	4071
931.415	4029
931.519	3918
931.623	3934
