Data from glass_V78500241_77.txt Node
Date: Wed Sep 01 19:15:01 CST 2021
User: usil
Spectrometer: V785-0024
Trigger mode: 0
Integration Time (sec): 4.000000E-1
Scans to average: 1
Nonlinearity correction enabled: false
Boxcar width: 0
Storing dark spectrum: false
XAxis mode: Wavelengths
Number of Pixels in Spectrum: 1024
>>>>>Begin Spectral Data<<<<<
801.071	3751
801.214	3800
801.356	3728
801.499	3778
801.641	3736
801.783	3751
801.926	3903
802.068	3846
802.211	3827
802.353	3907
802.496	3869
802.638	3876
802.78	3899
802.923	3956
803.065	3911
803.208	3888
803.35	3911
803.492	3880
803.635	3922
803.777	3819
803.919	3857
804.061	4185
804.204	3941
804.346	4010
804.488	3930
804.63	4029
804.773	3937
804.915	4109
805.057	4169
805.199	4078
805.341	4105
805.483	4162
805.626	4169
805.768	4131
805.91	4238
806.052	4284
806.194	4196
806.336	4379
806.478	4265
806.62	4162
806.762	4196
806.904	4257
807.046	4371
807.188	4219
807.33	4188
807.472	4230
807.614	4299
807.756	4272
807.898	4215
808.04	4238
808.182	4329
808.324	4329
808.465	4333
808.607	4451
808.749	4481
808.891	4474
809.033	4523
809.174	4413
809.316	4291
809.458	4287
809.6	4177
809.741	4158
809.883	4150
810.025	4177
810.166	4268
810.308	4215
810.45	4253
810.591	4249
810.733	4287
810.875	4558
811.016	4854
811.158	5121
811.299	5269
811.441	5288
811.582	5079
811.724	4679
811.865	4455
812.007	4516
812.148	4402
812.29	4421
812.431	4402
812.573	4398
812.714	4443
812.855	4462
812.997	4424
813.138	4493
813.279	4455
813.421	4398
813.562	4375
813.703	4371
813.845	4337
813.986	4249
814.127	4246
814.268	4295
814.41	4287
814.551	4257
814.692	4371
814.833	4268
814.974	4341
815.115	4348
815.256	4303
815.397	4265
815.539	4234
815.68	4230
815.821	4257
815.962	4329
816.103	4265
816.244	4227
816.385	4257
816.526	4295
816.666	4215
816.807	4128
816.948	4207
817.089	4177
817.23	4112
817.371	4082
817.512	4074
817.653	4109
817.793	4071
817.934	4059
818.075	4154
818.216	4048
818.356	4112
818.497	4017
818.638	3949
818.778	3949
818.919	3953
819.06	3842
819.2	3934
819.341	3899
819.481	3869
819.622	3934
819.762	3987
819.903	3934
820.043	3861
820.184	3850
820.324	3857
820.465	3873
820.605	3865
820.746	3903
820.886	3816
821.026	3987
821.167	3956
821.307	4059
821.447	3983
821.588	3987
821.728	3979
821.868	3968
822.008	3896
822.149	3896
822.289	3922
822.429	3797
822.569	3797
822.709	3808
822.849	3774
822.99	3705
823.13	3781
823.27	3759
823.41	3778
823.55	3736
823.69	3747
823.83	3793
823.97	3682
824.11	3591
824.25	3587
824.389	3622
824.529	3698
824.669	3584
824.809	3698
824.949	3759
825.089	3736
825.228	3747
825.368	3660
825.508	3595
825.648	3606
825.787	3576
825.927	3633
826.067	3610
826.206	3713
826.346	3762
826.485	3892
826.625	3880
826.765	3960
826.904	3793
827.044	3625
827.183	3496
827.323	3450
827.462	3511
827.601	3481
827.741	3473
827.88	3428
828.02	3378
828.159	3454
828.298	3504
828.437	3549
828.577	3462
828.716	3629
828.855	3515
828.994	3386
829.134	3424
829.273	3431
829.412	3382
829.551	3344
829.69	3374
829.829	3458
829.968	3473
830.107	3447
830.246	3466
830.385	3420
830.524	3340
830.663	3310
830.802	3249
830.941	3230
831.08	3184
831.219	3302
831.357	3313
831.496	3420
831.635	3260
831.774	3199
831.913	3268
832.051	3123
832.19	3119
832.329	3203
832.467	3188
832.606	3154
832.744	3173
832.883	3188
833.022	3192
833.16	3275
833.299	3313
833.437	3329
833.576	3389
833.714	3439
833.852	3443
833.991	3473
834.129	3473
834.267	3409
834.406	3431
834.544	3454
834.682	3443
834.821	3450
834.959	3576
835.097	3424
835.235	3572
835.373	3473
835.511	3564
835.65	3473
835.788	3507
835.926	3435
836.064	3405
836.202	3409
836.34	3610
836.478	3622
836.615	3515
836.753	3614
836.891	3618
837.029	3641
837.167	3614
837.305	3553
837.443	3542
837.58	3511
837.718	3629
837.856	3584
837.993	3526
838.131	3625
838.269	3576
838.406	3564
838.544	3572
838.681	3477
838.819	3431
838.956	3367
839.094	3412
839.231	3526
839.369	3538
839.506	3778
839.643	3660
839.781	3523
839.918	3485
840.055	3564
840.193	3526
840.33	3523
840.467	3603
840.604	3625
840.742	3823
840.879	3576
841.016	3572
841.153	3591
841.29	3751
841.427	3728
841.564	3747
841.701	3781
841.838	3743
841.975	3656
842.112	3720
842.249	3667
842.385	3633
842.522	3880
842.659	3751
842.796	3690
842.933	3743
843.069	3682
843.206	3736
843.343	3842
843.479	3838
843.616	3835
843.752	3705
843.889	3667
844.025	3869
844.162	3732
844.298	3899
844.435	3781
844.571	3797
844.708	3907
844.844	4013
844.98	4036
845.117	4013
845.253	3956
845.389	3972
845.525	3949
845.661	3964
845.798	3945
845.934	4017
846.07	3991
846.206	4067
846.342	4135
846.478	4101
846.614	3926
846.75	3964
846.886	3994
847.022	4032
847.158	4002
847.294	4010
847.429	4010
847.565	4010
847.701	4287
847.837	3899
847.972	3907
848.108	4029
848.244	4025
848.379	3873
848.515	3861
848.65	3850
848.786	3846
848.921	3873
849.057	3972
849.192	3975
849.328	3987
849.463	3964
849.598	3896
849.734	3850
849.869	3835
850.004	3789
850.14	3857
850.275	3816
850.41	3709
850.545	3770
850.68	3808
850.815	3819
850.95	3785
851.085	3972
851.22	3903
851.355	3827
851.49	3804
851.625	3827
851.76	3838
851.895	3675
852.03	3740
852.165	3797
852.299	3892
852.434	3907
852.569	3899
852.703	3899
852.838	3941
852.973	4044
853.107	4017
853.242	3922
853.376	3899
853.511	3793
853.645	3880
853.78	3994
853.914	3922
854.048	3884
854.183	3918
854.317	3934
854.451	4071
854.585	3964
854.72	3949
854.854	4013
854.988	3915
855.122	3991
855.256	3949
855.39	4067
855.524	4162
855.658	4128
855.792	4116
855.926	4154
856.06	4143
856.194	4204
856.327	4162
856.461	4162
856.595	4200
856.729	4154
856.862	4272
856.996	4265
857.13	4314
857.263	4306
857.397	4405
857.53	4352
857.664	4371
857.797	4360
857.931	4459
858.064	4352
858.197	4451
858.331	4421
858.464	4360
858.597	4329
858.731	4466
858.864	4474
858.997	4440
859.13	4508
859.263	4504
859.396	4554
859.529	4565
859.662	4569
859.795	4527
859.928	4596
860.061	4729
860.194	4733
860.327	4683
860.46	4653
860.592	4729
860.725	4782
860.858	4820
860.99	4672
861.123	4675
861.256	4725
861.388	4771
861.521	5440
861.653	4702
861.786	4702
861.918	4710
862.05	4828
862.183	4831
862.315	4908
862.447	4946
862.58	4896
862.712	4801
862.844	4778
862.976	4870
863.108	4911
863.24	5231
863.372	4828
863.504	4911
863.636	4896
863.768	4976
863.9	4957
864.032	4904
864.164	4957
864.296	5052
864.428	5090
864.559	5128
864.691	5117
864.823	5189
864.954	5124
865.086	5162
865.217	5159
865.349	5094
865.48	5140
865.612	5162
865.743	5280
865.875	5246
866.006	5231
866.137	5235
866.269	5296
866.4	5284
866.531	5197
866.662	5220
866.793	5269
866.924	5303
867.055	5353
867.186	5341
867.317	5376
867.448	5307
867.579	5433
867.71	5376
867.841	5410
867.972	5467
868.103	5486
868.233	5516
868.364	5535
868.495	5543
868.625	5657
868.756	5783
868.886	5695
869.017	5737
869.147	5935
869.278	5893
869.408	5866
869.539	5863
869.669	5870
869.799	5939
869.929	5988
870.06	5996
870.19	6205
870.32	6159
870.45	6285
870.58	6388
870.71	6456
870.84	6464
870.97	6464
871.1	6407
871.23	6684
871.36	6700
871.489	6646
871.619	6738
871.749	6859
871.879	6867
872.008	7015
872.138	7015
872.267	7031
872.397	7080
872.526	7110
872.656	7133
872.785	7247
872.915	7373
873.044	7540
873.173	7605
873.303	7639
873.432	7723
873.561	7906
873.69	7932
873.819	8005
873.948	8199
874.077	8317
874.206	8347
874.335	8492
874.464	8655
874.593	8883
874.722	8925
874.851	9047
874.979	9310
875.108	9359
875.237	9454
875.365	9492
875.494	9667
875.623	9854
875.751	9903
875.88	9998
876.008	10135
876.136	10379
876.265	10504
876.393	10679
876.521	10641
876.65	10790
876.778	10862
876.906	10965
877.034	11025
877.162	11090
877.29	11159
877.418	11322
877.546	11288
877.674	11421
877.802	11528
877.93	11611
878.058	11501
878.185	11592
878.313	11589
878.441	11733
878.568	11733
878.696	11813
878.824	11927
878.951	11893
879.079	12003
879.206	12095
879.333	12167
879.461	11984
879.588	12106
879.715	12041
879.842	12315
879.97	12117
880.097	11912
880.224	11824
880.351	11817
880.478	11901
880.605	11908
880.732	11832
880.859	12045
880.986	11832
881.112	11828
881.239	11676
881.366	11630
881.493	11638
881.619	11581
881.746	11604
881.872	11623
881.999	11596
882.125	11501
882.252	11497
882.378	11520
882.505	11611
882.631	11452
882.757	11322
882.883	11318
883.01	11322
883.136	11147
883.262	11147
883.388	11132
883.514	11280
883.64	11239
883.766	11109
883.892	10908
884.018	11045
884.143	11014
884.269	11102
884.395	10782
884.52	10805
884.646	10774
884.772	10729
884.897	10679
885.023	10710
885.148	10736
885.274	10782
885.399	10694
885.524	10656
885.65	10668
885.775	10649
885.9	10550
886.025	10596
886.15	10577
886.275	10489
886.4	10413
886.525	10398
886.65	10382
886.775	10390
886.9	10527
887.025	10558
887.149	10314
887.274	10204
887.399	10204
887.523	10169
887.648	10143
887.773	10158
887.897	10227
888.021	10139
888.146	10185
888.27	10249
888.395	10287
888.519	10181
888.643	10207
888.767	10223
888.891	10078
889.015	10013
889.139	10063
889.263	10025
889.387	10093
889.511	10105
889.635	10147
889.759	9953
889.883	10002
890.006	9941
890.13	10154
890.254	9960
890.377	9994
890.501	9895
890.624	9865
890.748	9911
890.871	9743
890.995	9724
891.118	9774
891.241	9747
891.364	9800
891.488	9819
891.611	9717
891.734	9705
891.857	9816
891.98	9679
892.103	9835
892.226	9663
892.349	9720
892.471	9530
892.594	9564
892.717	9580
892.839	9633
892.962	9686
893.085	9587
893.207	9622
893.33	9507
893.452	9545
893.575	9606
893.697	9526
893.819	9698
893.941	9641
894.064	9606
894.186	9428
894.308	9462
894.43	9496
894.552	9595
894.674	9545
894.796	9504
894.918	9389
895.04	9416
895.161	9405
895.283	9336
895.405	9253
895.526	9306
895.648	9222
895.769	9260
895.891	9264
896.012	9294
896.134	9294
896.255	9131
896.376	9119
896.498	9131
896.619	9108
896.74	9108
896.861	9154
896.982	9268
897.103	9310
897.224	9272
897.345	9100
897.466	9070
897.587	8963
897.708	9112
897.828	8986
897.949	8971
898.07	8887
898.19	8880
898.311	9077
898.431	8910
898.552	8952
898.672	8971
898.792	8952
898.913	8883
899.033	8758
899.153	8800
899.273	8651
899.393	8697
899.513	8815
899.633	8804
899.753	8716
899.873	8693
899.993	8743
900.113	8708
900.232	8777
900.352	8731
900.472	8560
900.591	8606
900.711	8712
900.83	8537
900.95	8708
901.069	8720
901.189	8514
901.308	8412
901.427	8431
901.546	8450
901.665	8507
901.784	8511
901.904	8442
902.023	8396
902.141	8248
902.26	8195
902.379	8282
902.498	8218
902.617	8229
902.735	8358
902.854	8282
902.973	8275
903.091	8187
903.21	8115
903.328	8180
903.446	8176
903.565	8081
903.683	8130
903.801	8069
903.919	8123
904.038	8134
904.156	8046
904.274	8176
904.392	8016
904.51	8027
904.627	8035
904.745	8157
904.863	8153
904.981	7963
905.098	7833
905.216	7852
905.334	7909
905.451	7883
905.569	7902
905.686	7887
905.803	7936
905.921	7803
906.038	7970
906.155	7837
906.272	7780
906.389	7788
906.506	7719
906.623	7605
906.74	7674
906.857	7540
906.974	7563
907.091	7715
907.208	7715
907.324	7666
907.441	7609
907.557	7430
907.674	7499
907.79	7438
907.907	7381
908.023	7445
908.139	7419
908.256	7381
908.372	7411
908.488	7411
908.604	7343
908.72	7312
908.836	7266
908.952	7209
909.068	7251
909.184	7339
909.3	7266
909.415	7335
909.531	7274
909.647	7088
909.762	7129
909.878	7080
909.993	7053
910.108	7103
910.224	7095
910.339	7110
910.454	7107
910.57	7008
910.685	6993
910.8	7225
910.915	7114
911.03	7050
911.145	6947
911.259	6875
911.374	6894
911.489	6852
911.604	6825
911.718	6776
911.833	6703
911.947	6665
912.062	6654
912.176	6692
912.291	6711
912.405	6749
912.519	6795
912.633	6852
912.748	6726
912.862	6722
912.976	6597
913.09	6566
913.204	6616
913.318	6646
913.431	6726
913.545	6681
913.659	6757
913.772	6654
913.886	6593
914	6555
914.113	6627
914.226	6688
914.34	6623
914.453	6494
914.566	6585
914.68	6502
914.793	6544
914.906	6422
915.019	6391
915.132	6384
915.245	6388
915.358	6429
915.47	6486
915.583	6456
915.696	6494
915.809	6585
915.921	6506
916.034	6460
916.146	6448
916.259	6418
916.371	6486
916.483	6456
916.595	6429
916.708	6441
916.82	6426
916.932	6429
917.044	6414
917.156	6452
917.268	6319
917.38	6334
917.491	6372
917.603	6350
917.715	6395
917.826	6407
917.938	6334
918.049	6266
918.161	6365
918.272	6426
918.384	6494
918.495	6327
918.606	6254
918.717	6247
918.828	6304
918.939	6228
919.05	6205
919.161	6258
919.272	6102
919.383	6186
919.494	6285
919.604	6452
919.715	6376
919.826	6232
919.936	6224
920.047	6346
920.157	6232
920.267	6452
920.378	6327
920.488	6304
920.598	6407
920.708	6578
920.818	6563
920.928	6448
921.038	6589
921.148	6635
921.258	6388
921.368	6327
921.477	6216
921.587	6247
921.697	6098
921.806	6186
921.916	6057
922.025	5992
922.134	5965
922.244	5882
922.353	5942
922.462	5809
922.571	5756
922.68	5722
922.789	5676
922.898	5699
923.007	5684
923.116	5733
923.224	5699
923.333	5695
923.442	5649
923.55	5592
923.659	5592
923.767	5665
923.876	5539
923.984	5604
924.092	5528
924.201	5554
924.309	5600
924.417	5562
924.525	5532
924.633	5554
924.741	6308
924.849	5383
924.956	5452
925.064	5364
925.172	5372
925.279	5277
925.387	5376
925.494	5364
925.602	5417
925.709	5421
925.816	5273
925.924	5261
926.031	5383
926.138	5322
926.245	5345
926.352	5239
926.459	5357
926.566	5284
926.673	5170
926.779	5159
926.886	5105
926.993	5045
927.099	5018
927.206	4915
927.312	4987
927.419	5025
927.525	4987
927.631	5022
927.737	4927
927.843	4873
927.95	4812
928.056	4843
928.162	4866
928.267	4843
928.373	5421
928.479	4839
928.585	4694
928.69	4843
928.796	4812
928.901	4706
929.007	4584
929.112	4702
929.218	4653
929.323	4607
929.428	4569
929.533	4672
929.638	4596
929.743	4554
929.848	4558
929.953	4516
930.058	4462
930.163	4325
930.267	4356
930.372	4447
930.477	4295
930.581	4478
930.685	4417
930.79	4249
930.894	4287
930.998	4306
931.103	4375
931.207	4093
931.311	4097
931.415	4055
931.519	3945
931.623	3960
