Data from glass_V78500241_762.txt Node
Date: Wed Sep 01 19:19:46 CST 2021
User: usil
Spectrometer: V785-0024
Trigger mode: 0
Integration Time (sec): 4.000000E-1
Scans to average: 1
Nonlinearity correction enabled: false
Boxcar width: 0
Storing dark spectrum: false
XAxis mode: Wavelengths
Number of Pixels in Spectrum: 1024
>>>>>Begin Spectral Data<<<<<
801.071	3732
801.214	3762
801.356	3736
801.499	3766
801.641	3778
801.783	3808
801.926	3873
802.068	3827
802.211	3838
802.353	3884
802.496	3880
802.638	3854
802.78	3934
802.923	3937
803.065	3899
803.208	3842
803.35	3888
803.492	3869
803.635	3930
803.777	3827
803.919	3926
804.061	4177
804.204	3987
804.346	3918
804.488	3892
804.63	4032
804.773	4010
804.915	4044
805.057	4158
805.199	4051
805.341	4063
805.483	4135
805.626	4154
805.768	4135
805.91	4173
806.052	4230
806.194	4219
806.336	4409
806.478	4192
806.62	4128
806.762	4188
806.904	4234
807.046	4314
807.188	4246
807.33	4227
807.472	4230
807.614	4200
807.756	4280
807.898	4234
808.04	4230
808.182	4223
808.324	4322
808.465	4386
808.607	4531
808.749	4424
808.891	4474
809.033	4500
809.174	4417
809.316	4299
809.458	4268
809.6	4154
809.741	4120
809.883	4147
810.025	4223
810.166	4253
810.308	4272
810.45	4249
810.591	4215
810.733	4306
810.875	4462
811.016	4809
811.158	5136
811.299	5261
811.441	5292
811.582	5079
811.724	4683
811.865	4497
812.007	4493
812.148	4443
812.29	4432
812.431	4356
812.573	4424
812.714	4379
812.855	4440
812.997	4424
813.138	4481
813.279	4379
813.421	4371
813.562	4413
813.703	4318
813.845	4299
813.986	4291
814.127	4265
814.268	4314
814.41	4284
814.551	4272
814.692	4299
814.833	4322
814.974	4329
815.115	4360
815.256	4230
815.397	4238
815.539	4268
815.68	4188
815.821	4223
815.962	4333
816.103	4303
816.244	4291
816.385	4215
816.526	4276
816.666	4253
816.807	4131
816.948	4211
817.089	4207
817.23	4143
817.371	4051
817.512	4120
817.653	4063
817.793	4032
817.934	4109
818.075	4105
818.216	4128
818.356	4112
818.497	4013
818.638	3911
818.778	3953
818.919	3918
819.06	3884
819.2	3884
819.341	3876
819.481	3884
819.622	3937
819.762	4006
819.903	3922
820.043	3838
820.184	3876
820.324	3865
820.465	3903
820.605	3907
820.746	3892
820.886	3816
821.026	3953
821.167	3934
821.307	3960
821.447	3979
821.588	3979
821.728	3945
821.868	3972
822.008	3850
822.149	3941
822.289	3918
822.429	3797
822.569	3770
822.709	3778
822.849	3720
822.99	3740
823.13	3770
823.27	3781
823.41	3705
823.55	3747
823.69	3732
823.83	3728
823.97	3717
824.11	3618
824.25	3599
824.389	3629
824.529	3694
824.669	3663
824.809	3770
824.949	3762
825.089	3747
825.228	3698
825.368	3603
825.508	3561
825.648	3572
825.787	3625
825.927	3648
826.067	3644
826.206	3694
826.346	3812
826.485	3812
826.625	3850
826.765	3964
826.904	3838
827.044	3587
827.183	3542
827.323	3466
827.462	3458
827.601	3458
827.741	3397
827.88	3481
828.02	3382
828.159	3443
828.298	3469
828.437	3515
828.577	3481
828.716	3614
828.855	3511
828.994	3386
829.134	3393
829.273	3386
829.412	3389
829.551	3325
829.69	3359
829.829	3370
829.968	3534
830.107	3424
830.246	3473
830.385	3355
830.524	3367
830.663	3302
830.802	3256
830.941	3214
831.08	3203
831.219	3275
831.357	3310
831.496	3439
831.635	3260
831.774	3211
831.913	3226
832.051	3097
832.19	3116
832.329	3241
832.467	3142
832.606	3112
832.744	3165
832.883	3192
833.022	3207
833.16	3294
833.299	3298
833.437	3359
833.576	3389
833.714	3431
833.852	3466
833.991	3435
834.129	3473
834.267	3435
834.406	3416
834.544	3420
834.682	3424
834.821	3420
834.959	3580
835.097	3454
835.235	3542
835.373	3507
835.511	3504
835.65	3477
835.788	3530
835.926	3389
836.064	3389
836.202	3424
836.34	3587
836.478	3648
836.615	3591
836.753	3587
836.891	3641
837.029	3618
837.167	3606
837.305	3545
837.443	3526
837.58	3496
837.718	3629
837.856	3564
837.993	3530
838.131	3603
838.269	3587
838.406	3622
838.544	3587
838.681	3485
838.819	3500
838.956	3412
839.094	3405
839.231	3458
839.369	3553
839.506	3770
839.643	3652
839.781	3500
839.918	3473
840.055	3542
840.193	3542
840.33	3511
840.467	3561
840.604	3603
840.742	3793
840.879	3545
841.016	3549
841.153	3603
841.29	3789
841.427	3743
841.564	3762
841.701	3732
841.838	3720
841.975	3690
842.112	3755
842.249	3644
842.385	3629
842.522	3876
842.659	3713
842.796	3671
842.933	3728
843.069	3720
843.206	3713
843.343	3861
843.479	3778
843.616	3804
843.752	3686
843.889	3656
844.025	3823
844.162	3762
844.298	3857
844.435	3793
844.571	3778
844.708	3934
844.844	4036
844.98	3979
845.117	4055
845.253	3937
845.389	3960
845.525	3953
845.661	4006
845.798	3945
845.934	3960
846.07	3964
846.206	4044
846.342	4143
846.478	4128
846.614	4006
846.75	3922
846.886	3930
847.022	4055
847.158	3979
847.294	3994
847.429	4059
847.565	4006
847.701	4261
847.837	3884
847.972	3850
848.108	4021
848.244	4002
848.379	3865
848.515	3846
848.65	3873
848.786	3861
848.921	3903
849.057	3911
849.192	4002
849.328	3949
849.463	3869
849.598	3850
849.734	3842
849.869	3854
850.004	3804
850.14	3816
850.275	3766
850.41	3812
850.545	3816
850.68	3823
850.815	3785
850.95	3816
851.085	3972
851.22	3846
851.355	3835
851.49	3838
851.625	3827
851.76	3804
851.895	3720
852.03	3724
852.165	3812
852.299	3846
852.434	3922
852.569	3861
852.703	3873
852.838	3945
852.973	4017
853.107	4032
853.242	3907
853.376	3865
853.511	3762
853.645	3861
853.78	4006
853.914	3937
854.048	3888
854.183	3876
854.317	3956
854.451	4055
854.585	3994
854.72	3930
854.854	4036
854.988	3964
855.122	4002
855.256	3937
855.39	4055
855.524	4093
855.658	4086
855.792	4120
855.926	4181
856.06	4192
856.194	4173
856.327	4173
856.461	4154
856.595	4158
856.729	4162
856.862	4276
856.996	4207
857.13	4325
857.263	4337
857.397	4363
857.53	4295
857.664	4344
857.797	4428
857.931	4447
858.064	4375
858.197	4462
858.331	4352
858.464	4432
858.597	4325
858.731	4474
858.864	4504
858.997	4481
859.13	4527
859.263	4573
859.396	4596
859.529	4523
859.662	4531
859.795	4489
859.928	4664
860.061	4672
860.194	4736
860.327	4656
860.46	4653
860.592	4759
860.725	4748
860.858	4752
860.99	4744
861.123	4683
861.256	4672
861.388	4748
861.521	5417
861.653	4721
861.786	4744
861.918	4790
862.05	4831
862.183	4824
862.315	4900
862.447	4953
862.58	4885
862.712	4790
862.844	4786
862.976	4870
863.108	4908
863.24	5246
863.372	4812
863.504	4949
863.636	4908
863.768	4957
863.9	4980
864.032	4984
864.164	5010
864.296	5041
864.428	5029
864.559	5105
864.691	5162
864.823	5090
864.954	5090
865.086	5208
865.217	5147
865.349	5147
865.48	5212
865.612	5185
865.743	5227
865.875	5212
866.006	5201
866.137	5235
866.269	5231
866.4	5220
866.531	5231
866.662	5201
866.793	5242
866.924	5254
867.055	5345
867.186	5360
867.317	5318
867.448	5349
867.579	5429
867.71	5410
867.841	5402
867.972	5471
868.103	5493
868.233	5452
868.364	5524
868.495	5554
868.625	5657
868.756	5821
868.886	5668
869.017	5729
869.147	5836
869.278	5828
869.408	5859
869.539	5855
869.669	5893
869.799	5973
869.929	5927
870.06	6049
870.19	6178
870.32	6243
870.45	6235
870.58	6342
870.71	6395
870.84	6517
870.97	6448
871.1	6509
871.23	6639
871.36	6722
871.489	6684
871.619	6734
871.749	6787
871.879	6859
872.008	6932
872.138	6970
872.267	7080
872.397	6962
872.526	7080
872.656	7126
872.785	7236
872.915	7373
873.044	7502
873.173	7556
873.303	7685
873.432	7734
873.561	7871
873.69	7879
873.819	7993
873.948	8180
874.077	8313
874.206	8305
874.335	8480
874.464	8670
874.593	8842
874.722	8933
874.851	9058
874.979	9256
875.108	9405
875.237	9447
875.365	9481
875.494	9625
875.623	9827
875.751	9873
875.88	9937
876.008	10143
876.136	10265
876.265	10573
876.393	10763
876.521	10630
876.65	10752
876.778	10930
876.906	10927
877.034	11090
877.162	11159
877.29	11159
877.418	11303
877.546	11417
877.674	11471
877.802	11600
877.93	11528
878.058	11589
878.185	11615
878.313	11653
878.441	11813
878.568	11695
878.696	11775
878.824	11817
878.951	11950
879.079	12026
879.206	12117
879.333	12038
879.461	12019
879.588	12041
879.715	12095
879.842	12273
879.97	12102
880.097	11935
880.224	11897
880.351	11847
880.478	11863
880.605	11931
880.732	11775
880.859	12003
880.986	11775
881.112	11855
881.239	11798
881.366	11703
881.493	11672
881.619	11535
881.746	11581
881.872	11539
881.999	11509
882.125	11509
882.252	11558
882.378	11444
882.505	11558
882.631	11433
882.757	11311
882.883	11318
883.01	11349
883.136	11284
883.262	11197
883.388	11105
883.514	11208
883.64	11288
883.766	11067
883.892	11048
884.018	10961
884.143	11003
884.269	11174
884.395	10904
884.52	10797
884.646	10869
884.772	10729
884.897	10596
885.023	10721
885.148	10691
885.274	10797
885.399	10809
885.524	10592
885.65	10615
885.775	10550
885.9	10588
886.025	10664
886.15	10656
886.275	10443
886.4	10402
886.525	10409
886.65	10329
886.775	10341
886.9	10497
887.025	10558
887.149	10276
887.274	10261
887.399	10253
887.523	10166
887.648	10112
887.773	10135
887.897	10234
888.021	10169
888.146	10185
888.27	10253
888.395	10188
888.519	10257
888.643	10188
888.767	10204
888.891	10124
889.015	10078
889.139	10101
889.263	10021
889.387	10128
889.511	10124
889.635	10063
889.759	9926
889.883	9960
890.006	10010
890.13	10154
890.254	9915
890.377	9998
890.501	9869
890.624	9819
890.748	9876
890.871	9812
890.995	9785
891.118	9694
891.241	9789
891.364	9648
891.488	9831
891.611	9720
891.734	9785
891.857	9717
891.98	9751
892.103	9766
892.226	9690
892.349	9625
892.471	9481
892.594	9633
892.717	9599
892.839	9545
892.962	9705
893.085	9610
893.207	9526
893.33	9469
893.452	9466
893.575	9599
893.697	9488
893.819	9599
893.941	9694
894.064	9564
894.186	9530
894.308	9424
894.43	9507
894.552	9564
894.674	9507
894.796	9317
894.918	9420
895.04	9367
895.161	9401
895.283	9348
895.405	9260
895.526	9336
895.648	9260
895.769	9241
895.891	9211
896.012	9264
896.134	9226
896.255	9165
896.376	9165
896.498	9100
896.619	9142
896.74	9051
896.861	9135
896.982	9283
897.103	9275
897.224	9199
897.345	9123
897.466	9020
897.587	9028
897.708	9093
897.828	9020
897.949	8895
898.07	8914
898.19	8914
898.311	9024
898.431	8823
898.552	8998
898.672	8979
898.792	8952
898.913	8956
899.033	8872
899.153	8796
899.273	8648
899.393	8754
899.513	8777
899.633	8788
899.753	8785
899.873	8724
899.993	8697
900.113	8773
900.232	8739
900.352	8689
900.472	8590
900.591	8598
900.711	8610
900.83	8625
900.95	8670
901.069	8693
901.189	8545
901.308	8461
901.427	8450
901.546	8499
901.665	8476
901.784	8473
901.904	8396
902.023	8355
902.141	8298
902.26	8187
902.379	8271
902.498	8218
902.617	8206
902.735	8320
902.854	8263
902.973	8259
903.091	8157
903.21	8172
903.328	8202
903.446	8168
903.565	8142
903.683	8096
903.801	8103
903.919	8069
904.038	8176
904.156	7970
904.274	8145
904.392	8054
904.51	8126
904.627	8050
904.745	8054
904.863	8077
904.981	7967
905.098	7830
905.216	7826
905.334	7909
905.451	7913
905.569	7898
905.686	7902
905.803	7944
905.921	7746
906.038	7845
906.155	7757
906.272	7750
906.389	7750
906.506	7651
906.623	7677
906.74	7605
906.857	7533
906.974	7582
907.091	7674
907.208	7674
907.324	7594
907.441	7559
907.557	7457
907.674	7453
907.79	7422
907.907	7438
908.023	7453
908.139	7419
908.256	7369
908.372	7403
908.488	7343
908.604	7285
908.72	7217
908.836	7289
908.952	7312
909.068	7209
909.184	7259
909.3	7289
909.415	7270
909.531	7305
909.647	7133
909.762	7080
909.878	7072
909.993	7152
910.108	7129
910.224	7118
910.339	7084
910.454	7069
910.57	7000
910.685	6977
910.8	7114
910.915	7168
911.03	7034
911.145	6962
911.259	6875
911.374	6939
911.489	6818
911.604	6837
911.718	6730
911.833	6787
911.947	6681
912.062	6601
912.176	6681
912.291	6757
912.405	6665
912.519	6837
912.633	6852
912.748	6783
912.862	6760
912.976	6608
913.09	6555
913.204	6604
913.318	6608
913.431	6703
913.545	6700
913.659	6768
913.772	6642
913.886	6616
914	6623
914.113	6627
914.226	6662
914.34	6631
914.453	6494
914.566	6623
914.68	6498
914.793	6582
914.906	6369
915.019	6410
915.132	6422
915.245	6452
915.358	6445
915.47	6433
915.583	6464
915.696	6471
915.809	6502
915.921	6555
916.034	6445
916.146	6464
916.259	6365
916.371	6433
916.483	6445
916.595	6448
916.708	6407
916.82	6456
916.932	6403
917.044	6395
917.156	6418
917.268	6323
917.38	6342
917.491	6391
917.603	6365
917.715	6403
917.826	6372
917.938	6338
918.049	6205
918.161	6388
918.272	6483
918.384	6403
918.495	6372
918.606	6270
918.717	6292
918.828	6342
918.939	6304
919.05	6209
919.161	6289
919.272	6190
919.383	6175
919.494	6251
919.604	6448
919.715	6281
919.826	6201
919.936	6285
920.047	6331
920.157	6338
920.267	6403
920.378	6327
920.488	6270
920.598	6456
920.708	6650
920.818	6486
920.928	6525
921.038	6597
921.148	6574
921.258	6361
921.368	6315
921.477	6243
921.587	6190
921.697	6136
921.806	6148
921.916	6045
922.025	5961
922.134	5889
922.244	5935
922.353	5939
922.462	5855
922.571	5783
922.68	5737
922.789	5726
922.898	5733
923.007	5611
923.116	5722
923.224	5688
923.333	5661
923.442	5634
923.55	5619
923.659	5619
923.767	5615
923.876	5558
923.984	5665
924.092	5497
924.201	5577
924.309	5589
924.417	5558
924.525	5459
924.633	5509
924.741	6110
924.849	5452
924.956	5505
925.064	5376
925.172	5288
925.279	5334
925.387	5372
925.494	5326
925.602	5444
925.709	5417
925.816	5337
925.924	5280
926.031	5322
926.138	5326
926.245	5269
926.352	5155
926.459	5307
926.566	5353
926.673	5223
926.779	5128
926.886	5098
926.993	5048
927.099	5003
927.206	4995
927.312	4946
927.419	5029
927.525	5025
927.631	4987
927.737	4930
927.843	4934
927.95	4736
928.056	4820
928.162	4847
928.267	4892
928.373	5376
928.479	4809
928.585	4660
928.69	4831
928.796	4793
928.901	4660
929.007	4603
929.112	4679
929.218	4630
929.323	4603
929.428	4569
929.533	4710
929.638	4519
929.743	4500
929.848	4596
929.953	4538
930.058	4451
930.163	4287
930.267	4409
930.372	4474
930.477	4276
930.581	4474
930.685	4394
930.79	4261
930.894	4306
930.998	4322
931.103	4379
931.207	4090
931.311	4116
931.415	4021
931.519	3911
931.623	3960
