Data from glass_V78500241_1816.txt Node
Date: Wed Sep 01 19:27:05 CST 2021
User: usil
Spectrometer: V785-0024
Trigger mode: 0
Integration Time (sec): 4.000000E-1
Scans to average: 1
Nonlinearity correction enabled: false
Boxcar width: 0
Storing dark spectrum: false
XAxis mode: Wavelengths
Number of Pixels in Spectrum: 1024
>>>>>Begin Spectral Data<<<<<
801.071	3740
801.214	3770
801.356	3656
801.499	3759
801.641	3740
801.783	3759
801.926	3880
802.068	3804
802.211	3892
802.353	3918
802.496	3854
802.638	3896
802.78	3873
802.923	3956
803.065	3876
803.208	3861
803.35	3838
803.492	3842
803.635	3930
803.777	3808
803.919	3873
804.061	4166
804.204	3930
804.346	3960
804.488	3915
804.63	4036
804.773	3945
804.915	4021
805.057	4150
805.199	4029
805.341	4109
805.483	4112
805.626	4128
805.768	4112
805.91	4223
806.052	4227
806.194	4192
806.336	4341
806.478	4234
806.62	4150
806.762	4177
806.904	4246
807.046	4314
807.188	4223
807.33	4139
807.472	4253
807.614	4207
807.756	4280
807.898	4173
808.04	4204
808.182	4322
808.324	4337
808.465	4363
808.607	4436
808.749	4432
808.891	4451
809.033	4493
809.174	4394
809.316	4295
809.458	4219
809.6	4131
809.741	4124
809.883	4124
810.025	4238
810.166	4173
810.308	4211
810.45	4234
810.591	4238
810.733	4265
810.875	4497
811.016	4873
811.158	5124
811.299	5239
811.441	5296
811.582	5064
811.724	4721
811.865	4527
812.007	4459
812.148	4379
812.29	4424
812.431	4413
812.573	4379
812.714	4329
812.855	4371
812.997	4440
813.138	4451
813.279	4440
813.421	4390
813.562	4398
813.703	4310
813.845	4322
813.986	4249
814.127	4223
814.268	4257
814.41	4265
814.551	4303
814.692	4287
814.833	4325
814.974	4348
815.115	4394
815.256	4227
815.397	4177
815.539	4188
815.68	4207
815.821	4204
815.962	4306
816.103	4246
816.244	4223
816.385	4211
816.526	4337
816.666	4196
816.807	4071
816.948	4158
817.089	4169
817.23	4101
817.371	4067
817.512	4032
817.653	4078
817.793	3998
817.934	4048
818.075	4128
818.216	4025
818.356	4067
818.497	3998
818.638	3941
818.778	3869
818.919	3899
819.06	3831
819.2	3903
819.341	3865
819.481	3861
819.622	3861
819.762	3998
819.903	3922
820.043	3865
820.184	3838
820.324	3812
820.465	3857
820.605	3884
820.746	3861
820.886	3808
821.026	3930
821.167	3888
821.307	3998
821.447	3972
821.588	3918
821.728	3915
821.868	3922
822.008	3873
822.149	3854
822.289	3869
822.429	3781
822.569	3762
822.709	3793
822.849	3713
822.99	3686
823.13	3743
823.27	3755
823.41	3713
823.55	3724
823.69	3751
823.83	3755
823.97	3652
824.11	3557
824.25	3587
824.389	3660
824.529	3701
824.669	3675
824.809	3694
824.949	3751
825.089	3698
825.228	3701
825.368	3599
825.508	3545
825.648	3564
825.787	3564
825.927	3587
826.067	3576
826.206	3637
826.346	3823
826.485	3835
826.625	3850
826.765	3956
826.904	3880
827.044	3633
827.183	3519
827.323	3447
827.462	3462
827.601	3416
827.741	3447
827.88	3447
828.02	3378
828.159	3469
828.298	3462
828.437	3496
828.577	3450
828.716	3587
828.855	3507
828.994	3397
829.134	3405
829.273	3393
829.412	3367
829.551	3321
829.69	3355
829.829	3397
829.968	3542
830.107	3439
830.246	3431
830.385	3389
830.524	3359
830.663	3321
830.802	3275
830.941	3222
831.08	3203
831.219	3253
831.357	3237
831.496	3428
831.635	3211
831.774	3188
831.913	3214
832.051	3108
832.19	3169
832.329	3199
832.467	3142
832.606	3085
832.744	3195
832.883	3192
833.022	3218
833.16	3249
833.299	3268
833.437	3317
833.576	3344
833.714	3397
833.852	3439
833.991	3447
834.129	3439
834.267	3405
834.406	3363
834.544	3412
834.682	3386
834.821	3424
834.959	3599
835.097	3428
835.235	3492
835.373	3473
835.511	3530
835.65	3485
835.788	3496
835.926	3412
836.064	3367
836.202	3397
836.34	3568
836.478	3603
836.615	3561
836.753	3606
836.891	3622
837.029	3603
837.167	3603
837.305	3561
837.443	3511
837.58	3485
837.718	3591
837.856	3538
837.993	3549
838.131	3622
838.269	3584
838.406	3580
838.544	3576
838.681	3481
838.819	3466
838.956	3382
839.094	3412
839.231	3428
839.369	3526
839.506	3743
839.643	3625
839.781	3477
839.918	3473
840.055	3504
840.193	3519
840.33	3519
840.467	3561
840.604	3584
840.742	3789
840.879	3523
841.016	3568
841.153	3603
841.29	3755
841.427	3724
841.564	3728
841.701	3759
841.838	3698
841.975	3618
842.112	3690
842.249	3629
842.385	3652
842.522	3835
842.659	3675
842.796	3667
842.933	3701
843.069	3709
843.206	3667
843.343	3838
843.479	3762
843.616	3819
843.752	3625
843.889	3682
844.025	3835
844.162	3686
844.298	3842
844.435	3800
844.571	3797
844.708	3842
844.844	4021
844.98	4006
845.117	4006
845.253	3907
845.389	3911
845.525	3998
845.661	3945
845.798	3937
845.934	3968
846.07	3983
846.206	4032
846.342	4128
846.478	4071
846.614	3994
846.75	3956
846.886	3930
847.022	4048
847.158	3987
847.294	3998
847.429	3972
847.565	3968
847.701	4230
847.837	3899
847.972	3838
848.108	3968
848.244	3937
848.379	3854
848.515	3846
848.65	3797
848.786	3823
848.921	3880
849.057	3896
849.192	3911
849.328	3922
849.463	3838
849.598	3899
849.734	3873
849.869	3861
850.004	3793
850.14	3838
850.275	3804
850.41	3728
850.545	3736
850.68	3770
850.815	3778
850.95	3770
851.085	3945
851.22	3857
851.355	3861
851.49	3781
851.625	3797
851.76	3808
851.895	3759
852.03	3717
852.165	3800
852.299	3842
852.434	3945
852.569	3892
852.703	3835
852.838	3903
852.973	4002
853.107	3945
853.242	3880
853.376	3854
853.511	3800
853.645	3861
853.78	3998
853.914	3869
854.048	3884
854.183	3865
854.317	3911
854.451	4090
854.585	3918
854.72	3941
854.854	4051
854.988	3903
855.122	3956
855.256	3934
855.39	4048
855.524	4090
855.658	4082
855.792	4082
855.926	4147
856.06	4154
856.194	4219
856.327	4128
856.461	4078
856.595	4139
856.729	4196
856.862	4280
856.996	4223
857.13	4329
857.263	4375
857.397	4333
857.53	4272
857.664	4303
857.797	4405
857.931	4440
858.064	4352
858.197	4443
858.331	4390
858.464	4363
858.597	4356
858.731	4417
858.864	4440
858.997	4443
859.13	4508
859.263	4504
859.396	4622
859.529	4519
859.662	4542
859.795	4508
859.928	4546
860.061	4679
860.194	4752
860.327	4668
860.46	4630
860.592	4782
860.725	4767
860.858	4752
860.99	4694
861.123	4672
861.256	4687
861.388	4797
861.521	5398
861.653	4752
861.786	4725
861.918	4736
862.05	4809
862.183	4816
862.315	4862
862.447	4942
862.58	4858
862.712	4835
862.844	4801
862.976	4839
863.108	4877
863.24	5265
863.372	4839
863.504	4896
863.636	4892
863.768	4976
863.9	4965
864.032	4889
864.164	4946
864.296	5037
864.428	5090
864.559	5105
864.691	5189
864.823	5109
864.954	5090
865.086	5189
865.217	5109
865.349	5064
865.48	5143
865.612	5193
865.743	5303
865.875	5212
866.006	5185
866.137	5292
866.269	5170
866.4	5204
866.531	5220
866.662	5216
866.793	5307
866.924	5307
867.055	5318
867.186	5299
867.317	5334
867.448	5269
867.579	5417
867.71	5398
867.841	5429
867.972	5402
868.103	5501
868.233	5474
868.364	5532
868.495	5490
868.625	5661
868.756	5752
868.886	5680
869.017	5733
869.147	5851
869.278	5828
869.408	5851
869.539	5783
869.669	5882
869.799	5866
869.929	6003
870.06	6038
870.19	6152
870.32	6216
870.45	6289
870.58	6384
870.71	6437
870.84	6399
870.97	6395
871.1	6418
871.23	6654
871.36	6654
871.489	6696
871.619	6726
871.749	6806
871.879	6840
872.008	6951
872.138	6985
872.267	7004
872.397	6993
872.526	7042
872.656	7088
872.785	7175
872.915	7384
873.044	7460
873.173	7495
873.303	7624
873.432	7704
873.561	7887
873.69	7868
873.819	8077
873.948	8084
874.077	8225
874.206	8351
874.335	8370
874.464	8720
874.593	8872
874.722	8902
874.851	9146
874.979	9275
875.108	9336
875.237	9473
875.365	9511
875.494	9660
875.623	9774
875.751	9823
875.88	9964
876.008	10097
876.136	10322
876.265	10561
876.393	10641
876.521	10733
876.65	10805
876.778	10816
876.906	10968
877.034	10999
877.162	11143
877.29	11143
877.418	11250
877.546	11311
877.674	11448
877.802	11421
877.93	11532
878.058	11554
878.185	11566
878.313	11726
878.441	11809
878.568	11646
878.696	11703
878.824	11866
878.951	11927
879.079	11973
879.206	12186
879.333	12072
879.461	11958
879.588	12072
879.715	12121
879.842	12258
879.97	12102
880.097	11897
880.224	11912
880.351	11874
880.478	11958
880.605	11882
880.732	11878
880.859	12049
880.986	11897
881.112	11893
881.239	11691
881.366	11707
881.493	11592
881.619	11551
881.746	11547
881.872	11543
881.999	11505
882.125	11474
882.252	11486
882.378	11455
882.505	11570
882.631	11360
882.757	11235
882.883	11376
883.01	11239
883.136	11208
883.262	11197
883.388	11147
883.514	11231
883.64	11102
883.766	11071
883.892	11006
884.018	10995
884.143	11029
884.269	11014
884.395	10828
884.52	10793
884.646	10755
884.772	10767
884.897	10683
885.023	10679
885.148	10843
885.274	10744
885.399	10778
885.524	10607
885.65	10508
885.775	10618
885.9	10580
886.025	10607
886.15	10470
886.275	10428
886.4	10386
886.525	10375
886.65	10379
886.775	10367
886.9	10489
887.025	10466
887.149	10325
887.274	10265
887.399	10169
887.523	10242
887.648	10204
887.773	10051
887.897	10249
888.021	10185
888.146	10112
888.27	10314
888.395	10276
888.519	10185
888.643	10219
888.767	10207
888.891	10017
889.015	10055
889.139	10090
889.263	9953
889.387	10006
889.511	10093
889.635	10044
889.759	9987
889.883	9968
890.006	10067
890.13	10082
890.254	9911
890.377	9941
890.501	9873
890.624	9895
890.748	9873
890.871	9728
890.995	9831
891.118	9751
891.241	9743
891.364	9709
891.488	9876
891.611	9656
891.734	9709
891.857	9827
891.98	9755
892.103	9717
892.226	9732
892.349	9614
892.471	9504
892.594	9686
892.717	9587
892.839	9641
892.962	9637
893.085	9671
893.207	9534
893.33	9530
893.452	9530
893.575	9564
893.697	9488
893.819	9618
893.941	9667
894.064	9492
894.186	9389
894.308	9416
894.43	9473
894.552	9542
894.674	9515
894.796	9370
894.918	9408
895.04	9389
895.161	9393
895.283	9325
895.405	9241
895.526	9302
895.648	9283
895.769	9226
895.891	9237
896.012	9260
896.134	9230
896.255	9241
896.376	9138
896.498	9074
896.619	9116
896.74	9093
896.861	9066
896.982	9272
897.103	9241
897.224	9203
897.345	9077
897.466	8902
897.587	9097
897.708	9077
897.828	9009
897.949	8994
898.07	8918
898.19	8921
898.311	9028
898.431	8914
898.552	8990
898.672	8929
898.792	8971
898.913	8857
899.033	8826
899.153	8689
899.273	8659
899.393	8720
899.513	8766
899.633	8708
899.753	8697
899.873	8724
899.993	8800
900.113	8750
900.232	8716
900.352	8621
900.472	8613
900.591	8564
900.711	8629
900.83	8560
900.95	8693
901.069	8720
901.189	8587
901.308	8396
901.427	8393
901.546	8412
901.665	8438
901.784	8461
901.904	8343
902.023	8366
902.141	8153
902.26	8229
902.379	8244
902.498	8180
902.617	8195
902.735	8400
902.854	8172
902.973	8206
903.091	8130
903.21	8111
903.328	8107
903.446	8103
903.565	8001
903.683	8115
903.801	8073
903.919	8077
904.038	8065
904.156	8001
904.274	8062
904.392	8046
904.51	8039
904.627	8005
904.745	8012
904.863	8138
904.981	7944
905.098	7856
905.216	7830
905.334	7898
905.451	7913
905.569	7852
905.686	7887
905.803	7902
905.921	7788
906.038	7822
906.155	7795
906.272	7674
906.389	7685
906.506	7609
906.623	7609
906.74	7613
906.857	7582
906.974	7552
907.091	7700
907.208	7670
907.324	7647
907.441	7597
907.557	7445
907.674	7422
907.79	7453
907.907	7419
908.023	7453
908.139	7377
908.256	7324
908.372	7392
908.488	7320
908.604	7289
908.72	7221
908.836	7251
908.952	7221
909.068	7240
909.184	7228
909.3	7221
909.415	7278
909.531	7270
909.647	7080
909.762	7149
909.878	7141
909.993	7126
910.108	7065
910.224	7027
910.339	7065
910.454	7031
910.57	6973
910.685	6954
910.8	7118
910.915	7133
911.03	7027
911.145	6939
911.259	6894
911.374	6837
911.489	6810
911.604	6848
911.718	6692
911.833	6779
911.947	6658
912.062	6620
912.176	6738
912.291	6677
912.405	6715
912.519	6753
912.633	6791
912.748	6738
912.862	6715
912.976	6601
913.09	6563
913.204	6597
913.318	6620
913.431	6684
913.545	6582
913.659	6696
913.772	6589
913.886	6604
914	6574
914.113	6593
914.226	6620
914.34	6627
914.453	6544
914.566	6570
914.68	6528
914.793	6563
914.906	6418
915.019	6391
915.132	6384
915.245	6399
915.358	6395
915.47	6426
915.583	6498
915.696	6460
915.809	6547
915.921	6540
916.034	6422
916.146	6346
916.259	6410
916.371	6437
916.483	6452
916.595	6414
916.708	6460
916.82	6395
916.932	6369
917.044	6391
917.156	6361
917.268	6319
917.38	6281
917.491	6346
917.603	6331
917.715	6369
917.826	6380
917.938	6270
918.049	6254
918.161	6334
918.272	6395
918.384	6399
918.495	6372
918.606	6270
918.717	6224
918.828	6232
918.939	6273
919.05	6175
919.161	6243
919.272	6068
919.383	6140
919.494	6273
919.604	6456
919.715	6266
919.826	6216
919.936	6228
920.047	6353
920.157	6285
920.267	6433
920.378	6285
920.488	6262
920.598	6502
920.708	6582
920.818	6433
920.928	6483
921.038	6639
921.148	6616
921.258	6388
921.368	6315
921.477	6258
921.587	6171
921.697	6121
921.806	6140
921.916	6098
922.025	5954
922.134	5904
922.244	5893
922.353	5973
922.462	5836
922.571	5794
922.68	5684
922.789	5699
922.898	5707
923.007	5581
923.116	5710
923.224	5668
923.333	5676
923.442	5577
923.55	5573
923.659	5585
923.767	5554
923.876	5554
923.984	5638
924.092	5493
924.201	5589
924.309	5570
924.417	5596
924.525	5482
924.633	5482
924.741	6273
924.849	5395
924.956	5463
925.064	5330
925.172	5265
925.279	5299
925.387	5383
925.494	5322
925.602	5410
925.709	5318
925.816	5284
925.924	5288
926.031	5334
926.138	5288
926.245	5364
926.352	5204
926.459	5311
926.566	5284
926.673	5208
926.779	5140
926.886	5121
926.993	5037
927.099	5003
927.206	4991
927.312	5006
927.419	5010
927.525	4972
927.631	4987
927.737	4843
927.843	4877
927.95	4786
928.056	4774
928.162	4850
928.267	4839
928.373	5372
928.479	4824
928.585	4683
928.69	4809
928.796	4786
928.901	4634
929.007	4584
929.112	4683
929.218	4603
929.323	4573
929.428	4546
929.533	4634
929.638	4512
929.743	4531
929.848	4584
929.953	4474
930.058	4466
930.163	4394
930.267	4337
930.372	4455
930.477	4265
930.581	4485
930.685	4314
930.79	4284
930.894	4287
930.998	4287
931.103	4360
931.207	4097
931.311	4128
931.415	4029
931.519	3922
931.623	3956
