Data from glass_V78500241_1045.txt Node
Date: Wed Sep 01 19:21:44 CST 2021
User: usil
Spectrometer: V785-0024
Trigger mode: 0
Integration Time (sec): 4.000000E-1
Scans to average: 1
Nonlinearity correction enabled: false
Boxcar width: 0
Storing dark spectrum: false
XAxis mode: Wavelengths
Number of Pixels in Spectrum: 1024
>>>>>Begin Spectral Data<<<<<
801.071	3762
801.214	3724
801.356	3724
801.499	3808
801.641	3713
801.783	3812
801.926	3838
802.068	3816
802.211	3869
802.353	3922
802.496	3781
802.638	3911
802.78	3857
802.923	3937
803.065	3911
803.208	3903
803.35	3896
803.492	3873
803.635	3998
803.777	3819
803.919	3922
804.061	4154
804.204	4013
804.346	3930
804.488	3915
804.63	4059
804.773	4032
804.915	4059
805.057	4135
805.199	4063
805.341	4074
805.483	4120
805.626	4166
805.768	4109
805.91	4200
806.052	4284
806.194	4227
806.336	4375
806.478	4261
806.62	4177
806.762	4196
806.904	4280
807.046	4371
807.188	4204
807.33	4188
807.472	4234
807.614	4242
807.756	4310
807.898	4230
808.04	4249
808.182	4306
808.324	4299
808.465	4436
808.607	4443
808.749	4451
808.891	4470
809.033	4523
809.174	4432
809.316	4268
809.458	4246
809.6	4143
809.741	4109
809.883	4101
810.025	4200
810.166	4207
810.308	4230
810.45	4234
810.591	4219
810.733	4360
810.875	4504
811.016	4889
811.158	5147
811.299	5303
811.441	5292
811.582	5124
811.724	4729
811.865	4508
812.007	4466
812.148	4447
812.29	4424
812.431	4421
812.573	4383
812.714	4390
812.855	4421
812.997	4390
813.138	4489
813.279	4424
813.421	4398
813.562	4314
813.703	4363
813.845	4356
813.986	4272
814.127	4207
814.268	4310
814.41	4318
814.551	4280
814.692	4314
814.833	4303
814.974	4337
815.115	4325
815.256	4276
815.397	4280
815.539	4268
815.68	4253
815.821	4253
815.962	4337
816.103	4333
816.244	4204
816.385	4227
816.526	4276
816.666	4234
816.807	4154
816.948	4166
817.089	4169
817.23	4071
817.371	4078
817.512	4036
817.653	4086
817.793	4048
817.934	4067
818.075	4090
818.216	4105
818.356	4067
818.497	4036
818.638	3884
818.778	3907
818.919	3926
819.06	3899
819.2	3911
819.341	3842
819.481	3854
819.622	3876
819.762	4044
819.903	3949
820.043	3922
820.184	3827
820.324	3854
820.465	3857
820.605	3884
820.746	3850
820.886	3778
821.026	3930
821.167	3922
821.307	3994
821.447	3983
821.588	3915
821.728	3964
821.868	3968
822.008	3838
822.149	3941
822.289	3956
822.429	3762
822.569	3743
822.709	3770
822.849	3671
822.99	3732
823.13	3740
823.27	3812
823.41	3732
823.55	3751
823.69	3694
823.83	3747
823.97	3675
824.11	3614
824.25	3644
824.389	3675
824.529	3667
824.669	3690
824.809	3732
824.949	3736
825.089	3736
825.228	3690
825.368	3625
825.508	3564
825.648	3603
825.787	3591
825.927	3667
826.067	3652
826.206	3686
826.346	3816
826.485	3873
826.625	3907
826.765	3903
826.904	3857
827.044	3629
827.183	3545
827.323	3458
827.462	3496
827.601	3443
827.741	3424
827.88	3466
828.02	3405
828.159	3523
828.298	3435
828.437	3557
828.577	3473
828.716	3625
828.855	3488
828.994	3420
829.134	3393
829.273	3401
829.412	3386
829.551	3344
829.69	3378
829.829	3473
829.968	3542
830.107	3454
830.246	3428
830.385	3359
830.524	3329
830.663	3313
830.802	3233
830.941	3233
831.08	3211
831.219	3241
831.357	3287
831.496	3443
831.635	3249
831.774	3245
831.913	3260
832.051	3142
832.19	3142
832.329	3214
832.467	3154
832.606	3097
832.744	3176
832.883	3165
833.022	3211
833.16	3283
833.299	3332
833.437	3329
833.576	3336
833.714	3389
833.852	3488
833.991	3447
834.129	3526
834.267	3435
834.406	3450
834.544	3439
834.682	3382
834.821	3424
834.959	3576
835.097	3397
835.235	3530
835.373	3519
835.511	3515
835.65	3500
835.788	3534
835.926	3382
836.064	3393
836.202	3405
836.34	3545
836.478	3633
836.615	3530
836.753	3557
836.891	3663
837.029	3660
837.167	3595
837.305	3557
837.443	3549
837.58	3507
837.718	3625
837.856	3576
837.993	3515
838.131	3648
838.269	3576
838.406	3599
838.544	3572
838.681	3450
838.819	3458
838.956	3416
839.094	3370
839.231	3511
839.369	3492
839.506	3740
839.643	3625
839.781	3496
839.918	3466
840.055	3515
840.193	3568
840.33	3523
840.467	3606
840.604	3625
840.742	3823
840.879	3564
841.016	3614
841.153	3603
841.29	3747
841.427	3728
841.564	3747
841.701	3774
841.838	3701
841.975	3690
842.112	3740
842.249	3652
842.385	3637
842.522	3873
842.659	3717
842.796	3656
842.933	3736
843.069	3766
843.206	3717
843.343	3816
843.479	3800
843.616	3857
843.752	3652
843.889	3762
844.025	3888
844.162	3762
844.298	3861
844.435	3819
844.571	3800
844.708	3873
844.844	4048
844.98	4029
845.117	4059
845.253	3968
845.389	3896
845.525	3953
845.661	3979
845.798	3953
845.934	3975
846.07	3960
846.206	4082
846.342	4139
846.478	4078
846.614	3975
846.75	3930
846.886	3876
847.022	4017
847.158	4006
847.294	4029
847.429	4055
847.565	4040
847.701	4280
847.837	3869
847.972	3854
848.108	3983
848.244	4013
848.379	3850
848.515	3797
848.65	3804
848.786	3846
848.921	3827
849.057	3960
849.192	3983
849.328	3926
849.463	3899
849.598	3884
849.734	3888
849.869	3797
850.004	3808
850.14	3793
850.275	3789
850.41	3732
850.545	3743
850.68	3789
850.815	3781
850.95	3800
851.085	3960
851.22	3869
851.355	3800
851.49	3793
851.625	3827
851.76	3797
851.895	3770
852.03	3781
852.165	3850
852.299	3880
852.434	3911
852.569	3892
852.703	3915
852.838	3949
852.973	4025
853.107	4036
853.242	3899
853.376	3850
853.511	3755
853.645	3835
853.78	3964
853.914	3899
854.048	3953
854.183	3934
854.317	3949
854.451	4063
854.585	3994
854.72	3930
854.854	4074
854.988	3956
855.122	4002
855.256	3903
855.39	4055
855.524	4105
855.658	4154
855.792	4150
855.926	4101
856.06	4169
856.194	4219
856.327	4120
856.461	4181
856.595	4139
856.729	4211
856.862	4303
856.996	4238
857.13	4310
857.263	4325
857.397	4363
857.53	4325
857.664	4398
857.797	4424
857.931	4432
858.064	4413
858.197	4489
858.331	4413
858.464	4417
858.597	4360
858.731	4421
858.864	4462
858.997	4489
859.13	4523
859.263	4523
859.396	4626
859.529	4527
859.662	4531
859.795	4512
859.928	4607
860.061	4694
860.194	4675
860.327	4694
860.46	4656
860.592	4717
860.725	4790
860.858	4744
860.99	4698
861.123	4698
861.256	4744
861.388	4790
861.521	5379
861.653	4755
861.786	4736
861.918	4801
862.05	4847
862.183	4858
862.315	4885
862.447	4919
862.58	4858
862.712	4793
862.844	4744
862.976	4911
863.108	4847
863.24	5273
863.372	4843
863.504	4885
863.636	4885
863.768	4980
863.9	5045
864.032	4927
864.164	4968
864.296	5041
864.428	5094
864.559	5128
864.691	5105
864.823	5132
864.954	5105
865.086	5155
865.217	5132
865.349	5128
865.48	5147
865.612	5220
865.743	5364
865.875	5178
866.006	5261
866.137	5250
866.269	5265
866.4	5242
866.531	5201
866.662	5235
866.793	5269
866.924	5299
867.055	5326
867.186	5383
867.317	5368
867.448	5337
867.579	5353
867.71	5376
867.841	5402
867.972	5490
868.103	5463
868.233	5467
868.364	5543
868.495	5562
868.625	5703
868.756	5805
868.886	5638
869.017	5805
869.147	5874
869.278	5802
869.408	5832
869.539	5817
869.669	5954
869.799	5927
869.929	5999
870.06	6064
870.19	6220
870.32	6235
870.45	6251
870.58	6353
870.71	6437
870.84	6464
870.97	6490
871.1	6475
871.23	6623
871.36	6745
871.489	6715
871.619	6787
871.749	6844
871.879	6867
872.008	6970
872.138	7012
872.267	7061
872.397	7076
872.526	7034
872.656	7091
872.785	7183
872.915	7365
873.044	7537
873.173	7567
873.303	7700
873.432	7799
873.561	7837
873.69	7978
873.819	8012
873.948	8164
874.077	8259
874.206	8305
874.335	8434
874.464	8682
874.593	8925
874.722	8956
874.851	9195
874.979	9264
875.108	9378
875.237	9431
875.365	9580
875.494	9709
875.623	9835
875.751	9789
875.88	10071
876.008	10207
876.136	10272
876.265	10504
876.393	10782
876.521	10634
876.65	10843
876.778	10896
876.906	10862
877.034	11041
877.162	11113
877.29	11201
877.418	11387
877.546	11322
877.674	11334
877.802	11467
877.93	11554
878.058	11570
878.185	11528
878.313	11672
878.441	11828
878.568	11714
878.696	11897
878.824	11836
878.951	11961
879.079	11999
879.206	12239
879.333	12011
879.461	11973
879.588	12083
879.715	12026
879.842	12167
879.97	12026
880.097	11923
880.224	11885
880.351	11893
880.478	11893
880.605	11843
880.732	11863
880.859	12034
880.986	11935
881.112	11836
881.239	11764
881.366	11699
881.493	11611
881.619	11554
881.746	11608
881.872	11589
881.999	11482
882.125	11509
882.252	11478
882.378	11467
882.505	11570
882.631	11341
882.757	11345
882.883	11345
883.01	11242
883.136	11242
883.262	11098
883.388	11048
883.514	11204
883.64	11197
883.766	11151
883.892	11010
884.018	11010
884.143	11052
884.269	11079
884.395	10816
884.52	10812
884.646	10771
884.772	10828
884.897	10668
885.023	10714
885.148	10812
885.274	10679
885.399	10748
885.524	10641
885.65	10592
885.775	10561
885.9	10550
886.025	10641
886.15	10561
886.275	10459
886.4	10451
886.525	10459
886.65	10322
886.775	10386
886.9	10500
887.025	10573
887.149	10424
887.274	10246
887.399	10257
887.523	10173
887.648	10143
887.773	10154
887.897	10257
888.021	10169
888.146	10166
888.27	10219
888.395	10314
888.519	10162
888.643	10188
888.767	10169
888.891	10051
889.015	9994
889.139	10048
889.263	10006
889.387	10021
889.511	10124
889.635	10124
889.759	9968
889.883	9987
890.006	9964
890.13	10215
890.254	9979
890.377	9930
890.501	9876
890.624	9918
890.748	9930
890.871	9823
890.995	9835
891.118	9690
891.241	9797
891.364	9717
891.488	9857
891.611	9740
891.734	9850
891.857	9774
891.98	9743
892.103	9774
892.226	9713
892.349	9686
892.471	9526
892.594	9580
892.717	9618
892.839	9686
892.962	9591
893.085	9682
893.207	9591
893.33	9538
893.452	9610
893.575	9625
893.697	9542
893.819	9660
893.941	9603
894.064	9625
894.186	9466
894.308	9412
894.43	9519
894.552	9526
894.674	9504
894.796	9431
894.918	9439
895.04	9298
895.161	9344
895.283	9370
895.405	9260
895.526	9249
895.648	9325
895.769	9272
895.891	9245
896.012	9218
896.134	9260
896.255	9146
896.376	9154
896.498	9131
896.619	9192
896.74	9066
896.861	9127
896.982	9298
897.103	9268
897.224	9180
897.345	9013
897.466	8994
897.587	9077
897.708	9089
897.828	9093
897.949	8982
898.07	8845
898.19	8925
898.311	9024
898.431	8857
898.552	8925
898.672	8994
898.792	8941
898.913	8910
899.033	8849
899.153	8754
899.273	8636
899.393	8720
899.513	8762
899.633	8758
899.753	8746
899.873	8682
899.993	8781
900.113	8712
900.232	8739
900.352	8754
900.472	8640
900.591	8568
900.711	8686
900.83	8533
900.95	8598
901.069	8678
901.189	8610
901.308	8499
901.427	8385
901.546	8461
901.665	8518
901.784	8503
901.904	8412
902.023	8336
902.141	8267
902.26	8275
902.379	8336
902.498	8240
902.617	8191
902.735	8240
902.854	8309
902.973	8286
903.091	8195
903.21	8111
903.328	8126
903.446	8123
903.565	8046
903.683	8103
903.801	8050
903.919	8111
904.038	8142
904.156	8073
904.274	8130
904.392	8077
904.51	8065
904.627	8119
904.745	8084
904.863	8161
904.981	7963
905.098	7837
905.216	7841
905.334	7887
905.451	7967
905.569	7837
905.686	7917
905.803	7959
905.921	7757
906.038	7868
906.155	7772
906.272	7761
906.389	7795
906.506	7643
906.623	7651
906.74	7655
906.857	7506
906.974	7559
907.091	7677
907.208	7765
907.324	7658
907.441	7575
907.557	7445
907.674	7392
907.79	7441
907.907	7426
908.023	7381
908.139	7438
908.256	7441
908.372	7434
908.488	7373
908.604	7278
908.72	7232
908.836	7282
908.952	7266
909.068	7187
909.184	7362
909.3	7255
909.415	7350
909.531	7263
909.647	7141
909.762	7118
909.878	7110
909.993	7171
910.108	7114
910.224	7145
910.339	7129
910.454	7069
910.57	6947
910.685	6977
910.8	7145
910.915	7099
911.03	7008
911.145	6932
911.259	6913
911.374	6916
911.489	6886
911.604	6783
911.718	6745
911.833	6783
911.947	6642
912.062	6585
912.176	6715
912.291	6734
912.405	6684
912.519	6863
912.633	6772
912.748	6741
912.862	6749
912.976	6623
913.09	6506
913.204	6616
913.318	6608
913.431	6700
913.545	6681
913.659	6703
913.772	6654
913.886	6532
914	6673
914.113	6662
914.226	6604
914.34	6616
914.453	6471
914.566	6616
914.68	6540
914.793	6578
914.906	6445
915.019	6414
915.132	6376
915.245	6426
915.358	6483
915.47	6471
915.583	6395
915.696	6445
915.809	6498
915.921	6532
916.034	6437
916.146	6429
916.259	6414
916.371	6441
916.483	6486
916.595	6365
916.708	6464
916.82	6452
916.932	6391
917.044	6350
917.156	6361
917.268	6357
917.38	6319
917.491	6350
917.603	6327
917.715	6441
917.826	6388
917.938	6304
918.049	6228
918.161	6327
918.272	6429
918.384	6418
918.495	6319
918.606	6273
918.717	6270
918.828	6350
918.939	6266
919.05	6254
919.161	6262
919.272	6098
919.383	6098
919.494	6315
919.604	6422
919.715	6251
919.826	6140
919.936	6292
920.047	6376
920.157	6281
920.267	6426
920.378	6292
920.488	6296
920.598	6494
920.708	6547
920.818	6441
920.928	6483
921.038	6570
921.148	6604
921.258	6395
921.368	6277
921.477	6247
921.587	6205
921.697	6083
921.806	6205
921.916	6098
922.025	5973
922.134	5992
922.244	5859
922.353	5996
922.462	5847
922.571	5786
922.68	5726
922.789	5661
922.898	5688
923.007	5653
923.116	5733
923.224	5676
923.333	5729
923.442	5611
923.55	5570
923.659	5646
923.767	5634
923.876	5528
923.984	5581
924.092	5520
924.201	5577
924.309	5520
924.417	5589
924.525	5539
924.633	5512
924.741	6319
924.849	5376
924.956	5493
925.064	5379
925.172	5315
925.279	5311
925.387	5368
925.494	5299
925.602	5421
925.709	5398
925.816	5246
925.924	5334
926.031	5341
926.138	5337
926.245	5353
926.352	5292
926.459	5349
926.566	5318
926.673	5216
926.779	5189
926.886	5052
926.993	5064
927.099	4999
927.206	4991
927.312	5006
927.419	5003
927.525	5006
927.631	4987
927.737	4915
927.843	4892
927.95	4793
928.056	4820
928.162	4824
928.267	4866
928.373	5345
928.479	4843
928.585	4691
928.69	4744
928.796	4767
928.901	4710
929.007	4611
929.112	4660
929.218	4645
929.323	4611
929.428	4588
929.533	4645
929.638	4519
929.743	4573
929.848	4565
929.953	4535
930.058	4436
930.163	4394
930.267	4322
930.372	4455
930.477	4287
930.581	4485
930.685	4383
930.79	4280
930.894	4238
930.998	4246
931.103	4386
931.207	4109
931.311	4109
931.415	4059
931.519	3922
931.623	3949
