Data from glass_V78500241_957.txt Node
Date: Wed Sep 01 19:21:08 CST 2021
User: usil
Spectrometer: V785-0024
Trigger mode: 0
Integration Time (sec): 4.000000E-1
Scans to average: 1
Nonlinearity correction enabled: false
Boxcar width: 0
Storing dark spectrum: false
XAxis mode: Wavelengths
Number of Pixels in Spectrum: 1024
>>>>>Begin Spectral Data<<<<<
801.071	3755
801.214	3740
801.356	3717
801.499	3743
801.641	3732
801.783	3789
801.926	3873
802.068	3831
802.211	3842
802.353	3861
802.496	3854
802.638	3918
802.78	3911
802.923	3941
803.065	3892
803.208	3869
803.35	3819
803.492	3896
803.635	3937
803.777	3850
803.919	3918
804.061	4158
804.204	4002
804.346	3975
804.488	3937
804.63	4086
804.773	3994
804.915	4013
805.057	4173
805.199	4074
805.341	4101
805.483	4101
805.626	4101
805.768	4177
805.91	4291
806.052	4249
806.194	4223
806.336	4348
806.478	4196
806.62	4154
806.762	4223
806.904	4306
807.046	4348
807.188	4207
807.33	4173
807.472	4230
807.614	4211
807.756	4265
807.898	4249
808.04	4219
808.182	4325
808.324	4333
808.465	4402
808.607	4481
808.749	4478
808.891	4516
809.033	4493
809.174	4405
809.316	4303
809.458	4227
809.6	4169
809.741	4181
809.883	4177
810.025	4268
810.166	4188
810.308	4204
810.45	4253
810.591	4253
810.733	4352
810.875	4508
811.016	4854
811.158	5109
811.299	5242
811.441	5296
811.582	5121
811.724	4736
811.865	4409
812.007	4489
812.148	4421
812.29	4424
812.431	4432
812.573	4440
812.714	4363
812.855	4402
812.997	4455
813.138	4546
813.279	4436
813.421	4386
813.562	4386
813.703	4306
813.845	4348
813.986	4261
814.127	4242
814.268	4268
814.41	4306
814.551	4280
814.692	4341
814.833	4238
814.974	4291
815.115	4363
815.256	4227
815.397	4234
815.539	4249
815.68	4223
815.821	4211
815.962	4299
816.103	4265
816.244	4261
816.385	4192
816.526	4249
816.666	4166
816.807	4139
816.948	4173
817.089	4166
817.23	4139
817.371	4059
817.512	4086
817.653	4086
817.793	4063
817.934	4074
818.075	4101
818.216	4120
818.356	4101
818.497	3960
818.638	3899
818.778	3941
818.919	3896
819.06	3880
819.2	3922
819.341	3907
819.481	3865
819.622	3922
819.762	4025
819.903	3968
820.043	3876
820.184	3850
820.324	3827
820.465	3888
820.605	3915
820.746	3838
820.886	3785
821.026	3968
821.167	3956
821.307	4013
821.447	3991
821.588	3941
821.728	3945
821.868	3979
822.008	3861
822.149	3899
822.289	3945
822.429	3804
822.569	3819
822.709	3819
822.849	3701
822.99	3732
823.13	3774
823.27	3816
823.41	3717
823.55	3713
823.69	3720
823.83	3720
823.97	3720
824.11	3591
824.25	3606
824.389	3686
824.529	3641
824.669	3671
824.809	3770
824.949	3800
825.089	3724
825.228	3701
825.368	3610
825.508	3542
825.648	3568
825.787	3606
825.927	3675
826.067	3625
826.206	3686
826.346	3804
826.485	3854
826.625	3865
826.765	3949
826.904	3816
827.044	3629
827.183	3526
827.323	3431
827.462	3519
827.601	3466
827.741	3428
827.88	3485
828.02	3382
828.159	3424
828.298	3492
828.437	3545
828.577	3469
828.716	3591
828.855	3523
828.994	3405
829.134	3378
829.273	3409
829.412	3351
829.551	3336
829.69	3355
829.829	3405
829.968	3549
830.107	3450
830.246	3435
830.385	3355
830.524	3412
830.663	3355
830.802	3275
830.941	3222
831.08	3199
831.219	3275
831.357	3275
831.496	3367
831.635	3245
831.774	3226
831.913	3195
832.051	3161
832.19	3138
832.329	3230
832.467	3131
832.606	3116
832.744	3161
832.883	3199
833.022	3233
833.16	3253
833.299	3310
833.437	3325
833.576	3382
833.714	3412
833.852	3397
833.991	3454
834.129	3458
834.267	3469
834.406	3420
834.544	3401
834.682	3420
834.821	3397
834.959	3572
835.097	3416
835.235	3549
835.373	3458
835.511	3519
835.65	3477
835.788	3534
835.926	3389
836.064	3389
836.202	3439
836.34	3538
836.478	3603
836.615	3599
836.753	3618
836.891	3625
837.029	3610
837.167	3633
837.305	3584
837.443	3538
837.58	3492
837.718	3625
837.856	3561
837.993	3542
838.131	3622
838.269	3580
838.406	3591
838.544	3591
838.681	3462
838.819	3458
838.956	3401
839.094	3367
839.231	3439
839.369	3530
839.506	3709
839.643	3686
839.781	3504
839.918	3462
840.055	3526
840.193	3507
840.33	3504
840.467	3538
840.604	3606
840.742	3785
840.879	3553
841.016	3561
841.153	3595
841.29	3785
841.427	3743
841.564	3755
841.701	3724
841.838	3713
841.975	3694
842.112	3705
842.249	3652
842.385	3629
842.522	3854
842.659	3701
842.796	3667
842.933	3694
843.069	3686
843.206	3705
843.343	3804
843.479	3774
843.616	3884
843.752	3667
843.889	3671
844.025	3899
844.162	3747
844.298	3785
844.435	3789
844.571	3747
844.708	3941
844.844	4017
844.98	4025
845.117	4025
845.253	3956
845.389	3915
845.525	3975
845.661	3987
845.798	3930
845.934	3968
846.07	3960
846.206	4044
846.342	4162
846.478	4074
846.614	4021
846.75	3915
846.886	3960
847.022	4071
847.158	3998
847.294	3998
847.429	4059
847.565	3998
847.701	4227
847.837	3899
847.972	3865
848.108	3972
848.244	3956
848.379	3850
848.515	3819
848.65	3831
848.786	3854
848.921	3876
849.057	3918
849.192	4002
849.328	3892
849.463	3953
849.598	3907
849.734	3876
849.869	3846
850.004	3816
850.14	3793
850.275	3800
850.41	3789
850.545	3770
850.68	3835
850.815	3827
850.95	3816
851.085	3915
851.22	3903
851.355	3838
851.49	3797
851.625	3800
851.76	3774
851.895	3732
852.03	3755
852.165	3797
852.299	3854
852.434	3937
852.569	3846
852.703	3903
852.838	3949
852.973	3998
853.107	3987
853.242	3884
853.376	3892
853.511	3762
853.645	3823
853.78	4032
853.914	3899
854.048	3911
854.183	3911
854.317	3941
854.451	4036
854.585	3945
854.72	3934
854.854	4044
854.988	3941
855.122	3960
855.256	3945
855.39	4036
855.524	4124
855.658	4124
855.792	4086
855.926	4147
856.06	4169
856.194	4181
856.327	4173
856.461	4139
856.595	4173
856.729	4147
856.862	4287
856.996	4291
857.13	4322
857.263	4363
857.397	4363
857.53	4356
857.664	4333
857.797	4394
857.931	4413
858.064	4390
858.197	4485
858.331	4371
858.464	4405
858.597	4379
858.731	4470
858.864	4500
858.997	4508
859.13	4489
859.263	4561
859.396	4596
859.529	4538
859.662	4596
859.795	4459
859.928	4588
860.061	4721
860.194	4774
860.327	4656
860.46	4660
860.592	4714
860.725	4759
860.858	4763
860.99	4702
861.123	4672
861.256	4660
861.388	4801
861.521	5520
861.653	4748
861.786	4752
861.918	4797
862.05	4812
862.183	4847
862.315	4915
862.447	4949
862.58	4889
862.712	4835
862.844	4782
862.976	4873
863.108	4908
863.24	5292
863.372	4866
863.504	4904
863.636	4908
863.768	4972
863.9	4953
864.032	4938
864.164	4957
864.296	5041
864.428	5128
864.559	5136
864.691	5170
864.823	5124
864.954	5121
865.086	5159
865.217	5109
865.349	5185
865.48	5124
865.612	5204
865.743	5326
865.875	5143
866.006	5151
866.137	5235
866.269	5223
866.4	5273
866.531	5258
866.662	5208
866.793	5364
866.924	5273
867.055	5303
867.186	5391
867.317	5315
867.448	5269
867.579	5402
867.71	5387
867.841	5395
867.972	5478
868.103	5493
868.233	5478
868.364	5551
868.495	5577
868.625	5623
868.756	5840
868.886	5684
869.017	5729
869.147	5840
869.278	5882
869.408	5821
869.539	5870
869.669	5912
869.799	5923
869.929	6003
870.06	6068
870.19	6266
870.32	6228
870.45	6213
870.58	6327
870.71	6380
870.84	6460
870.97	6388
871.1	6483
871.23	6658
871.36	6688
871.489	6722
871.619	6734
871.749	6833
871.879	6814
872.008	7027
872.138	7019
872.267	6996
872.397	7019
872.526	7076
872.656	7137
872.785	7164
872.915	7388
873.044	7544
873.173	7563
873.303	7639
873.432	7757
873.561	7879
873.69	7947
873.819	7967
873.948	8138
874.077	8195
874.206	8275
874.335	8537
874.464	8659
874.593	8792
874.722	8956
874.851	9207
874.979	9188
875.108	9344
875.237	9443
875.365	9507
875.494	9587
875.623	9857
875.751	9827
875.88	9979
876.008	10124
876.136	10272
876.265	10519
876.393	10729
876.521	10698
876.65	10805
876.778	10904
876.906	10957
877.034	11086
877.162	11071
877.29	11178
877.418	11292
877.546	11414
877.674	11387
877.802	11455
877.93	11615
878.058	11532
878.185	11562
878.313	11661
878.441	11676
878.568	11684
878.696	11764
878.824	11863
878.951	11916
879.079	12045
879.206	12041
879.333	12079
879.461	12030
879.588	12053
879.715	12178
879.842	12224
879.97	12117
880.097	11821
880.224	11885
880.351	11802
880.478	11904
880.605	11855
880.732	11863
880.859	12022
880.986	11790
881.112	11821
881.239	11695
881.366	11699
881.493	11619
881.619	11600
881.746	11539
881.872	11493
881.999	11478
882.125	11440
882.252	11566
882.378	11478
882.505	11592
882.631	11353
882.757	11311
882.883	11337
883.01	11311
883.136	11246
883.262	11121
883.388	11178
883.514	11151
883.64	11075
883.766	11147
883.892	11045
884.018	11014
884.143	11056
884.269	11102
884.395	10820
884.52	10797
884.646	10793
884.772	10687
884.897	10710
885.023	10721
885.148	10710
885.274	10714
885.399	10710
885.524	10645
885.65	10664
885.775	10634
885.9	10558
886.025	10561
886.15	10588
886.275	10497
886.4	10440
886.525	10443
886.65	10382
886.775	10310
886.9	10546
887.025	10573
887.149	10371
887.274	10249
887.399	10204
887.523	10181
887.648	10200
887.773	10158
887.897	10257
888.021	10242
888.146	10154
888.27	10230
888.395	10211
888.519	10211
888.643	10143
888.767	10207
888.891	10143
889.015	10048
889.139	10029
889.263	9994
889.387	10086
889.511	10181
889.635	10166
889.759	9956
889.883	10002
890.006	10006
890.13	10196
890.254	9934
890.377	9983
890.501	9831
890.624	9857
890.748	9945
890.871	9812
890.995	9755
891.118	9705
891.241	9709
891.364	9781
891.488	9823
891.611	9759
891.734	9846
891.857	9778
891.98	9705
892.103	9812
892.226	9743
892.349	9732
892.471	9519
892.594	9587
892.717	9591
892.839	9511
892.962	9572
893.085	9732
893.207	9576
893.33	9515
893.452	9595
893.575	9587
893.697	9519
893.819	9595
893.941	9682
894.064	9694
894.186	9386
894.308	9428
894.43	9542
894.552	9587
894.674	9481
894.796	9359
894.918	9439
895.04	9386
895.161	9412
895.283	9306
895.405	9264
895.526	9279
895.648	9294
895.769	9203
895.891	9310
896.012	9260
896.134	9237
896.255	9180
896.376	9157
896.498	9173
896.619	9188
896.74	9081
896.861	9131
896.982	9272
897.103	9355
897.224	9207
897.345	9051
897.466	8982
897.587	9013
897.708	9100
897.828	9085
897.949	8933
898.07	8956
898.19	8990
898.311	9093
898.431	8887
898.552	8963
898.672	9001
898.792	8838
898.913	8880
899.033	8857
899.153	8716
899.273	8689
899.393	8773
899.513	8777
899.633	8727
899.753	8785
899.873	8686
899.993	8739
900.113	8697
900.232	8705
900.352	8689
900.472	8625
900.591	8583
900.711	8621
900.83	8545
900.95	8659
901.069	8705
901.189	8590
901.308	8393
901.427	8438
901.546	8442
901.665	8507
901.784	8484
901.904	8370
902.023	8339
902.141	8263
902.26	8248
902.379	8248
902.498	8142
902.617	8210
902.735	8343
902.854	8309
902.973	8252
903.091	8100
903.21	8202
903.328	8130
903.446	8092
903.565	8062
903.683	8153
903.801	8046
903.919	8142
904.038	8149
904.156	8012
904.274	8126
904.392	8084
904.51	8103
904.627	8096
904.745	8088
904.863	8100
904.981	7947
905.098	7940
905.216	7845
905.334	7913
905.451	7883
905.569	7894
905.686	7982
905.803	7871
905.921	7807
906.038	7852
906.155	7776
906.272	7776
906.389	7727
906.506	7704
906.623	7643
906.74	7601
906.857	7666
906.974	7620
907.091	7658
907.208	7776
907.324	7620
907.441	7552
907.557	7518
907.674	7506
907.79	7415
907.907	7426
908.023	7476
908.139	7445
908.256	7411
908.372	7400
908.488	7350
908.604	7259
908.72	7232
908.836	7179
908.952	7305
909.068	7175
909.184	7339
909.3	7282
909.415	7369
909.531	7331
909.647	7145
909.762	7122
909.878	7091
909.993	7122
910.108	7107
910.224	7114
910.339	7065
910.454	7050
910.57	6985
910.685	6989
910.8	7202
910.915	7133
911.03	7031
911.145	6932
911.259	6859
911.374	6882
911.489	6886
911.604	6814
911.718	6734
911.833	6753
911.947	6650
912.062	6639
912.176	6707
912.291	6696
912.405	6741
912.519	6783
912.633	6798
912.748	6768
912.862	6696
912.976	6719
913.09	6540
913.204	6612
913.318	6559
913.431	6677
913.545	6684
913.659	6745
913.772	6681
913.886	6616
914	6593
914.113	6696
914.226	6646
914.34	6585
914.453	6475
914.566	6665
914.68	6589
914.793	6574
914.906	6448
915.019	6376
915.132	6422
915.245	6479
915.358	6460
915.47	6452
915.583	6452
915.696	6486
915.809	6559
915.921	6597
916.034	6407
916.146	6467
916.259	6418
916.371	6540
916.483	6422
916.595	6467
916.708	6448
916.82	6414
916.932	6407
917.044	6361
917.156	6429
917.268	6296
917.38	6350
917.491	6331
917.603	6361
917.715	6407
917.826	6338
917.938	6369
918.049	6281
918.161	6376
918.272	6433
918.384	6460
918.495	6323
918.606	6304
918.717	6194
918.828	6323
918.939	6300
919.05	6197
919.161	6281
919.272	6114
919.383	6148
919.494	6311
919.604	6391
919.715	6243
919.826	6220
919.936	6273
920.047	6327
920.157	6194
920.267	6456
920.378	6391
920.488	6300
920.598	6460
920.708	6517
920.818	6486
920.928	6494
921.038	6559
921.148	6620
921.258	6319
921.368	6308
921.477	6117
921.587	6182
921.697	6076
921.806	6190
921.916	6083
922.025	5950
922.134	5885
922.244	5912
922.353	5965
922.462	5805
922.571	5802
922.68	5741
922.789	5653
922.898	5695
923.007	5680
923.116	5741
923.224	5653
923.333	5680
923.442	5592
923.55	5615
923.659	5642
923.767	5649
923.876	5520
923.984	5570
924.092	5532
924.201	5543
924.309	5532
924.417	5581
924.525	5520
924.633	5516
924.741	6171
924.849	5417
924.956	5486
925.064	5334
925.172	5318
925.279	5292
925.387	5322
925.494	5334
925.602	5387
925.709	5421
925.816	5322
925.924	5307
926.031	5376
926.138	5334
926.245	5360
926.352	5261
926.459	5349
926.566	5334
926.673	5185
926.779	5128
926.886	5159
926.993	5067
927.099	5045
927.206	5003
927.312	4980
927.419	5067
927.525	4946
927.631	4984
927.737	4930
927.843	4900
927.95	4782
928.056	4850
928.162	4816
928.267	4835
928.373	5372
928.479	4881
928.585	4664
928.69	4782
928.796	4790
928.901	4675
929.007	4611
929.112	4660
929.218	4653
929.323	4577
929.428	4527
929.533	4656
929.638	4523
929.743	4474
929.848	4607
929.953	4542
930.058	4436
930.163	4383
930.267	4356
930.372	4459
930.477	4303
930.581	4481
930.685	4337
930.79	4246
930.894	4265
930.998	4238
931.103	4390
931.207	4154
931.311	4048
931.415	4074
931.519	3956
931.623	3975
