Data from glass_V78500241_2517.txt Node
Date: Wed Sep 01 19:31:56 CST 2021
User: usil
Spectrometer: V785-0024
Trigger mode: 0
Integration Time (sec): 4.000000E-1
Scans to average: 1
Nonlinearity correction enabled: false
Boxcar width: 0
Storing dark spectrum: false
XAxis mode: Wavelengths
Number of Pixels in Spectrum: 1024
>>>>>Begin Spectral Data<<<<<
801.071	3728
801.214	3740
801.356	3701
801.499	3717
801.641	3667
801.783	3774
801.926	3816
802.068	3808
802.211	3823
802.353	3865
802.496	3831
802.638	3896
802.78	3892
802.923	3918
803.065	3861
803.208	3865
803.35	3854
803.492	3907
803.635	3915
803.777	3759
803.919	3884
804.061	4131
804.204	3926
804.346	3941
804.488	3930
804.63	4021
804.773	3975
804.915	4002
805.057	4135
805.199	4029
805.341	4048
805.483	4112
805.626	4093
805.768	4097
805.91	4185
806.052	4215
806.194	4192
806.336	4325
806.478	4185
806.62	4185
806.762	4158
806.904	4276
807.046	4295
807.188	4192
807.33	4131
807.472	4223
807.614	4158
807.756	4230
807.898	4196
808.04	4135
808.182	4257
808.324	4325
808.465	4363
808.607	4447
808.749	4428
808.891	4462
809.033	4478
809.174	4386
809.316	4268
809.458	4223
809.6	4120
809.741	4116
809.883	4109
810.025	4207
810.166	4196
810.308	4238
810.45	4223
810.591	4234
810.733	4272
810.875	4440
811.016	4828
811.158	5121
811.299	5250
811.441	5280
811.582	5071
811.724	4672
811.865	4447
812.007	4440
812.148	4417
812.29	4379
812.431	4390
812.573	4394
812.714	4383
812.855	4424
812.997	4394
813.138	4462
813.279	4413
813.421	4310
813.562	4333
813.703	4325
813.845	4291
813.986	4246
814.127	4207
814.268	4257
814.41	4276
814.551	4219
814.692	4303
814.833	4272
814.974	4280
815.115	4306
815.256	4261
815.397	4207
815.539	4207
815.68	4188
815.821	4219
815.962	4249
816.103	4268
816.244	4276
816.385	4219
816.526	4238
816.666	4196
816.807	4101
816.948	4124
817.089	4124
817.23	4109
817.371	4051
817.512	4032
817.653	4055
817.793	4025
817.934	4040
818.075	4074
818.216	4109
818.356	4051
818.497	3983
818.638	3949
818.778	3892
818.919	3869
819.06	3865
819.2	3918
819.341	3876
819.481	3838
819.622	3880
819.762	4013
819.903	3926
820.043	3831
820.184	3816
820.324	3766
820.465	3819
820.605	3857
820.746	3823
820.886	3827
821.026	3915
821.167	3926
821.307	3945
821.447	3918
821.588	3903
821.728	3960
821.868	3888
822.008	3892
822.149	3949
822.289	3892
822.429	3736
822.569	3766
822.709	3827
822.849	3660
822.99	3709
823.13	3740
823.27	3770
823.41	3701
823.55	3720
823.69	3701
823.83	3713
823.97	3652
824.11	3614
824.25	3580
824.389	3614
824.529	3656
824.669	3572
824.809	3698
824.949	3720
825.089	3698
825.228	3701
825.368	3568
825.508	3538
825.648	3572
825.787	3622
825.927	3644
826.067	3633
826.206	3652
826.346	3770
826.485	3835
826.625	3857
826.765	3994
826.904	3793
827.044	3652
827.183	3549
827.323	3439
827.462	3473
827.601	3428
827.741	3405
827.88	3458
828.02	3363
828.159	3454
828.298	3473
828.437	3530
828.577	3469
828.716	3595
828.855	3469
828.994	3348
829.134	3348
829.273	3351
829.412	3370
829.551	3298
829.69	3344
829.829	3382
829.968	3507
830.107	3409
830.246	3420
830.385	3367
830.524	3351
830.663	3283
830.802	3249
830.941	3211
831.08	3165
831.219	3275
831.357	3268
831.496	3397
831.635	3192
831.774	3211
831.913	3176
832.051	3104
832.19	3104
832.329	3207
832.467	3135
832.606	3066
832.744	3161
832.883	3203
833.022	3176
833.16	3272
833.299	3313
833.437	3298
833.576	3386
833.714	3435
833.852	3447
833.991	3466
834.129	3504
834.267	3431
834.406	3374
834.544	3401
834.682	3386
834.821	3393
834.959	3553
835.097	3439
835.235	3507
835.373	3515
835.511	3469
835.65	3431
835.788	3488
835.926	3393
836.064	3370
836.202	3416
836.34	3542
836.478	3610
836.615	3549
836.753	3625
836.891	3641
837.029	3618
837.167	3557
837.305	3564
837.443	3587
837.58	3504
837.718	3584
837.856	3515
837.993	3500
838.131	3576
838.269	3622
838.406	3542
838.544	3618
838.681	3462
838.819	3409
838.956	3374
839.094	3359
839.231	3439
839.369	3504
839.506	3724
839.643	3576
839.781	3481
839.918	3469
840.055	3519
840.193	3515
840.33	3549
840.467	3549
840.604	3561
840.742	3781
840.879	3519
841.016	3584
841.153	3568
841.29	3720
841.427	3717
841.564	3682
841.701	3740
841.838	3694
841.975	3652
842.112	3686
842.249	3679
842.385	3622
842.522	3804
842.659	3671
842.796	3671
842.933	3663
843.069	3701
843.206	3724
843.343	3789
843.479	3740
843.616	3808
843.752	3667
843.889	3671
844.025	3850
844.162	3724
844.298	3827
844.435	3774
844.571	3793
844.708	3857
844.844	4006
844.98	4021
845.117	3991
845.253	3918
845.389	3899
845.525	3937
845.661	3934
845.798	3922
845.934	3991
846.07	3937
846.206	4029
846.342	4101
846.478	3987
846.614	3975
846.75	3930
846.886	3873
847.022	4025
847.158	3972
847.294	3975
847.429	3956
847.565	3915
847.701	4268
847.837	3884
847.972	3869
848.108	3979
848.244	3964
848.379	3823
848.515	3812
848.65	3835
848.786	3846
848.921	3854
849.057	3926
849.192	3926
849.328	3876
849.463	3903
849.598	3884
849.734	3880
849.869	3804
850.004	3781
850.14	3804
850.275	3770
850.41	3766
850.545	3743
850.68	3785
850.815	3778
850.95	3740
851.085	3915
851.22	3873
851.355	3850
851.49	3800
851.625	3804
851.76	3785
851.895	3709
852.03	3709
852.165	3812
852.299	3827
852.434	3896
852.569	3865
852.703	3865
852.838	3937
852.973	3994
853.107	3983
853.242	3869
853.376	3850
853.511	3770
853.645	3827
853.78	3972
853.914	3884
854.048	3896
854.183	3892
854.317	3972
854.451	4036
854.585	3918
854.72	3911
854.854	4029
854.988	3972
855.122	3934
855.256	3941
855.39	3991
855.524	4071
855.658	4067
855.792	4036
855.926	4143
856.06	4150
856.194	4234
856.327	4147
856.461	4131
856.595	4105
856.729	4143
856.862	4261
856.996	4268
857.13	4261
857.263	4325
857.397	4306
857.53	4291
857.664	4352
857.797	4394
857.931	4424
858.064	4417
858.197	4417
858.331	4379
858.464	4394
858.597	4295
858.731	4447
858.864	4462
858.997	4447
859.13	4451
859.263	4584
859.396	4584
859.529	4523
859.662	4504
859.795	4573
859.928	4618
860.061	4698
860.194	4706
860.327	4672
860.46	4626
860.592	4714
860.725	4721
860.858	4763
860.99	4675
861.123	4698
861.256	4687
861.388	4736
861.521	5425
861.653	4694
861.786	4653
861.918	4771
862.05	4752
862.183	4828
862.315	4919
862.447	4965
862.58	4900
862.712	4759
862.844	4793
862.976	4862
863.108	4835
863.24	5162
863.372	4790
863.504	4919
863.636	4911
863.768	4904
863.9	5003
864.032	4927
864.164	4923
864.296	5006
864.428	5071
864.559	5052
864.691	5117
864.823	5086
864.954	5098
865.086	5170
865.217	5102
865.349	5105
865.48	5121
865.612	5166
865.743	5269
865.875	5170
866.006	5159
866.137	5178
866.269	5189
866.4	5239
866.531	5269
866.662	5227
866.793	5250
866.924	5246
867.055	5368
867.186	5250
867.317	5322
867.448	5307
867.579	5391
867.71	5379
867.841	5398
867.972	5474
868.103	5497
868.233	5497
868.364	5505
868.495	5520
868.625	5619
868.756	5779
868.886	5638
869.017	5764
869.147	5840
869.278	5863
869.408	5756
869.539	5798
869.669	5916
869.799	5939
869.929	6007
870.06	5984
870.19	6178
870.32	6190
870.45	6311
870.58	6262
870.71	6418
870.84	6460
870.97	6380
871.1	6407
871.23	6684
871.36	6726
871.489	6681
871.619	6726
871.749	6821
871.879	6833
872.008	6954
872.138	7012
872.267	6954
872.397	6981
872.526	7061
872.656	7072
872.785	7206
872.915	7354
873.044	7514
873.173	7480
873.303	7605
873.432	7769
873.561	7807
873.69	7986
873.819	7993
873.948	8153
874.077	8275
874.206	8313
874.335	8457
874.464	8648
874.593	8910
874.722	8944
874.851	9066
874.979	9199
875.108	9351
875.237	9428
875.365	9473
875.494	9660
875.623	9812
875.751	9838
875.88	9987
876.008	10124
876.136	10261
876.265	10489
876.393	10618
876.521	10733
876.65	10790
876.778	10816
876.906	10873
877.034	10930
877.162	11132
877.29	11181
877.418	11269
877.546	11284
877.674	11398
877.802	11490
877.93	11478
878.058	11562
878.185	11535
878.313	11642
878.441	11722
878.568	11649
878.696	11809
878.824	11836
878.951	11904
879.079	11980
879.206	12163
879.333	12129
879.461	11946
879.588	12045
879.715	11988
879.842	12247
879.97	12053
880.097	11885
880.224	11832
880.351	11920
880.478	11897
880.605	11794
880.732	11817
880.859	11969
880.986	11870
881.112	11824
881.239	11745
881.366	11668
881.493	11615
881.619	11478
881.746	11547
881.872	11512
881.999	11410
882.125	11482
882.252	11539
882.378	11459
882.505	11630
882.631	11368
882.757	11246
882.883	11220
883.01	11204
883.136	11227
883.262	11132
883.388	11014
883.514	11223
883.64	11201
883.766	11090
883.892	10930
884.018	10987
884.143	11048
884.269	11094
884.395	10862
884.52	10774
884.646	10763
884.772	10672
884.897	10664
885.023	10645
885.148	10683
885.274	10805
885.399	10683
885.524	10672
885.65	10596
885.775	10531
885.9	10584
886.025	10626
886.15	10558
886.275	10478
886.4	10306
886.525	10390
886.65	10291
886.775	10287
886.9	10371
887.025	10569
887.149	10348
887.274	10257
887.399	10200
887.523	10143
887.648	10063
887.773	10131
887.897	10105
888.021	10219
888.146	10150
888.27	10253
888.395	10246
888.519	10223
888.643	10181
888.767	10128
888.891	10097
889.015	9945
889.139	10093
889.263	9937
889.387	10051
889.511	10135
889.635	10059
889.759	9998
889.883	9949
890.006	9994
890.13	10192
890.254	9895
890.377	9930
890.501	9842
890.624	9838
890.748	9926
890.871	9819
890.995	9759
891.118	9694
891.241	9747
891.364	9743
891.488	9869
891.611	9652
891.734	9728
891.857	9705
891.98	9808
892.103	9686
892.226	9698
892.349	9618
892.471	9564
892.594	9633
892.717	9580
892.839	9534
892.962	9629
893.085	9679
893.207	9519
893.33	9447
893.452	9538
893.575	9618
893.697	9526
893.819	9599
893.941	9595
894.064	9633
894.186	9393
894.308	9310
894.43	9454
894.552	9641
894.674	9504
894.796	9378
894.918	9336
895.04	9298
895.161	9317
895.283	9317
895.405	9260
895.526	9222
895.648	9165
895.769	9233
895.891	9298
896.012	9283
896.134	9233
896.255	9233
896.376	9047
896.498	9146
896.619	9112
896.74	9077
896.861	9100
896.982	9226
897.103	9336
897.224	9222
897.345	9009
897.466	9013
897.587	9005
897.708	9058
897.828	9028
897.949	8906
898.07	8910
898.19	8944
898.311	8952
898.431	8864
898.552	8933
898.672	8986
898.792	8891
898.913	8845
899.033	8766
899.153	8777
899.273	8686
899.393	8667
899.513	8693
899.633	8705
899.753	8716
899.873	8640
899.993	8731
900.113	8678
900.232	8750
900.352	8644
900.472	8674
900.591	8514
900.711	8625
900.83	8514
900.95	8705
901.069	8689
901.189	8522
901.308	8396
901.427	8385
901.546	8400
901.665	8457
901.784	8465
901.904	8408
902.023	8328
902.141	8279
902.26	8168
902.379	8301
902.498	8229
902.617	8282
902.735	8294
902.854	8263
902.973	8256
903.091	8111
903.21	8153
903.328	8180
903.446	8111
903.565	8084
903.683	8069
903.801	8077
903.919	8145
904.038	8134
904.156	7989
904.274	8065
904.392	7913
904.51	8001
904.627	8027
904.745	8088
904.863	8073
904.981	7871
905.098	7921
905.216	7852
905.334	7928
905.451	7906
905.569	7894
905.686	7868
905.803	7989
905.921	7822
906.038	7833
906.155	7818
906.272	7723
906.389	7727
906.506	7628
906.623	7632
906.74	7575
906.857	7540
906.974	7544
907.091	7613
907.208	7731
907.324	7624
907.441	7613
907.557	7430
907.674	7396
907.79	7362
907.907	7377
908.023	7388
908.139	7419
908.256	7346
908.372	7331
908.488	7320
908.604	7209
908.72	7175
908.836	7289
908.952	7175
909.068	7255
909.184	7293
909.3	7274
909.415	7270
909.531	7339
909.647	7110
909.762	7114
909.878	7080
909.993	7065
910.108	7076
910.224	7080
910.339	6977
910.454	7019
910.57	6962
910.685	6905
910.8	7080
910.915	7095
911.03	7095
911.145	6966
911.259	6837
911.374	6916
911.489	6856
911.604	6779
911.718	6681
911.833	6700
911.947	6639
912.062	6631
912.176	6700
912.291	6696
912.405	6700
912.519	6837
912.633	6852
912.748	6722
912.862	6703
912.976	6559
913.09	6528
913.204	6578
913.318	6635
913.431	6665
913.545	6673
913.659	6673
913.772	6631
913.886	6540
914	6566
914.113	6563
914.226	6623
914.34	6593
914.453	6464
914.566	6563
914.68	6509
914.793	6471
914.906	6429
915.019	6403
915.132	6361
915.245	6384
915.358	6464
915.47	6467
915.583	6464
915.696	6506
915.809	6525
915.921	6570
916.034	6361
916.146	6418
916.259	6372
916.371	6490
916.483	6391
916.595	6388
916.708	6391
916.82	6441
916.932	6342
917.044	6384
917.156	6350
917.268	6270
917.38	6311
917.491	6304
917.603	6304
917.715	6372
917.826	6391
917.938	6289
918.049	6178
918.161	6350
918.272	6334
918.384	6433
918.495	6331
918.606	6308
918.717	6205
918.828	6323
918.939	6243
919.05	6213
919.161	6216
919.272	6190
919.383	6117
919.494	6292
919.604	6372
919.715	6277
919.826	6235
919.936	6209
920.047	6277
920.157	6270
920.267	6410
920.378	6308
920.488	6243
920.598	6506
920.708	6597
920.818	6467
920.928	6445
921.038	6570
921.148	6547
921.258	6311
921.368	6296
921.477	6133
921.587	6155
921.697	6038
921.806	6197
921.916	6072
922.025	5935
922.134	5916
922.244	5824
922.353	5923
922.462	5866
922.571	5745
922.68	5688
922.789	5649
922.898	5707
923.007	5585
923.116	5676
923.224	5691
923.333	5695
923.442	5672
923.55	5551
923.659	5592
923.767	5619
923.876	5532
923.984	5589
924.092	5459
924.201	5581
924.309	5505
924.417	5562
924.525	5520
924.633	5497
924.741	6273
924.849	5341
924.956	5459
925.064	5334
925.172	5292
925.279	5284
925.387	5368
925.494	5258
925.602	5406
925.709	5383
925.816	5254
925.924	5254
926.031	5376
926.138	5288
926.245	5280
926.352	5231
926.459	5311
926.566	5357
926.673	5189
926.779	5132
926.886	5086
926.993	4980
927.099	5003
927.206	4892
927.312	4949
927.419	5010
927.525	4930
927.631	4984
927.737	4877
927.843	4809
927.95	4771
928.056	4805
928.162	4797
928.267	4847
928.373	5250
928.479	4881
928.585	4694
928.69	4725
928.796	4767
928.901	4660
929.007	4519
929.112	4717
929.218	4656
929.323	4569
929.428	4596
929.533	4664
929.638	4523
929.743	4516
929.848	4577
929.953	4519
930.058	4432
930.163	4383
930.267	4299
930.372	4405
930.477	4291
930.581	4459
930.685	4398
930.79	4181
930.894	4272
930.998	4227
931.103	4363
931.207	4128
931.311	4082
931.415	4071
931.519	3930
931.623	3930
