Data from glass_V78500241_1298.txt Node
Date: Wed Sep 01 19:23:29 CST 2021
User: usil
Spectrometer: V785-0024
Trigger mode: 0
Integration Time (sec): 4.000000E-1
Scans to average: 1
Nonlinearity correction enabled: false
Boxcar width: 0
Storing dark spectrum: false
XAxis mode: Wavelengths
Number of Pixels in Spectrum: 1024
>>>>>Begin Spectral Data<<<<<
801.071	3698
801.214	3778
801.356	3694
801.499	3743
801.641	3755
801.783	3850
801.926	3911
802.068	3800
802.211	3869
802.353	3896
802.496	3823
802.638	3876
802.78	3907
802.923	3922
803.065	3880
803.208	3869
803.35	3857
803.492	3888
803.635	3945
803.777	3827
803.919	3846
804.061	4154
804.204	4017
804.346	3941
804.488	3911
804.63	4021
804.773	3972
804.915	4040
805.057	4139
805.199	4017
805.341	4074
805.483	4154
805.626	4131
805.768	4086
805.91	4211
806.052	4230
806.194	4169
806.336	4386
806.478	4230
806.62	4207
806.762	4204
806.904	4234
807.046	4337
807.188	4204
807.33	4154
807.472	4234
807.614	4200
807.756	4276
807.898	4177
808.04	4207
808.182	4284
808.324	4314
808.465	4329
808.607	4466
808.749	4451
808.891	4428
809.033	4508
809.174	4455
809.316	4295
809.458	4272
809.6	4124
809.741	4166
809.883	4181
810.025	4230
810.166	4219
810.308	4219
810.45	4238
810.591	4230
810.733	4333
810.875	4531
811.016	4790
811.158	5124
811.299	5239
811.441	5250
811.582	5033
811.724	4691
811.865	4470
812.007	4485
812.148	4402
812.29	4470
812.431	4440
812.573	4386
812.714	4371
812.855	4440
812.997	4436
813.138	4493
813.279	4402
813.421	4379
813.562	4409
813.703	4322
813.845	4356
813.986	4227
814.127	4200
814.268	4261
814.41	4306
814.551	4265
814.692	4383
814.833	4249
814.974	4337
815.115	4318
815.256	4284
815.397	4249
815.539	4242
815.68	4177
815.821	4200
815.962	4314
816.103	4299
816.244	4242
816.385	4257
816.526	4257
816.666	4185
816.807	4139
816.948	4196
817.089	4150
817.23	4074
817.371	4071
817.512	4051
817.653	4082
817.793	4059
817.934	4097
818.075	4128
818.216	4059
818.356	4086
818.497	3987
818.638	3926
818.778	3915
818.919	3911
819.06	3907
819.2	3892
819.341	3892
819.481	3846
819.622	3903
819.762	4013
819.903	3987
820.043	3892
820.184	3835
820.324	3838
820.465	3842
820.605	3884
820.746	3854
820.886	3766
821.026	3960
821.167	3918
821.307	3945
821.447	3991
821.588	3941
821.728	3991
821.868	3918
822.008	3911
822.149	3869
822.289	3876
822.429	3778
822.569	3766
822.709	3854
822.849	3705
822.99	3732
823.13	3709
823.27	3827
823.41	3690
823.55	3740
823.69	3743
823.83	3701
823.97	3701
824.11	3618
824.25	3614
824.389	3667
824.529	3663
824.669	3648
824.809	3709
824.949	3751
825.089	3774
825.228	3705
825.368	3591
825.508	3557
825.648	3614
825.787	3610
825.927	3633
826.067	3625
826.206	3671
826.346	3781
826.485	3774
826.625	3876
826.765	3922
826.904	3823
827.044	3618
827.183	3511
827.323	3428
827.462	3481
827.601	3409
827.741	3435
827.88	3507
828.02	3389
828.159	3416
828.298	3492
828.437	3542
828.577	3481
828.716	3667
828.855	3542
828.994	3389
829.134	3370
829.273	3389
829.412	3321
829.551	3344
829.69	3409
829.829	3450
829.968	3542
830.107	3447
830.246	3405
830.385	3389
830.524	3348
830.663	3332
830.802	3256
830.941	3245
831.08	3226
831.219	3268
831.357	3256
831.496	3401
831.635	3275
831.774	3188
831.913	3169
832.051	3127
832.19	3150
832.329	3218
832.467	3150
832.606	3104
832.744	3169
832.883	3203
833.022	3211
833.16	3272
833.299	3294
833.437	3348
833.576	3367
833.714	3405
833.852	3450
833.991	3428
834.129	3462
834.267	3443
834.406	3397
834.544	3378
834.682	3443
834.821	3409
834.959	3591
835.097	3428
835.235	3568
835.373	3481
835.511	3492
835.65	3473
835.788	3504
835.926	3386
836.064	3397
836.202	3435
836.34	3587
836.478	3633
836.615	3564
836.753	3614
836.891	3652
837.029	3606
837.167	3580
837.305	3561
837.443	3557
837.58	3511
837.718	3587
837.856	3564
837.993	3561
838.131	3595
838.269	3610
838.406	3618
838.544	3553
838.681	3428
838.819	3435
838.956	3378
839.094	3405
839.231	3454
839.369	3542
839.506	3736
839.643	3599
839.781	3545
839.918	3450
840.055	3545
840.193	3557
840.33	3534
840.467	3523
840.604	3629
840.742	3812
840.879	3576
841.016	3545
841.153	3614
841.29	3728
841.427	3701
841.564	3747
841.701	3755
841.838	3705
841.975	3698
842.112	3762
842.249	3679
842.385	3629
842.522	3785
842.659	3705
842.796	3667
842.933	3751
843.069	3732
843.206	3747
843.343	3831
843.479	3751
843.616	3831
843.752	3698
843.889	3652
844.025	3816
844.162	3728
844.298	3850
844.435	3789
844.571	3770
844.708	3899
844.844	3964
844.98	4048
845.117	4036
845.253	3903
845.389	3926
845.525	3960
845.661	3983
845.798	3899
845.934	3994
846.07	3956
846.206	4051
846.342	4116
846.478	4051
846.614	4002
846.75	3915
846.886	3907
847.022	4051
847.158	3987
847.294	3975
847.429	4017
847.565	3975
847.701	4238
847.837	3934
847.972	3876
848.108	3991
848.244	3949
848.379	3892
848.515	3808
848.65	3857
848.786	3865
848.921	3884
849.057	3907
849.192	3907
849.328	3937
849.463	3918
849.598	3884
849.734	3854
849.869	3842
850.004	3789
850.14	3827
850.275	3762
850.41	3751
850.545	3781
850.68	3774
850.815	3781
850.95	3819
851.085	3937
851.22	3903
851.355	3816
851.49	3778
851.625	3778
851.76	3762
851.895	3740
852.03	3740
852.165	3800
852.299	3842
852.434	3888
852.569	3888
852.703	3869
852.838	3960
852.973	4029
853.107	3987
853.242	3907
853.376	3873
853.511	3800
853.645	3880
853.78	3937
853.914	3937
854.048	3899
854.183	3945
854.317	3964
854.451	4071
854.585	3953
854.72	3945
854.854	4029
854.988	3968
855.122	3968
855.256	3907
855.39	4040
855.524	4078
855.658	4086
855.792	4074
855.926	4162
856.06	4169
856.194	4211
856.327	4131
856.461	4135
856.595	4154
856.729	4173
856.862	4310
856.996	4215
857.13	4287
857.263	4322
857.397	4375
857.53	4291
857.664	4314
857.797	4409
857.931	4436
858.064	4371
858.197	4405
858.331	4409
858.464	4394
858.597	4375
858.731	4474
858.864	4462
858.997	4462
859.13	4538
859.263	4519
859.396	4580
859.529	4527
859.662	4554
859.795	4516
859.928	4592
860.061	4740
860.194	4752
860.327	4656
860.46	4660
860.592	4740
860.725	4759
860.858	4767
860.99	4733
861.123	4687
861.256	4679
861.388	4755
861.521	5391
861.653	4744
861.786	4683
861.918	4759
862.05	4759
862.183	4858
862.315	4870
862.447	4938
862.58	4904
862.712	4763
862.844	4771
862.976	4911
863.108	4904
863.24	5162
863.372	4816
863.504	4942
863.636	4889
863.768	4999
863.9	5041
864.032	4946
864.164	4930
864.296	5022
864.428	5086
864.559	5113
864.691	5109
864.823	5143
864.954	5132
865.086	5121
865.217	5128
865.349	5109
865.48	5181
865.612	5235
865.743	5299
865.875	5231
866.006	5162
866.137	5220
866.269	5254
866.4	5235
866.531	5220
866.662	5220
866.793	5284
866.924	5284
867.055	5372
867.186	5349
867.317	5337
867.448	5318
867.579	5391
867.71	5360
867.841	5440
867.972	5474
868.103	5452
868.233	5467
868.364	5467
868.495	5558
868.625	5668
868.756	5802
868.886	5619
869.017	5737
869.147	5882
869.278	5866
869.408	5786
869.539	5821
869.669	5969
869.799	5923
869.929	5961
870.06	6007
870.19	6228
870.32	6182
870.45	6296
870.58	6353
870.71	6422
870.84	6429
870.97	6426
871.1	6494
871.23	6669
871.36	6741
871.489	6646
871.619	6806
871.749	6859
871.879	6844
872.008	6985
872.138	6981
872.267	6985
872.397	6962
872.526	7004
872.656	7107
872.785	7202
872.915	7388
873.044	7533
873.173	7506
873.303	7704
873.432	7765
873.561	7906
873.69	7951
873.819	8054
873.948	8138
874.077	8191
874.206	8366
874.335	8499
874.464	8682
874.593	8883
874.722	8906
874.851	9131
874.979	9253
875.108	9397
875.237	9439
875.365	9485
875.494	9644
875.623	9755
875.751	9789
875.88	9979
876.008	10135
876.136	10291
876.265	10554
876.393	10733
876.521	10767
876.65	10774
876.778	10904
876.906	10976
877.034	10923
877.162	11102
877.29	11212
877.418	11288
877.546	11452
877.674	11493
877.802	11448
877.93	11554
878.058	11516
878.185	11604
878.313	11627
878.441	11824
878.568	11661
878.696	11752
878.824	11821
878.951	12003
879.079	12011
879.206	12072
879.333	12140
879.461	12030
879.588	12011
879.715	12053
879.842	12205
879.97	12053
880.097	11904
880.224	11851
880.351	11897
880.478	11805
880.605	11897
880.732	11821
880.859	11927
880.986	11866
881.112	11912
881.239	11726
881.366	11649
881.493	11726
881.619	11592
881.746	11634
881.872	11474
881.999	11520
882.125	11490
882.252	11634
882.378	11554
882.505	11532
882.631	11345
882.757	11277
882.883	11379
883.01	11242
883.136	11147
883.262	11105
883.388	11102
883.514	11181
883.64	11159
883.766	11124
883.892	10934
884.018	10991
884.143	11105
884.269	11117
884.395	10881
884.52	10828
884.646	10873
884.772	10694
884.897	10599
885.023	10717
885.148	10786
885.274	10793
885.399	10672
885.524	10634
885.65	10592
885.775	10721
885.9	10580
886.025	10660
886.15	10550
886.275	10466
886.4	10375
886.525	10348
886.65	10363
886.775	10329
886.9	10428
887.025	10535
887.149	10379
887.274	10219
887.399	10135
887.523	10169
887.648	10109
887.773	10166
887.897	10196
888.021	10215
888.146	10173
888.27	10185
888.395	10253
888.519	10124
888.643	10223
888.767	10219
888.891	10120
889.015	10036
889.139	10177
889.263	10055
889.387	10139
889.511	10116
889.635	10044
889.759	10006
889.883	9930
890.006	9964
890.13	10090
890.254	9895
890.377	9960
890.501	9823
890.624	9918
890.748	9953
890.871	9770
890.995	9762
891.118	9732
891.241	9755
891.364	9732
891.488	9812
891.611	9759
891.734	9682
891.857	9819
891.98	9728
892.103	9808
892.226	9774
892.349	9622
892.471	9519
892.594	9576
892.717	9656
892.839	9568
892.962	9667
893.085	9675
893.207	9606
893.33	9504
893.452	9530
893.575	9625
893.697	9481
893.819	9622
893.941	9686
894.064	9633
894.186	9447
894.308	9412
894.43	9511
894.552	9644
894.674	9534
894.796	9386
894.918	9420
895.04	9256
895.161	9374
895.283	9355
895.405	9291
895.526	9306
895.648	9192
895.769	9272
895.891	9268
896.012	9302
896.134	9222
896.255	9260
896.376	9161
896.498	9142
896.619	9150
896.74	9100
896.861	9089
896.982	9291
897.103	9340
897.224	9135
897.345	9131
897.466	9074
897.587	9009
897.708	9112
897.828	9055
897.949	8963
898.07	8864
898.19	8883
898.311	9036
898.431	8929
898.552	8921
898.672	8956
898.792	8979
898.913	8914
899.033	8910
899.153	8712
899.273	8632
899.393	8754
899.513	8777
899.633	8754
899.753	8720
899.873	8682
899.993	8705
900.113	8674
900.232	8659
900.352	8682
900.472	8686
900.591	8575
900.711	8636
900.83	8613
900.95	8689
901.069	8739
901.189	8594
901.308	8423
901.427	8301
901.546	8431
901.665	8473
901.784	8507
901.904	8366
902.023	8298
902.141	8218
902.26	8210
902.379	8252
902.498	8164
902.617	8183
902.735	8275
902.854	8275
902.973	8282
903.091	8153
903.21	8153
903.328	8176
903.446	8153
903.565	8008
903.683	8062
903.801	8016
903.919	8153
904.038	8103
904.156	8043
904.274	8096
904.392	8046
904.51	8024
904.627	8058
904.745	8096
904.863	8115
904.981	7936
905.098	7906
905.216	7898
905.334	7875
905.451	7909
905.569	7833
905.686	7947
905.803	7963
905.921	7742
906.038	7807
906.155	7769
906.272	7708
906.389	7723
906.506	7647
906.623	7613
906.74	7529
906.857	7518
906.974	7578
907.091	7628
907.208	7677
907.324	7681
907.441	7647
907.557	7441
907.674	7419
907.79	7438
907.907	7381
908.023	7384
908.139	7426
908.256	7369
908.372	7403
908.488	7308
908.604	7244
908.72	7198
908.836	7266
908.952	7247
909.068	7217
909.184	7343
909.3	7198
909.415	7369
909.531	7285
909.647	7171
909.762	7099
909.878	7133
909.993	7088
910.108	7137
910.224	7129
910.339	7175
910.454	7061
910.57	6977
910.685	6954
910.8	7168
910.915	7057
911.03	7012
911.145	6913
911.259	6825
911.374	6905
911.489	6837
911.604	6833
911.718	6734
911.833	6760
911.947	6703
912.062	6616
912.176	6703
912.291	6719
912.405	6734
912.519	6818
912.633	6844
912.748	6734
912.862	6703
912.976	6623
913.09	6502
913.204	6589
913.318	6582
913.431	6700
913.545	6696
913.659	6730
913.772	6696
913.886	6612
914	6585
914.113	6642
914.226	6631
914.34	6555
914.453	6525
914.566	6604
914.68	6574
914.793	6528
914.906	6376
915.019	6422
915.132	6376
915.245	6391
915.358	6475
915.47	6471
915.583	6467
915.696	6490
915.809	6509
915.921	6570
916.034	6365
916.146	6445
916.259	6407
916.371	6426
916.483	6456
916.595	6372
916.708	6448
916.82	6414
916.932	6391
917.044	6410
917.156	6426
917.268	6384
917.38	6384
917.491	6331
917.603	6376
917.715	6365
917.826	6433
917.938	6300
918.049	6232
918.161	6357
918.272	6403
918.384	6395
918.495	6350
918.606	6224
918.717	6197
918.828	6285
918.939	6308
919.05	6167
919.161	6289
919.272	6117
919.383	6182
919.494	6323
919.604	6391
919.715	6247
919.826	6213
919.936	6273
920.047	6369
920.157	6327
920.267	6460
920.378	6357
920.488	6304
920.598	6414
920.708	6593
920.818	6445
920.928	6498
921.038	6582
921.148	6585
921.258	6357
921.368	6361
921.477	6224
921.587	6182
921.697	6121
921.806	6190
921.916	6057
922.025	5931
922.134	5973
922.244	5870
922.353	5878
922.462	5809
922.571	5813
922.68	5676
922.789	5752
922.898	5680
923.007	5615
923.116	5729
923.224	5672
923.333	5661
923.442	5604
923.55	5551
923.659	5558
923.767	5615
923.876	5589
923.984	5585
924.092	5573
924.201	5577
924.309	5566
924.417	5570
924.525	5478
924.633	5471
924.741	6289
924.849	5417
924.956	5463
925.064	5379
925.172	5341
925.279	5318
925.387	5353
925.494	5334
925.602	5402
925.709	5357
925.816	5311
925.924	5269
926.031	5345
926.138	5288
926.245	5398
926.352	5231
926.459	5318
926.566	5360
926.673	5208
926.779	5121
926.886	5140
926.993	5003
927.099	5037
927.206	4961
927.312	4953
927.419	5014
927.525	4980
927.631	5010
927.737	4908
927.843	4854
927.95	4793
928.056	4824
928.162	4812
928.267	4843
928.373	5391
928.479	4854
928.585	4679
928.69	4740
928.796	4797
928.901	4698
929.007	4630
929.112	4687
929.218	4664
929.323	4622
929.428	4561
929.533	4649
929.638	4527
929.743	4580
929.848	4580
929.953	4535
930.058	4481
930.163	4318
930.267	4371
930.372	4459
930.477	4242
930.581	4459
930.685	4371
930.79	4280
930.894	4333
930.998	4257
931.103	4402
931.207	4067
931.311	4078
931.415	4048
931.519	3945
931.623	3941
