Data from glass_V78500241_218.txt Node
Date: Wed Sep 01 19:16:00 CST 2021
User: usil
Spectrometer: V785-0024
Trigger mode: 0
Integration Time (sec): 4.000000E-1
Scans to average: 1
Nonlinearity correction enabled: false
Boxcar width: 0
Storing dark spectrum: false
XAxis mode: Wavelengths
Number of Pixels in Spectrum: 1024
>>>>>Begin Spectral Data<<<<<
801.071	3743
801.214	3781
801.356	3717
801.499	3770
801.641	3755
801.783	3842
801.926	3816
802.068	3880
802.211	3854
802.353	3915
802.496	3846
802.638	3892
802.78	3892
802.923	3949
803.065	3922
803.208	3873
803.35	3911
803.492	3956
803.635	3903
803.777	3781
803.919	3903
804.061	4200
804.204	3945
804.346	4002
804.488	3899
804.63	4059
804.773	4017
804.915	4032
805.057	4139
805.199	4063
805.341	4082
805.483	4158
805.626	4169
805.768	4120
805.91	4257
806.052	4253
806.194	4192
806.336	4367
806.478	4215
806.62	4238
806.762	4253
806.904	4295
807.046	4325
807.188	4215
807.33	4181
807.472	4227
807.614	4166
807.756	4299
807.898	4211
808.04	4253
808.182	4314
808.324	4367
808.465	4367
808.607	4504
808.749	4470
808.891	4455
809.033	4519
809.174	4413
809.316	4287
809.458	4295
809.6	4166
809.741	4158
809.883	4101
810.025	4204
810.166	4230
810.308	4230
810.45	4234
810.591	4253
810.733	4246
810.875	4516
811.016	4839
811.158	5117
811.299	5277
811.441	5242
811.582	5121
811.724	4698
811.865	4508
812.007	4500
812.148	4436
812.29	4409
812.431	4379
812.573	4443
812.714	4383
812.855	4405
812.997	4402
813.138	4451
813.279	4428
813.421	4367
813.562	4352
813.703	4325
813.845	4352
813.986	4261
814.127	4253
814.268	4287
814.41	4314
814.551	4280
814.692	4325
814.833	4291
814.974	4318
815.115	4333
815.256	4261
815.397	4272
815.539	4265
815.68	4223
815.821	4272
815.962	4322
816.103	4272
816.244	4268
816.385	4215
816.526	4329
816.666	4204
816.807	4109
816.948	4173
817.089	4150
817.23	4166
817.371	4059
817.512	4093
817.653	4093
817.793	4036
817.934	4074
818.075	4086
818.216	4120
818.356	4097
818.497	3998
818.638	3934
818.778	3953
818.919	3941
819.06	3861
819.2	3934
819.341	3884
819.481	3838
819.622	3873
819.762	4063
819.903	3979
820.043	3857
820.184	3842
820.324	3838
820.465	3884
820.605	3880
820.746	3876
820.886	3816
821.026	3968
821.167	3903
821.307	3964
821.447	4002
821.588	3972
821.728	3953
821.868	3903
822.008	3880
822.149	3941
822.289	3972
822.429	3827
822.569	3762
822.709	3804
822.849	3720
822.99	3766
823.13	3755
823.27	3808
823.41	3736
823.55	3747
823.69	3732
823.83	3785
823.97	3675
824.11	3637
824.25	3606
824.389	3637
824.529	3656
824.669	3652
824.809	3732
824.949	3747
825.089	3743
825.228	3751
825.368	3614
825.508	3572
825.648	3595
825.787	3618
825.927	3663
826.067	3618
826.206	3686
826.346	3774
826.485	3838
826.625	3850
826.765	3949
826.904	3873
827.044	3618
827.183	3561
827.323	3469
827.462	3488
827.601	3454
827.741	3428
827.88	3485
828.02	3393
828.159	3466
828.298	3511
828.437	3557
828.577	3511
828.716	3625
828.855	3519
828.994	3382
829.134	3401
829.273	3405
829.412	3389
829.551	3359
829.69	3378
829.829	3439
829.968	3542
830.107	3439
830.246	3458
830.385	3393
830.524	3401
830.663	3329
830.802	3237
830.941	3207
831.08	3218
831.219	3279
831.357	3317
831.496	3389
831.635	3245
831.774	3230
831.913	3199
832.051	3142
832.19	3157
832.329	3218
832.467	3154
832.606	3123
832.744	3176
832.883	3184
833.022	3214
833.16	3264
833.299	3291
833.437	3321
833.576	3386
833.714	3443
833.852	3454
833.991	3485
834.129	3477
834.267	3447
834.406	3393
834.544	3431
834.682	3397
834.821	3416
834.959	3561
835.097	3431
835.235	3549
835.373	3507
835.511	3557
835.65	3488
835.788	3511
835.926	3378
836.064	3340
836.202	3386
836.34	3603
836.478	3652
836.615	3545
836.753	3591
836.891	3682
837.029	3625
837.167	3610
837.305	3553
837.443	3526
837.58	3500
837.718	3637
837.856	3545
837.993	3542
838.131	3625
838.269	3614
838.406	3599
838.544	3591
838.681	3500
838.819	3466
838.956	3367
839.094	3397
839.231	3458
839.369	3515
839.506	3755
839.643	3660
839.781	3526
839.918	3511
840.055	3530
840.193	3557
840.33	3553
840.467	3580
840.604	3663
840.742	3808
840.879	3534
841.016	3595
841.153	3610
841.29	3770
841.427	3709
841.564	3724
841.701	3762
841.838	3736
841.975	3713
842.112	3705
842.249	3663
842.385	3644
842.522	3899
842.659	3675
842.796	3713
842.933	3743
843.069	3717
843.206	3690
843.343	3846
843.479	3823
843.616	3823
843.752	3698
843.889	3709
844.025	3850
844.162	3755
844.298	3915
844.435	3797
844.571	3835
844.708	3926
844.844	4032
844.98	3979
845.117	4006
845.253	3934
845.389	3941
845.525	3991
845.661	3979
845.798	3972
845.934	4029
846.07	3953
846.206	4067
846.342	4166
846.478	4071
846.614	3987
846.75	3964
846.886	3915
847.022	4082
847.158	3998
847.294	4067
847.429	4029
847.565	3998
847.701	4253
847.837	3892
847.972	3896
848.108	4021
848.244	4013
848.379	3869
848.515	3819
848.65	3827
848.786	3842
848.921	3865
849.057	3880
849.192	3941
849.328	3922
849.463	3937
849.598	3922
849.734	3922
849.869	3835
850.004	3804
850.14	3838
850.275	3808
850.41	3774
850.545	3778
850.68	3800
850.815	3804
850.95	3812
851.085	3975
851.22	3850
851.355	3850
851.49	3781
851.625	3812
851.76	3808
851.895	3797
852.03	3732
852.165	3785
852.299	3854
852.434	3930
852.569	3907
852.703	3899
852.838	3926
852.973	3987
853.107	3979
853.242	3922
853.376	3854
853.511	3816
853.645	3812
853.78	4013
853.914	3899
854.048	3934
854.183	3899
854.317	3956
854.451	4055
854.585	3987
854.72	3956
854.854	4086
854.988	3934
855.122	3968
855.256	3945
855.39	4040
855.524	4074
855.658	4109
855.792	4128
855.926	4116
856.06	4173
856.194	4230
856.327	4158
856.461	4120
856.595	4227
856.729	4204
856.862	4280
856.996	4234
857.13	4322
857.263	4314
857.397	4394
857.53	4284
857.664	4360
857.797	4390
857.931	4470
858.064	4417
858.197	4493
858.331	4428
858.464	4379
858.597	4367
858.731	4440
858.864	4474
858.997	4455
859.13	4558
859.263	4573
859.396	4573
859.529	4500
859.662	4523
859.795	4523
859.928	4634
860.061	4725
860.194	4774
860.327	4618
860.46	4649
860.592	4733
860.725	4744
860.858	4778
860.99	4744
861.123	4683
861.256	4717
861.388	4790
861.521	5376
861.653	4710
861.786	4725
861.918	4752
862.05	4847
862.183	4812
862.315	4835
862.447	4984
862.58	4892
862.712	4835
862.844	4778
862.976	4892
863.108	4908
863.24	5178
863.372	4873
863.504	4953
863.636	4904
863.768	5010
863.9	4984
864.032	4938
864.164	4942
864.296	5025
864.428	5079
864.559	5090
864.691	5174
864.823	5124
864.954	5090
865.086	5174
865.217	5162
865.349	5147
865.48	5170
865.612	5197
865.743	5292
865.875	5201
866.006	5121
866.137	5239
866.269	5204
866.4	5246
866.531	5258
866.662	5242
866.793	5269
866.924	5261
867.055	5376
867.186	5357
867.317	5345
867.448	5318
867.579	5364
867.71	5429
867.841	5368
867.972	5501
868.103	5505
868.233	5486
868.364	5539
868.495	5551
868.625	5729
868.756	5813
868.886	5703
869.017	5760
869.147	5882
869.278	5859
869.408	5844
869.539	5851
869.669	5950
869.799	5939
869.929	6007
870.06	5988
870.19	6163
870.32	6197
870.45	6251
870.58	6410
870.71	6448
870.84	6475
870.97	6422
871.1	6536
871.23	6604
871.36	6688
871.489	6658
871.619	6768
871.749	6802
871.879	6852
872.008	6913
872.138	6947
872.267	7034
872.397	6962
872.526	7046
872.656	7133
872.785	7175
872.915	7346
873.044	7552
873.173	7518
873.303	7620
873.432	7814
873.561	7913
873.69	7986
873.819	8001
873.948	8206
874.077	8275
874.206	8332
874.335	8415
874.464	8693
874.593	8853
874.722	8952
874.851	9165
874.979	9279
875.108	9397
875.237	9511
875.365	9469
875.494	9660
875.623	9918
875.751	9812
875.88	9934
876.008	10147
876.136	10337
876.265	10535
876.393	10717
876.521	10733
876.65	10866
876.778	10889
876.906	10949
877.034	10934
877.162	11124
877.29	11151
877.418	11398
877.546	11322
877.674	11414
877.802	11528
877.93	11512
878.058	11558
878.185	11630
878.313	11676
878.441	11771
878.568	11672
878.696	11832
878.824	11828
878.951	11901
879.079	11999
879.206	12186
879.333	11961
879.461	12015
879.588	12121
879.715	12079
879.842	12167
879.97	12095
880.097	11893
880.224	11874
880.351	11836
880.478	11923
880.605	11901
880.732	11836
880.859	12026
880.986	11931
881.112	11878
881.239	11733
881.366	11684
881.493	11657
881.619	11589
881.746	11566
881.872	11509
881.999	11452
882.125	11425
882.252	11520
882.378	11570
882.505	11505
882.631	11353
882.757	11288
882.883	11265
883.01	11307
883.136	11216
883.262	11132
883.388	11029
883.514	11132
883.64	11174
883.766	11113
883.892	11006
884.018	10965
884.143	11075
884.269	11117
884.395	10847
884.52	10778
884.646	10816
884.772	10774
884.897	10634
885.023	10736
885.148	10729
885.274	10706
885.399	10698
885.524	10596
885.65	10592
885.775	10599
885.9	10542
886.025	10687
886.15	10561
886.275	10481
886.4	10405
886.525	10367
886.65	10402
886.775	10379
886.9	10451
887.025	10516
887.149	10333
887.274	10261
887.399	10154
887.523	10211
887.648	10169
887.773	10097
887.897	10303
888.021	10295
888.146	10105
888.27	10314
888.395	10196
888.519	10105
888.643	10211
888.767	10215
888.891	10074
889.015	9975
889.139	10105
889.263	9960
889.387	10067
889.511	10169
889.635	10086
889.759	9975
889.883	9953
890.006	9991
890.13	10090
890.254	9964
890.377	10002
890.501	9838
890.624	9873
890.748	9945
890.871	9838
890.995	9770
891.118	9800
891.241	9770
891.364	9709
891.488	9880
891.611	9759
891.734	9797
891.857	9759
891.98	9667
892.103	9743
892.226	9743
892.349	9660
892.471	9561
892.594	9580
892.717	9618
892.839	9542
892.962	9679
893.085	9679
893.207	9545
893.33	9545
893.452	9530
893.575	9572
893.697	9447
893.819	9603
893.941	9625
894.064	9682
894.186	9412
894.308	9466
894.43	9545
894.552	9557
894.674	9584
894.796	9435
894.918	9386
895.04	9355
895.161	9298
895.283	9370
895.405	9256
895.526	9321
895.648	9321
895.769	9268
895.891	9237
896.012	9249
896.134	9287
896.255	9249
896.376	9176
896.498	9131
896.619	9093
896.74	9119
896.861	9097
896.982	9332
897.103	9306
897.224	9116
897.345	9104
897.466	9047
897.587	9100
897.708	9169
897.828	9043
897.949	8979
898.07	8872
898.19	8933
898.311	9032
898.431	8925
898.552	8994
898.672	8967
898.792	8960
898.913	8845
899.033	8754
899.153	8777
899.273	8720
899.393	8788
899.513	8754
899.633	8727
899.753	8758
899.873	8731
899.993	8792
900.113	8693
900.232	8727
900.352	8712
900.472	8667
900.591	8541
900.711	8571
900.83	8587
900.95	8712
901.069	8682
901.189	8571
901.308	8446
901.427	8446
901.546	8412
901.665	8488
901.784	8499
901.904	8396
902.023	8294
902.141	8218
902.26	8214
902.379	8313
902.498	8210
902.617	8191
902.735	8298
902.854	8286
902.973	8271
903.091	8195
903.21	8225
903.328	8195
903.446	8138
903.565	8096
903.683	8054
903.801	8054
903.919	8119
904.038	8183
904.156	8065
904.274	8107
904.392	8062
904.51	8084
904.627	7978
904.745	8103
904.863	8088
904.981	7917
905.098	7955
905.216	7830
905.334	7947
905.451	7951
905.569	7860
905.686	7947
905.803	7925
905.921	7799
906.038	7909
906.155	7807
906.272	7731
906.389	7799
906.506	7636
906.623	7616
906.74	7651
906.857	7567
906.974	7620
907.091	7704
907.208	7746
907.324	7662
907.441	7563
907.557	7453
907.674	7510
907.79	7453
907.907	7422
908.023	7476
908.139	7426
908.256	7365
908.372	7392
908.488	7339
908.604	7274
908.72	7259
908.836	7278
908.952	7324
909.068	7289
909.184	7346
909.3	7255
909.415	7289
909.531	7316
909.647	7129
909.762	7133
909.878	7050
909.993	7171
910.108	7133
910.224	7088
910.339	7164
910.454	7091
910.57	7015
910.685	6928
910.8	7175
910.915	7156
911.03	6970
911.145	6863
911.259	6882
911.374	6844
911.489	6890
911.604	6840
911.718	6688
911.833	6738
911.947	6646
912.062	6635
912.176	6760
912.291	6738
912.405	6700
912.519	6863
912.633	6951
912.748	6760
912.862	6684
912.976	6608
913.09	6566
913.204	6608
913.318	6650
913.431	6654
913.545	6684
913.659	6760
913.772	6608
913.886	6563
914	6544
914.113	6601
914.226	6623
914.34	6585
914.453	6536
914.566	6620
914.68	6525
914.793	6582
914.906	6456
915.019	6471
915.132	6353
915.245	6418
915.358	6452
915.47	6513
915.583	6464
915.696	6498
915.809	6536
915.921	6582
916.034	6414
916.146	6399
916.259	6445
916.371	6536
916.483	6467
916.595	6380
916.708	6464
916.82	6369
916.932	6418
917.044	6426
917.156	6388
917.268	6289
917.38	6353
917.491	6334
917.603	6304
917.715	6437
917.826	6437
917.938	6315
918.049	6197
918.161	6357
918.272	6509
918.384	6445
918.495	6353
918.606	6270
918.717	6228
918.828	6251
918.939	6350
919.05	6224
919.161	6247
919.272	6175
919.383	6117
919.494	6353
919.604	6346
919.715	6289
919.826	6220
919.936	6285
920.047	6384
920.157	6258
920.267	6452
920.378	6304
920.488	6311
920.598	6464
920.708	6589
920.818	6483
920.928	6517
921.038	6585
921.148	6597
921.258	6403
921.368	6342
921.477	6216
921.587	6232
921.697	6102
921.806	6224
921.916	6106
922.025	5980
922.134	5973
922.244	5923
922.353	5988
922.462	5859
922.571	5824
922.68	5775
922.789	5630
922.898	5703
923.007	5676
923.116	5756
923.224	5699
923.333	5729
923.442	5585
923.55	5615
923.659	5623
923.767	5619
923.876	5577
923.984	5562
924.092	5528
924.201	5554
924.309	5627
924.417	5585
924.525	5463
924.633	5471
924.741	6277
924.849	5360
924.956	5505
925.064	5364
925.172	5353
925.279	5337
925.387	5315
925.494	5379
925.602	5433
925.709	5379
925.816	5292
925.924	5360
926.031	5395
926.138	5315
926.245	5284
926.352	5246
926.459	5288
926.566	5330
926.673	5242
926.779	5174
926.886	5166
926.993	4984
927.099	5037
927.206	5048
927.312	4957
927.419	4999
927.525	4949
927.631	5003
927.737	4889
927.843	4858
927.95	4733
928.056	4805
928.162	4835
928.267	4892
928.373	5273
928.479	4866
928.585	4721
928.69	4854
928.796	4835
928.901	4736
929.007	4596
929.112	4679
929.218	4645
929.323	4618
929.428	4596
929.533	4702
929.638	4512
929.743	4531
929.848	4588
929.953	4527
930.058	4443
930.163	4383
930.267	4360
930.372	4428
930.477	4371
930.581	4462
930.685	4405
930.79	4291
930.894	4329
930.998	4272
931.103	4363
931.207	4131
931.311	4120
931.415	4025
931.519	3972
931.623	3975
