Data from glass_V78500241_677.txt Node
Date: Wed Sep 01 19:19:11 CST 2021
User: usil
Spectrometer: V785-0024
Trigger mode: 0
Integration Time (sec): 4.000000E-1
Scans to average: 1
Nonlinearity correction enabled: false
Boxcar width: 0
Storing dark spectrum: false
XAxis mode: Wavelengths
Number of Pixels in Spectrum: 1024
>>>>>Begin Spectral Data<<<<<
801.071	3778
801.214	3751
801.356	3759
801.499	3751
801.641	3724
801.783	3770
801.926	3876
802.068	3850
802.211	3842
802.353	3892
802.496	3915
802.638	3930
802.78	3911
802.923	3979
803.065	3915
803.208	3876
803.35	3907
803.492	3884
803.635	3918
803.777	3819
803.919	3896
804.061	4154
804.204	3991
804.346	3972
804.488	3896
804.63	4078
804.773	4025
804.915	4048
805.057	4131
805.199	4048
805.341	4086
805.483	4135
805.626	4150
805.768	4147
805.91	4246
806.052	4291
806.194	4200
806.336	4356
806.478	4219
806.62	4211
806.762	4196
806.904	4261
807.046	4348
807.188	4265
807.33	4188
807.472	4287
807.614	4215
807.756	4265
807.898	4207
808.04	4257
808.182	4314
808.324	4333
808.465	4383
808.607	4504
808.749	4451
808.891	4485
809.033	4538
809.174	4413
809.316	4238
809.458	4276
809.6	4120
809.741	4185
809.883	4120
810.025	4215
810.166	4227
810.308	4211
810.45	4257
810.591	4261
810.733	4261
810.875	4500
811.016	4835
811.158	5124
811.299	5254
811.441	5330
811.582	5113
811.724	4698
811.865	4459
812.007	4519
812.148	4402
812.29	4474
812.431	4424
812.573	4428
812.714	4390
812.855	4402
812.997	4447
813.138	4474
813.279	4440
813.421	4356
813.562	4402
813.703	4363
813.845	4383
813.986	4287
814.127	4265
814.268	4280
814.41	4257
814.551	4291
814.692	4337
814.833	4265
814.974	4310
815.115	4318
815.256	4261
815.397	4249
815.539	4284
815.68	4238
815.821	4219
815.962	4394
816.103	4276
816.244	4230
816.385	4257
816.526	4268
816.666	4173
816.807	4120
816.948	4185
817.089	4173
817.23	4173
817.371	4059
817.512	4120
817.653	4086
817.793	4036
817.934	4067
818.075	4071
818.216	4093
818.356	4074
818.497	4029
818.638	3896
818.778	3911
818.919	3899
819.06	3835
819.2	3960
819.341	3876
819.481	3861
819.622	3907
819.762	4063
819.903	3918
820.043	3884
820.184	3861
820.324	3827
820.465	3888
820.605	3903
820.746	3873
820.886	3816
821.026	3911
821.167	3934
821.307	4017
821.447	3968
821.588	4017
821.728	3953
821.868	3956
822.008	3880
822.149	3911
822.289	3937
822.429	3793
822.569	3759
822.709	3812
822.849	3663
822.99	3755
823.13	3770
823.27	3770
823.41	3694
823.55	3682
823.69	3736
823.83	3724
823.97	3709
824.11	3614
824.25	3637
824.389	3656
824.529	3709
824.669	3698
824.809	3732
824.949	3797
825.089	3747
825.228	3671
825.368	3633
825.508	3564
825.648	3572
825.787	3614
825.927	3671
826.067	3656
826.206	3686
826.346	3808
826.485	3835
826.625	3873
826.765	3941
826.904	3842
827.044	3652
827.183	3526
827.323	3469
827.462	3500
827.601	3428
827.741	3469
827.88	3469
828.02	3420
828.159	3462
828.298	3488
828.437	3492
828.577	3519
828.716	3599
828.855	3526
828.994	3386
829.134	3382
829.273	3397
829.412	3378
829.551	3340
829.69	3416
829.829	3439
829.968	3526
830.107	3450
830.246	3447
830.385	3409
830.524	3367
830.663	3336
830.802	3298
830.941	3222
831.08	3203
831.219	3272
831.357	3249
831.496	3409
831.635	3264
831.774	3233
831.913	3226
832.051	3138
832.19	3157
832.329	3207
832.467	3180
832.606	3112
832.744	3207
832.883	3176
833.022	3184
833.16	3268
833.299	3340
833.437	3340
833.576	3359
833.714	3500
833.852	3401
833.991	3462
834.129	3511
834.267	3496
834.406	3420
834.544	3428
834.682	3428
834.821	3454
834.959	3606
835.097	3450
835.235	3523
835.373	3534
835.511	3504
835.65	3504
835.788	3488
835.926	3397
836.064	3447
836.202	3424
836.34	3622
836.478	3606
836.615	3557
836.753	3606
836.891	3629
837.029	3606
837.167	3603
837.305	3561
837.443	3557
837.58	3469
837.718	3629
837.856	3500
837.993	3534
838.131	3603
838.269	3557
838.406	3622
838.544	3561
838.681	3462
838.819	3488
838.956	3367
839.094	3382
839.231	3477
839.369	3507
839.506	3724
839.643	3648
839.781	3500
839.918	3492
840.055	3530
840.193	3526
840.33	3553
840.467	3530
840.604	3622
840.742	3835
840.879	3557
841.016	3564
841.153	3587
841.29	3785
841.427	3743
841.564	3766
841.701	3747
841.838	3724
841.975	3713
842.112	3701
842.249	3625
842.385	3622
842.522	3857
842.659	3686
842.796	3728
842.933	3705
843.069	3747
843.206	3698
843.343	3816
843.479	3785
843.616	3789
843.752	3686
843.889	3698
844.025	3869
844.162	3766
844.298	3865
844.435	3778
844.571	3800
844.708	3964
844.844	3998
844.98	4051
845.117	4006
845.253	3930
845.389	3930
845.525	3983
845.661	3987
845.798	3892
845.934	4010
846.07	3964
846.206	4071
846.342	4128
846.478	4139
846.614	4010
846.75	3953
846.886	3945
847.022	4040
847.158	4010
847.294	4048
847.429	4021
847.565	4025
847.701	4246
847.837	3896
847.972	3918
848.108	4017
848.244	3991
848.379	3831
848.515	3838
848.65	3846
848.786	3896
848.921	3869
849.057	3937
849.192	3937
849.328	3918
849.463	3918
849.598	3873
849.734	3876
849.869	3869
850.004	3797
850.14	3812
850.275	3808
850.41	3762
850.545	3789
850.68	3804
850.815	3812
850.95	3759
851.085	3937
851.22	3934
851.355	3793
851.49	3823
851.625	3781
851.76	3873
851.895	3781
852.03	3785
852.165	3785
852.299	3842
852.434	3888
852.569	3907
852.703	3949
852.838	3964
852.973	4013
853.107	4002
853.242	3926
853.376	3827
853.511	3797
853.645	3846
853.78	3975
853.914	3911
854.048	3922
854.183	3899
854.317	3968
854.451	4055
854.585	3956
854.72	3972
854.854	4055
854.988	4017
855.122	4002
855.256	3960
855.39	4006
855.524	4105
855.658	4090
855.792	4109
855.926	4116
856.06	4169
856.194	4249
856.327	4181
856.461	4124
856.595	4158
856.729	4158
856.862	4280
856.996	4265
857.13	4348
857.263	4306
857.397	4356
857.53	4299
857.664	4394
857.797	4390
857.931	4428
858.064	4375
858.197	4432
858.331	4421
858.464	4348
858.597	4371
858.731	4462
858.864	4504
858.997	4478
859.13	4542
859.263	4558
859.396	4550
859.529	4554
859.662	4527
859.795	4573
859.928	4611
860.061	4771
860.194	4801
860.327	4645
860.46	4687
860.592	4755
860.725	4733
860.858	4797
860.99	4710
861.123	4710
861.256	4740
861.388	4717
861.521	5261
861.653	4740
861.786	4664
861.918	4733
862.05	4771
862.183	4870
862.315	4904
862.447	4995
862.58	4930
862.712	4767
862.844	4801
862.976	4873
863.108	4858
863.24	5250
863.372	4843
863.504	4908
863.636	4896
863.768	4987
863.9	4980
864.032	4911
864.164	4930
864.296	5083
864.428	5113
864.559	5045
864.691	5105
864.823	5105
864.954	5124
865.086	5189
865.217	5102
865.349	5083
865.48	5181
865.612	5212
865.743	5299
865.875	5178
866.006	5208
866.137	5254
866.269	5288
866.4	5261
866.531	5239
866.662	5220
866.793	5250
866.924	5273
867.055	5383
867.186	5398
867.317	5353
867.448	5334
867.579	5368
867.71	5395
867.841	5398
867.972	5467
868.103	5467
868.233	5463
868.364	5482
868.495	5524
868.625	5733
868.756	5771
868.886	5710
869.017	5707
869.147	5847
869.278	5954
869.408	5878
869.539	5916
869.669	5923
869.799	5901
869.929	6041
870.06	5988
870.19	6247
870.32	6201
870.45	6258
870.58	6334
870.71	6437
870.84	6433
870.97	6445
871.1	6448
871.23	6692
871.36	6749
871.489	6692
871.619	6745
871.749	6749
871.879	6913
872.008	7023
872.138	7034
872.267	7004
872.397	7019
872.526	7023
872.656	7107
872.785	7244
872.915	7362
873.044	7605
873.173	7578
873.303	7658
873.432	7822
873.561	7909
873.69	7989
873.819	8077
873.948	8130
874.077	8240
874.206	8324
874.335	8461
874.464	8636
874.593	8876
874.722	8899
874.851	9203
874.979	9310
875.108	9287
875.237	9393
875.365	9420
875.494	9637
875.623	9857
875.751	9816
875.88	10013
876.008	10166
876.136	10291
876.265	10485
876.393	10706
876.521	10683
876.65	10809
876.778	10877
876.906	10972
877.034	10961
877.162	11117
877.29	11235
877.418	11284
877.546	11379
877.674	11444
877.802	11474
877.93	11554
878.058	11604
878.185	11611
878.313	11710
878.441	11783
878.568	11676
878.696	11840
878.824	11866
878.951	11912
879.079	12011
879.206	12228
879.333	12076
879.461	11999
879.588	12125
879.715	12136
879.842	12209
879.97	12133
880.097	11866
880.224	11920
880.351	11973
880.478	11965
880.605	11832
880.732	11824
880.859	12064
880.986	11836
881.112	11843
881.239	11748
881.366	11634
881.493	11665
881.619	11520
881.746	11570
881.872	11516
881.999	11577
882.125	11520
882.252	11490
882.378	11482
882.505	11554
882.631	11410
882.757	11349
882.883	11239
883.01	11239
883.136	11239
883.262	11037
883.388	11048
883.514	11197
883.64	11204
883.766	11117
883.892	10980
884.018	11052
884.143	11067
884.269	11098
884.395	10866
884.52	10873
884.646	10778
884.772	10683
884.897	10653
885.023	10672
885.148	10767
885.274	10763
885.399	10698
885.524	10649
885.65	10584
885.775	10618
885.9	10584
886.025	10497
886.15	10618
886.275	10588
886.4	10341
886.525	10455
886.65	10375
886.775	10352
886.9	10455
887.025	10584
887.149	10363
887.274	10219
887.399	10219
887.523	10246
887.648	10242
887.773	10139
887.897	10276
888.021	10246
888.146	10154
888.27	10227
888.395	10158
888.519	10192
888.643	10238
888.767	10215
888.891	10021
889.015	9953
889.139	10059
889.263	9998
889.387	10112
889.511	10166
889.635	10078
889.759	9956
889.883	10063
890.006	10048
890.13	10105
890.254	9972
890.377	10036
890.501	9888
890.624	9915
890.748	9922
890.871	9766
890.995	9778
891.118	9705
891.241	9808
891.364	9709
891.488	9850
891.611	9743
891.734	9751
891.857	9800
891.98	9762
892.103	9755
892.226	9705
892.349	9770
892.471	9572
892.594	9618
892.717	9553
892.839	9599
892.962	9614
893.085	9682
893.207	9599
893.33	9481
893.452	9504
893.575	9595
893.697	9496
893.819	9614
893.941	9667
894.064	9675
894.186	9469
894.308	9397
894.43	9507
894.552	9564
894.674	9500
894.796	9466
894.918	9435
895.04	9374
895.161	9424
895.283	9386
895.405	9241
895.526	9306
895.648	9294
895.769	9294
895.891	9302
896.012	9283
896.134	9313
896.255	9207
896.376	9161
896.498	9154
896.619	9169
896.74	9116
896.861	9066
896.982	9264
897.103	9283
897.224	9203
897.345	9165
897.466	9001
897.587	9039
897.708	9043
897.828	9119
897.949	8952
898.07	8857
898.19	8891
898.311	8982
898.431	8963
898.552	8876
898.672	9062
898.792	8941
898.913	8914
899.033	8800
899.153	8804
899.273	8708
899.393	8739
899.513	8815
899.633	8739
899.753	8697
899.873	8682
899.993	8678
900.113	8705
900.232	8727
900.352	8617
900.472	8598
900.591	8590
900.711	8625
900.83	8518
900.95	8587
901.069	8678
901.189	8594
901.308	8389
901.427	8415
901.546	8446
901.665	8484
901.784	8545
901.904	8343
902.023	8347
902.141	8328
902.26	8263
902.379	8279
902.498	8225
902.617	8210
902.735	8324
902.854	8290
902.973	8259
903.091	8168
903.21	8214
903.328	8210
903.446	8142
903.565	8054
903.683	8100
903.801	8058
903.919	8123
904.038	8183
904.156	8027
904.274	8115
904.392	8062
904.51	8084
904.627	8073
904.745	8046
904.863	8100
904.981	7940
905.098	7906
905.216	7852
905.334	7917
905.451	7902
905.569	7841
905.686	7913
905.803	7932
905.921	7803
906.038	7856
906.155	7833
906.272	7772
906.389	7769
906.506	7670
906.623	7658
906.74	7601
906.857	7590
906.974	7552
907.091	7681
907.208	7708
907.324	7620
907.441	7601
907.557	7540
907.674	7419
907.79	7415
907.907	7449
908.023	7396
908.139	7403
908.256	7415
908.372	7438
908.488	7343
908.604	7343
908.72	7202
908.836	7285
908.952	7251
909.068	7240
909.184	7305
909.3	7285
909.415	7244
909.531	7289
909.647	7057
909.762	7190
909.878	7065
909.993	7168
910.108	7023
910.224	7069
910.339	7099
910.454	7023
910.57	7023
910.685	7008
910.8	7202
910.915	7137
911.03	7023
911.145	6932
911.259	6852
911.374	6924
911.489	6795
911.604	6928
911.718	6700
911.833	6719
911.947	6700
912.062	6658
912.176	6768
912.291	6692
912.405	6719
912.519	6909
912.633	6856
912.748	6726
912.862	6738
912.976	6650
913.09	6540
913.204	6582
913.318	6692
913.431	6684
913.545	6681
913.659	6707
913.772	6692
913.886	6540
914	6563
914.113	6639
914.226	6623
914.34	6612
914.453	6528
914.566	6642
914.68	6525
914.793	6582
914.906	6422
915.019	6475
915.132	6399
915.245	6448
915.358	6418
915.47	6479
915.583	6464
915.696	6384
915.809	6528
915.921	6525
916.034	6391
916.146	6429
916.259	6422
916.371	6486
916.483	6456
916.595	6422
916.708	6422
916.82	6403
916.932	6407
917.044	6391
917.156	6433
917.268	6319
917.38	6353
917.491	6342
917.603	6327
917.715	6437
917.826	6410
917.938	6342
918.049	6228
918.161	6353
918.272	6384
918.384	6391
918.495	6357
918.606	6258
918.717	6254
918.828	6311
918.939	6289
919.05	6167
919.161	6262
919.272	6117
919.383	6197
919.494	6281
919.604	6422
919.715	6289
919.826	6266
919.936	6228
920.047	6361
920.157	6235
920.267	6486
920.378	6289
920.488	6334
920.598	6475
920.708	6585
920.818	6544
920.928	6445
921.038	6650
921.148	6566
921.258	6365
921.368	6281
921.477	6232
921.587	6194
921.697	6114
921.806	6194
921.916	6087
922.025	5969
922.134	5984
922.244	5889
922.353	5980
922.462	5874
922.571	5832
922.68	5714
922.789	5691
922.898	5718
923.007	5646
923.116	5688
923.224	5684
923.333	5665
923.442	5634
923.55	5615
923.659	5619
923.767	5657
923.876	5570
923.984	5611
924.092	5471
924.201	5592
924.309	5589
924.417	5600
924.525	5478
924.633	5535
924.741	6175
924.849	5406
924.956	5482
925.064	5402
925.172	5337
925.279	5330
925.387	5364
925.494	5353
925.602	5448
925.709	5395
925.816	5318
925.924	5383
926.031	5334
926.138	5322
926.245	5398
926.352	5220
926.459	5357
926.566	5353
926.673	5231
926.779	5170
926.886	5113
926.993	5033
927.099	5022
927.206	4965
927.312	4999
927.419	5064
927.525	4949
927.631	4923
927.737	4953
927.843	4877
927.95	4812
928.056	4839
928.162	4850
928.267	4858
928.373	5372
928.479	4889
928.585	4691
928.69	4729
928.796	4824
928.901	4698
929.007	4622
929.112	4675
929.218	4668
929.323	4634
929.428	4569
929.533	4710
929.638	4580
929.743	4580
929.848	4531
929.953	4504
930.058	4481
930.163	4341
930.267	4390
930.372	4451
930.477	4291
930.581	4500
930.685	4379
930.79	4238
930.894	4242
930.998	4215
931.103	4394
931.207	4158
931.311	4124
931.415	4059
931.519	3903
931.623	3937
