Data from glass_V78500241_88.txt Node
Date: Wed Sep 01 19:15:06 CST 2021
User: usil
Spectrometer: V785-0024
Trigger mode: 0
Integration Time (sec): 4.000000E-1
Scans to average: 1
Nonlinearity correction enabled: false
Boxcar width: 0
Storing dark spectrum: false
XAxis mode: Wavelengths
Number of Pixels in Spectrum: 1024
>>>>>Begin Spectral Data<<<<<
801.071	3808
801.214	3728
801.356	3751
801.499	3759
801.641	3717
801.783	3812
801.926	3854
802.068	3816
802.211	3884
802.353	3892
802.496	3873
802.638	3896
802.78	3922
802.923	3975
803.065	3934
803.208	3835
803.35	3880
803.492	3930
803.635	3926
803.777	3816
803.919	3884
804.061	4185
804.204	3987
804.346	3972
804.488	3975
804.63	4067
804.773	3968
804.915	4090
805.057	4131
805.199	4078
805.341	4097
805.483	4215
805.626	4135
805.768	4067
805.91	4242
806.052	4272
806.194	4276
806.336	4344
806.478	4242
806.62	4135
806.762	4204
806.904	4310
807.046	4352
807.188	4219
807.33	4215
807.472	4246
807.614	4230
807.756	4295
807.898	4227
808.04	4246
808.182	4322
808.324	4325
808.465	4356
808.607	4508
808.749	4455
808.891	4466
809.033	4538
809.174	4440
809.316	4318
809.458	4268
809.6	4192
809.741	4215
809.883	4154
810.025	4219
810.166	4211
810.308	4227
810.45	4207
810.591	4257
810.733	4280
810.875	4542
811.016	4831
811.158	5197
811.299	5280
811.441	5280
811.582	5079
811.724	4664
811.865	4504
812.007	4474
812.148	4455
812.29	4409
812.431	4413
812.573	4390
812.714	4398
812.855	4402
812.997	4413
813.138	4493
813.279	4409
813.421	4383
813.562	4344
813.703	4341
813.845	4341
813.986	4204
814.127	4242
814.268	4257
814.41	4272
814.551	4257
814.692	4371
814.833	4223
814.974	4341
815.115	4333
815.256	4249
815.397	4257
815.539	4272
815.68	4207
815.821	4219
815.962	4337
816.103	4268
816.244	4276
816.385	4230
816.526	4291
816.666	4185
816.807	4131
816.948	4188
817.089	4150
817.23	4150
817.371	4120
817.512	4078
817.653	4090
817.793	4017
817.934	4040
818.075	4131
818.216	4128
818.356	4105
818.497	4029
818.638	3945
818.778	3945
818.919	3899
819.06	3907
819.2	3922
819.341	3873
819.481	3835
819.622	3926
819.762	4025
819.903	3972
820.043	3903
820.184	3861
820.324	3835
820.465	3873
820.605	3880
820.746	3861
820.886	3774
821.026	3972
821.167	3911
821.307	3972
821.447	4055
821.588	3998
821.728	3930
821.868	3915
822.008	3915
822.149	3968
822.289	3922
822.429	3816
822.569	3774
822.709	3835
822.849	3713
822.99	3728
823.13	3778
823.27	3812
823.41	3762
823.55	3747
823.69	3770
823.83	3755
823.97	3709
824.11	3614
824.25	3610
824.389	3618
824.529	3682
824.669	3633
824.809	3785
824.949	3804
825.089	3743
825.228	3743
825.368	3553
825.508	3580
825.648	3603
825.787	3633
825.927	3663
826.067	3644
826.206	3701
826.346	3800
826.485	3861
826.625	3869
826.765	3949
826.904	3907
827.044	3656
827.183	3580
827.323	3481
827.462	3515
827.601	3458
827.741	3431
827.88	3454
828.02	3363
828.159	3481
828.298	3488
828.437	3591
828.577	3519
828.716	3622
828.855	3492
828.994	3431
829.134	3382
829.273	3405
829.412	3340
829.551	3344
829.69	3378
829.829	3397
829.968	3519
830.107	3466
830.246	3485
830.385	3374
830.524	3370
830.663	3336
830.802	3317
830.941	3253
831.08	3218
831.219	3264
831.357	3294
831.496	3386
831.635	3264
831.774	3188
831.913	3233
832.051	3142
832.19	3142
832.329	3226
832.467	3146
832.606	3180
832.744	3157
832.883	3199
833.022	3253
833.16	3256
833.299	3287
833.437	3363
833.576	3405
833.714	3393
833.852	3462
833.991	3428
834.129	3458
834.267	3481
834.406	3401
834.544	3462
834.682	3428
834.821	3389
834.959	3564
835.097	3420
835.235	3511
835.373	3504
835.511	3511
835.65	3428
835.788	3538
835.926	3405
836.064	3409
836.202	3428
836.34	3587
836.478	3603
836.615	3545
836.753	3618
836.891	3675
837.029	3625
837.167	3625
837.305	3580
837.443	3568
837.58	3504
837.718	3633
837.856	3610
837.993	3561
838.131	3614
838.269	3610
838.406	3603
838.544	3591
838.681	3523
838.819	3447
838.956	3405
839.094	3416
839.231	3450
839.369	3519
839.506	3778
839.643	3618
839.781	3523
839.918	3481
840.055	3542
840.193	3557
840.33	3553
840.467	3587
840.604	3637
840.742	3857
840.879	3557
841.016	3530
841.153	3629
841.29	3774
841.427	3705
841.564	3717
841.701	3743
841.838	3698
841.975	3743
842.112	3732
842.249	3625
842.385	3610
842.522	3846
842.659	3667
842.796	3709
842.933	3736
843.069	3743
843.206	3736
843.343	3778
843.479	3819
843.616	3835
843.752	3679
843.889	3705
844.025	3861
844.162	3732
844.298	3884
844.435	3800
844.571	3800
844.708	3964
844.844	4002
844.98	4021
845.117	3991
845.253	3915
845.389	3922
845.525	3941
845.661	4013
845.798	3941
845.934	4010
846.07	3956
846.206	4071
846.342	4150
846.478	4097
846.614	4017
846.75	3979
846.886	3930
847.022	4044
847.158	4010
847.294	4032
847.429	4013
847.565	4025
847.701	4352
847.837	3915
847.972	3876
848.108	4029
848.244	3991
848.379	3846
848.515	3892
848.65	3888
848.786	3850
848.921	3888
849.057	3983
849.192	3937
849.328	3911
849.463	3930
849.598	3903
849.734	3892
849.869	3865
850.004	3816
850.14	3838
850.275	3785
850.41	3785
850.545	3789
850.68	3804
850.815	3831
850.95	3812
851.085	3964
851.22	3911
851.355	3899
851.49	3797
851.625	3823
851.76	3797
851.895	3755
852.03	3774
852.165	3800
852.299	3854
852.434	3915
852.569	3880
852.703	3861
852.838	3941
852.973	4002
853.107	4025
853.242	3903
853.376	3854
853.511	3797
853.645	3838
853.78	4017
853.914	3937
854.048	3922
854.183	3907
854.317	3960
854.451	4082
854.585	4002
854.72	3930
854.854	4101
854.988	3987
855.122	4010
855.256	3918
855.39	4116
855.524	4093
855.658	4078
855.792	4093
855.926	4097
856.06	4196
856.194	4215
856.327	4158
856.461	4139
856.595	4200
856.729	4150
856.862	4303
856.996	4234
857.13	4314
857.263	4322
857.397	4363
857.53	4329
857.664	4379
857.797	4443
857.931	4440
858.064	4394
858.197	4417
858.331	4398
858.464	4383
858.597	4356
858.731	4424
858.864	4470
858.997	4417
859.13	4489
859.263	4580
859.396	4588
859.529	4603
859.662	4569
859.795	4569
859.928	4603
860.061	4694
860.194	4733
860.327	4729
860.46	4637
860.592	4790
860.725	4801
860.858	4763
860.99	4668
861.123	4714
861.256	4668
861.388	4774
861.521	5551
861.653	4755
861.786	4725
861.918	4771
862.05	4835
862.183	4858
862.315	4873
862.447	4870
862.58	4923
862.712	4820
862.844	4752
862.976	4911
863.108	4892
863.24	5273
863.372	4824
863.504	4965
863.636	4915
863.768	4999
863.9	4968
864.032	4927
864.164	4991
864.296	5083
864.428	5102
864.559	5083
864.691	5121
864.823	5117
864.954	5090
865.086	5136
865.217	5117
865.349	5143
865.48	5185
865.612	5201
865.743	5318
865.875	5231
866.006	5170
866.137	5258
866.269	5258
866.4	5299
866.531	5212
866.662	5265
866.793	5299
866.924	5322
867.055	5349
867.186	5326
867.317	5341
867.448	5307
867.579	5429
867.71	5379
867.841	5452
867.972	5436
868.103	5490
868.233	5482
868.364	5539
868.495	5608
868.625	5661
868.756	5790
868.886	5733
869.017	5798
869.147	5931
869.278	5866
869.408	5866
869.539	5859
869.669	5912
869.799	5893
869.929	5912
870.06	6068
870.19	6209
870.32	6213
870.45	6346
870.58	6350
870.71	6441
870.84	6448
870.97	6445
871.1	6448
871.23	6593
871.36	6745
871.489	6703
871.619	6703
871.749	6821
871.879	6871
872.008	7008
872.138	6989
872.267	7023
872.397	6993
872.526	7057
872.656	7137
872.785	7228
872.915	7373
873.044	7533
873.173	7552
873.303	7681
873.432	7792
873.561	7875
873.69	7913
873.819	8031
873.948	8187
874.077	8252
874.206	8324
874.335	8434
874.464	8670
874.593	8819
874.722	8986
874.851	9100
874.979	9218
875.108	9408
875.237	9405
875.365	9545
875.494	9667
875.623	9888
875.751	9915
875.88	9991
876.008	10158
876.136	10310
876.265	10531
876.393	10675
876.521	10778
876.65	10873
876.778	10877
876.906	10930
877.034	11025
877.162	11060
877.29	11197
877.418	11254
877.546	11391
877.674	11524
877.802	11364
877.93	11589
878.058	11547
878.185	11554
878.313	11661
878.441	11767
878.568	11646
878.696	11824
878.824	11805
878.951	11923
879.079	12110
879.206	12159
879.333	12049
879.461	11980
879.588	12095
879.715	12079
879.842	12148
879.97	12076
880.097	11866
880.224	11923
880.351	11821
880.478	11847
880.605	11824
880.732	11863
880.859	12060
880.986	11870
881.112	11866
881.239	11798
881.366	11608
881.493	11733
881.619	11589
881.746	11680
881.872	11600
881.999	11554
882.125	11452
882.252	11570
882.378	11551
882.505	11512
882.631	11368
882.757	11353
882.883	11261
883.01	11269
883.136	11204
883.262	11109
883.388	11052
883.514	11174
883.64	11204
883.766	11102
883.892	11003
884.018	10968
884.143	11018
884.269	11174
884.395	10927
884.52	10847
884.646	10854
884.772	10748
884.897	10634
885.023	10615
885.148	10691
885.274	10755
885.399	10637
885.524	10611
885.65	10584
885.775	10565
885.9	10535
886.025	10535
886.15	10527
886.275	10474
886.4	10386
886.525	10360
886.65	10379
886.775	10409
886.9	10523
887.025	10546
887.149	10367
887.274	10261
887.399	10246
887.523	10177
887.648	10135
887.773	10147
887.897	10257
888.021	10314
888.146	10086
888.27	10295
888.395	10204
888.519	10230
888.643	10192
888.767	10154
888.891	10173
889.015	9991
889.139	10059
889.263	9987
889.387	10055
889.511	10055
889.635	9991
889.759	10044
889.883	10006
890.006	10055
890.13	10135
890.254	9979
890.377	10048
890.501	9838
890.624	9903
890.748	9884
890.871	9762
890.995	9781
891.118	9740
891.241	9812
891.364	9785
891.488	9907
891.611	9778
891.734	9751
891.857	9823
891.98	9720
892.103	9819
892.226	9740
892.349	9747
892.471	9523
892.594	9587
892.717	9618
892.839	9610
892.962	9561
893.085	9694
893.207	9606
893.33	9496
893.452	9561
893.575	9698
893.697	9466
893.819	9553
893.941	9675
894.064	9595
894.186	9408
894.308	9450
894.43	9584
894.552	9549
894.674	9557
894.796	9351
894.918	9397
895.04	9389
895.161	9405
895.283	9378
895.405	9230
895.526	9241
895.648	9325
895.769	9184
895.891	9294
896.012	9344
896.134	9176
896.255	9222
896.376	9112
896.498	9184
896.619	9154
896.74	9104
896.861	9142
896.982	9264
897.103	9336
897.224	9237
897.345	9146
897.466	9062
897.587	9043
897.708	9100
897.828	9039
897.949	9020
898.07	8849
898.19	8944
898.311	9066
898.431	8982
898.552	8944
898.672	8967
898.792	8990
898.913	8960
899.033	8804
899.153	8781
899.273	8613
899.393	8769
899.513	8750
899.633	8739
899.753	8746
899.873	8697
899.993	8716
900.113	8750
900.232	8705
900.352	8655
900.472	8606
900.591	8651
900.711	8560
900.83	8549
900.95	8640
901.069	8697
901.189	8632
901.308	8396
901.427	8427
901.546	8423
901.665	8454
901.784	8545
901.904	8404
902.023	8419
902.141	8168
902.26	8244
902.379	8237
902.498	8187
902.617	8199
902.735	8267
902.854	8320
902.973	8313
903.091	8130
903.21	8176
903.328	8157
903.446	8195
903.565	8081
903.683	8077
903.801	8073
903.919	8115
904.038	8103
904.156	8054
904.274	8126
904.392	8043
904.51	8031
904.627	8062
904.745	8111
904.863	8077
904.981	7959
905.098	7860
905.216	7852
905.334	7936
905.451	7883
905.569	7928
905.686	7955
905.803	7928
905.921	7746
906.038	7826
906.155	7875
906.272	7753
906.389	7738
906.506	7620
906.623	7647
906.74	7559
906.857	7540
906.974	7662
907.091	7632
907.208	7746
907.324	7594
907.441	7616
907.557	7438
907.674	7453
907.79	7377
907.907	7449
908.023	7457
908.139	7472
908.256	7419
908.372	7369
908.488	7365
908.604	7289
908.72	7255
908.836	7285
908.952	7251
909.068	7232
909.184	7320
909.3	7289
909.415	7327
909.531	7259
909.647	7141
909.762	7099
909.878	7114
909.993	7171
910.108	7206
910.224	7088
910.339	7099
910.454	7031
910.57	7019
910.685	6966
910.8	7122
910.915	7126
911.03	7012
911.145	6905
911.259	6886
911.374	6890
911.489	6814
911.604	6768
911.718	6749
911.833	6753
911.947	6734
912.062	6593
912.176	6707
912.291	6726
912.405	6684
912.519	6875
912.633	6939
912.748	6772
912.862	6692
912.976	6639
913.09	6593
913.204	6642
913.318	6654
913.431	6688
913.545	6703
913.659	6760
913.772	6631
913.886	6589
914	6597
914.113	6631
914.226	6589
914.34	6589
914.453	6513
914.566	6608
914.68	6506
914.793	6570
914.906	6502
915.019	6429
915.132	6407
915.245	6437
915.358	6407
915.47	6486
915.583	6460
915.696	6429
915.809	6593
915.921	6585
916.034	6540
916.146	6448
916.259	6429
916.371	6502
916.483	6445
916.595	6372
916.708	6422
916.82	6395
916.932	6426
917.044	6395
917.156	6414
917.268	6289
917.38	6311
917.491	6380
917.603	6331
917.715	6426
917.826	6422
917.938	6353
918.049	6292
918.161	6395
918.272	6464
918.384	6452
918.495	6323
918.606	6311
918.717	6235
918.828	6308
918.939	6315
919.05	6228
919.161	6338
919.272	6152
919.383	6178
919.494	6319
919.604	6433
919.715	6319
919.826	6216
919.936	6254
920.047	6327
920.157	6308
920.267	6555
920.378	6304
920.488	6254
920.598	6464
920.708	6528
920.818	6494
920.928	6479
921.038	6646
921.148	6555
921.258	6338
921.368	6350
921.477	6216
921.587	6213
921.697	6140
921.806	6224
921.916	6064
922.025	5977
922.134	5931
922.244	5942
922.353	5977
922.462	5828
922.571	5821
922.68	5737
922.789	5649
922.898	5737
923.007	5634
923.116	5714
923.224	5676
923.333	5676
923.442	5619
923.55	5608
923.659	5642
923.767	5627
923.876	5535
923.984	5649
924.092	5486
924.201	5589
924.309	5570
924.417	5532
924.525	5505
924.633	5547
924.741	6285
924.849	5379
924.956	5509
925.064	5410
925.172	5315
925.279	5383
925.387	5391
925.494	5357
925.602	5459
925.709	5379
925.816	5315
925.924	5273
926.031	5402
926.138	5349
926.245	5357
926.352	5189
926.459	5334
926.566	5299
926.673	5250
926.779	5235
926.886	5151
926.993	5067
927.099	5018
927.206	5022
927.312	4892
927.419	5029
927.525	4987
927.631	4965
927.737	4896
927.843	4892
927.95	4763
928.056	4790
928.162	4896
928.267	4889
928.373	5345
928.479	4854
928.585	4710
928.69	4786
928.796	4809
928.901	4729
929.007	4577
929.112	4706
929.218	4664
929.323	4611
929.428	4561
929.533	4672
929.638	4523
929.743	4596
929.848	4569
929.953	4538
930.058	4436
930.163	4360
930.267	4348
930.372	4443
930.477	4284
930.581	4500
930.685	4394
930.79	4272
930.894	4299
930.998	4310
931.103	4375
931.207	4139
931.311	4097
931.415	4078
931.519	3956
931.623	3956
