Data from glass_V78500241_203.txt Node
Date: Wed Sep 01 19:15:54 CST 2021
User: usil
Spectrometer: V785-0024
Trigger mode: 0
Integration Time (sec): 4.000000E-1
Scans to average: 1
Nonlinearity correction enabled: false
Boxcar width: 0
Storing dark spectrum: false
XAxis mode: Wavelengths
Number of Pixels in Spectrum: 1024
>>>>>Begin Spectral Data<<<<<
801.071	3747
801.214	3793
801.356	3743
801.499	3781
801.641	3728
801.783	3770
801.926	3896
802.068	3884
802.211	3865
802.353	3918
802.496	3846
802.638	3896
802.78	3930
802.923	3953
803.065	3926
803.208	3876
803.35	3911
803.492	3907
803.635	3899
803.777	3812
803.919	3918
804.061	4158
804.204	3956
804.346	3949
804.488	3941
804.63	4048
804.773	4002
804.915	4036
805.057	4143
805.199	4051
805.341	4120
805.483	4188
805.626	4143
805.768	4139
805.91	4238
806.052	4249
806.194	4223
806.336	4348
806.478	4257
806.62	4169
806.762	4215
806.904	4246
807.046	4421
807.188	4265
807.33	4158
807.472	4249
807.614	4207
807.756	4284
807.898	4280
808.04	4242
808.182	4337
808.324	4276
808.465	4356
808.607	4493
808.749	4462
808.891	4470
809.033	4573
809.174	4390
809.316	4261
809.458	4268
809.6	4173
809.741	4128
809.883	4173
810.025	4268
810.166	4249
810.308	4211
810.45	4253
810.591	4291
810.733	4363
810.875	4538
811.016	4801
811.158	5105
811.299	5288
811.441	5261
811.582	5083
811.724	4706
811.865	4440
812.007	4527
812.148	4451
812.29	4447
812.431	4443
812.573	4390
812.714	4394
812.855	4424
812.997	4493
813.138	4500
813.279	4413
813.421	4421
813.562	4459
813.703	4390
813.845	4337
813.986	4268
814.127	4291
814.268	4261
814.41	4276
814.551	4272
814.692	4284
814.833	4249
814.974	4341
815.115	4333
815.256	4234
815.397	4242
815.539	4276
815.68	4169
815.821	4219
815.962	4356
816.103	4303
816.244	4272
816.385	4287
816.526	4295
816.666	4238
816.807	4128
816.948	4200
817.089	4162
817.23	4131
817.371	4078
817.512	4040
817.653	4063
817.793	4051
817.934	4074
818.075	4078
818.216	4112
818.356	4078
818.497	4002
818.638	3926
818.778	3918
818.919	3956
819.06	3899
819.2	3956
819.341	3880
819.481	3861
819.622	3968
819.762	4010
819.903	3972
820.043	3888
820.184	3854
820.324	3850
820.465	3896
820.605	3892
820.746	3873
820.886	3804
821.026	3941
821.167	3918
821.307	4002
821.447	3956
821.588	4010
821.728	3945
821.868	3945
822.008	3930
822.149	3934
822.289	3956
822.429	3793
822.569	3778
822.709	3819
822.849	3720
822.99	3701
823.13	3770
823.27	3800
823.41	3724
823.55	3762
823.69	3747
823.83	3732
823.97	3663
824.11	3625
824.25	3633
824.389	3652
824.529	3667
824.669	3686
824.809	3709
824.949	3743
825.089	3736
825.228	3698
825.368	3584
825.508	3572
825.648	3584
825.787	3656
825.927	3614
826.067	3660
826.206	3705
826.346	3812
826.485	3846
826.625	3915
826.765	3964
826.904	3835
827.044	3610
827.183	3549
827.323	3416
827.462	3515
827.601	3458
827.741	3428
827.88	3488
828.02	3359
828.159	3477
828.298	3526
828.437	3542
828.577	3466
828.716	3637
828.855	3515
828.994	3397
829.134	3363
829.273	3428
829.412	3370
829.551	3321
829.69	3351
829.829	3428
829.968	3523
830.107	3443
830.246	3492
830.385	3374
830.524	3359
830.663	3310
830.802	3245
830.941	3188
831.08	3222
831.219	3283
831.357	3279
831.496	3454
831.635	3272
831.774	3192
831.913	3222
832.051	3142
832.19	3150
832.329	3222
832.467	3169
832.606	3116
832.744	3214
832.883	3214
833.022	3226
833.16	3294
833.299	3302
833.437	3344
833.576	3401
833.714	3443
833.852	3477
833.991	3507
834.129	3515
834.267	3466
834.406	3431
834.544	3424
834.682	3477
834.821	3374
834.959	3580
835.097	3409
835.235	3530
835.373	3526
835.511	3473
835.65	3519
835.788	3515
835.926	3401
836.064	3424
836.202	3462
836.34	3587
836.478	3625
836.615	3599
836.753	3587
836.891	3660
837.029	3606
837.167	3595
837.305	3534
837.443	3576
837.58	3538
837.718	3656
837.856	3595
837.993	3580
838.131	3629
838.269	3603
838.406	3584
838.544	3576
838.681	3485
838.819	3450
838.956	3367
839.094	3420
839.231	3450
839.369	3557
839.506	3740
839.643	3652
839.781	3523
839.918	3466
840.055	3534
840.193	3534
840.33	3561
840.467	3587
840.604	3568
840.742	3804
840.879	3542
841.016	3557
841.153	3591
841.29	3743
841.427	3766
841.564	3720
841.701	3793
841.838	3751
841.975	3736
842.112	3728
842.249	3660
842.385	3660
842.522	3819
842.659	3724
842.796	3679
842.933	3728
843.069	3686
843.206	3747
843.343	3804
843.479	3736
843.616	3835
843.752	3705
843.889	3713
844.025	3850
844.162	3709
844.298	3903
844.435	3823
844.571	3804
844.708	3918
844.844	3994
844.98	4021
845.117	4013
845.253	3956
845.389	3937
845.525	3991
845.661	4002
845.798	3956
845.934	4055
846.07	3972
846.206	4078
846.342	4147
846.478	4036
846.614	3949
846.75	3945
846.886	3884
847.022	4029
847.158	3968
847.294	4025
847.429	4071
847.565	3983
847.701	4261
847.837	3892
847.972	3922
848.108	4021
848.244	3979
848.379	3892
848.515	3865
848.65	3854
848.786	3880
848.921	3930
849.057	3998
849.192	3937
849.328	3892
849.463	3945
849.598	3922
849.734	3880
849.869	3869
850.004	3800
850.14	3823
850.275	3789
850.41	3766
850.545	3770
850.68	3800
850.815	3827
850.95	3819
851.085	3941
851.22	3896
851.355	3823
851.49	3835
851.625	3831
851.76	3823
851.895	3755
852.03	3778
852.165	3789
852.299	3873
852.434	3907
852.569	3869
852.703	3960
852.838	3960
852.973	3964
853.107	4013
853.242	3922
853.376	3846
853.511	3823
853.645	3854
853.78	3953
853.914	3956
854.048	3911
854.183	3888
854.317	3983
854.451	4131
854.585	3975
854.72	3998
854.854	4086
854.988	3926
855.122	4067
855.256	3899
855.39	4082
855.524	4143
855.658	4101
855.792	4147
855.926	4143
856.06	4173
856.194	4246
856.327	4154
856.461	4173
856.595	4177
856.729	4185
856.862	4268
856.996	4272
857.13	4329
857.263	4363
857.397	4379
857.53	4314
857.664	4371
857.797	4375
857.931	4462
858.064	4386
858.197	4478
858.331	4436
858.464	4390
858.597	4371
858.731	4436
858.864	4462
858.997	4436
859.13	4519
859.263	4527
859.396	4550
859.529	4558
859.662	4538
859.795	4542
859.928	4645
860.061	4698
860.194	4729
860.327	4691
860.46	4683
860.592	4744
860.725	4763
860.858	4778
860.99	4679
861.123	4702
861.256	4729
861.388	4786
861.521	5368
861.653	4733
861.786	4748
861.918	4748
862.05	4850
862.183	4889
862.315	4896
862.447	4980
862.58	4900
862.712	4858
862.844	4786
862.976	4915
863.108	4866
863.24	5197
863.372	4850
863.504	4911
863.636	4927
863.768	4991
863.9	4949
864.032	4946
864.164	4995
864.296	5006
864.428	5124
864.559	5151
864.691	5132
864.823	5151
864.954	5128
865.086	5113
865.217	5083
865.349	5102
865.48	5166
865.612	5223
865.743	5277
865.875	5235
866.006	5212
866.137	5311
866.269	5227
866.4	5231
866.531	5258
866.662	5250
866.793	5284
866.924	5296
867.055	5315
867.186	5334
867.317	5387
867.448	5357
867.579	5387
867.71	5376
867.841	5391
867.972	5558
868.103	5509
868.233	5524
868.364	5520
868.495	5585
868.625	5684
868.756	5798
868.886	5688
869.017	5726
869.147	5840
869.278	5901
869.408	5824
869.539	5813
869.669	5946
869.799	5912
869.929	5980
870.06	6030
870.19	6140
870.32	6190
870.45	6334
870.58	6380
870.71	6418
870.84	6513
870.97	6418
871.1	6464
871.23	6673
871.36	6719
871.489	6684
871.619	6745
871.749	6837
871.879	6886
872.008	7008
872.138	6973
872.267	6996
872.397	6951
872.526	7088
872.656	7065
872.785	7221
872.915	7377
873.044	7537
873.173	7597
873.303	7704
873.432	7700
873.561	7879
873.69	7978
873.819	7982
873.948	8164
874.077	8191
874.206	8320
874.335	8438
874.464	8693
874.593	8834
874.722	8956
874.851	9089
874.979	9218
875.108	9378
875.237	9412
875.365	9542
875.494	9717
875.623	9934
875.751	9812
875.88	10013
876.008	10124
876.136	10344
876.265	10569
876.393	10668
876.521	10714
876.65	10843
876.778	10908
876.906	10877
877.034	11022
877.162	11094
877.29	11189
877.418	11265
877.546	11353
877.674	11448
877.802	11497
877.93	11600
878.058	11573
878.185	11630
878.313	11619
878.441	11783
878.568	11649
878.696	11824
878.824	11889
878.951	12057
879.079	12076
879.206	12129
879.333	11988
879.461	11942
879.588	12068
879.715	11999
879.842	12197
879.97	12041
880.097	11889
880.224	11882
880.351	11912
880.478	11939
880.605	11923
880.732	11870
880.859	12003
880.986	11855
881.112	11832
881.239	11775
881.366	11608
881.493	11551
881.619	11501
881.746	11516
881.872	11551
881.999	11448
882.125	11478
882.252	11562
882.378	11551
882.505	11490
882.631	11318
882.757	11322
882.883	11356
883.01	11189
883.136	11117
883.262	11201
883.388	11075
883.514	11155
883.64	11083
883.766	11064
883.892	10999
884.018	11022
884.143	11094
884.269	11193
884.395	10805
884.52	10786
884.646	10812
884.772	10710
884.897	10725
885.023	10611
885.148	10869
885.274	10786
885.399	10740
885.524	10561
885.65	10569
885.775	10641
885.9	10573
886.025	10615
886.15	10527
886.275	10459
886.4	10382
886.525	10325
886.65	10344
886.775	10356
886.9	10451
887.025	10550
887.149	10405
887.274	10265
887.399	10177
887.523	10173
887.648	10120
887.773	10093
887.897	10230
888.021	10272
888.146	10185
888.27	10276
888.395	10207
888.519	10272
888.643	10215
888.767	10234
888.891	10150
889.015	10048
889.139	10063
889.263	9991
889.387	10143
889.511	10150
889.635	10116
889.759	10017
889.883	9983
890.006	10013
890.13	10128
890.254	9953
890.377	9956
890.501	9892
890.624	9838
890.748	10017
890.871	9804
890.995	9755
891.118	9701
891.241	9770
891.364	9709
891.488	9827
891.611	9747
891.734	9774
891.857	9770
891.98	9774
892.103	9774
892.226	9679
892.349	9637
892.471	9511
892.594	9580
892.717	9682
892.839	9625
892.962	9580
893.085	9713
893.207	9599
893.33	9538
893.452	9504
893.575	9572
893.697	9553
893.819	9660
893.941	9686
894.064	9618
894.186	9519
894.308	9420
894.43	9572
894.552	9663
894.674	9496
894.796	9340
894.918	9370
895.04	9313
895.161	9431
895.283	9351
895.405	9287
895.526	9237
895.648	9310
895.769	9260
895.891	9233
896.012	9272
896.134	9203
896.255	9131
896.376	9108
896.498	9119
896.619	9180
896.74	9131
896.861	9142
896.982	9332
897.103	9378
897.224	9192
897.345	9028
897.466	9032
897.587	9058
897.708	9085
897.828	9017
897.949	8944
898.07	8785
898.19	8921
898.311	8979
898.431	8918
898.552	8937
898.672	8849
898.792	8937
898.913	8921
899.033	8864
899.153	8735
899.273	8697
899.393	8697
899.513	8788
899.633	8720
899.753	8746
899.873	8655
899.993	8758
900.113	8781
900.232	8659
900.352	8659
900.472	8541
900.591	8541
900.711	8575
900.83	8644
900.95	8640
901.069	8743
901.189	8552
901.308	8495
901.427	8434
901.546	8431
901.665	8442
901.784	8492
901.904	8396
902.023	8374
902.141	8267
902.26	8180
902.379	8267
902.498	8225
902.617	8214
902.735	8309
902.854	8259
902.973	8309
903.091	8195
903.21	8058
903.328	8172
903.446	8134
903.565	8138
903.683	8168
903.801	8100
903.919	8096
904.038	8206
904.156	8103
904.274	8119
904.392	7993
904.51	8062
904.627	8039
904.745	8043
904.863	8092
904.981	7940
905.098	7883
905.216	7856
905.334	7955
905.451	7890
905.569	7894
905.686	7913
905.803	7936
905.921	7822
906.038	7875
906.155	7803
906.272	7753
906.389	7799
906.506	7651
906.623	7693
906.74	7575
906.857	7540
906.974	7620
907.091	7674
907.208	7780
907.324	7677
907.441	7582
907.557	7521
907.674	7476
907.79	7381
907.907	7373
908.023	7438
908.139	7457
908.256	7407
908.372	7445
908.488	7411
908.604	7316
908.72	7297
908.836	7312
908.952	7278
909.068	7247
909.184	7327
909.3	7228
909.415	7293
909.531	7263
909.647	7129
909.762	7057
909.878	7072
909.993	7145
910.108	7114
910.224	7156
910.339	7099
910.454	7072
910.57	6951
910.685	6890
910.8	7221
910.915	7129
911.03	7023
911.145	6977
911.259	6897
911.374	6916
911.489	6867
911.604	6844
911.718	6715
911.833	6753
911.947	6692
912.062	6665
912.176	6692
912.291	6783
912.405	6741
912.519	6844
912.633	6882
912.748	6753
912.862	6734
912.976	6604
913.09	6544
913.204	6608
913.318	6620
913.431	6711
913.545	6673
913.659	6681
913.772	6688
913.886	6601
914	6509
914.113	6627
914.226	6669
914.34	6654
914.453	6464
914.566	6616
914.68	6494
914.793	6544
914.906	6441
915.019	6452
915.132	6410
915.245	6460
915.358	6452
915.47	6456
915.583	6479
915.696	6445
915.809	6566
915.921	6521
916.034	6456
916.146	6418
916.259	6376
916.371	6490
916.483	6422
916.595	6346
916.708	6395
916.82	6414
916.932	6403
917.044	6433
917.156	6350
917.268	6384
917.38	6273
917.491	6350
917.603	6353
917.715	6410
917.826	6448
917.938	6380
918.049	6296
918.161	6418
918.272	6467
918.384	6414
918.495	6323
918.606	6228
918.717	6205
918.828	6311
918.939	6350
919.05	6205
919.161	6281
919.272	6171
919.383	6110
919.494	6270
919.604	6479
919.715	6311
919.826	6235
919.936	6289
920.047	6289
920.157	6357
920.267	6471
920.378	6311
920.488	6266
920.598	6471
920.708	6570
920.818	6456
920.928	6433
921.038	6604
921.148	6563
921.258	6391
921.368	6323
921.477	6247
921.587	6163
921.697	6121
921.806	6209
921.916	6091
922.025	5965
922.134	5977
922.244	5939
922.353	5969
922.462	5878
922.571	5798
922.68	5703
922.789	5676
922.898	5729
923.007	5672
923.116	5748
923.224	5688
923.333	5699
923.442	5611
923.55	5551
923.659	5589
923.767	5623
923.876	5547
923.984	5634
924.092	5566
924.201	5558
924.309	5562
924.417	5558
924.525	5474
924.633	5516
924.741	6155
924.849	5360
924.956	5509
925.064	5429
925.172	5349
925.279	5353
925.387	5341
925.494	5376
925.602	5417
925.709	5318
925.816	5303
925.924	5322
926.031	5357
926.138	5383
926.245	5341
926.352	5269
926.459	5357
926.566	5379
926.673	5235
926.779	5105
926.886	5117
926.993	5105
927.099	5037
927.206	5003
927.312	5003
927.419	5033
927.525	5037
927.631	4995
927.737	4896
927.843	4885
927.95	4759
928.056	4824
928.162	4854
928.267	4889
928.373	5299
928.479	4938
928.585	4714
928.69	4740
928.796	4801
928.901	4664
929.007	4641
929.112	4683
929.218	4622
929.323	4626
929.428	4577
929.533	4645
929.638	4558
929.743	4592
929.848	4504
929.953	4523
930.058	4421
930.163	4390
930.267	4325
930.372	4504
930.477	4272
930.581	4443
930.685	4375
930.79	4261
930.894	4318
930.998	4318
931.103	4398
931.207	4150
931.311	4139
931.415	4036
931.519	3937
931.623	3979
