Data from glass_V78500241_2590.txt Node
Date: Wed Sep 01 19:32:27 CST 2021
User: usil
Spectrometer: V785-0024
Trigger mode: 0
Integration Time (sec): 4.000000E-1
Scans to average: 1
Nonlinearity correction enabled: false
Boxcar width: 0
Storing dark spectrum: false
XAxis mode: Wavelengths
Number of Pixels in Spectrum: 1024
>>>>>Begin Spectral Data<<<<<
801.071	3743
801.214	3762
801.356	3709
801.499	3736
801.641	3766
801.783	3732
801.926	3888
802.068	3846
802.211	3861
802.353	3865
802.496	3838
802.638	3816
802.78	3922
802.923	3876
803.065	3892
803.208	3857
803.35	3835
803.492	3899
803.635	3911
803.777	3812
803.919	3903
804.061	4116
804.204	3956
804.346	3983
804.488	3888
804.63	4044
804.773	3975
804.915	3998
805.057	4105
805.199	4025
805.341	4086
805.483	4116
805.626	4090
805.768	4093
805.91	4166
806.052	4177
806.194	4154
806.336	4352
806.478	4173
806.62	4177
806.762	4173
806.904	4230
807.046	4356
807.188	4230
807.33	4150
807.472	4219
807.614	4173
807.756	4257
807.898	4192
808.04	4188
808.182	4303
808.324	4318
808.465	4363
808.607	4474
808.749	4409
808.891	4436
809.033	4462
809.174	4390
809.316	4196
809.458	4181
809.6	4135
809.741	4143
809.883	4101
810.025	4196
810.166	4211
810.308	4204
810.45	4253
810.591	4188
810.733	4261
810.875	4485
811.016	4824
811.158	5121
811.299	5258
811.441	5284
811.582	5071
811.724	4755
811.865	4440
812.007	4417
812.148	4443
812.29	4394
812.431	4405
812.573	4371
812.714	4344
812.855	4394
812.997	4417
813.138	4451
813.279	4413
813.421	4371
813.562	4394
813.703	4344
813.845	4303
813.986	4253
814.127	4204
814.268	4276
814.41	4291
814.551	4272
814.692	4341
814.833	4249
814.974	4242
815.115	4318
815.256	4280
815.397	4257
815.539	4276
815.68	4219
815.821	4211
815.962	4344
816.103	4318
816.244	4284
816.385	4192
816.526	4219
816.666	4173
816.807	4109
816.948	4188
817.089	4143
817.23	4109
817.371	4074
817.512	4017
817.653	4063
817.793	4055
817.934	4029
818.075	4090
818.216	4063
818.356	4082
818.497	4013
818.638	3899
818.778	3896
818.919	3888
819.06	3888
819.2	3918
819.341	3876
819.481	3816
819.622	3922
819.762	4021
819.903	3915
820.043	3831
820.184	3831
820.324	3770
820.465	3884
820.605	3850
820.746	3827
820.886	3804
821.026	3934
821.167	3896
821.307	4010
821.447	3991
821.588	3956
821.728	3937
821.868	3873
822.008	3804
822.149	3907
822.289	3907
822.429	3793
822.569	3743
822.709	3793
822.849	3728
822.99	3724
823.13	3740
823.27	3682
823.41	3724
823.55	3728
823.69	3701
823.83	3717
823.97	3652
824.11	3618
824.25	3625
824.389	3679
824.529	3660
824.669	3648
824.809	3686
824.949	3732
825.089	3682
825.228	3686
825.368	3610
825.508	3603
825.648	3603
825.787	3595
825.927	3618
826.067	3603
826.206	3637
826.346	3797
826.485	3850
826.625	3854
826.765	3941
826.904	3831
827.044	3633
827.183	3526
827.323	3431
827.462	3492
827.601	3439
827.741	3409
827.88	3458
828.02	3351
828.159	3401
828.298	3469
828.437	3481
828.577	3492
828.716	3568
828.855	3500
828.994	3367
829.134	3359
829.273	3397
829.412	3332
829.551	3344
829.69	3351
829.829	3416
829.968	3488
830.107	3431
830.246	3412
830.385	3367
830.524	3298
830.663	3279
830.802	3230
830.941	3138
831.08	3169
831.219	3256
831.357	3268
831.496	3397
831.635	3188
831.774	3188
831.913	3233
832.051	3077
832.19	3127
832.329	3203
832.467	3161
832.606	3097
832.744	3173
832.883	3199
833.022	3146
833.16	3237
833.299	3275
833.437	3291
833.576	3336
833.714	3378
833.852	3431
833.991	3435
834.129	3485
834.267	3412
834.406	3401
834.544	3405
834.682	3397
834.821	3363
834.959	3553
835.097	3420
835.235	3530
835.373	3443
835.511	3447
835.65	3435
835.788	3485
835.926	3393
836.064	3378
836.202	3401
836.34	3530
836.478	3606
836.615	3545
836.753	3584
836.891	3625
837.029	3591
837.167	3564
837.305	3538
837.443	3526
837.58	3443
837.718	3553
837.856	3534
837.993	3458
838.131	3564
838.269	3595
838.406	3553
838.544	3561
838.681	3477
838.819	3462
838.956	3336
839.094	3370
839.231	3473
839.369	3488
839.506	3698
839.643	3629
839.781	3511
839.918	3469
840.055	3545
840.193	3519
840.33	3549
840.467	3500
840.604	3576
840.742	3781
840.879	3572
841.016	3526
841.153	3580
841.29	3762
841.427	3682
841.564	3686
841.701	3724
841.838	3682
841.975	3686
842.112	3694
842.249	3622
842.385	3610
842.522	3816
842.659	3694
842.796	3656
842.933	3690
843.069	3656
843.206	3682
843.343	3819
843.479	3720
843.616	3785
843.752	3679
843.889	3694
844.025	3873
844.162	3686
844.298	3838
844.435	3755
844.571	3789
844.708	3888
844.844	3968
844.98	4017
845.117	3998
845.253	3918
845.389	3922
845.525	3994
845.661	3953
845.798	3880
845.934	4029
846.07	3934
846.206	4029
846.342	4124
846.478	4067
846.614	3991
846.75	3930
846.886	3907
847.022	4044
847.158	3994
847.294	4044
847.429	4025
847.565	3956
847.701	4196
847.837	3865
847.972	3827
848.108	3975
848.244	3975
848.379	3850
848.515	3838
848.65	3800
848.786	3831
848.921	3888
849.057	3956
849.192	3949
849.328	3907
849.463	3896
849.598	3842
849.734	3842
849.869	3819
850.004	3774
850.14	3800
850.275	3759
850.41	3747
850.545	3766
850.68	3732
850.815	3732
850.95	3762
851.085	3949
851.22	3800
851.355	3819
851.49	3740
851.625	3823
851.76	3804
851.895	3736
852.03	3709
852.165	3831
852.299	3816
852.434	3899
852.569	3823
852.703	3907
852.838	3896
852.973	3991
853.107	4032
853.242	3831
853.376	3812
853.511	3740
853.645	3857
853.78	3960
853.914	3888
854.048	3854
854.183	3846
854.317	3937
854.451	4051
854.585	3922
854.72	3941
854.854	4048
854.988	3922
855.122	4006
855.256	3884
855.39	4029
855.524	4063
855.658	4048
855.792	4086
855.926	4059
856.06	4169
856.194	4219
856.327	4150
856.461	4112
856.595	4158
856.729	4128
856.862	4272
856.996	4276
857.13	4272
857.263	4322
857.397	4348
857.53	4287
857.664	4363
857.797	4413
857.931	4409
858.064	4363
858.197	4447
858.331	4394
858.464	4379
858.597	4306
858.731	4443
858.864	4413
858.997	4451
859.13	4500
859.263	4493
859.396	4531
859.529	4527
859.662	4546
859.795	4535
859.928	4565
860.061	4710
860.194	4683
860.327	4660
860.46	4653
860.592	4725
860.725	4767
860.858	4797
860.99	4694
861.123	4714
861.256	4710
861.388	4797
861.521	5349
861.653	4729
861.786	4744
861.918	4774
862.05	4790
862.183	4812
862.315	4854
862.447	4934
862.58	4889
862.712	4797
862.844	4774
862.976	4870
863.108	4824
863.24	5170
863.372	4858
863.504	4870
863.636	4877
863.768	4965
863.9	4965
864.032	4866
864.164	4953
864.296	5010
864.428	5094
864.559	5094
864.691	5143
864.823	5094
864.954	5071
865.086	5140
865.217	5189
865.349	5086
865.48	5151
865.612	5181
865.743	5288
865.875	5189
866.006	5181
866.137	5212
866.269	5235
866.4	5258
866.531	5231
866.662	5246
866.793	5269
866.924	5322
867.055	5269
867.186	5349
867.317	5334
867.448	5292
867.579	5357
867.71	5429
867.841	5368
867.972	5414
868.103	5459
868.233	5455
868.364	5512
868.495	5611
868.625	5630
868.756	5805
868.886	5615
869.017	5790
869.147	5805
869.278	5885
869.408	5779
869.539	5824
869.669	5908
869.799	5908
869.929	6022
870.06	6007
870.19	6197
870.32	6144
870.45	6182
870.58	6285
870.71	6376
870.84	6441
870.97	6441
871.1	6422
871.23	6642
871.36	6627
871.489	6616
871.619	6783
871.749	6779
871.879	6863
872.008	6989
872.138	6962
872.267	6973
872.397	6962
872.526	7038
872.656	7072
872.785	7240
872.915	7384
873.044	7540
873.173	7544
873.303	7628
873.432	7788
873.561	7849
873.69	7932
873.819	7974
873.948	8221
874.077	8240
874.206	8343
874.335	8374
874.464	8701
874.593	8861
874.722	8941
874.851	9058
874.979	9180
875.108	9382
875.237	9447
875.365	9431
875.494	9641
875.623	9747
875.751	9884
875.88	10010
876.008	10150
876.136	10211
876.265	10504
876.393	10679
876.521	10733
876.65	10862
876.778	10877
876.906	10900
877.034	10957
877.162	11117
877.29	11170
877.418	11307
877.546	11284
877.674	11520
877.802	11448
877.93	11619
878.058	11509
878.185	11547
878.313	11604
878.441	11726
878.568	11638
878.696	11824
878.824	11893
878.951	11866
879.079	11958
879.206	12079
879.333	12068
879.461	12026
879.588	11999
879.715	12087
879.842	12243
879.97	12121
880.097	11882
880.224	11958
880.351	11923
880.478	11874
880.605	11756
880.732	11722
880.859	11954
880.986	11745
881.112	11855
881.239	11745
881.366	11684
881.493	11543
881.619	11566
881.746	11528
881.872	11433
881.999	11539
882.125	11486
882.252	11505
882.378	11501
882.505	11589
882.631	11482
882.757	11299
882.883	11322
883.01	11208
883.136	11174
883.262	11090
883.388	11102
883.514	11212
883.64	11197
883.766	11067
883.892	11056
884.018	10968
884.143	11117
884.269	11064
884.395	10786
884.52	10797
884.646	10771
884.772	10691
884.897	10618
885.023	10630
885.148	10748
885.274	10755
885.399	10748
885.524	10607
885.65	10538
885.775	10542
885.9	10478
886.025	10592
886.15	10554
886.275	10481
886.4	10306
886.525	10375
886.65	10363
886.775	10280
886.9	10394
887.025	10497
887.149	10398
887.274	10211
887.399	10272
887.523	10128
887.648	10131
887.773	10086
887.897	10192
888.021	10253
888.146	10112
888.27	10253
888.395	10196
888.519	10192
888.643	10211
888.767	10227
888.891	10097
889.015	9956
889.139	10074
889.263	9979
889.387	10063
889.511	10150
889.635	10105
889.759	9956
889.883	9983
890.006	9987
890.13	9949
890.254	9991
890.377	9953
890.501	9808
890.624	9884
890.748	9888
890.871	9835
890.995	9774
891.118	9755
891.241	9770
891.364	9793
891.488	9743
891.611	9747
891.734	9682
891.857	9705
891.98	9774
892.103	9736
892.226	9705
892.349	9633
892.471	9466
892.594	9561
892.717	9652
892.839	9572
892.962	9591
893.085	9690
893.207	9603
893.33	9530
893.452	9526
893.575	9629
893.697	9447
893.819	9557
893.941	9682
894.064	9564
894.186	9401
894.308	9367
894.43	9591
894.552	9580
894.674	9534
894.796	9336
894.918	9367
895.04	9340
895.161	9386
895.283	9382
895.405	9249
895.526	9275
895.648	9203
895.769	9272
895.891	9218
896.012	9249
896.134	9188
896.255	9222
896.376	9165
896.498	9157
896.619	9131
896.74	9089
896.861	9127
896.982	9241
897.103	9245
897.224	9142
897.345	9062
897.466	8963
897.587	8975
897.708	9119
897.828	9062
897.949	8918
898.07	8826
898.19	8906
898.311	8982
898.431	8868
898.552	8853
898.672	8941
898.792	8963
898.913	8918
899.033	8750
899.153	8678
899.273	8701
899.393	8739
899.513	8762
899.633	8724
899.753	8727
899.873	8720
899.993	8678
900.113	8632
900.232	8640
900.352	8655
900.472	8613
900.591	8514
900.711	8571
900.83	8492
900.95	8682
901.069	8674
901.189	8583
901.308	8469
901.427	8381
901.546	8415
901.665	8476
901.784	8484
901.904	8320
902.023	8336
902.141	8183
902.26	8172
902.379	8309
902.498	8202
902.617	8218
902.735	8195
902.854	8195
902.973	8263
903.091	8172
903.21	8123
903.328	8176
903.446	8046
903.565	8039
903.683	8065
903.801	8043
903.919	8161
904.038	8043
904.156	8035
904.274	8111
904.392	8046
904.51	8050
904.627	8092
904.745	8130
904.863	8088
904.981	7940
905.098	7845
905.216	7852
905.334	7936
905.451	7894
905.569	7837
905.686	7890
905.803	7955
905.921	7734
906.038	7864
906.155	7788
906.272	7693
906.389	7681
906.506	7636
906.623	7624
906.74	7594
906.857	7537
906.974	7506
907.091	7662
907.208	7734
907.324	7605
907.441	7578
907.557	7449
907.674	7396
907.79	7396
907.907	7339
908.023	7491
908.139	7415
908.256	7400
908.372	7339
908.488	7324
908.604	7236
908.72	7232
908.836	7316
908.952	7289
909.068	7232
909.184	7324
909.3	7270
909.415	7251
909.531	7305
909.647	7076
909.762	7118
909.878	7031
909.993	7076
910.108	7126
910.224	7004
910.339	7194
910.454	7031
910.57	6958
910.685	6909
910.8	7129
910.915	7042
911.03	6966
911.145	6935
911.259	6863
911.374	6844
911.489	6810
911.604	6791
911.718	6681
911.833	6688
911.947	6692
912.062	6532
912.176	6601
912.291	6738
912.405	6665
912.519	6852
912.633	6829
912.748	6734
912.862	6749
912.976	6642
913.09	6555
913.204	6604
913.318	6589
913.431	6616
913.545	6623
913.659	6688
913.772	6658
913.886	6582
914	6555
914.113	6616
914.226	6616
914.34	6681
914.453	6486
914.566	6608
914.68	6536
914.793	6498
914.906	6369
915.019	6334
915.132	6357
915.245	6467
915.358	6395
915.47	6418
915.583	6456
915.696	6475
915.809	6483
915.921	6506
916.034	6448
916.146	6410
916.259	6380
916.371	6448
916.483	6483
916.595	6353
916.708	6353
916.82	6369
916.932	6395
917.044	6380
917.156	6422
917.268	6319
917.38	6350
917.491	6266
917.603	6319
917.715	6414
917.826	6372
917.938	6369
918.049	6273
918.161	6319
918.272	6372
918.384	6407
918.495	6319
918.606	6338
918.717	6216
918.828	6205
918.939	6247
919.05	6155
919.161	6228
919.272	6152
919.383	6171
919.494	6304
919.604	6361
919.715	6315
919.826	6205
919.936	6190
920.047	6346
920.157	6273
920.267	6471
920.378	6296
920.488	6281
920.598	6391
920.708	6540
920.818	6475
920.928	6433
921.038	6631
921.148	6551
921.258	6300
921.368	6289
921.477	6197
921.587	6194
921.697	6045
921.806	6175
921.916	6114
922.025	5958
922.134	5870
922.244	5882
922.353	5977
922.462	5870
922.571	5771
922.68	5680
922.789	5699
922.898	5703
923.007	5642
923.116	5684
923.224	5634
923.333	5665
923.442	5547
923.55	5524
923.659	5562
923.767	5630
923.876	5547
923.984	5547
924.092	5505
924.201	5528
924.309	5543
924.417	5505
924.525	5528
924.633	5532
924.741	6262
924.849	5360
924.956	5474
925.064	5349
925.172	5318
925.279	5280
925.387	5353
925.494	5311
925.602	5421
925.709	5383
925.816	5273
925.924	5368
926.031	5337
926.138	5261
926.245	5341
926.352	5174
926.459	5341
926.566	5311
926.673	5227
926.779	5162
926.886	5143
926.993	5064
927.099	4965
927.206	4961
927.312	4919
927.419	5010
927.525	4953
927.631	4980
927.737	4911
927.843	4828
927.95	4774
928.056	4831
928.162	4831
928.267	4858
928.373	5265
928.479	4843
928.585	4679
928.69	4774
928.796	4771
928.901	4675
929.007	4561
929.112	4672
929.218	4626
929.323	4558
929.428	4596
929.533	4637
929.638	4542
929.743	4546
929.848	4508
929.953	4489
930.058	4432
930.163	4337
930.267	4322
930.372	4447
930.477	4246
930.581	4485
930.685	4352
930.79	4341
930.894	4299
930.998	4257
931.103	4375
931.207	4150
931.311	4051
931.415	4006
931.519	3968
931.623	3876
