Data from glass_V78500241_204.txt Node
Date: Wed Sep 01 19:15:54 CST 2021
User: usil
Spectrometer: V785-0024
Trigger mode: 0
Integration Time (sec): 4.000000E-1
Scans to average: 1
Nonlinearity correction enabled: false
Boxcar width: 0
Storing dark spectrum: false
XAxis mode: Wavelengths
Number of Pixels in Spectrum: 1024
>>>>>Begin Spectral Data<<<<<
801.071	3766
801.214	3747
801.356	3701
801.499	3789
801.641	3717
801.783	3793
801.926	3846
802.068	3896
802.211	3846
802.353	3876
802.496	3850
802.638	3945
802.78	3899
802.923	3949
803.065	3907
803.208	3842
803.35	3903
803.492	3934
803.635	3949
803.777	3823
803.919	3915
804.061	4154
804.204	3964
804.346	3975
804.488	3934
804.63	4010
804.773	4010
804.915	4036
805.057	4173
805.199	4074
805.341	4128
805.483	4131
805.626	4158
805.768	4131
805.91	4242
806.052	4249
806.194	4230
806.336	4356
806.478	4211
806.62	4196
806.762	4257
806.904	4295
807.046	4356
807.188	4249
807.33	4185
807.472	4242
807.614	4154
807.756	4257
807.898	4207
808.04	4276
808.182	4295
808.324	4363
808.465	4333
808.607	4440
808.749	4470
808.891	4519
809.033	4500
809.174	4409
809.316	4348
809.458	4230
809.6	4120
809.741	4204
809.883	4173
810.025	4234
810.166	4188
810.308	4192
810.45	4329
810.591	4242
810.733	4303
810.875	4504
811.016	4809
811.158	5155
811.299	5292
811.441	5280
811.582	5109
811.724	4717
811.865	4519
812.007	4485
812.148	4409
812.29	4417
812.431	4424
812.573	4443
812.714	4363
812.855	4428
812.997	4409
813.138	4500
813.279	4402
813.421	4363
813.562	4375
813.703	4341
813.845	4325
813.986	4261
814.127	4268
814.268	4268
814.41	4303
814.551	4287
814.692	4348
814.833	4257
814.974	4314
815.115	4352
815.256	4257
815.397	4253
815.539	4253
815.68	4192
815.821	4238
815.962	4375
816.103	4322
816.244	4257
816.385	4192
816.526	4337
816.666	4284
816.807	4120
816.948	4249
817.089	4207
817.23	4150
817.371	4055
817.512	4067
817.653	4120
817.793	4036
817.934	4067
818.075	4116
818.216	4059
818.356	4105
818.497	3972
818.638	3937
818.778	3968
818.919	3899
819.06	3892
819.2	3926
819.341	3888
819.481	3835
819.622	3918
819.762	4017
819.903	3994
820.043	3896
820.184	3842
820.324	3861
820.465	3899
820.605	3869
820.746	3880
820.886	3808
821.026	3956
821.167	3972
821.307	3964
821.447	3987
821.588	3975
821.728	3983
821.868	3983
822.008	3861
822.149	3934
822.289	3926
822.429	3797
822.569	3800
822.709	3819
822.849	3751
822.99	3747
823.13	3797
823.27	3835
823.41	3732
823.55	3747
823.69	3740
823.83	3743
823.97	3667
824.11	3625
824.25	3591
824.389	3660
824.529	3728
824.669	3675
824.809	3709
824.949	3770
825.089	3740
825.228	3732
825.368	3614
825.508	3576
825.648	3568
825.787	3603
825.927	3629
826.067	3641
826.206	3709
826.346	3793
826.485	3838
826.625	3880
826.765	3911
826.904	3873
827.044	3603
827.183	3553
827.323	3481
827.462	3511
827.601	3420
827.741	3420
827.88	3511
828.02	3393
828.159	3454
828.298	3485
828.437	3534
828.577	3492
828.716	3603
828.855	3511
828.994	3416
829.134	3397
829.273	3405
829.412	3367
829.551	3405
829.69	3382
829.829	3443
829.968	3526
830.107	3435
830.246	3450
830.385	3374
830.524	3378
830.663	3302
830.802	3275
830.941	3211
831.08	3214
831.219	3287
831.357	3298
831.496	3431
831.635	3253
831.774	3237
831.913	3241
832.051	3116
832.19	3161
832.329	3192
832.467	3131
832.606	3127
832.744	3169
832.883	3195
833.022	3180
833.16	3249
833.299	3317
833.437	3359
833.576	3367
833.714	3401
833.852	3431
833.991	3462
834.129	3443
834.267	3439
834.406	3386
834.544	3450
834.682	3412
834.821	3401
834.959	3568
835.097	3401
835.235	3553
835.373	3488
835.511	3557
835.65	3469
835.788	3492
835.926	3439
836.064	3367
836.202	3386
836.34	3561
836.478	3610
836.615	3553
836.753	3633
836.891	3667
837.029	3610
837.167	3599
837.305	3587
837.443	3595
837.58	3507
837.718	3595
837.856	3545
837.993	3549
838.131	3606
838.269	3622
838.406	3580
838.544	3599
838.681	3488
838.819	3420
838.956	3428
839.094	3374
839.231	3462
839.369	3561
839.506	3743
839.643	3641
839.781	3511
839.918	3458
840.055	3568
840.193	3492
840.33	3523
840.467	3545
840.604	3622
840.742	3808
840.879	3568
841.016	3584
841.153	3633
841.29	3720
841.427	3740
841.564	3747
841.701	3728
841.838	3705
841.975	3686
842.112	3728
842.249	3682
842.385	3603
842.522	3857
842.659	3663
842.796	3682
842.933	3774
843.069	3690
843.206	3762
843.343	3812
843.479	3781
843.616	3823
843.752	3705
843.889	3698
844.025	3888
844.162	3743
844.298	3823
844.435	3808
844.571	3781
844.708	3953
844.844	3983
844.98	4063
845.117	4067
845.253	3926
845.389	3941
845.525	3994
845.661	4010
845.798	3911
845.934	4010
846.07	3991
846.206	4029
846.342	4078
846.478	4093
846.614	3956
846.75	3930
846.886	3964
847.022	4059
847.158	4002
847.294	3983
847.429	4040
847.565	3994
847.701	4246
847.837	3918
847.972	3842
848.108	4029
848.244	3987
848.379	3892
848.515	3854
848.65	3808
848.786	3831
848.921	3880
849.057	3953
849.192	3960
849.328	3934
849.463	3903
849.598	3899
849.734	3831
849.869	3892
850.004	3835
850.14	3857
850.275	3804
850.41	3774
850.545	3778
850.68	3793
850.815	3823
850.95	3785
851.085	3972
851.22	3865
851.355	3850
851.49	3800
851.625	3816
851.76	3819
851.895	3762
852.03	3720
852.165	3728
852.299	3850
852.434	3918
852.569	3922
852.703	3880
852.838	3998
852.973	4025
853.107	4021
853.242	3941
853.376	3838
853.511	3785
853.645	3857
853.78	4006
853.914	3884
854.048	3880
854.183	3888
854.317	3987
854.451	4097
854.585	4002
854.72	3975
854.854	4063
854.988	3945
855.122	4025
855.256	3945
855.39	4036
855.524	4139
855.658	4086
855.792	4135
855.926	4166
856.06	4166
856.194	4207
856.327	4158
856.461	4135
856.595	4188
856.729	4173
856.862	4287
856.996	4223
857.13	4287
857.263	4344
857.397	4386
857.53	4306
857.664	4352
857.797	4375
857.931	4417
858.064	4432
858.197	4432
858.331	4360
858.464	4379
858.597	4383
858.731	4451
858.864	4428
858.997	4481
859.13	4504
859.263	4512
859.396	4577
859.529	4538
859.662	4577
859.795	4538
859.928	4622
860.061	4710
860.194	4679
860.327	4675
860.46	4668
860.592	4710
860.725	4801
860.858	4755
860.99	4683
861.123	4740
861.256	4687
861.388	4820
861.521	5391
861.653	4725
861.786	4714
861.918	4752
862.05	4820
862.183	4850
862.315	4885
862.447	4942
862.58	4873
862.712	4870
862.844	4801
862.976	4858
863.108	4930
863.24	5197
863.372	4801
863.504	4934
863.636	4934
863.768	4972
863.9	4968
864.032	4930
864.164	4976
864.296	4987
864.428	5189
864.559	5128
864.691	5128
864.823	5155
864.954	5124
865.086	5185
865.217	5132
865.349	5117
865.48	5212
865.612	5220
865.743	5337
865.875	5284
866.006	5216
866.137	5284
866.269	5231
866.4	5220
866.531	5231
866.662	5212
866.793	5258
866.924	5307
867.055	5395
867.186	5284
867.317	5410
867.448	5322
867.579	5414
867.71	5376
867.841	5406
867.972	5467
868.103	5402
868.233	5486
868.364	5573
868.495	5573
868.625	5707
868.756	5813
868.886	5695
869.017	5798
869.147	5844
869.278	5885
869.408	5817
869.539	5866
869.669	5973
869.799	5927
869.929	5923
870.06	6007
870.19	6232
870.32	6213
870.45	6319
870.58	6346
870.71	6464
870.84	6506
870.97	6410
871.1	6467
871.23	6608
871.36	6722
871.489	6700
871.619	6741
871.749	6818
871.879	6913
872.008	7008
872.138	7008
872.267	6993
872.397	7015
872.526	7015
872.656	7126
872.785	7251
872.915	7377
873.044	7586
873.173	7567
873.303	7689
873.432	7776
873.561	7909
873.69	7906
873.819	8077
873.948	8145
874.077	8237
874.206	8355
874.335	8507
874.464	8644
874.593	8823
874.722	8952
874.851	9123
874.979	9245
875.108	9408
875.237	9447
875.365	9469
875.494	9701
875.623	9865
875.751	9778
875.88	9934
876.008	10124
876.136	10375
876.265	10516
876.393	10694
876.521	10691
876.65	10797
876.778	10850
876.906	10889
877.034	10930
877.162	11037
877.29	11128
877.418	11326
877.546	11353
877.674	11436
877.802	11547
877.93	11524
878.058	11516
878.185	11501
878.313	11627
878.441	11775
878.568	11684
878.696	11817
878.824	11855
878.951	11942
879.079	12087
879.206	12133
879.333	12129
879.461	11931
879.588	12079
879.715	12026
879.842	12300
879.97	12060
880.097	11946
880.224	11866
880.351	11840
880.478	11870
880.605	11870
880.732	11920
880.859	11912
880.986	11805
881.112	11863
881.239	11817
881.366	11680
881.493	11703
881.619	11562
881.746	11539
881.872	11558
881.999	11535
882.125	11497
882.252	11520
882.378	11505
882.505	11543
882.631	11326
882.757	11220
882.883	11303
883.01	11315
883.136	11143
883.262	11178
883.388	11094
883.514	11280
883.64	11189
883.766	11025
883.892	11075
884.018	11041
884.143	10995
884.269	11147
884.395	10850
884.52	10793
884.646	10736
884.772	10637
884.897	10691
885.023	10668
885.148	10721
885.274	10828
885.399	10759
885.524	10637
885.65	10622
885.775	10641
885.9	10607
886.025	10622
886.15	10596
886.275	10481
886.4	10363
886.525	10398
886.65	10371
886.775	10348
886.9	10432
887.025	10569
887.149	10352
887.274	10253
887.399	10207
887.523	10253
887.648	10078
887.773	10135
887.897	10238
888.021	10265
888.146	10154
888.27	10227
888.395	10200
888.519	10147
888.643	10169
888.767	10185
888.891	10093
889.015	10025
889.139	10120
889.263	10029
889.387	10055
889.511	10112
889.635	10097
889.759	9842
889.883	10017
890.006	10013
890.13	10109
890.254	9991
890.377	9960
890.501	9880
890.624	9903
890.748	9892
890.871	9823
890.995	9747
891.118	9713
891.241	9774
891.364	9743
891.488	9797
891.611	9701
891.734	9808
891.857	9835
891.98	9759
892.103	9812
892.226	9747
892.349	9614
892.471	9519
892.594	9534
892.717	9682
892.839	9564
892.962	9660
893.085	9705
893.207	9614
893.33	9526
893.452	9545
893.575	9561
893.697	9515
893.819	9568
893.941	9652
894.064	9557
894.186	9405
894.308	9473
894.43	9538
894.552	9618
894.674	9553
894.796	9405
894.918	9355
895.04	9355
895.161	9386
895.283	9329
895.405	9226
895.526	9268
895.648	9313
895.769	9310
895.891	9268
896.012	9321
896.134	9199
896.255	9222
896.376	9131
896.498	9169
896.619	9142
896.74	9154
896.861	9142
896.982	9310
897.103	9298
897.224	9161
897.345	9100
897.466	9039
897.587	9013
897.708	9097
897.828	9009
897.949	8994
898.07	8982
898.19	8910
898.311	9085
898.431	8990
898.552	8952
898.672	9001
898.792	8982
898.913	8941
899.033	8769
899.153	8701
899.273	8693
899.393	8758
899.513	8819
899.633	8739
899.753	8705
899.873	8735
899.993	8766
900.113	8720
900.232	8724
900.352	8636
900.472	8606
900.591	8564
900.711	8610
900.83	8549
900.95	8701
901.069	8712
901.189	8571
901.308	8442
901.427	8343
901.546	8514
901.665	8438
901.784	8549
901.904	8385
902.023	8381
902.141	8240
902.26	8320
902.379	8290
902.498	8229
902.617	8252
902.735	8343
902.854	8244
902.973	8187
903.091	8096
903.21	8172
903.328	8202
903.446	8157
903.565	8077
903.683	8153
903.801	8005
903.919	8176
904.038	8199
904.156	8081
904.274	8107
904.392	8035
904.51	8081
904.627	7989
904.745	8077
904.863	8153
904.981	7925
905.098	7868
905.216	7909
905.334	7951
905.451	7951
905.569	7841
905.686	7955
905.803	7947
905.921	7784
906.038	7959
906.155	7795
906.272	7681
906.389	7734
906.506	7647
906.623	7601
906.74	7708
906.857	7578
906.974	7616
907.091	7647
907.208	7757
907.324	7681
907.441	7521
907.557	7426
907.674	7445
907.79	7411
907.907	7438
908.023	7430
908.139	7457
908.256	7369
908.372	7396
908.488	7396
908.604	7285
908.72	7316
908.836	7327
908.952	7282
909.068	7217
909.184	7312
909.3	7308
909.415	7327
909.531	7270
909.647	7175
909.762	7141
909.878	7145
909.993	7129
910.108	7149
910.224	7042
910.339	7061
910.454	7084
910.57	7023
910.685	6989
910.8	7194
910.915	7122
911.03	7034
911.145	6920
911.259	6871
911.374	6871
911.489	6833
911.604	6802
911.718	6772
911.833	6719
911.947	6669
912.062	6593
912.176	6745
912.291	6662
912.405	6722
912.519	6829
912.633	6848
912.748	6776
912.862	6749
912.976	6627
913.09	6593
913.204	6608
913.318	6623
913.431	6722
913.545	6703
913.659	6795
913.772	6650
913.886	6623
914	6551
914.113	6604
914.226	6642
914.34	6620
914.453	6555
914.566	6604
914.68	6532
914.793	6574
914.906	6403
915.019	6384
915.132	6376
915.245	6467
915.358	6418
915.47	6498
915.583	6460
915.696	6486
915.809	6536
915.921	6566
916.034	6422
916.146	6418
916.259	6388
916.371	6460
916.483	6441
916.595	6467
916.708	6426
916.82	6429
916.932	6369
917.044	6437
917.156	6372
917.268	6365
917.38	6361
917.491	6273
917.603	6327
917.715	6452
917.826	6395
917.938	6323
918.049	6270
918.161	6350
918.272	6380
918.384	6422
918.495	6289
918.606	6213
918.717	6300
918.828	6285
918.939	6315
919.05	6186
919.161	6235
919.272	6136
919.383	6155
919.494	6311
919.604	6464
919.715	6277
919.826	6262
919.936	6323
920.047	6361
920.157	6331
920.267	6456
920.378	6342
920.488	6323
920.598	6475
920.708	6601
920.818	6471
920.928	6479
921.038	6646
921.148	6627
921.258	6369
921.368	6342
921.477	6239
921.587	6213
921.697	6148
921.806	6228
921.916	6041
922.025	5977
922.134	5863
922.244	5901
922.353	6011
922.462	5866
922.571	5817
922.68	5737
922.789	5680
922.898	5699
923.007	5642
923.116	5718
923.224	5668
923.333	5718
923.442	5676
923.55	5577
923.659	5634
923.767	5646
923.876	5566
923.984	5596
924.092	5524
924.201	5558
924.309	5554
924.417	5566
924.525	5532
924.633	5512
924.741	6235
924.849	5360
924.956	5543
925.064	5398
925.172	5349
925.279	5311
925.387	5322
925.494	5337
925.602	5448
925.709	5429
925.816	5296
925.924	5334
926.031	5414
926.138	5277
926.245	5258
926.352	5201
926.459	5341
926.566	5383
926.673	5143
926.779	5128
926.886	5162
926.993	5014
927.099	5029
927.206	4961
927.312	5006
927.419	5056
927.525	5010
927.631	5037
927.737	4908
927.843	4942
927.95	4820
928.056	4816
928.162	4858
928.267	4809
928.373	5231
928.479	4900
928.585	4714
928.69	4812
928.796	4805
928.901	4748
929.007	4596
929.112	4649
929.218	4656
929.323	4664
929.428	4550
929.533	4653
929.638	4481
929.743	4558
929.848	4558
929.953	4577
930.058	4428
930.163	4371
930.267	4360
930.372	4409
930.477	4322
930.581	4462
930.685	4344
930.79	4280
930.894	4325
930.998	4257
931.103	4394
931.207	4105
931.311	4093
931.415	4040
931.519	3964
931.623	3964
