Data from glass_V78500241_258.txt Node
Date: Wed Sep 01 19:16:17 CST 2021
User: usil
Spectrometer: V785-0024
Trigger mode: 0
Integration Time (sec): 4.000000E-1
Scans to average: 1
Nonlinearity correction enabled: false
Boxcar width: 0
Storing dark spectrum: false
XAxis mode: Wavelengths
Number of Pixels in Spectrum: 1024
>>>>>Begin Spectral Data<<<<<
801.071	3759
801.214	3770
801.356	3724
801.499	3759
801.641	3701
801.783	3781
801.926	3911
802.068	3869
802.211	3865
802.353	3930
802.496	3880
802.638	3899
802.78	3865
802.923	3922
803.065	3915
803.208	3854
803.35	3880
803.492	3907
803.635	3907
803.777	3804
803.919	3899
804.061	4131
804.204	3975
804.346	3975
804.488	3934
804.63	4051
804.773	3987
804.915	4036
805.057	4128
805.199	4051
805.341	4124
805.483	4112
805.626	4139
805.768	4105
805.91	4257
806.052	4287
806.194	4211
806.336	4367
806.478	4261
806.62	4249
806.762	4227
806.904	4265
807.046	4352
807.188	4215
807.33	4219
807.472	4246
807.614	4204
807.756	4272
807.898	4249
808.04	4227
808.182	4318
808.324	4386
808.465	4398
808.607	4493
808.749	4474
808.891	4485
809.033	4497
809.174	4394
809.316	4268
809.458	4230
809.6	4150
809.741	4200
809.883	4215
810.025	4211
810.166	4242
810.308	4242
810.45	4238
810.591	4234
810.733	4329
810.875	4527
811.016	4835
811.158	5102
811.299	5235
811.441	5330
811.582	5067
811.724	4691
811.865	4481
812.007	4500
812.148	4462
812.29	4428
812.431	4451
812.573	4421
812.714	4367
812.855	4443
812.997	4470
813.138	4493
813.279	4447
813.421	4398
813.562	4413
813.703	4344
813.845	4310
813.986	4291
814.127	4276
814.268	4246
814.41	4253
814.551	4291
814.692	4322
814.833	4344
814.974	4276
815.115	4329
815.256	4253
815.397	4238
815.539	4253
815.68	4242
815.821	4265
815.962	4329
816.103	4284
816.244	4276
816.385	4284
816.526	4291
816.666	4249
816.807	4128
816.948	4158
817.089	4200
817.23	4162
817.371	4059
817.512	4017
817.653	4059
817.793	4025
817.934	4078
818.075	4116
818.216	4074
818.356	4090
818.497	4048
818.638	3899
818.778	3903
818.919	3865
819.06	3865
819.2	3945
819.341	3880
819.481	3857
819.622	3903
819.762	4074
819.903	3934
820.043	3865
820.184	3850
820.324	3880
820.465	3880
820.605	3903
820.746	3896
820.886	3861
821.026	3937
821.167	3937
821.307	3972
821.447	4006
821.588	3953
821.728	4002
821.868	3964
822.008	3876
822.149	3892
822.289	3918
822.429	3789
822.569	3797
822.709	3838
822.849	3713
822.99	3740
823.13	3800
823.27	3755
823.41	3732
823.55	3751
823.69	3781
823.83	3732
823.97	3701
824.11	3629
824.25	3584
824.389	3671
824.529	3663
824.669	3637
824.809	3717
824.949	3797
825.089	3747
825.228	3701
825.368	3618
825.508	3587
825.648	3614
825.787	3633
825.927	3648
826.067	3629
826.206	3663
826.346	3785
826.485	3857
826.625	3903
826.765	3953
826.904	3854
827.044	3629
827.183	3515
827.323	3409
827.462	3492
827.601	3447
827.741	3431
827.88	3507
828.02	3393
828.159	3469
828.298	3473
828.437	3576
828.577	3523
828.716	3610
828.855	3504
828.994	3367
829.134	3378
829.273	3428
829.412	3397
829.551	3336
829.69	3409
829.829	3469
829.968	3523
830.107	3462
830.246	3435
830.385	3389
830.524	3367
830.663	3321
830.802	3287
830.941	3226
831.08	3180
831.219	3294
831.357	3272
831.496	3416
831.635	3287
831.774	3176
831.913	3218
832.051	3157
832.19	3157
832.329	3222
832.467	3127
832.606	3104
832.744	3161
832.883	3195
833.022	3218
833.16	3264
833.299	3344
833.437	3344
833.576	3348
833.714	3389
833.852	3443
833.991	3420
834.129	3466
834.267	3405
834.406	3473
834.544	3473
834.682	3431
834.821	3431
834.959	3553
835.097	3435
835.235	3545
835.373	3500
835.511	3492
835.65	3504
835.788	3469
835.926	3424
836.064	3370
836.202	3420
836.34	3576
836.478	3603
836.615	3534
836.753	3572
836.891	3648
837.029	3671
837.167	3637
837.305	3603
837.443	3530
837.58	3492
837.718	3610
837.856	3629
837.993	3557
838.131	3633
838.269	3584
838.406	3622
838.544	3572
838.681	3504
838.819	3431
838.956	3401
839.094	3374
839.231	3443
839.369	3500
839.506	3728
839.643	3686
839.781	3488
839.918	3469
840.055	3564
840.193	3515
840.33	3591
840.467	3561
840.604	3629
840.742	3823
840.879	3545
841.016	3568
841.153	3534
841.29	3808
841.427	3724
841.564	3759
841.701	3781
841.838	3694
841.975	3686
842.112	3724
842.249	3641
842.385	3644
842.522	3857
842.659	3675
842.796	3709
842.933	3717
843.069	3709
843.206	3728
843.343	3892
843.479	3789
843.616	3827
843.752	3667
843.889	3679
844.025	3861
844.162	3713
844.298	3857
844.435	3793
844.571	3785
844.708	3907
844.844	3956
844.98	4013
845.117	4051
845.253	3941
845.389	3899
845.525	3979
845.661	3979
845.798	3907
845.934	4013
846.07	4006
846.206	4112
846.342	4158
846.478	4059
846.614	3964
846.75	3934
846.886	3972
847.022	4040
847.158	4017
847.294	4059
847.429	4044
847.565	4051
847.701	4234
847.837	3899
847.972	3892
848.108	3964
848.244	3975
848.379	3835
848.515	3854
848.65	3819
848.786	3880
848.921	3861
849.057	3972
849.192	3937
849.328	3915
849.463	3953
849.598	3926
849.734	3857
849.869	3869
850.004	3816
850.14	3827
850.275	3751
850.41	3713
850.545	3804
850.68	3819
850.815	3831
850.95	3816
851.085	3964
851.22	3869
851.355	3838
851.49	3781
851.625	3831
851.76	3800
851.895	3720
852.03	3743
852.165	3842
852.299	3838
852.434	3953
852.569	3869
852.703	3892
852.838	3934
852.973	4029
853.107	3998
853.242	3854
853.376	3880
853.511	3831
853.645	3838
853.78	3987
853.914	3873
854.048	3876
854.183	3945
854.317	3960
854.451	4097
854.585	3968
854.72	3968
854.854	4071
854.988	3964
855.122	4010
855.256	3941
855.39	4036
855.524	4093
855.658	4128
855.792	4162
855.926	4219
856.06	4196
856.194	4215
856.327	4143
856.461	4124
856.595	4120
856.729	4181
856.862	4299
856.996	4261
857.13	4337
857.263	4284
857.397	4352
857.53	4257
857.664	4325
857.797	4440
857.931	4413
858.064	4383
858.197	4451
858.331	4398
858.464	4428
858.597	4314
858.731	4466
858.864	4481
858.997	4451
859.13	4554
859.263	4527
859.396	4577
859.529	4504
859.662	4580
859.795	4546
859.928	4523
860.061	4733
860.194	4736
860.327	4672
860.46	4649
860.592	4733
860.725	4801
860.858	4790
860.99	4717
861.123	4687
861.256	4740
861.388	4744
861.521	5273
861.653	4748
861.786	4687
861.918	4744
862.05	4820
862.183	4870
862.315	4904
862.447	4980
862.58	4961
862.712	4862
862.844	4805
862.976	4885
863.108	4862
863.24	5337
863.372	4839
863.504	4915
863.636	4866
863.768	5010
863.9	4987
864.032	4934
864.164	4965
864.296	5067
864.428	5105
864.559	5060
864.691	5117
864.823	5151
864.954	5121
865.086	5102
865.217	5155
865.349	5147
865.48	5201
865.612	5204
865.743	5311
865.875	5250
866.006	5212
866.137	5273
866.269	5265
866.4	5318
866.531	5239
866.662	5201
866.793	5254
866.924	5326
867.055	5379
867.186	5387
867.317	5337
867.448	5379
867.579	5368
867.71	5364
867.841	5395
867.972	5482
868.103	5463
868.233	5558
868.364	5482
868.495	5570
868.625	5684
868.756	5786
868.886	5733
869.017	5714
869.147	5824
869.278	5863
869.408	5866
869.539	5855
869.669	5923
869.799	5927
869.929	5973
870.06	5988
870.19	6266
870.32	6178
870.45	6292
870.58	6353
870.71	6391
870.84	6464
870.97	6433
871.1	6460
871.23	6642
871.36	6700
871.489	6665
871.619	6741
871.749	6837
871.879	6867
872.008	6993
872.138	7008
872.267	7038
872.397	6996
872.526	7046
872.656	7107
872.785	7194
872.915	7381
873.044	7537
873.173	7590
873.303	7658
873.432	7772
873.561	7909
873.69	7879
873.819	8001
873.948	8183
874.077	8267
874.206	8267
874.335	8446
874.464	8758
874.593	8891
874.722	8925
874.851	9188
874.979	9275
875.108	9355
875.237	9454
875.365	9587
875.494	9580
875.623	9816
875.751	9789
875.88	9975
876.008	10116
876.136	10295
876.265	10519
876.393	10774
876.521	10755
876.65	10869
876.778	10900
876.906	10934
877.034	10965
877.162	11174
877.29	11121
877.418	11258
877.546	11421
877.674	11417
877.802	11554
877.93	11509
878.058	11649
878.185	11577
878.313	11798
878.441	11745
878.568	11634
878.696	11832
878.824	11821
878.951	11977
879.079	11950
879.206	12155
879.333	11980
879.461	12011
879.588	12102
879.715	12057
879.842	12243
879.97	12007
880.097	11851
880.224	11843
880.351	11878
880.478	11904
880.605	11874
880.732	11741
880.859	11977
880.986	11783
881.112	11832
881.239	11779
881.366	11741
881.493	11539
881.619	11543
881.746	11570
881.872	11512
881.999	11608
882.125	11490
882.252	11611
882.378	11501
882.505	11547
882.631	11315
882.757	11360
882.883	11391
883.01	11330
883.136	11250
883.262	11193
883.388	11147
883.514	11227
883.64	11159
883.766	11075
883.892	10976
884.018	11006
884.143	11048
884.269	11174
884.395	10763
884.52	10831
884.646	10771
884.772	10706
884.897	10759
885.023	10706
885.148	10706
885.274	10843
885.399	10679
885.524	10664
885.65	10527
885.775	10611
885.9	10497
886.025	10535
886.15	10573
886.275	10474
886.4	10356
886.525	10455
886.65	10325
886.775	10386
886.9	10428
887.025	10493
887.149	10379
887.274	10261
887.399	10211
887.523	10192
887.648	10200
887.773	10204
887.897	10284
888.021	10207
888.146	10181
888.27	10200
888.395	10143
888.519	10139
888.643	10169
888.767	10211
888.891	10067
889.015	10021
889.139	10071
889.263	10021
889.387	10112
889.511	10150
889.635	10131
889.759	9949
889.883	9991
890.006	9960
890.13	10071
890.254	10002
890.377	9991
890.501	9835
890.624	9918
890.748	9846
890.871	9800
890.995	9720
891.118	9717
891.241	9793
891.364	9682
891.488	9789
891.611	9701
891.734	9717
891.857	9785
891.98	9690
892.103	9781
892.226	9751
892.349	9682
892.471	9538
892.594	9587
892.717	9599
892.839	9644
892.962	9690
893.085	9709
893.207	9584
893.33	9545
893.452	9511
893.575	9580
893.697	9504
893.819	9584
893.941	9652
894.064	9538
894.186	9473
894.308	9435
894.43	9523
894.552	9633
894.674	9557
894.796	9431
894.918	9363
895.04	9370
895.161	9378
895.283	9336
895.405	9283
895.526	9264
895.648	9302
895.769	9222
895.891	9294
896.012	9329
896.134	9203
896.255	9169
896.376	9222
896.498	9123
896.619	9097
896.74	9127
896.861	9157
896.982	9298
897.103	9302
897.224	9180
897.345	8990
897.466	8971
897.587	9024
897.708	9085
897.828	9058
897.949	9001
898.07	8918
898.19	8982
898.311	9017
898.431	8902
898.552	8967
898.672	9028
898.792	8902
898.913	8937
899.033	8823
899.153	8708
899.273	8705
899.393	8758
899.513	8712
899.633	8674
899.753	8823
899.873	8727
899.993	8678
900.113	8716
900.232	8712
900.352	8674
900.472	8678
900.591	8625
900.711	8560
900.83	8507
900.95	8708
901.069	8773
901.189	8617
901.308	8450
901.427	8336
901.546	8427
901.665	8415
901.784	8518
901.904	8419
902.023	8317
902.141	8267
902.26	8317
902.379	8313
902.498	8218
902.617	8199
902.735	8374
902.854	8286
902.973	8313
903.091	8096
903.21	8164
903.328	8187
903.446	8153
903.565	8092
903.683	8153
903.801	8031
903.919	8100
904.038	8111
904.156	7993
904.274	8103
904.392	8039
904.51	8027
904.627	8035
904.745	8103
904.863	8123
904.981	7909
905.098	7921
905.216	7868
905.334	7856
905.451	7856
905.569	7860
905.686	7902
905.803	7936
905.921	7807
906.038	7898
906.155	7852
906.272	7757
906.389	7761
906.506	7696
906.623	7620
906.74	7647
906.857	7537
906.974	7540
907.091	7685
907.208	7738
907.324	7605
907.441	7613
907.557	7438
907.674	7411
907.79	7430
907.907	7426
908.023	7499
908.139	7453
908.256	7438
908.372	7343
908.488	7354
908.604	7308
908.72	7232
908.836	7339
908.952	7308
909.068	7247
909.184	7396
909.3	7255
909.415	7282
909.531	7293
909.647	7160
909.762	7080
909.878	7099
909.993	7164
910.108	7061
910.224	7046
910.339	7103
910.454	7042
910.57	7042
910.685	6954
910.8	7217
910.915	7019
911.03	7065
911.145	6943
911.259	6875
911.374	6928
911.489	6882
911.604	6859
911.718	6700
911.833	6738
911.947	6681
912.062	6673
912.176	6696
912.291	6749
912.405	6749
912.519	6768
912.633	6875
912.748	6745
912.862	6734
912.976	6658
913.09	6540
913.204	6608
913.318	6589
913.431	6662
913.545	6658
913.659	6757
913.772	6627
913.886	6597
914	6551
914.113	6620
914.226	6642
914.34	6631
914.453	6547
914.566	6662
914.68	6551
914.793	6506
914.906	6418
915.019	6410
915.132	6376
915.245	6410
915.358	6448
915.47	6483
915.583	6407
915.696	6471
915.809	6525
915.921	6601
916.034	6441
916.146	6407
916.259	6395
916.371	6471
916.483	6456
916.595	6380
916.708	6407
916.82	6376
916.932	6410
917.044	6388
917.156	6418
917.268	6372
917.38	6323
917.491	6262
917.603	6319
917.715	6410
917.826	6384
917.938	6300
918.049	6266
918.161	6311
918.272	6395
918.384	6502
918.495	6372
918.606	6281
918.717	6254
918.828	6311
918.939	6289
919.05	6232
919.161	6262
919.272	6140
919.383	6213
919.494	6300
919.604	6479
919.715	6262
919.826	6262
919.936	6311
920.047	6388
920.157	6266
920.267	6483
920.378	6384
920.488	6308
920.598	6452
920.708	6616
920.818	6445
920.928	6502
921.038	6612
921.148	6551
921.258	6342
921.368	6289
921.477	6213
921.587	6152
921.697	6125
921.806	6197
921.916	6076
922.025	5931
922.134	5920
922.244	5927
922.353	5935
922.462	5832
922.571	5790
922.68	5718
922.789	5665
922.898	5707
923.007	5638
923.116	5718
923.224	5668
923.333	5665
923.442	5642
923.55	5608
923.659	5585
923.767	5630
923.876	5554
923.984	5630
924.092	5455
924.201	5535
924.309	5543
924.417	5482
924.525	5448
924.633	5524
924.741	6251
924.849	5341
924.956	5490
925.064	5402
925.172	5296
925.279	5311
925.387	5353
925.494	5303
925.602	5433
925.709	5379
925.816	5288
925.924	5334
926.031	5387
926.138	5360
926.245	5334
926.352	5299
926.459	5322
926.566	5330
926.673	5201
926.779	5162
926.886	5128
926.993	5064
927.099	5071
927.206	4976
927.312	5025
927.419	4984
927.525	4972
927.631	5029
927.737	4927
927.843	4885
927.95	4782
928.056	4809
928.162	4812
928.267	4934
928.373	5288
928.479	4854
928.585	4668
928.69	4801
928.796	4790
928.901	4641
929.007	4561
929.112	4702
929.218	4649
929.323	4599
929.428	4599
929.533	4668
929.638	4523
929.743	4542
929.848	4523
929.953	4523
930.058	4489
930.163	4363
930.267	4375
930.372	4455
930.477	4344
930.581	4443
930.685	4383
930.79	4287
930.894	4291
930.998	4249
931.103	4447
931.207	4150
931.311	4074
931.415	4048
931.519	3922
931.623	3937
