Data from glass_V78500241_2095.txt Node
Date: Wed Sep 01 19:29:01 CST 2021
User: usil
Spectrometer: V785-0024
Trigger mode: 0
Integration Time (sec): 4.000000E-1
Scans to average: 1
Nonlinearity correction enabled: false
Boxcar width: 0
Storing dark spectrum: false
XAxis mode: Wavelengths
Number of Pixels in Spectrum: 1024
>>>>>Begin Spectral Data<<<<<
801.071	3705
801.214	3789
801.356	3698
801.499	3690
801.641	3679
801.783	3762
801.926	3865
802.068	3816
802.211	3873
802.353	3850
802.496	3842
802.638	3880
802.78	3884
802.923	3945
803.065	3842
803.208	3892
803.35	3869
803.492	3865
803.635	3926
803.777	3778
803.919	3865
804.061	4093
804.204	3937
804.346	3911
804.488	3968
804.63	4044
804.773	3968
804.915	4036
805.057	4105
805.199	4055
805.341	4032
805.483	4086
805.626	4112
805.768	4135
805.91	4143
806.052	4185
806.194	4169
806.336	4352
806.478	4154
806.62	4181
806.762	4177
806.904	4306
807.046	4341
807.188	4223
807.33	4181
807.472	4257
807.614	4196
807.756	4219
807.898	4173
808.04	4238
808.182	4310
808.324	4261
808.465	4360
808.607	4459
808.749	4455
808.891	4447
809.033	4500
809.174	4447
809.316	4272
809.458	4238
809.6	4158
809.741	4147
809.883	4143
810.025	4169
810.166	4242
810.308	4204
810.45	4272
810.591	4227
810.733	4284
810.875	4474
811.016	4843
811.158	5117
811.299	5212
811.441	5261
811.582	5041
811.724	4714
811.865	4432
812.007	4474
812.148	4455
812.29	4398
812.431	4417
812.573	4405
812.714	4352
812.855	4413
812.997	4470
813.138	4489
813.279	4409
813.421	4333
813.562	4398
813.703	4337
813.845	4318
813.986	4272
814.127	4204
814.268	4257
814.41	4257
814.551	4276
814.692	4318
814.833	4272
814.974	4272
815.115	4314
815.256	4249
815.397	4204
815.539	4261
815.68	4219
815.821	4238
815.962	4352
816.103	4257
816.244	4268
816.385	4230
816.526	4272
816.666	4238
816.807	4082
816.948	4158
817.089	4173
817.23	4074
817.371	4071
817.512	4002
817.653	4086
817.793	4048
817.934	4021
818.075	4124
818.216	4059
818.356	4048
818.497	3930
818.638	3918
818.778	3880
818.919	3937
819.06	3899
819.2	3888
819.341	3873
819.481	3835
819.622	3892
819.762	3991
819.903	3953
820.043	3842
820.184	3835
820.324	3812
820.465	3903
820.605	3888
820.746	3899
820.886	3766
821.026	3934
821.167	3884
821.307	4002
821.447	3953
821.588	3960
821.728	3983
821.868	3930
822.008	3812
822.149	3941
822.289	3918
822.429	3797
822.569	3781
822.709	3804
822.849	3682
822.99	3717
823.13	3778
823.27	3781
823.41	3736
823.55	3732
823.69	3717
823.83	3755
823.97	3652
824.11	3595
824.25	3595
824.389	3656
824.529	3679
824.669	3648
824.809	3675
824.949	3747
825.089	3720
825.228	3682
825.368	3580
825.508	3538
825.648	3599
825.787	3572
825.927	3633
826.067	3599
826.206	3648
826.346	3785
826.485	3831
826.625	3857
826.765	3930
826.904	3812
827.044	3542
827.183	3511
827.323	3462
827.462	3462
827.601	3428
827.741	3409
827.88	3412
828.02	3378
828.159	3439
828.298	3469
828.437	3519
828.577	3515
828.716	3587
828.855	3466
828.994	3386
829.134	3386
829.273	3367
829.412	3363
829.551	3340
829.69	3329
829.829	3416
829.968	3534
830.107	3416
830.246	3447
830.385	3359
830.524	3355
830.663	3294
830.802	3245
830.941	3161
831.08	3184
831.219	3287
831.357	3275
831.496	3389
831.635	3218
831.774	3176
831.913	3165
832.051	3169
832.19	3161
832.329	3218
832.467	3112
832.606	3089
832.744	3131
832.883	3161
833.022	3161
833.16	3222
833.299	3321
833.437	3355
833.576	3416
833.714	3401
833.852	3447
833.991	3458
834.129	3462
834.267	3378
834.406	3397
834.544	3447
834.682	3447
834.821	3435
834.959	3564
835.097	3431
835.235	3530
835.373	3477
835.511	3500
835.65	3424
835.788	3469
835.926	3370
836.064	3409
836.202	3405
836.34	3572
836.478	3542
836.615	3511
836.753	3603
836.891	3660
837.029	3614
837.167	3606
837.305	3572
837.443	3534
837.58	3458
837.718	3641
837.856	3553
837.993	3534
838.131	3545
838.269	3618
838.406	3587
838.544	3580
838.681	3477
838.819	3435
838.956	3389
839.094	3393
839.231	3409
839.369	3458
839.506	3724
839.643	3625
839.781	3500
839.918	3477
840.055	3534
840.193	3519
840.33	3515
840.467	3584
840.604	3595
840.742	3816
840.879	3511
841.016	3488
841.153	3591
841.29	3732
841.427	3728
841.564	3717
841.701	3762
841.838	3656
841.975	3644
842.112	3724
842.249	3610
842.385	3644
842.522	3857
842.659	3713
842.796	3656
842.933	3705
843.069	3717
843.206	3663
843.343	3781
843.479	3800
843.616	3823
843.752	3675
843.889	3694
844.025	3850
844.162	3694
844.298	3838
844.435	3762
844.571	3778
844.708	3884
844.844	3968
844.98	4017
845.117	3972
845.253	3896
845.389	3869
845.525	3991
845.661	3934
845.798	3915
845.934	3975
846.07	3983
846.206	4036
846.342	4131
846.478	4051
846.614	4002
846.75	3930
846.886	3884
847.022	4006
847.158	3975
847.294	4017
847.429	4010
847.565	4017
847.701	4249
847.837	3838
847.972	3835
848.108	3968
848.244	3880
848.379	3842
848.515	3812
848.65	3789
848.786	3850
848.921	3884
849.057	3915
849.192	3934
849.328	3880
849.463	3934
849.598	3907
849.734	3838
849.869	3876
850.004	3819
850.14	3800
850.275	3797
850.41	3762
850.545	3686
850.68	3747
850.815	3819
850.95	3831
851.085	3949
851.22	3907
851.355	3793
851.49	3766
851.625	3812
851.76	3774
851.895	3740
852.03	3751
852.165	3793
852.299	3884
852.434	3926
852.569	3846
852.703	3861
852.838	3930
852.973	3953
853.107	4010
853.242	3884
853.376	3857
853.511	3785
853.645	3846
853.78	3998
853.914	3884
854.048	3911
854.183	3892
854.317	3945
854.451	4063
854.585	3983
854.72	3960
854.854	4040
854.988	3915
855.122	3994
855.256	3873
855.39	4032
855.524	4090
855.658	4112
855.792	4101
855.926	4120
856.06	4169
856.194	4185
856.327	4154
856.461	4116
856.595	4147
856.729	4169
856.862	4265
856.996	4242
857.13	4284
857.263	4284
857.397	4337
857.53	4257
857.664	4352
857.797	4360
857.931	4428
858.064	4409
858.197	4447
858.331	4356
858.464	4333
858.597	4356
858.731	4386
858.864	4424
858.997	4459
859.13	4497
859.263	4500
859.396	4558
859.529	4535
859.662	4504
859.795	4485
859.928	4584
860.061	4656
860.194	4748
860.327	4615
860.46	4653
860.592	4710
860.725	4759
860.858	4771
860.99	4710
861.123	4637
861.256	4653
861.388	4793
861.521	5493
861.653	4694
861.786	4675
861.918	4752
862.05	4733
862.183	4850
862.315	4843
862.447	4965
862.58	4866
862.712	4786
862.844	4714
862.976	4831
863.108	4870
863.24	5147
863.372	4850
863.504	4900
863.636	4923
863.768	4972
863.9	4976
864.032	4900
864.164	4961
864.296	5075
864.428	5045
864.559	5117
864.691	5159
864.823	5094
864.954	5079
865.086	5140
865.217	5060
865.349	5075
865.48	5113
865.612	5170
865.743	5273
865.875	5159
866.006	5216
866.137	5174
866.269	5239
866.4	5185
866.531	5216
866.662	5231
866.793	5239
866.924	5277
867.055	5311
867.186	5337
867.317	5322
867.448	5330
867.579	5387
867.71	5383
867.841	5364
867.972	5395
868.103	5444
868.233	5505
868.364	5501
868.495	5566
868.625	5646
868.756	5783
868.886	5646
869.017	5779
869.147	5866
869.278	5844
869.408	5790
869.539	5809
869.669	5904
869.799	5904
869.929	5988
870.06	5984
870.19	6152
870.32	6178
870.45	6281
870.58	6319
870.71	6429
870.84	6467
870.97	6414
871.1	6464
871.23	6612
871.36	6730
871.489	6639
871.619	6738
871.749	6772
871.879	6897
872.008	6951
872.138	6947
872.267	6973
872.397	6962
872.526	7034
872.656	7046
872.785	7175
872.915	7407
873.044	7491
873.173	7552
873.303	7666
873.432	7704
873.561	7807
873.69	7879
873.819	8031
873.948	8180
874.077	8237
874.206	8339
874.335	8385
874.464	8602
874.593	8819
874.722	8937
874.851	9116
874.979	9211
875.108	9386
875.237	9462
875.365	9473
875.494	9667
875.623	9797
875.751	9888
875.88	9964
876.008	10105
876.136	10196
876.265	10554
876.393	10736
876.521	10706
876.65	10782
876.778	10793
876.906	10892
877.034	11006
877.162	11075
877.29	11132
877.418	11258
877.546	11387
877.674	11429
877.802	11562
877.93	11509
878.058	11551
878.185	11581
878.313	11604
878.441	11802
878.568	11665
878.696	11840
878.824	11779
878.951	11885
879.079	12045
879.206	12186
879.333	11992
879.461	12022
879.588	12136
879.715	12117
879.842	12247
879.97	12087
880.097	11923
880.224	11901
880.351	11961
880.478	11855
880.605	11927
880.732	11847
880.859	11969
880.986	11802
881.112	11775
881.239	11684
881.366	11592
881.493	11657
881.619	11554
881.746	11604
881.872	11482
881.999	11539
882.125	11452
882.252	11570
882.378	11505
882.505	11520
882.631	11341
882.757	11303
882.883	11254
883.01	11265
883.136	11113
883.262	11201
883.388	11086
883.514	11246
883.64	11212
883.766	11124
883.892	11006
884.018	10976
884.143	11124
884.269	11033
884.395	10850
884.52	10850
884.646	10835
884.772	10687
884.897	10664
885.023	10645
885.148	10698
885.274	10805
885.399	10656
885.524	10558
885.65	10538
885.775	10497
885.9	10584
886.025	10637
886.15	10588
886.275	10386
886.4	10428
886.525	10371
886.65	10363
886.775	10356
886.9	10474
887.025	10538
887.149	10402
887.274	10265
887.399	10135
887.523	10147
887.648	10131
887.773	10048
887.897	10284
888.021	10253
888.146	10109
888.27	10268
888.395	10181
888.519	10200
888.643	10112
888.767	10188
888.891	10162
889.015	10029
889.139	9983
889.263	9983
889.387	10059
889.511	10067
889.635	10109
889.759	9918
889.883	9987
890.006	9972
890.13	10074
890.254	9926
890.377	9922
890.501	9857
890.624	9903
890.748	9861
890.871	9800
890.995	9701
891.118	9713
891.241	9797
891.364	9766
891.488	9804
891.611	9724
891.734	9800
891.857	9838
891.98	9606
892.103	9781
892.226	9698
892.349	9663
892.471	9530
892.594	9534
892.717	9469
892.839	9587
892.962	9622
893.085	9587
893.207	9580
893.33	9458
893.452	9538
893.575	9561
893.697	9485
893.819	9599
893.941	9709
894.064	9671
894.186	9450
894.308	9424
894.43	9511
894.552	9614
894.674	9519
894.796	9424
894.918	9348
895.04	9348
895.161	9386
895.283	9336
895.405	9184
895.526	9218
895.648	9192
895.769	9222
895.891	9241
896.012	9226
896.134	9268
896.255	9142
896.376	9138
896.498	9127
896.619	9169
896.74	9062
896.861	9051
896.982	9233
897.103	9348
897.224	9154
897.345	9074
897.466	9005
897.587	9055
897.708	9116
897.828	9066
897.949	8979
898.07	8842
898.19	8895
898.311	8998
898.431	8853
898.552	8937
898.672	9017
898.792	8952
898.913	8895
899.033	8777
899.153	8716
899.273	8674
899.393	8693
899.513	8693
899.633	8769
899.753	8777
899.873	8674
899.993	8785
900.113	8678
900.232	8712
900.352	8659
900.472	8598
900.591	8568
900.711	8655
900.83	8511
900.95	8716
901.069	8625
901.189	8526
901.308	8400
901.427	8366
901.546	8450
901.665	8537
901.784	8465
901.904	8370
902.023	8309
902.141	8229
902.26	8183
902.379	8294
902.498	8172
902.617	8199
902.735	8320
902.854	8271
902.973	8240
903.091	8153
903.21	8100
903.328	8187
903.446	8092
903.565	8084
903.683	8035
903.801	8035
903.919	8077
904.038	8134
904.156	8046
904.274	8088
904.392	8020
904.51	8031
904.627	8069
904.745	8043
904.863	8145
904.981	7913
905.098	7906
905.216	7852
905.334	7944
905.451	7871
905.569	7913
905.686	7932
905.803	7887
905.921	7795
906.038	7826
906.155	7784
906.272	7658
906.389	7784
906.506	7616
906.623	7586
906.74	7594
906.857	7529
906.974	7575
907.091	7613
907.208	7685
907.324	7662
907.441	7559
907.557	7449
907.674	7487
907.79	7419
907.907	7384
908.023	7403
908.139	7434
908.256	7362
908.372	7373
908.488	7343
908.604	7270
908.72	7183
908.836	7259
908.952	7278
909.068	7312
909.184	7293
909.3	7274
909.415	7270
909.531	7259
909.647	7084
909.762	7095
909.878	7012
909.993	7084
910.108	7095
910.224	7031
910.339	7168
910.454	7012
910.57	6951
910.685	6966
910.8	7168
910.915	7156
911.03	6985
911.145	6905
911.259	6871
911.374	6878
911.489	6818
911.604	6810
911.718	6711
911.833	6726
911.947	6658
912.062	6570
912.176	6681
912.291	6738
912.405	6684
912.519	6806
912.633	6848
912.748	6662
912.862	6703
912.976	6506
913.09	6566
913.204	6582
913.318	6578
913.431	6642
913.545	6650
913.659	6711
913.772	6639
913.886	6547
914	6506
914.113	6665
914.226	6642
914.34	6616
914.453	6540
914.566	6650
914.68	6536
914.793	6521
914.906	6384
915.019	6391
915.132	6365
915.245	6422
915.358	6422
915.47	6445
915.583	6494
915.696	6441
915.809	6467
915.921	6532
916.034	6418
916.146	6460
916.259	6315
916.371	6433
916.483	6460
916.595	6399
916.708	6414
916.82	6338
916.932	6350
917.044	6357
917.156	6357
917.268	6300
917.38	6350
917.491	6357
917.603	6304
917.715	6395
917.826	6376
917.938	6270
918.049	6232
918.161	6281
918.272	6426
918.384	6418
918.495	6304
918.606	6262
918.717	6178
918.828	6270
918.939	6254
919.05	6194
919.161	6243
919.272	6079
919.383	6178
919.494	6308
919.604	6418
919.715	6270
919.826	6213
919.936	6205
920.047	6289
920.157	6281
920.267	6445
920.378	6342
920.488	6270
920.598	6475
920.708	6525
920.818	6467
920.928	6464
921.038	6597
921.148	6574
921.258	6342
921.368	6327
921.477	6201
921.587	6178
921.697	6030
921.806	6251
921.916	6053
922.025	5908
922.134	5855
922.244	5855
922.353	5939
922.462	5828
922.571	5764
922.68	5722
922.789	5638
922.898	5737
923.007	5611
923.116	5748
923.224	5649
923.333	5646
923.442	5596
923.55	5642
923.659	5497
923.767	5634
923.876	5539
923.984	5623
924.092	5455
924.201	5535
924.309	5551
924.417	5547
924.525	5452
924.633	5493
924.741	6285
924.849	5341
924.956	5486
925.064	5353
925.172	5292
925.279	5307
925.387	5322
925.494	5277
925.602	5395
925.709	5357
925.816	5254
925.924	5307
926.031	5337
926.138	5292
926.245	5303
926.352	5223
926.459	5318
926.566	5296
926.673	5174
926.779	5121
926.886	5109
926.993	4995
927.099	4972
927.206	4980
927.312	4896
927.419	5033
927.525	4934
927.631	5010
927.737	4881
927.843	4824
927.95	4759
928.056	4816
928.162	4797
928.267	4831
928.373	5360
928.479	4824
928.585	4691
928.69	4759
928.796	4771
928.901	4656
929.007	4565
929.112	4668
929.218	4641
929.323	4641
929.428	4546
929.533	4630
929.638	4531
929.743	4527
929.848	4577
929.953	4516
930.058	4417
930.163	4318
930.267	4348
930.372	4421
930.477	4272
930.581	4481
930.685	4352
930.79	4249
930.894	4280
930.998	4268
931.103	4405
931.207	4112
931.311	4048
931.415	4010
931.519	3930
931.623	3896
