Data from glass_V78500241_1733.txt Node
Date: Wed Sep 01 19:26:30 CST 2021
User: usil
Spectrometer: V785-0024
Trigger mode: 0
Integration Time (sec): 4.000000E-1
Scans to average: 1
Nonlinearity correction enabled: false
Boxcar width: 0
Storing dark spectrum: false
XAxis mode: Wavelengths
Number of Pixels in Spectrum: 1024
>>>>>Begin Spectral Data<<<<<
801.071	3736
801.214	3793
801.356	3717
801.499	3774
801.641	3743
801.783	3778
801.926	3835
802.068	3880
802.211	3857
802.353	3880
802.496	3846
802.638	3915
802.78	3865
802.923	3941
803.065	3941
803.208	3827
803.35	3865
803.492	3880
803.635	3888
803.777	3808
803.919	3884
804.061	4150
804.204	3941
804.346	3960
804.488	3911
804.63	4036
804.773	3956
804.915	3979
805.057	4150
805.199	4082
805.341	4048
805.483	4128
805.626	4093
805.768	4124
805.91	4219
806.052	4234
806.194	4173
806.336	4352
806.478	4227
806.62	4185
806.762	4158
806.904	4284
807.046	4394
807.188	4204
807.33	4158
807.472	4268
807.614	4192
807.756	4314
807.898	4215
808.04	4200
808.182	4242
808.324	4318
808.465	4352
808.607	4459
808.749	4443
808.891	4436
809.033	4535
809.174	4421
809.316	4215
809.458	4238
809.6	4120
809.741	4116
809.883	4135
810.025	4219
810.166	4246
810.308	4181
810.45	4272
810.591	4181
810.733	4272
810.875	4497
811.016	4801
811.158	5128
811.299	5269
811.441	5250
811.582	5029
811.724	4702
811.865	4428
812.007	4516
812.148	4440
812.29	4421
812.431	4398
812.573	4432
812.714	4379
812.855	4443
812.997	4428
813.138	4489
813.279	4402
813.421	4398
813.562	4413
813.703	4333
813.845	4318
813.986	4227
814.127	4200
814.268	4261
814.41	4291
814.551	4276
814.692	4276
814.833	4276
814.974	4249
815.115	4329
815.256	4246
815.397	4169
815.539	4227
815.68	4207
815.821	4196
815.962	4322
816.103	4303
816.244	4223
816.385	4230
816.526	4280
816.666	4185
816.807	4109
816.948	4158
817.089	4188
817.23	4131
817.371	4093
817.512	4074
817.653	4071
817.793	4021
817.934	4048
818.075	4101
818.216	4105
818.356	4097
818.497	3994
818.638	3911
818.778	3911
818.919	3926
819.06	3892
819.2	3903
819.341	3838
819.481	3842
819.622	3907
819.762	4063
819.903	3991
820.043	3888
820.184	3816
820.324	3831
820.465	3819
820.605	3846
820.746	3869
820.886	3797
821.026	3899
821.167	3926
821.307	3975
821.447	3964
821.588	3937
821.728	3968
821.868	3964
822.008	3850
822.149	3888
822.289	3911
822.429	3751
822.569	3751
822.709	3778
822.849	3720
822.99	3713
823.13	3774
823.27	3793
823.41	3701
823.55	3724
823.69	3671
823.83	3713
823.97	3709
824.11	3610
824.25	3599
824.389	3667
824.529	3679
824.669	3618
824.809	3709
824.949	3747
825.089	3747
825.228	3698
825.368	3557
825.508	3595
825.648	3561
825.787	3587
825.927	3614
826.067	3595
826.206	3625
826.346	3778
826.485	3896
826.625	3812
826.765	4010
826.904	3861
827.044	3561
827.183	3507
827.323	3431
827.462	3488
827.601	3443
827.741	3420
827.88	3420
828.02	3386
828.159	3462
828.298	3466
828.437	3485
828.577	3454
828.716	3572
828.855	3500
828.994	3397
829.134	3378
829.273	3374
829.412	3348
829.551	3351
829.69	3367
829.829	3401
829.968	3485
830.107	3454
830.246	3397
830.385	3382
830.524	3332
830.663	3306
830.802	3218
830.941	3237
831.08	3184
831.219	3313
831.357	3222
831.496	3420
831.635	3233
831.774	3188
831.913	3199
832.051	3108
832.19	3127
832.329	3218
832.467	3142
832.606	3077
832.744	3176
832.883	3180
833.022	3199
833.16	3253
833.299	3294
833.437	3336
833.576	3321
833.714	3409
833.852	3405
833.991	3431
834.129	3500
834.267	3428
834.406	3431
834.544	3416
834.682	3416
834.821	3439
834.959	3553
835.097	3435
835.235	3564
835.373	3447
835.511	3530
835.65	3477
835.788	3485
835.926	3409
836.064	3367
836.202	3450
836.34	3534
836.478	3580
836.615	3557
836.753	3629
836.891	3606
837.029	3663
837.167	3591
837.305	3530
837.443	3511
837.58	3485
837.718	3625
837.856	3542
837.993	3507
838.131	3599
838.269	3568
838.406	3568
838.544	3557
838.681	3534
838.819	3450
838.956	3351
839.094	3397
839.231	3431
839.369	3523
839.506	3724
839.643	3595
839.781	3488
839.918	3462
840.055	3523
840.193	3507
840.33	3500
840.467	3553
840.604	3629
840.742	3831
840.879	3538
841.016	3542
841.153	3606
841.29	3743
841.427	3717
841.564	3709
841.701	3709
841.838	3644
841.975	3720
842.112	3694
842.249	3610
842.385	3644
842.522	3831
842.659	3709
842.796	3633
842.933	3709
843.069	3705
843.206	3720
843.343	3827
843.479	3781
843.616	3823
843.752	3660
843.889	3679
844.025	3827
844.162	3732
844.298	3865
844.435	3797
844.571	3785
844.708	3899
844.844	3972
844.98	4002
845.117	4032
845.253	3979
845.389	3884
845.525	3979
845.661	3941
845.798	3918
845.934	3983
846.07	3953
846.206	4036
846.342	4093
846.478	4040
846.614	3953
846.75	3880
846.886	3915
847.022	4036
847.158	3953
847.294	4006
847.429	4051
847.565	3975
847.701	4188
847.837	3911
847.972	3854
848.108	3956
848.244	3987
848.379	3850
848.515	3835
848.65	3835
848.786	3888
848.921	3842
849.057	3926
849.192	3964
849.328	3884
849.463	3960
849.598	3869
849.734	3899
849.869	3812
850.004	3816
850.14	3759
850.275	3808
850.41	3724
850.545	3713
850.68	3736
850.815	3800
850.95	3804
851.085	3884
851.22	3857
851.355	3778
851.49	3762
851.625	3785
851.76	3846
851.895	3762
852.03	3740
852.165	3842
852.299	3819
852.434	3884
852.569	3899
852.703	3865
852.838	3937
852.973	4017
853.107	4025
853.242	3892
853.376	3797
853.511	3740
853.645	3831
853.78	3983
853.914	3846
854.048	3884
854.183	3861
854.317	3941
854.451	4055
854.585	3994
854.72	3903
854.854	4025
854.988	3964
855.122	3979
855.256	3922
855.39	3998
855.524	4139
855.658	4071
855.792	4059
855.926	4112
856.06	4188
856.194	4169
856.327	4147
856.461	4188
856.595	4166
856.729	4185
856.862	4265
856.996	4246
857.13	4272
857.263	4325
857.397	4367
857.53	4280
857.664	4284
857.797	4398
857.931	4413
858.064	4367
858.197	4440
858.331	4398
858.464	4367
858.597	4325
858.731	4417
858.864	4474
858.997	4459
859.13	4512
859.263	4512
859.396	4561
859.529	4519
859.662	4493
859.795	4531
859.928	4618
860.061	4744
860.194	4748
860.327	4691
860.46	4603
860.592	4725
860.725	4759
860.858	4771
860.99	4679
861.123	4649
861.256	4702
861.388	4782
861.521	5433
861.653	4748
861.786	4694
861.918	4733
862.05	4812
862.183	4824
862.315	4885
862.447	4919
862.58	4915
862.712	4721
862.844	4740
862.976	4881
863.108	4900
863.24	5269
863.372	4881
863.504	4892
863.636	4911
863.768	4999
863.9	4957
864.032	4892
864.164	4938
864.296	5010
864.428	5056
864.559	5136
864.691	5113
864.823	5128
864.954	5166
865.086	5159
865.217	5136
865.349	5151
865.48	5140
865.612	5174
865.743	5269
865.875	5159
866.006	5181
866.137	5216
866.269	5242
866.4	5242
866.531	5151
866.662	5220
866.793	5277
866.924	5284
867.055	5387
867.186	5341
867.317	5337
867.448	5269
867.579	5391
867.71	5391
867.841	5368
867.972	5436
868.103	5459
868.233	5493
868.364	5532
868.495	5554
868.625	5661
868.756	5786
868.886	5710
869.017	5756
869.147	5885
869.278	5874
869.408	5832
869.539	5920
869.669	5912
869.799	5893
869.929	5980
870.06	5999
870.19	6182
870.32	6224
870.45	6220
870.58	6369
870.71	6380
870.84	6498
870.97	6395
871.1	6445
871.23	6585
871.36	6722
871.489	6677
871.619	6768
871.749	6787
871.879	6924
872.008	6989
872.138	6981
872.267	7008
872.397	6943
872.526	6996
872.656	7168
872.785	7255
872.915	7403
873.044	7525
873.173	7548
873.303	7620
873.432	7677
873.561	7852
873.69	7928
873.819	8005
873.948	8210
874.077	8259
874.206	8347
874.335	8434
874.464	8678
874.593	8826
874.722	8933
874.851	9138
874.979	9275
875.108	9374
875.237	9370
875.365	9519
875.494	9591
875.623	9873
875.751	9846
875.88	10074
876.008	10097
876.136	10306
876.265	10481
876.393	10660
876.521	10653
876.65	10854
876.778	10938
876.906	10919
877.034	10999
877.162	11124
877.29	11136
877.418	11364
877.546	11311
877.674	11459
877.802	11452
877.93	11562
878.058	11577
878.185	11558
878.313	11695
878.441	11680
878.568	11680
878.696	11805
878.824	11889
878.951	11923
879.079	12060
879.206	12171
879.333	12076
879.461	12019
879.588	12011
879.715	12045
879.842	12194
879.97	12121
880.097	11847
880.224	11893
880.351	11851
880.478	11866
880.605	11745
880.732	11832
880.859	11931
880.986	11821
881.112	11882
881.239	11714
881.366	11661
881.493	11551
881.619	11573
881.746	11630
881.872	11558
881.999	11505
882.125	11444
882.252	11600
882.378	11512
882.505	11577
882.631	11387
882.757	11265
882.883	11307
883.01	11326
883.136	11185
883.262	11102
883.388	11102
883.514	11273
883.64	11185
883.766	11128
883.892	10995
884.018	10953
884.143	11037
884.269	11197
884.395	10869
884.52	10820
884.646	10755
884.772	10733
884.897	10660
885.023	10717
885.148	10744
885.274	10664
885.399	10733
885.524	10584
885.65	10630
885.775	10516
885.9	10603
886.025	10558
886.15	10569
886.275	10440
886.4	10386
886.525	10405
886.65	10356
886.775	10424
886.9	10485
887.025	10508
887.149	10356
887.274	10200
887.399	10238
887.523	10272
887.648	10211
887.773	10128
887.897	10162
888.021	10249
888.146	10207
888.27	10242
888.395	10196
888.519	10124
888.643	10181
888.767	10192
888.891	10131
889.015	10029
889.139	10044
889.263	9945
889.387	10051
889.511	10105
889.635	10055
889.759	10013
889.883	9922
890.006	10017
890.13	10032
890.254	9937
890.377	9922
890.501	9873
890.624	9880
890.748	9850
890.871	9743
890.995	9816
891.118	9686
891.241	9755
891.364	9819
891.488	9819
891.611	9766
891.734	9728
891.857	9720
891.98	9705
892.103	9736
892.226	9736
892.349	9644
892.471	9526
892.594	9572
892.717	9584
892.839	9580
892.962	9644
893.085	9667
893.207	9568
893.33	9515
893.452	9488
893.575	9625
893.697	9500
893.819	9675
893.941	9561
894.064	9629
894.186	9473
894.308	9412
894.43	9572
894.552	9481
894.674	9526
894.796	9382
894.918	9466
895.04	9355
895.161	9420
895.283	9321
895.405	9329
895.526	9298
895.648	9272
895.769	9218
895.891	9233
896.012	9298
896.134	9249
896.255	9154
896.376	9138
896.498	9104
896.619	9188
896.74	9039
896.861	9077
896.982	9291
897.103	9344
897.224	9211
897.345	9070
897.466	9005
897.587	8979
897.708	9104
897.828	9081
897.949	8963
898.07	8868
898.19	8918
898.311	9009
898.431	8925
898.552	8876
898.672	8971
898.792	8979
898.913	8887
899.033	8792
899.153	8766
899.273	8659
899.393	8777
899.513	8781
899.633	8746
899.753	8735
899.873	8655
899.993	8743
900.113	8754
900.232	8701
900.352	8640
900.472	8606
900.591	8625
900.711	8568
900.83	8598
900.95	8598
901.069	8804
901.189	8537
901.308	8461
901.427	8385
901.546	8434
901.665	8446
901.784	8492
901.904	8404
902.023	8374
902.141	8256
902.26	8172
902.379	8286
902.498	8206
902.617	8229
902.735	8313
902.854	8286
902.973	8271
903.091	8073
903.21	8145
903.328	8130
903.446	8123
903.565	8065
903.683	8168
903.801	8039
903.919	8062
904.038	8073
904.156	8027
904.274	8123
904.392	8016
904.51	8077
904.627	8073
904.745	8084
904.863	8058
904.981	7875
905.098	7883
905.216	7925
905.334	7932
905.451	7898
905.569	7883
905.686	7887
905.803	7879
905.921	7757
906.038	7879
906.155	7795
906.272	7643
906.389	7753
906.506	7643
906.623	7620
906.74	7559
906.857	7533
906.974	7525
907.091	7674
907.208	7696
907.324	7658
907.441	7590
907.557	7419
907.674	7453
907.79	7354
907.907	7430
908.023	7419
908.139	7441
908.256	7369
908.372	7327
908.488	7396
908.604	7369
908.72	7232
908.836	7289
908.952	7327
909.068	7232
909.184	7278
909.3	7263
909.415	7282
909.531	7270
909.647	7103
909.762	7110
909.878	7046
909.993	7107
910.108	7061
910.224	7034
910.339	7061
910.454	7019
910.57	7061
910.685	6928
910.8	7164
910.915	7137
911.03	6993
911.145	6878
911.259	6890
911.374	6890
911.489	6821
911.604	6783
911.718	6696
911.833	6711
911.947	6673
912.062	6654
912.176	6654
912.291	6776
912.405	6730
912.519	6863
912.633	6825
912.748	6753
912.862	6669
912.976	6585
913.09	6582
913.204	6601
913.318	6623
913.431	6684
913.545	6719
913.659	6757
913.772	6589
913.886	6506
914	6525
914.113	6620
914.226	6639
914.34	6582
914.453	6498
914.566	6612
914.68	6536
914.793	6551
914.906	6399
915.019	6346
915.132	6452
915.245	6369
915.358	6464
915.47	6429
915.583	6509
915.696	6445
915.809	6513
915.921	6547
916.034	6441
916.146	6433
916.259	6372
916.371	6448
916.483	6456
916.595	6426
916.708	6486
916.82	6426
916.932	6399
917.044	6357
917.156	6369
917.268	6300
917.38	6353
917.491	6327
917.603	6353
917.715	6369
917.826	6353
917.938	6353
918.049	6243
918.161	6369
918.272	6456
918.384	6448
918.495	6353
918.606	6296
918.717	6209
918.828	6209
918.939	6270
919.05	6232
919.161	6251
919.272	6159
919.383	6167
919.494	6266
919.604	6399
919.715	6266
919.826	6216
919.936	6178
920.047	6365
920.157	6254
920.267	6456
920.378	6327
920.488	6285
920.598	6437
920.708	6532
920.818	6452
920.928	6475
921.038	6574
921.148	6532
921.258	6338
921.368	6357
921.477	6235
921.587	6186
921.697	6045
921.806	6125
921.916	6095
922.025	5939
922.134	5832
922.244	5885
922.353	5961
922.462	5790
922.571	5817
922.68	5665
922.789	5653
922.898	5707
923.007	5604
923.116	5699
923.224	5657
923.333	5665
923.442	5596
923.55	5589
923.659	5623
923.767	5619
923.876	5570
923.984	5585
924.092	5543
924.201	5566
924.309	5520
924.417	5524
924.525	5486
924.633	5474
924.741	6319
924.849	5345
924.956	5474
925.064	5337
925.172	5349
925.279	5357
925.387	5360
925.494	5296
925.602	5387
925.709	5322
925.816	5242
925.924	5299
926.031	5349
926.138	5292
926.245	5330
926.352	5258
926.459	5284
926.566	5337
926.673	5208
926.779	5105
926.886	5105
926.993	5056
927.099	5022
927.206	4961
927.312	4953
927.419	5014
927.525	4991
927.631	4980
927.737	4843
927.843	4934
927.95	4748
928.056	4816
928.162	4816
928.267	4900
928.373	5379
928.479	4877
928.585	4645
928.69	4759
928.796	4771
928.901	4706
929.007	4584
929.112	4694
929.218	4656
929.323	4611
929.428	4531
929.533	4698
929.638	4538
929.743	4493
929.848	4519
929.953	4500
930.058	4455
930.163	4379
930.267	4287
930.372	4443
930.477	4287
930.581	4462
930.685	4322
930.79	4268
930.894	4306
930.998	4227
931.103	4398
931.207	4124
931.311	4105
931.415	4063
931.519	3903
931.623	3956
