Data from glass_V78500241_2596.txt Node
Date: Wed Sep 01 19:32:29 CST 2021
User: usil
Spectrometer: V785-0024
Trigger mode: 0
Integration Time (sec): 4.000000E-1
Scans to average: 1
Nonlinearity correction enabled: false
Boxcar width: 0
Storing dark spectrum: false
XAxis mode: Wavelengths
Number of Pixels in Spectrum: 1024
>>>>>Begin Spectral Data<<<<<
801.071	3755
801.214	3732
801.356	3698
801.499	3762
801.641	3720
801.783	3762
801.926	3846
802.068	3789
802.211	3835
802.353	3888
802.496	3831
802.638	3869
802.78	3899
802.923	3896
803.065	3888
803.208	3861
803.35	3850
803.492	3899
803.635	3934
803.777	3793
803.919	3865
804.061	4120
804.204	3949
804.346	3953
804.488	3892
804.63	4025
804.773	3983
804.915	4013
805.057	4128
805.199	4002
805.341	4101
805.483	4150
805.626	4109
805.768	4154
805.91	4230
806.052	4192
806.194	4181
806.336	4303
806.478	4215
806.62	4177
806.762	4177
806.904	4268
807.046	4314
807.188	4192
807.33	4128
807.472	4242
807.614	4143
807.756	4280
807.898	4238
808.04	4230
808.182	4310
808.324	4310
808.465	4402
808.607	4459
808.749	4424
808.891	4417
809.033	4516
809.174	4375
809.316	4223
809.458	4211
809.6	4097
809.741	4063
809.883	4150
810.025	4238
810.166	4169
810.308	4177
810.45	4211
810.591	4257
810.733	4325
810.875	4558
811.016	4771
811.158	5113
811.299	5254
811.441	5261
811.582	5075
811.724	4702
811.865	4417
812.007	4451
812.148	4455
812.29	4383
812.431	4409
812.573	4421
812.714	4371
812.855	4417
812.997	4413
813.138	4497
813.279	4413
813.421	4363
813.562	4379
813.703	4287
813.845	4322
813.986	4238
814.127	4196
814.268	4284
814.41	4261
814.551	4223
814.692	4276
814.833	4215
814.974	4280
815.115	4341
815.256	4211
815.397	4223
815.539	4287
815.68	4227
815.821	4230
815.962	4325
816.103	4280
816.244	4215
816.385	4249
816.526	4261
816.666	4188
816.807	4086
816.948	4188
817.089	4185
817.23	4139
817.371	4059
817.512	4025
817.653	4074
817.793	4059
817.934	4051
818.075	4093
818.216	4067
818.356	4074
818.497	3960
818.638	3934
818.778	3876
818.919	3850
819.06	3865
819.2	3907
819.341	3884
819.481	3793
819.622	3922
819.762	4036
819.903	3975
820.043	3896
820.184	3800
820.324	3804
820.465	3873
820.605	3850
820.746	3876
820.886	3778
821.026	3911
821.167	3899
821.307	3975
821.447	3960
821.588	3915
821.728	3956
821.868	3899
822.008	3896
822.149	3892
822.289	3915
822.429	3789
822.569	3728
822.709	3808
822.849	3713
822.99	3705
823.13	3736
823.27	3774
823.41	3675
823.55	3740
823.69	3690
823.83	3728
823.97	3686
824.11	3587
824.25	3584
824.389	3644
824.529	3652
824.669	3606
824.809	3690
824.949	3720
825.089	3732
825.228	3690
825.368	3584
825.508	3542
825.648	3538
825.787	3595
825.927	3641
826.067	3614
826.206	3660
826.346	3740
826.485	3778
826.625	3850
826.765	3907
826.904	3800
827.044	3629
827.183	3538
827.323	3424
827.462	3477
827.601	3397
827.741	3416
827.88	3424
828.02	3363
828.159	3462
828.298	3450
828.437	3530
828.577	3428
828.716	3545
828.855	3450
828.994	3401
829.134	3370
829.273	3374
829.412	3367
829.551	3321
829.69	3340
829.829	3409
829.968	3492
830.107	3397
830.246	3431
830.385	3389
830.524	3351
830.663	3268
830.802	3260
830.941	3184
831.08	3157
831.219	3222
831.357	3211
831.496	3386
831.635	3188
831.774	3165
831.913	3188
832.051	3093
832.19	3154
832.329	3218
832.467	3127
832.606	3089
832.744	3131
832.883	3188
833.022	3161
833.16	3237
833.299	3298
833.437	3351
833.576	3363
833.714	3424
833.852	3412
833.991	3469
834.129	3454
834.267	3431
834.406	3401
834.544	3450
834.682	3401
834.821	3401
834.959	3576
835.097	3409
835.235	3500
835.373	3504
835.511	3481
835.65	3443
835.788	3492
835.926	3397
836.064	3386
836.202	3412
836.34	3511
836.478	3587
836.615	3511
836.753	3606
836.891	3629
837.029	3625
837.167	3576
837.305	3530
837.443	3496
837.58	3507
837.718	3599
837.856	3542
837.993	3564
838.131	3591
838.269	3549
838.406	3572
838.544	3572
838.681	3454
838.819	3454
838.956	3374
839.094	3382
839.231	3466
839.369	3500
839.506	3705
839.643	3614
839.781	3477
839.918	3443
840.055	3523
840.193	3545
840.33	3526
840.467	3519
840.604	3629
840.742	3770
840.879	3561
841.016	3511
841.153	3595
841.29	3717
841.427	3732
841.564	3671
841.701	3732
841.838	3679
841.975	3644
842.112	3709
842.249	3633
842.385	3625
842.522	3827
842.659	3625
842.796	3633
842.933	3679
843.069	3724
843.206	3652
843.343	3846
843.479	3770
843.616	3778
843.752	3644
843.889	3625
844.025	3831
844.162	3701
844.298	3816
844.435	3766
844.571	3762
844.708	3880
844.844	3956
844.98	3998
845.117	3975
845.253	3918
845.389	3911
845.525	3949
845.661	3956
845.798	3937
845.934	4017
846.07	3930
846.206	4036
846.342	4101
846.478	4017
846.614	3979
846.75	3896
846.886	3911
847.022	4017
847.158	3975
847.294	3975
847.429	4051
847.565	4010
847.701	4200
847.837	3831
847.972	3880
848.108	3937
848.244	3949
848.379	3838
848.515	3793
848.65	3778
848.786	3816
848.921	3869
849.057	3899
849.192	3918
849.328	3880
849.463	3926
849.598	3869
849.734	3869
849.869	3774
850.004	3762
850.14	3778
850.275	3732
850.41	3774
850.545	3751
850.68	3762
850.815	3774
850.95	3793
851.085	3922
851.22	3880
851.355	3838
851.49	3816
851.625	3808
851.76	3804
851.895	3736
852.03	3736
852.165	3766
852.299	3838
852.434	3857
852.569	3861
852.703	3835
852.838	3922
852.973	3972
853.107	3964
853.242	3903
853.376	3903
853.511	3751
853.645	3800
853.78	3937
853.914	3892
854.048	3854
854.183	3888
854.317	3960
854.451	4063
854.585	3922
854.72	3922
854.854	4036
854.988	3960
855.122	3960
855.256	3915
855.39	4021
855.524	4067
855.658	4090
855.792	4059
855.926	4135
856.06	4147
856.194	4181
856.327	4139
856.461	4147
856.595	4139
856.729	4162
856.862	4249
856.996	4265
857.13	4329
857.263	4318
857.397	4344
857.53	4272
857.664	4341
857.797	4379
857.931	4413
858.064	4390
858.197	4386
858.331	4428
858.464	4356
858.597	4344
858.731	4371
858.864	4497
858.997	4409
859.13	4527
859.263	4538
859.396	4573
859.529	4527
859.662	4523
859.795	4508
859.928	4592
860.061	4706
860.194	4740
860.327	4626
860.46	4683
860.592	4714
860.725	4744
860.858	4782
860.99	4698
861.123	4675
861.256	4672
861.388	4736
861.521	5357
861.653	4698
861.786	4679
861.918	4691
862.05	4748
862.183	4843
862.315	4866
862.447	4923
862.58	4915
862.712	4774
862.844	4717
862.976	4862
863.108	4843
863.24	5204
863.372	4862
863.504	4873
863.636	4908
863.768	4957
863.9	4930
864.032	4896
864.164	4957
864.296	4976
864.428	5098
864.559	5121
864.691	5128
864.823	5155
864.954	5109
865.086	5147
865.217	5048
865.349	5098
865.48	5159
865.612	5181
865.743	5345
865.875	5185
866.006	5159
866.137	5273
866.269	5170
866.4	5201
866.531	5227
866.662	5246
866.793	5239
866.924	5265
867.055	5376
867.186	5315
867.317	5292
867.448	5334
867.579	5315
867.71	5353
867.841	5383
867.972	5417
868.103	5436
868.233	5520
868.364	5524
868.495	5516
868.625	5623
868.756	5733
868.886	5661
869.017	5691
869.147	5847
869.278	5836
869.408	5828
869.539	5802
869.669	5942
869.799	5889
869.929	5992
870.06	5999
870.19	6159
870.32	6190
870.45	6186
870.58	6350
870.71	6384
870.84	6426
870.97	6445
871.1	6483
871.23	6623
871.36	6688
871.489	6688
871.619	6795
871.749	6791
871.879	6837
872.008	6913
872.138	6913
872.267	7004
872.397	6989
872.526	7050
872.656	7095
872.785	7190
872.915	7384
873.044	7483
873.173	7491
873.303	7578
873.432	7674
873.561	7860
873.69	7890
873.819	8020
873.948	8115
874.077	8263
874.206	8275
874.335	8434
874.464	8655
874.593	8868
874.722	8895
874.851	9089
874.979	9211
875.108	9336
875.237	9401
875.365	9431
875.494	9648
875.623	9850
875.751	9804
875.88	9960
876.008	10150
876.136	10325
876.265	10447
876.393	10691
876.521	10687
876.65	10805
876.778	10904
876.906	10866
877.034	10984
877.162	11075
877.29	11102
877.418	11197
877.546	11307
877.674	11433
877.802	11414
877.93	11539
878.058	11455
878.185	11577
878.313	11665
878.441	11710
878.568	11722
878.696	11832
878.824	11840
878.951	12007
879.079	12060
879.206	12091
879.333	12026
879.461	11969
879.588	12083
879.715	12148
879.842	12224
879.97	12076
880.097	11859
880.224	11874
880.351	11893
880.478	11904
880.605	11790
880.732	11726
880.859	11973
880.986	11893
881.112	11798
881.239	11745
881.366	11646
881.493	11573
881.619	11528
881.746	11585
881.872	11573
881.999	11501
882.125	11471
882.252	11509
882.378	11509
882.505	11592
882.631	11391
882.757	11284
882.883	11269
883.01	11299
883.136	11109
883.262	11102
883.388	11060
883.514	11193
883.64	11170
883.766	11132
883.892	10968
884.018	11048
884.143	11041
884.269	11124
884.395	10809
884.52	10793
884.646	10767
884.772	10683
884.897	10706
885.023	10611
885.148	10702
885.274	10736
885.399	10744
885.524	10611
885.65	10577
885.775	10577
885.9	10565
886.025	10561
886.15	10485
886.275	10432
886.4	10310
886.525	10386
886.65	10417
886.775	10284
886.9	10436
887.025	10569
887.149	10382
887.274	10181
887.399	10196
887.523	10200
887.648	10211
887.773	10188
887.897	10192
888.021	10173
888.146	10135
888.27	10177
888.395	10230
888.519	10158
888.643	10128
888.767	10227
888.891	10109
889.015	9983
889.139	10097
889.263	9983
889.387	10147
889.511	10048
889.635	10063
889.759	10025
889.883	9960
890.006	9953
890.13	10135
890.254	9911
890.377	9918
890.501	9854
890.624	9774
890.748	9838
890.871	9808
890.995	9759
891.118	9724
891.241	9762
891.364	9720
891.488	9865
891.611	9751
891.734	9766
891.857	9717
891.98	9720
892.103	9720
892.226	9618
892.349	9690
892.471	9580
892.594	9599
892.717	9553
892.839	9530
892.962	9580
893.085	9709
893.207	9675
893.33	9469
893.452	9526
893.575	9568
893.697	9526
893.819	9580
893.941	9481
894.064	9614
894.186	9424
894.308	9428
894.43	9428
894.552	9477
894.674	9477
894.796	9397
894.918	9382
895.04	9374
895.161	9310
895.283	9317
895.405	9279
895.526	9317
895.648	9256
895.769	9230
895.891	9287
896.012	9279
896.134	9260
896.255	9154
896.376	9142
896.498	9161
896.619	9199
896.74	9097
896.861	9066
896.982	9211
897.103	9294
897.224	9169
897.345	9112
897.466	8971
897.587	8990
897.708	9051
897.828	9036
897.949	8971
898.07	8849
898.19	8921
898.311	9024
898.431	8876
898.552	8933
898.672	8944
898.792	8952
898.913	8921
899.033	8762
899.153	8735
899.273	8655
899.393	8663
899.513	8735
899.633	8773
899.753	8708
899.873	8670
899.993	8720
900.113	8693
900.232	8705
900.352	8629
900.472	8632
900.591	8606
900.711	8537
900.83	8571
900.95	8682
901.069	8670
901.189	8552
901.308	8461
901.427	8377
901.546	8396
901.665	8484
901.784	8476
901.904	8324
902.023	8320
902.141	8161
902.26	8168
902.379	8282
902.498	8187
902.617	8157
902.735	8339
902.854	8282
902.973	8225
903.091	8096
903.21	8134
903.328	8115
903.446	8119
903.565	8092
903.683	8035
903.801	8046
903.919	8073
904.038	8103
904.156	8027
904.274	8096
904.392	8065
904.51	7978
904.627	8027
904.745	8054
904.863	8111
904.981	7902
905.098	7868
905.216	7894
905.334	7860
905.451	7887
905.569	7833
905.686	7852
905.803	7902
905.921	7772
906.038	7875
906.155	7753
906.272	7681
906.389	7731
906.506	7616
906.623	7628
906.74	7597
906.857	7533
906.974	7605
907.091	7689
907.208	7738
907.324	7639
907.441	7575
907.557	7491
907.674	7468
907.79	7384
907.907	7388
908.023	7441
908.139	7460
908.256	7377
908.372	7343
908.488	7343
908.604	7263
908.72	7175
908.836	7278
908.952	7270
909.068	7278
909.184	7274
909.3	7209
909.415	7251
909.531	7244
909.647	7156
909.762	7099
909.878	7053
909.993	7095
910.108	7137
910.224	7095
910.339	7050
910.454	7069
910.57	6947
910.685	6977
910.8	7179
910.915	7118
911.03	7000
911.145	6890
911.259	6871
911.374	6913
911.489	6837
911.604	6795
911.718	6662
911.833	6745
911.947	6585
912.062	6585
912.176	6692
912.291	6715
912.405	6715
912.519	6810
912.633	6825
912.748	6745
912.862	6700
912.976	6578
913.09	6570
913.204	6547
913.318	6570
913.431	6623
913.545	6749
913.659	6627
913.772	6646
913.886	6551
914	6551
914.113	6627
914.226	6635
914.34	6578
914.453	6486
914.566	6635
914.68	6460
914.793	6559
914.906	6395
915.019	6422
915.132	6380
915.245	6403
915.358	6399
915.47	6460
915.583	6437
915.696	6467
915.809	6517
915.921	6536
916.034	6395
916.146	6475
916.259	6399
916.371	6464
916.483	6422
916.595	6399
916.708	6410
916.82	6323
916.932	6384
917.044	6311
917.156	6323
917.268	6273
917.38	6247
917.491	6289
917.603	6296
917.715	6403
917.826	6422
917.938	6262
918.049	6209
918.161	6319
918.272	6418
918.384	6422
918.495	6319
918.606	6224
918.717	6190
918.828	6251
918.939	6254
919.05	6194
919.161	6254
919.272	6102
919.383	6129
919.494	6308
919.604	6399
919.715	6220
919.826	6247
919.936	6209
920.047	6315
920.157	6251
920.267	6464
920.378	6308
920.488	6266
920.598	6460
920.708	6566
920.818	6429
920.928	6460
921.038	6574
921.148	6555
921.258	6361
921.368	6296
921.477	6201
921.587	6220
921.697	6110
921.806	6152
921.916	6072
922.025	5923
922.134	5923
922.244	5813
922.353	6011
922.462	5817
922.571	5828
922.68	5684
922.789	5707
922.898	5710
923.007	5630
923.116	5760
923.224	5657
923.333	5634
923.442	5585
923.55	5570
923.659	5596
923.767	5634
923.876	5505
923.984	5592
924.092	5535
924.201	5554
924.309	5600
924.417	5577
924.525	5448
924.633	5440
924.741	6171
924.849	5406
924.956	5482
925.064	5372
925.172	5269
925.279	5292
925.387	5379
925.494	5345
925.602	5360
925.709	5395
925.816	5265
925.924	5292
926.031	5345
926.138	5273
926.245	5280
926.352	5140
926.459	5326
926.566	5299
926.673	5136
926.779	5075
926.886	5113
926.993	5014
927.099	4965
927.206	4930
927.312	4965
927.419	4987
927.525	4942
927.631	4999
927.737	4877
927.843	4904
927.95	4778
928.056	4786
928.162	4782
928.267	4828
928.373	5242
928.479	4835
928.585	4706
928.69	4736
928.796	4790
928.901	4672
929.007	4558
929.112	4626
929.218	4634
929.323	4573
929.428	4535
929.533	4698
929.638	4497
929.743	4558
929.848	4565
929.953	4481
930.058	4413
930.163	4295
930.267	4333
930.372	4398
930.477	4303
930.581	4497
930.685	4348
930.79	4219
930.894	4230
930.998	4223
931.103	4390
931.207	4128
931.311	4074
931.415	3998
931.519	3934
931.623	3918
