Data from glass_V78500241_87.txt Node
Date: Wed Sep 01 19:15:06 CST 2021
User: usil
Spectrometer: V785-0024
Trigger mode: 0
Integration Time (sec): 4.000000E-1
Scans to average: 1
Nonlinearity correction enabled: false
Boxcar width: 0
Storing dark spectrum: false
XAxis mode: Wavelengths
Number of Pixels in Spectrum: 1024
>>>>>Begin Spectral Data<<<<<
801.071	3743
801.214	3755
801.356	3720
801.499	3747
801.641	3724
801.783	3781
801.926	3865
802.068	3861
802.211	3884
802.353	3896
802.496	3842
802.638	3896
802.78	3922
802.923	3918
803.065	3892
803.208	3854
803.35	3865
803.492	3956
803.635	3918
803.777	3793
803.919	3907
804.061	4131
804.204	3994
804.346	3987
804.488	3953
804.63	4029
804.773	4002
804.915	4044
805.057	4135
805.199	4067
805.341	4120
805.483	4143
805.626	4143
805.768	4128
805.91	4207
806.052	4268
806.194	4234
806.336	4371
806.478	4272
806.62	4192
806.762	4169
806.904	4276
807.046	4322
807.188	4192
807.33	4204
807.472	4227
807.614	4223
807.756	4261
807.898	4215
808.04	4207
808.182	4303
808.324	4383
808.465	4390
808.607	4428
808.749	4516
808.891	4428
809.033	4508
809.174	4451
809.316	4310
809.458	4261
809.6	4188
809.741	4116
809.883	4158
810.025	4215
810.166	4223
810.308	4207
810.45	4272
810.591	4261
810.733	4276
810.875	4546
811.016	4839
811.158	5140
811.299	5269
811.441	5296
811.582	5117
811.724	4664
811.865	4466
812.007	4519
812.148	4459
812.29	4398
812.431	4421
812.573	4402
812.714	4375
812.855	4481
812.997	4440
813.138	4485
813.279	4493
813.421	4413
813.562	4432
813.703	4344
813.845	4322
813.986	4276
814.127	4223
814.268	4280
814.41	4325
814.551	4299
814.692	4375
814.833	4299
814.974	4284
815.115	4356
815.256	4325
815.397	4249
815.539	4246
815.68	4207
815.821	4246
815.962	4322
816.103	4318
816.244	4295
816.385	4318
816.526	4268
816.666	4223
816.807	4131
816.948	4177
817.089	4223
817.23	4143
817.371	4032
817.512	4101
817.653	4109
817.793	4067
817.934	4025
818.075	4105
818.216	4059
818.356	4116
818.497	3975
818.638	3949
818.778	3903
818.919	3869
819.06	3888
819.2	3934
819.341	3907
819.481	3838
819.622	3937
819.762	3998
819.903	3960
820.043	3888
820.184	3915
820.324	3838
820.465	3915
820.605	3842
820.746	3922
820.886	3797
821.026	3991
821.167	3945
821.307	4021
821.447	4017
821.588	3949
821.728	3994
821.868	3941
822.008	3915
822.149	3926
822.289	3991
822.429	3800
822.569	3797
822.709	3823
822.849	3694
822.99	3717
823.13	3781
823.27	3816
823.41	3740
823.55	3736
823.69	3705
823.83	3751
823.97	3656
824.11	3625
824.25	3656
824.389	3641
824.529	3663
824.669	3663
824.809	3709
824.949	3781
825.089	3709
825.228	3736
825.368	3587
825.508	3610
825.648	3591
825.787	3564
825.927	3671
826.067	3610
826.206	3637
826.346	3770
826.485	3804
826.625	3899
826.765	3949
826.904	3846
827.044	3625
827.183	3564
827.323	3492
827.462	3511
827.601	3462
827.741	3431
827.88	3458
828.02	3355
828.159	3466
828.298	3492
828.437	3500
828.577	3435
828.716	3584
828.855	3530
828.994	3393
829.134	3363
829.273	3412
829.412	3397
829.551	3340
829.69	3382
829.829	3389
829.968	3515
830.107	3481
830.246	3462
830.385	3420
830.524	3393
830.663	3310
830.802	3226
830.941	3192
831.08	3218
831.219	3268
831.357	3298
831.496	3420
831.635	3241
831.774	3211
831.913	3203
832.051	3127
832.19	3127
832.329	3211
832.467	3138
832.606	3138
832.744	3150
832.883	3173
833.022	3211
833.16	3256
833.299	3291
833.437	3355
833.576	3367
833.714	3420
833.852	3504
833.991	3424
834.129	3447
834.267	3511
834.406	3393
834.544	3428
834.682	3454
834.821	3428
834.959	3584
835.097	3450
835.235	3530
835.373	3545
835.511	3507
835.65	3477
835.788	3500
835.926	3401
836.064	3367
836.202	3382
836.34	3580
836.478	3625
836.615	3564
836.753	3625
836.891	3656
837.029	3644
837.167	3629
837.305	3561
837.443	3564
837.58	3523
837.718	3618
837.856	3564
837.993	3580
838.131	3637
838.269	3572
838.406	3595
838.544	3572
838.681	3496
838.819	3454
838.956	3386
839.094	3420
839.231	3412
839.369	3549
839.506	3751
839.643	3625
839.781	3534
839.918	3530
840.055	3504
840.193	3542
840.33	3580
840.467	3568
840.604	3633
840.742	3838
840.879	3599
841.016	3599
841.153	3610
841.29	3766
841.427	3743
841.564	3698
841.701	3774
841.838	3675
841.975	3701
842.112	3709
842.249	3671
842.385	3705
842.522	3812
842.659	3698
842.796	3709
842.933	3736
843.069	3705
843.206	3728
843.343	3797
843.479	3797
843.616	3846
843.752	3728
843.889	3705
844.025	3884
844.162	3743
844.298	3857
844.435	3819
844.571	3842
844.708	3899
844.844	3991
844.98	4048
845.117	4044
845.253	3953
845.389	3884
845.525	4017
845.661	3991
845.798	3934
845.934	4036
846.07	3979
846.206	4109
846.342	4116
846.478	4097
846.614	3994
846.75	3949
846.886	3907
847.022	4071
847.158	3972
847.294	4017
847.429	3998
847.565	3998
847.701	4280
847.837	3934
847.972	3915
848.108	4002
848.244	3964
848.379	3896
848.515	3831
848.65	3793
848.786	3861
848.921	3850
849.057	3937
849.192	3979
849.328	3922
849.463	3922
849.598	3907
849.734	3876
849.869	3827
850.004	3797
850.14	3857
850.275	3827
850.41	3720
850.545	3785
850.68	3800
850.815	3831
850.95	3812
851.085	3949
851.22	3922
851.355	3869
851.49	3804
851.625	3842
851.76	3766
851.895	3728
852.03	3774
852.165	3831
852.299	3831
852.434	3873
852.569	3888
852.703	3899
852.838	4010
852.973	4002
853.107	3979
853.242	3937
853.376	3880
853.511	3770
853.645	3804
853.78	4029
853.914	3892
854.048	3930
854.183	3918
854.317	3956
854.451	4067
854.585	3945
854.72	3991
854.854	4055
854.988	3941
855.122	4044
855.256	3941
855.39	3991
855.524	4105
855.658	4048
855.792	4116
855.926	4173
856.06	4177
856.194	4207
856.327	4158
856.461	4147
856.595	4185
856.729	4200
856.862	4257
856.996	4287
857.13	4314
857.263	4341
857.397	4443
857.53	4299
857.664	4363
857.797	4409
857.931	4428
858.064	4440
858.197	4443
858.331	4413
858.464	4386
858.597	4367
858.731	4432
858.864	4500
858.997	4497
859.13	4512
859.263	4531
859.396	4577
859.529	4554
859.662	4599
859.795	4512
859.928	4607
860.061	4717
860.194	4729
860.327	4706
860.46	4683
860.592	4740
860.725	4774
860.858	4755
860.99	4634
861.123	4706
861.256	4702
861.388	4793
861.521	5516
861.653	4740
861.786	4733
861.918	4793
862.05	4820
862.183	4809
862.315	4889
862.447	4930
862.58	4938
862.712	4839
862.844	4771
862.976	4847
863.108	4824
863.24	5231
863.372	4870
863.504	4961
863.636	4919
863.768	4987
863.9	4961
864.032	4938
864.164	4934
864.296	5056
864.428	5113
864.559	5094
864.691	5124
864.823	5178
864.954	5124
865.086	5128
865.217	5128
865.349	5113
865.48	5197
865.612	5250
865.743	5326
865.875	5246
866.006	5235
866.137	5303
866.269	5239
866.4	5250
866.531	5204
866.662	5288
866.793	5258
866.924	5303
867.055	5368
867.186	5364
867.317	5337
867.448	5303
867.579	5383
867.71	5391
867.841	5410
867.972	5486
868.103	5429
868.233	5532
868.364	5501
868.495	5581
868.625	5684
868.756	5824
868.886	5680
869.017	5741
869.147	5840
869.278	5847
869.408	5821
869.539	5844
869.669	5931
869.799	5950
869.929	6007
870.06	6114
870.19	6258
870.32	6224
870.45	6319
870.58	6327
870.71	6467
870.84	6486
870.97	6429
871.1	6479
871.23	6642
871.36	6764
871.489	6642
871.619	6806
871.749	6821
871.879	6901
872.008	6989
872.138	6973
872.267	6996
872.397	6985
872.526	7012
872.656	7080
872.785	7183
872.915	7419
873.044	7445
873.173	7575
873.303	7662
873.432	7761
873.561	7868
873.69	7932
873.819	8073
873.948	8180
874.077	8229
874.206	8279
874.335	8450
874.464	8705
874.593	8891
874.722	8948
874.851	9085
874.979	9241
875.108	9412
875.237	9412
875.365	9542
875.494	9705
875.623	9785
875.751	9865
875.88	10044
876.008	10204
876.136	10306
876.265	10618
876.393	10687
876.521	10660
876.65	10812
876.778	10900
876.906	10938
877.034	11010
877.162	11109
877.29	11094
877.418	11223
877.546	11402
877.674	11455
877.802	11532
877.93	11539
878.058	11646
878.185	11566
878.313	11642
878.441	11767
878.568	11672
878.696	11771
878.824	11847
878.951	11939
879.079	11950
879.206	12117
879.333	12087
879.461	12003
879.588	12152
879.715	12038
879.842	12266
879.97	12057
880.097	11863
880.224	11901
880.351	11931
880.478	11916
880.605	11889
880.732	11863
880.859	12011
880.986	11748
881.112	11927
881.239	11756
881.366	11726
881.493	11596
881.619	11554
881.746	11646
881.872	11436
881.999	11630
882.125	11505
882.252	11577
882.378	11562
882.505	11646
882.631	11349
882.757	11231
882.883	11379
883.01	11360
883.136	11242
883.262	11151
883.388	11121
883.514	11269
883.64	11178
883.766	11117
883.892	11037
884.018	11052
884.143	11079
884.269	11109
884.395	10869
884.52	10850
884.646	10744
884.772	10729
884.897	10698
885.023	10717
885.148	10702
885.274	10828
885.399	10675
885.524	10592
885.65	10683
885.775	10653
885.9	10634
886.025	10664
886.15	10630
886.275	10462
886.4	10390
886.525	10371
886.65	10363
886.775	10341
886.9	10424
887.025	10546
887.149	10344
887.274	10253
887.399	10204
887.523	10150
887.648	10116
887.773	10097
887.897	10295
888.021	10230
888.146	10139
888.27	10337
888.395	10215
888.519	10143
888.643	10249
888.767	10204
888.891	10071
889.015	10078
889.139	10078
889.263	10036
889.387	10097
889.511	10101
889.635	10101
889.759	10021
889.883	10017
890.006	10078
890.13	10086
890.254	9972
890.377	10032
890.501	9873
890.624	9835
890.748	9857
890.871	9857
890.995	9755
891.118	9724
891.241	9804
891.364	9800
891.488	9835
891.611	9720
891.734	9709
891.857	9774
891.98	9686
892.103	9759
892.226	9823
892.349	9690
892.471	9553
892.594	9568
892.717	9648
892.839	9663
892.962	9625
893.085	9644
893.207	9667
893.33	9469
893.452	9545
893.575	9641
893.697	9488
893.819	9610
893.941	9663
894.064	9595
894.186	9428
894.308	9439
894.43	9572
894.552	9629
894.674	9538
894.796	9370
894.918	9386
895.04	9359
895.161	9450
895.283	9363
895.405	9241
895.526	9245
895.648	9310
895.769	9329
895.891	9195
896.012	9317
896.134	9260
896.255	9184
896.376	9131
896.498	9150
896.619	9253
896.74	9081
896.861	9066
896.982	9233
897.103	9351
897.224	9138
897.345	9051
897.466	9066
897.587	9089
897.708	9241
897.828	8990
897.949	8910
898.07	8902
898.19	8921
898.311	9039
898.431	8952
898.552	8986
898.672	8967
898.792	9013
898.913	8921
899.033	8853
899.153	8766
899.273	8678
899.393	8727
899.513	8785
899.633	8826
899.753	8830
899.873	8705
899.993	8785
900.113	8724
900.232	8746
900.352	8693
900.472	8602
900.591	8598
900.711	8571
900.83	8632
900.95	8667
901.069	8632
901.189	8583
901.308	8545
901.427	8396
901.546	8400
901.665	8461
901.784	8476
901.904	8446
902.023	8313
902.141	8252
902.26	8214
902.379	8282
902.498	8210
902.617	8214
902.735	8301
902.854	8301
902.973	8324
903.091	8134
903.21	8153
903.328	8176
903.446	8111
903.565	8088
903.683	8096
903.801	8016
903.919	8149
904.038	8191
904.156	7978
904.274	8065
904.392	8058
904.51	8005
904.627	8058
904.745	8130
904.863	8134
904.981	7970
905.098	7932
905.216	7894
905.334	7940
905.451	7913
905.569	7898
905.686	7913
905.803	7928
905.921	7826
906.038	7856
906.155	7772
906.272	7742
906.389	7772
906.506	7693
906.623	7647
906.74	7632
906.857	7537
906.974	7601
907.091	7674
907.208	7734
907.324	7704
907.441	7616
907.557	7544
907.674	7411
907.79	7407
907.907	7400
908.023	7514
908.139	7430
908.256	7434
908.372	7358
908.488	7362
908.604	7293
908.72	7308
908.836	7263
908.952	7194
909.068	7278
909.184	7324
909.3	7285
909.415	7297
909.531	7270
909.647	7171
909.762	7091
909.878	7099
909.993	7118
910.108	7091
910.224	7091
910.339	7156
910.454	7031
910.57	7004
910.685	6996
910.8	7209
910.915	7122
911.03	7076
911.145	6897
911.259	6844
911.374	6848
911.489	6867
911.604	6863
911.718	6753
911.833	6818
911.947	6642
912.062	6597
912.176	6749
912.291	6753
912.405	6696
912.519	6840
912.633	6833
912.748	6791
912.862	6722
912.976	6627
913.09	6528
913.204	6604
913.318	6570
913.431	6715
913.545	6692
913.659	6692
913.772	6669
913.886	6578
914	6570
914.113	6639
914.226	6635
914.34	6623
914.453	6513
914.566	6662
914.68	6582
914.793	6532
914.906	6464
915.019	6441
915.132	6365
915.245	6490
915.358	6445
915.47	6479
915.583	6456
915.696	6483
915.809	6479
915.921	6544
916.034	6452
916.146	6471
916.259	6414
916.371	6502
916.483	6483
916.595	6426
916.708	6384
916.82	6410
916.932	6380
917.044	6479
917.156	6448
917.268	6311
917.38	6365
917.491	6418
917.603	6376
917.715	6399
917.826	6467
917.938	6311
918.049	6277
918.161	6388
918.272	6399
918.384	6471
918.495	6346
918.606	6327
918.717	6205
918.828	6251
918.939	6292
919.05	6273
919.161	6304
919.272	6175
919.383	6209
919.494	6262
919.604	6483
919.715	6289
919.826	6205
919.936	6292
920.047	6300
920.157	6258
920.267	6513
920.378	6342
920.488	6273
920.598	6494
920.708	6563
920.818	6570
920.928	6544
921.038	6589
921.148	6616
921.258	6346
921.368	6369
921.477	6224
921.587	6182
921.697	6114
921.806	6209
921.916	6125
922.025	5954
922.134	5969
922.244	5893
922.353	5988
922.462	5863
922.571	5828
922.68	5737
922.789	5714
922.898	5729
923.007	5676
923.116	5805
923.224	5684
923.333	5718
923.442	5608
923.55	5649
923.659	5566
923.767	5646
923.876	5558
923.984	5707
924.092	5509
924.201	5566
924.309	5573
924.417	5520
924.525	5551
924.633	5535
924.741	6315
924.849	5444
924.956	5512
925.064	5357
925.172	5326
925.279	5379
925.387	5364
925.494	5360
925.602	5433
925.709	5379
925.816	5288
925.924	5322
926.031	5398
926.138	5357
926.245	5303
926.352	5227
926.459	5368
926.566	5337
926.673	5258
926.779	5151
926.886	5117
926.993	5056
927.099	5003
927.206	5025
927.312	5003
927.419	4976
927.525	4999
927.631	4984
927.737	4892
927.843	4831
927.95	4793
928.056	4854
928.162	4820
928.267	4870
928.373	5353
928.479	4820
928.585	4702
928.69	4801
928.796	4778
928.901	4656
929.007	4630
929.112	4698
929.218	4626
929.323	4607
929.428	4615
929.533	4691
929.638	4512
929.743	4592
929.848	4599
929.953	4599
930.058	4424
930.163	4329
930.267	4390
930.372	4455
930.477	4352
930.581	4500
930.685	4367
930.79	4234
930.894	4333
930.998	4276
931.103	4459
931.207	4120
931.311	4074
931.415	4059
931.519	3949
931.623	3964
