Data from glass_V78500241_2045.txt Node
Date: Wed Sep 01 19:28:40 CST 2021
User: usil
Spectrometer: V785-0024
Trigger mode: 0
Integration Time (sec): 4.000000E-1
Scans to average: 1
Nonlinearity correction enabled: false
Boxcar width: 0
Storing dark spectrum: false
XAxis mode: Wavelengths
Number of Pixels in Spectrum: 1024
>>>>>Begin Spectral Data<<<<<
801.071	3766
801.214	3728
801.356	3667
801.499	3751
801.641	3747
801.783	3778
801.926	3865
802.068	3804
802.211	3865
802.353	3896
802.496	3850
802.638	3903
802.78	3888
802.923	3915
803.065	3892
803.208	3842
803.35	3880
803.492	3873
803.635	3903
803.777	3812
803.919	3918
804.061	4105
804.204	3983
804.346	3930
804.488	3892
804.63	4048
804.773	3979
804.915	4036
805.057	4124
805.199	3983
805.341	4071
805.483	4116
805.626	4097
805.768	4093
805.91	4204
806.052	4253
806.194	4185
806.336	4284
806.478	4204
806.62	4162
806.762	4162
806.904	4329
807.046	4329
807.188	4185
807.33	4147
807.472	4204
807.614	4246
807.756	4246
807.898	4162
808.04	4177
808.182	4268
808.324	4280
808.465	4344
808.607	4466
808.749	4497
808.891	4474
809.033	4478
809.174	4409
809.316	4280
809.458	4223
809.6	4120
809.741	4158
809.883	4185
810.025	4181
810.166	4188
810.308	4223
810.45	4230
810.591	4261
810.733	4303
810.875	4481
811.016	4820
811.158	5181
811.299	5235
811.441	5273
811.582	5033
811.724	4714
811.865	4466
812.007	4413
812.148	4413
812.29	4379
812.431	4409
812.573	4409
812.714	4352
812.855	4390
812.997	4409
813.138	4489
813.279	4402
813.421	4402
813.562	4352
813.703	4375
813.845	4284
813.986	4249
814.127	4234
814.268	4261
814.41	4276
814.551	4287
814.692	4325
814.833	4257
814.974	4318
815.115	4333
815.256	4207
815.397	4188
815.539	4246
815.68	4185
815.821	4215
815.962	4303
816.103	4291
816.244	4223
816.385	4185
816.526	4306
816.666	4154
816.807	4128
816.948	4196
817.089	4207
817.23	4166
817.371	3991
817.512	4025
817.653	4093
817.793	4006
817.934	4021
818.075	4059
818.216	4067
818.356	4086
818.497	4036
818.638	3915
818.778	3899
818.919	3884
819.06	3854
819.2	3918
819.341	3854
819.481	3816
819.622	3896
819.762	3972
819.903	3911
820.043	3869
820.184	3846
820.324	3842
820.465	3880
820.605	3819
820.746	3842
820.886	3789
821.026	3880
821.167	3884
821.307	4013
821.447	3972
821.588	3945
821.728	3911
821.868	3968
822.008	3892
822.149	3926
822.289	3899
822.429	3808
822.569	3755
822.709	3850
822.849	3686
822.99	3717
823.13	3751
823.27	3724
823.41	3713
823.55	3755
823.69	3709
823.83	3743
823.97	3694
824.11	3625
824.25	3610
824.389	3576
824.529	3633
824.669	3622
824.809	3720
824.949	3736
825.089	3698
825.228	3732
825.368	3606
825.508	3557
825.648	3584
825.787	3599
825.927	3694
826.067	3572
826.206	3656
826.346	3778
826.485	3785
826.625	3838
826.765	3926
826.904	3896
827.044	3587
827.183	3507
827.323	3454
827.462	3500
827.601	3405
827.741	3424
827.88	3466
828.02	3389
828.159	3431
828.298	3462
828.437	3523
828.577	3428
828.716	3618
828.855	3519
828.994	3374
829.134	3374
829.273	3378
829.412	3329
829.551	3363
829.69	3325
829.829	3405
829.968	3488
830.107	3416
830.246	3515
830.385	3382
830.524	3340
830.663	3310
830.802	3256
830.941	3192
831.08	3207
831.219	3245
831.357	3268
831.496	3389
831.635	3256
831.774	3195
831.913	3214
832.051	3123
832.19	3127
832.329	3199
832.467	3127
832.606	3081
832.744	3180
832.883	3169
833.022	3173
833.16	3237
833.299	3310
833.437	3367
833.576	3325
833.714	3416
833.852	3416
833.991	3431
834.129	3443
834.267	3458
834.406	3382
834.544	3409
834.682	3443
834.821	3397
834.959	3580
835.097	3374
835.235	3526
835.373	3488
835.511	3557
835.65	3458
835.788	3462
835.926	3363
836.064	3409
836.202	3416
836.34	3561
836.478	3542
836.615	3564
836.753	3599
836.891	3644
837.029	3599
837.167	3561
837.305	3557
837.443	3526
837.58	3500
837.718	3587
837.856	3538
837.993	3542
838.131	3595
838.269	3599
838.406	3572
838.544	3584
838.681	3431
838.819	3435
838.956	3386
839.094	3370
839.231	3443
839.369	3515
839.506	3694
839.643	3644
839.781	3511
839.918	3424
840.055	3568
840.193	3538
840.33	3534
840.467	3561
840.604	3606
840.742	3797
840.879	3549
841.016	3545
841.153	3561
841.29	3755
841.427	3679
841.564	3736
841.701	3766
841.838	3690
841.975	3679
842.112	3732
842.249	3625
842.385	3671
842.522	3789
842.659	3724
842.796	3644
842.933	3660
843.069	3709
843.206	3736
843.343	3819
843.479	3797
843.616	3827
843.752	3637
843.889	3675
844.025	3846
844.162	3743
844.298	3861
844.435	3789
844.571	3781
844.708	3869
844.844	4006
844.98	4032
845.117	3998
845.253	3880
845.389	3873
845.525	3991
845.661	3960
845.798	3903
845.934	3964
846.07	3934
846.206	4017
846.342	4086
846.478	4048
846.614	3937
846.75	3941
846.886	3937
847.022	4025
847.158	3994
847.294	3994
847.429	4025
847.565	3983
847.701	4268
847.837	3869
847.972	3835
848.108	3941
848.244	3937
848.379	3854
848.515	3831
848.65	3816
848.786	3838
848.921	3854
849.057	3941
849.192	3907
849.328	3911
849.463	3922
849.598	3896
849.734	3865
849.869	3823
850.004	3800
850.14	3812
850.275	3770
850.41	3732
850.545	3694
850.68	3804
850.815	3797
850.95	3770
851.085	3937
851.22	3854
851.355	3861
851.49	3785
851.625	3781
851.76	3797
851.895	3732
852.03	3694
852.165	3819
852.299	3861
852.434	3884
852.569	3857
852.703	3896
852.838	3915
852.973	3991
853.107	3968
853.242	3876
853.376	3861
853.511	3766
853.645	3804
853.78	3983
853.914	3975
854.048	3903
854.183	3880
854.317	3987
854.451	4055
854.585	3964
854.72	3937
854.854	4025
854.988	3922
855.122	4010
855.256	3892
855.39	4040
855.524	4090
855.658	4090
855.792	4063
855.926	4105
856.06	4192
856.194	4192
856.327	4131
856.461	4097
856.595	4109
856.729	4158
856.862	4261
856.996	4215
857.13	4280
857.263	4337
857.397	4318
857.53	4268
857.664	4314
857.797	4383
857.931	4432
858.064	4375
858.197	4413
858.331	4371
858.464	4440
858.597	4337
858.731	4481
858.864	4421
858.997	4402
859.13	4512
859.263	4569
859.396	4607
859.529	4512
859.662	4516
859.795	4481
859.928	4561
860.061	4698
860.194	4748
860.327	4637
860.46	4615
860.592	4740
860.725	4793
860.858	4740
860.99	4717
861.123	4668
861.256	4672
861.388	4744
861.521	5330
861.653	4733
861.786	4729
861.918	4812
862.05	4805
862.183	4831
862.315	4870
862.447	4896
862.58	4900
862.712	4786
862.844	4740
862.976	4866
863.108	4919
863.24	5162
863.372	4839
863.504	4858
863.636	4847
863.768	4953
863.9	4934
864.032	4911
864.164	4949
864.296	5064
864.428	5071
864.559	5086
864.691	5086
864.823	5128
864.954	5113
865.086	5155
865.217	5094
865.349	5109
865.48	5132
865.612	5216
865.743	5261
865.875	5189
866.006	5227
866.137	5239
866.269	5254
866.4	5246
866.531	5254
866.662	5208
866.793	5258
866.924	5265
867.055	5368
867.186	5318
867.317	5303
867.448	5341
867.579	5372
867.71	5391
867.841	5318
867.972	5463
868.103	5459
868.233	5467
868.364	5490
868.495	5562
868.625	5649
868.756	5798
868.886	5668
869.017	5722
869.147	5870
869.278	5817
869.408	5805
869.539	5821
869.669	5961
869.799	5908
869.929	5992
870.06	6007
870.19	6197
870.32	6194
870.45	6281
870.58	6292
870.71	6445
870.84	6456
870.97	6403
871.1	6452
871.23	6574
871.36	6677
871.489	6681
871.619	6715
871.749	6802
871.879	6810
872.008	6932
872.138	6989
872.267	6970
872.397	6962
872.526	7038
872.656	7095
872.785	7145
872.915	7316
873.044	7597
873.173	7540
873.303	7651
873.432	7776
873.561	7928
873.69	7932
873.819	7997
873.948	8111
874.077	8252
874.206	8301
874.335	8484
874.464	8655
874.593	8845
874.722	8876
874.851	9142
874.979	9199
875.108	9302
875.237	9462
875.365	9454
875.494	9675
875.623	9778
875.751	9778
875.88	9987
876.008	10219
876.136	10211
876.265	10554
876.393	10698
876.521	10683
876.65	10740
876.778	10896
876.906	10968
877.034	10946
877.162	11094
877.29	11151
877.418	11254
877.546	11337
877.674	11471
877.802	11417
877.93	11539
878.058	11585
878.185	11596
878.313	11642
878.441	11665
878.568	11638
878.696	11794
878.824	11760
878.951	11935
879.079	12091
879.206	12129
879.333	12079
879.461	11927
879.588	12057
879.715	12053
879.842	12304
879.97	11999
880.097	11851
880.224	11916
880.351	11836
880.478	11805
880.605	11843
880.732	11855
880.859	11984
880.986	11783
881.112	11851
881.239	11748
881.366	11665
881.493	11634
881.619	11520
881.746	11532
881.872	11493
881.999	11452
882.125	11421
882.252	11535
882.378	11585
882.505	11512
882.631	11372
882.757	11269
882.883	11330
883.01	11181
883.136	11181
883.262	11109
883.388	11098
883.514	11193
883.64	11113
883.766	11208
883.892	11033
884.018	10991
884.143	11113
884.269	11094
884.395	10854
884.52	10759
884.646	10706
884.772	10592
884.897	10599
885.023	10641
885.148	10740
885.274	10782
885.399	10656
885.524	10645
885.65	10630
885.775	10611
885.9	10447
886.025	10611
886.15	10535
886.275	10440
886.4	10478
886.525	10390
886.65	10394
886.775	10360
886.9	10398
887.025	10561
887.149	10394
887.274	10204
887.399	10230
887.523	10169
887.648	10071
887.773	10105
887.897	10287
888.021	10166
888.146	10185
888.27	10249
888.395	10215
888.519	10112
888.643	10154
888.767	10150
888.891	10055
889.015	9998
889.139	10067
889.263	9934
889.387	10116
889.511	10158
889.635	10112
889.759	9945
889.883	9964
890.006	9956
890.13	10025
890.254	9975
890.377	9979
890.501	9835
890.624	9869
890.748	9895
890.871	9755
890.995	9743
891.118	9682
891.241	9728
891.364	9694
891.488	9808
891.611	9740
891.734	9743
891.857	9747
891.98	9644
892.103	9743
892.226	9789
892.349	9644
892.471	9523
892.594	9564
892.717	9530
892.839	9580
892.962	9496
893.085	9595
893.207	9557
893.33	9515
893.452	9557
893.575	9587
893.697	9458
893.819	9553
893.941	9679
894.064	9610
894.186	9443
894.308	9431
894.43	9561
894.552	9587
894.674	9549
894.796	9321
894.918	9389
895.04	9363
895.161	9332
895.283	9351
895.405	9272
895.526	9230
895.648	9279
895.769	9188
895.891	9253
896.012	9321
896.134	9226
896.255	9142
896.376	9100
896.498	9184
896.619	9146
896.74	9097
896.861	9062
896.982	9226
897.103	9291
897.224	9146
897.345	9116
897.466	9005
897.587	8971
897.708	9039
897.828	8994
897.949	9013
898.07	8899
898.19	8887
898.311	8990
898.431	8971
898.552	8948
898.672	8895
898.792	8842
898.913	8883
899.033	8826
899.153	8769
899.273	8602
899.393	8659
899.513	8762
899.633	8689
899.753	8739
899.873	8697
899.993	8750
900.113	8746
900.232	8727
900.352	8667
900.472	8484
900.591	8522
900.711	8610
900.83	8541
900.95	8682
901.069	8655
901.189	8514
901.308	8518
901.427	8389
901.546	8415
901.665	8454
901.784	8488
901.904	8446
902.023	8313
902.141	8183
902.26	8240
902.379	8271
902.498	8221
902.617	8206
902.735	8336
902.854	8279
902.973	8263
903.091	8123
903.21	8096
903.328	8187
903.446	8123
903.565	8016
903.683	8016
903.801	8046
903.919	8115
904.038	8123
904.156	8012
904.274	8088
904.392	8012
904.51	7974
904.627	7993
904.745	8058
904.863	8123
904.981	7890
905.098	7852
905.216	7830
905.334	7887
905.451	7871
905.569	7841
905.686	7868
905.803	7879
905.921	7826
906.038	7818
906.155	7772
906.272	7708
906.389	7708
906.506	7651
906.623	7639
906.74	7559
906.857	7529
906.974	7586
907.091	7647
907.208	7670
907.324	7613
907.441	7537
907.557	7453
907.674	7411
907.79	7422
907.907	7499
908.023	7426
908.139	7358
908.256	7331
908.372	7362
908.488	7407
908.604	7270
908.72	7209
908.836	7320
908.952	7232
909.068	7244
909.184	7263
909.3	7263
909.415	7255
909.531	7282
909.647	7122
909.762	7149
909.878	7103
909.993	7118
910.108	7095
910.224	7038
910.339	7088
910.454	7053
910.57	6951
910.685	6924
910.8	7133
910.915	7091
911.03	7053
911.145	6916
911.259	6863
911.374	6916
911.489	6795
911.604	6810
911.718	6719
911.833	6688
911.947	6642
912.062	6574
912.176	6673
912.291	6692
912.405	6696
912.519	6791
912.633	6821
912.748	6776
912.862	6677
912.976	6593
913.09	6589
913.204	6639
913.318	6646
913.431	6662
913.545	6669
913.659	6707
913.772	6665
913.886	6559
914	6570
914.113	6616
914.226	6635
914.34	6597
914.453	6429
914.566	6582
914.68	6467
914.793	6479
914.906	6498
915.019	6376
915.132	6410
915.245	6418
915.358	6380
915.47	6426
915.583	6429
915.696	6456
915.809	6540
915.921	6486
916.034	6410
916.146	6384
916.259	6391
916.371	6479
916.483	6467
916.595	6319
916.708	6418
916.82	6399
916.932	6407
917.044	6384
917.156	6384
917.268	6289
917.38	6361
917.491	6292
917.603	6376
917.715	6403
917.826	6448
917.938	6357
918.049	6247
918.161	6296
918.272	6429
918.384	6456
918.495	6342
918.606	6224
918.717	6197
918.828	6258
918.939	6327
919.05	6194
919.161	6262
919.272	6114
919.383	6114
919.494	6258
919.604	6452
919.715	6346
919.826	6213
919.936	6292
920.047	6308
920.157	6292
920.267	6471
920.378	6331
920.488	6247
920.598	6464
920.708	6540
920.818	6483
920.928	6460
921.038	6642
921.148	6597
921.258	6361
921.368	6281
921.477	6144
921.587	6186
921.697	6072
921.806	6133
921.916	6045
922.025	5958
922.134	5901
922.244	5817
922.353	5946
922.462	5866
922.571	5870
922.68	5680
922.789	5688
922.898	5672
923.007	5608
923.116	5699
923.224	5630
923.333	5619
923.442	5585
923.55	5516
923.659	5497
923.767	5638
923.876	5448
923.984	5562
924.092	5497
924.201	5562
924.309	5524
924.417	5539
924.525	5497
924.633	5448
924.741	6243
924.849	5444
924.956	5448
925.064	5349
925.172	5277
925.279	5315
925.387	5345
925.494	5330
925.602	5440
925.709	5395
925.816	5235
925.924	5357
926.031	5318
926.138	5318
926.245	5296
926.352	5261
926.459	5303
926.566	5345
926.673	5178
926.779	5143
926.886	5098
926.993	5025
927.099	5060
927.206	4927
927.312	4923
927.419	4991
927.525	4972
927.631	4949
927.737	4892
927.843	4828
927.95	4763
928.056	4835
928.162	4820
928.267	4801
928.373	5269
928.479	4847
928.585	4679
928.69	4805
928.796	4835
928.901	4702
929.007	4603
929.112	4691
929.218	4611
929.323	4611
929.428	4550
929.533	4656
929.638	4485
929.743	4531
929.848	4523
929.953	4428
930.058	4421
930.163	4299
930.267	4344
930.372	4413
930.477	4287
930.581	4459
930.685	4333
930.79	4253
930.894	4306
930.998	4261
931.103	4383
931.207	4139
931.311	4063
931.415	4013
931.519	3945
931.623	3937
