Data from glass_V78500241_1307.txt Node
Date: Wed Sep 01 19:23:33 CST 2021
User: usil
Spectrometer: V785-0024
Trigger mode: 0
Integration Time (sec): 4.000000E-1
Scans to average: 1
Nonlinearity correction enabled: false
Boxcar width: 0
Storing dark spectrum: false
XAxis mode: Wavelengths
Number of Pixels in Spectrum: 1024
>>>>>Begin Spectral Data<<<<<
801.071	3740
801.214	3732
801.356	3705
801.499	3781
801.641	3751
801.783	3793
801.926	3876
802.068	3850
802.211	3907
802.353	3876
802.496	3850
802.638	3915
802.78	3880
802.923	3915
803.065	3876
803.208	3816
803.35	3850
803.492	3884
803.635	3930
803.777	3831
803.919	3926
804.061	4139
804.204	3968
804.346	3941
804.488	3918
804.63	4063
804.773	3987
804.915	3994
805.057	4177
805.199	4044
805.341	4090
805.483	4124
805.626	4101
805.768	4139
805.91	4169
806.052	4227
806.194	4238
806.336	4413
806.478	4192
806.62	4242
806.762	4227
806.904	4242
807.046	4337
807.188	4230
807.33	4158
807.472	4276
807.614	4181
807.756	4257
807.898	4215
808.04	4234
808.182	4284
808.324	4295
808.465	4386
808.607	4485
808.749	4462
808.891	4504
809.033	4512
809.174	4383
809.316	4303
809.458	4257
809.6	4188
809.741	4154
809.883	4162
810.025	4234
810.166	4200
810.308	4234
810.45	4230
810.591	4230
810.733	4318
810.875	4485
811.016	4824
811.158	5117
811.299	5334
811.441	5280
811.582	5029
811.724	4736
811.865	4478
812.007	4421
812.148	4440
812.29	4428
812.431	4398
812.573	4417
812.714	4386
812.855	4424
812.997	4455
813.138	4493
813.279	4424
813.421	4329
813.562	4390
813.703	4310
813.845	4367
813.986	4272
814.127	4230
814.268	4299
814.41	4257
814.551	4261
814.692	4360
814.833	4287
814.974	4306
815.115	4348
815.256	4291
815.397	4268
815.539	4303
815.68	4219
815.821	4238
815.962	4299
816.103	4287
816.244	4253
816.385	4207
816.526	4234
816.666	4238
816.807	4090
816.948	4158
817.089	4207
817.23	4105
817.371	4067
817.512	4055
817.653	4082
817.793	4044
817.934	4051
818.075	4143
818.216	4036
818.356	4093
818.497	4021
818.638	3930
818.778	3922
818.919	3880
819.06	3857
819.2	3930
819.341	3880
819.481	3903
819.622	3915
819.762	4025
819.903	3934
820.043	3831
820.184	3842
820.324	3846
820.465	3926
820.605	3846
820.746	3888
820.886	3789
821.026	3941
821.167	3941
821.307	3994
821.447	3964
821.588	3945
821.728	3968
821.868	3926
822.008	3846
822.149	3903
822.289	3918
822.429	3785
822.569	3785
822.709	3804
822.849	3701
822.99	3698
823.13	3789
823.27	3762
823.41	3751
823.55	3728
823.69	3732
823.83	3766
823.97	3686
824.11	3610
824.25	3603
824.389	3675
824.529	3660
824.669	3705
824.809	3728
824.949	3751
825.089	3728
825.228	3709
825.368	3576
825.508	3587
825.648	3603
825.787	3580
825.927	3641
826.067	3637
826.206	3644
826.346	3816
826.485	3823
826.625	3816
826.765	3960
826.904	3804
827.044	3652
827.183	3530
827.323	3397
827.462	3469
827.601	3424
827.741	3462
827.88	3466
828.02	3359
828.159	3416
828.298	3454
828.437	3538
828.577	3462
828.716	3595
828.855	3481
828.994	3378
829.134	3370
829.273	3370
829.412	3329
829.551	3329
829.69	3370
829.829	3439
829.968	3511
830.107	3443
830.246	3405
830.385	3355
830.524	3401
830.663	3367
830.802	3256
830.941	3207
831.08	3203
831.219	3260
831.357	3237
831.496	3420
831.635	3256
831.774	3199
831.913	3199
832.051	3157
832.19	3127
832.329	3211
832.467	3150
832.606	3116
832.744	3150
832.883	3184
833.022	3188
833.16	3287
833.299	3272
833.437	3386
833.576	3355
833.714	3409
833.852	3439
833.991	3447
834.129	3477
834.267	3439
834.406	3378
834.544	3435
834.682	3359
834.821	3420
834.959	3584
835.097	3428
835.235	3519
835.373	3496
835.511	3511
835.65	3458
835.788	3485
835.926	3424
836.064	3389
836.202	3416
836.34	3599
836.478	3622
836.615	3534
836.753	3603
836.891	3660
837.029	3610
837.167	3576
837.305	3564
837.443	3507
837.58	3511
837.718	3591
837.856	3572
837.993	3568
838.131	3599
838.269	3618
838.406	3603
838.544	3553
838.681	3458
838.819	3447
838.956	3374
839.094	3367
839.231	3424
839.369	3534
839.506	3724
839.643	3660
839.781	3523
839.918	3488
840.055	3519
840.193	3568
840.33	3515
840.467	3572
840.604	3584
840.742	3800
840.879	3572
841.016	3561
841.153	3610
841.29	3759
841.427	3724
841.564	3701
841.701	3736
841.838	3675
841.975	3682
842.112	3705
842.249	3667
842.385	3633
842.522	3819
842.659	3679
842.796	3717
842.933	3705
843.069	3709
843.206	3713
843.343	3846
843.479	3827
843.616	3816
843.752	3648
843.889	3690
844.025	3880
844.162	3709
844.298	3869
844.435	3819
844.571	3781
844.708	3896
844.844	3975
844.98	4017
845.117	3994
845.253	3915
845.389	3884
845.525	4013
845.661	3998
845.798	3907
845.934	4002
846.07	3941
846.206	4055
846.342	4109
846.478	4036
846.614	3953
846.75	3949
846.886	3918
847.022	4051
847.158	3960
847.294	4059
847.429	4006
847.565	4017
847.701	4223
847.837	3865
847.972	3896
848.108	3991
848.244	3991
848.379	3846
848.515	3819
848.65	3789
848.786	3892
848.921	3846
849.057	3850
849.192	3968
849.328	3926
849.463	3918
849.598	3880
849.734	3857
849.869	3873
850.004	3774
850.14	3823
850.275	3808
850.41	3743
850.545	3717
850.68	3804
850.815	3789
850.95	3789
851.085	3972
851.22	3892
851.355	3865
851.49	3819
851.625	3789
851.76	3808
851.895	3747
852.03	3709
852.165	3812
852.299	3854
852.434	3926
852.569	3876
852.703	3892
852.838	3926
852.973	4029
853.107	3987
853.242	3880
853.376	3854
853.511	3770
853.645	3816
853.78	3949
853.914	3892
854.048	3865
854.183	3854
854.317	3953
854.451	4051
854.585	3983
854.72	3937
854.854	4017
854.988	3968
855.122	4021
855.256	3880
855.39	4059
855.524	4143
855.658	4078
855.792	4105
855.926	4139
856.06	4173
856.194	4207
856.327	4143
856.461	4086
856.595	4112
856.729	4128
856.862	4306
856.996	4257
857.13	4249
857.263	4299
857.397	4379
857.53	4325
857.664	4367
857.797	4402
857.931	4390
858.064	4356
858.197	4466
858.331	4390
858.464	4413
858.597	4341
858.731	4421
858.864	4478
858.997	4459
859.13	4546
859.263	4577
859.396	4588
859.529	4561
859.662	4504
859.795	4493
859.928	4546
860.061	4744
860.194	4740
860.327	4706
860.46	4675
860.592	4755
860.725	4744
860.858	4793
860.99	4672
861.123	4714
861.256	4721
861.388	4763
861.521	5383
861.653	4721
861.786	4714
861.918	4748
862.05	4767
862.183	4850
862.315	4915
862.447	4942
862.58	4881
862.712	4816
862.844	4809
862.976	4889
863.108	4862
863.24	5189
863.372	4847
863.504	4877
863.636	4877
863.768	5022
863.9	4927
864.032	4980
864.164	5006
864.296	5010
864.428	5083
864.559	5090
864.691	5140
864.823	5124
864.954	5109
865.086	5166
865.217	5083
865.349	5140
865.48	5170
865.612	5193
865.743	5349
865.875	5185
866.006	5231
866.137	5254
866.269	5269
866.4	5193
866.531	5227
866.662	5227
866.793	5307
866.924	5284
867.055	5326
867.186	5402
867.317	5307
867.448	5296
867.579	5391
867.71	5387
867.841	5395
867.972	5551
868.103	5452
868.233	5478
868.364	5512
868.495	5562
868.625	5707
868.756	5794
868.886	5710
869.017	5767
869.147	5893
869.278	5836
869.408	5828
869.539	5855
869.669	5908
869.799	5923
869.929	5988
870.06	6015
870.19	6243
870.32	6190
870.45	6319
870.58	6342
870.71	6414
870.84	6464
870.97	6384
871.1	6460
871.23	6703
871.36	6726
871.489	6631
871.619	6783
871.749	6871
871.879	6787
872.008	6993
872.138	6966
872.267	7053
872.397	6958
872.526	7015
872.656	7164
872.785	7168
872.915	7381
873.044	7529
873.173	7571
873.303	7643
873.432	7742
873.561	7894
873.69	7868
873.819	8027
873.948	8206
874.077	8180
874.206	8324
874.335	8427
874.464	8705
874.593	8872
874.722	8952
874.851	9112
874.979	9199
875.108	9401
875.237	9389
875.365	9458
875.494	9652
875.623	9778
875.751	9831
875.88	9930
876.008	10128
876.136	10314
876.265	10493
876.393	10733
876.521	10660
876.65	10805
876.778	10923
876.906	10877
877.034	10976
877.162	11079
877.29	11166
877.418	11360
877.546	11296
877.674	11417
877.802	11471
877.93	11600
878.058	11585
878.185	11611
878.313	11729
878.441	11752
878.568	11695
878.696	11760
878.824	11851
878.951	11969
879.079	12030
879.206	12140
879.333	12079
879.461	11996
879.588	12102
879.715	12053
879.842	12167
879.97	12121
880.097	11946
880.224	11912
880.351	11882
880.478	11950
880.605	11790
880.732	11836
880.859	12079
880.986	11824
881.112	11802
881.239	11802
881.366	11722
881.493	11619
881.619	11516
881.746	11562
881.872	11570
881.999	11539
882.125	11493
882.252	11459
882.378	11490
882.505	11615
882.631	11425
882.757	11299
882.883	11318
883.01	11311
883.136	11181
883.262	11166
883.388	11098
883.514	11136
883.64	11220
883.766	11083
883.892	11037
884.018	11037
884.143	11128
884.269	11086
884.395	10892
884.52	10778
884.646	10831
884.772	10736
884.897	10736
885.023	10672
885.148	10847
885.274	10786
885.399	10664
885.524	10596
885.65	10622
885.775	10569
885.9	10535
886.025	10538
886.15	10531
886.275	10542
886.4	10440
886.525	10367
886.65	10409
886.775	10386
886.9	10432
887.025	10596
887.149	10421
887.274	10253
887.399	10207
887.523	10211
887.648	10158
887.773	10185
887.897	10234
888.021	10238
888.146	10200
888.27	10265
888.395	10204
888.519	10177
888.643	10150
888.767	10154
888.891	10090
889.015	10013
889.139	10074
889.263	9975
889.387	10078
889.511	10048
889.635	10097
889.759	9983
889.883	10013
890.006	10048
890.13	10067
890.254	9975
890.377	9991
890.501	9915
890.624	9873
890.748	9949
890.871	9842
890.995	9827
891.118	9774
891.241	9808
891.364	9770
891.488	9831
891.611	9774
891.734	9755
891.857	9812
891.98	9740
892.103	9774
892.226	9694
892.349	9606
892.471	9603
892.594	9663
892.717	9637
892.839	9606
892.962	9625
893.085	9675
893.207	9561
893.33	9507
893.452	9511
893.575	9641
893.697	9481
893.819	9606
893.941	9606
894.064	9656
894.186	9416
894.308	9329
894.43	9530
894.552	9542
894.674	9469
894.796	9386
894.918	9397
895.04	9275
895.161	9386
895.283	9317
895.405	9253
895.526	9222
895.648	9294
895.769	9214
895.891	9359
896.012	9302
896.134	9233
896.255	9165
896.376	9180
896.498	9138
896.619	9138
896.74	9039
896.861	9097
896.982	9306
897.103	9302
897.224	9135
897.345	9032
897.466	9013
897.587	9013
897.708	9192
897.828	9093
897.949	8998
898.07	8830
898.19	8948
898.311	9089
898.431	8902
898.552	8979
898.672	8979
898.792	8990
898.913	8883
899.033	8842
899.153	8746
899.273	8693
899.393	8769
899.513	8720
899.633	8708
899.753	8739
899.873	8701
899.993	8739
900.113	8655
900.232	8815
900.352	8674
900.472	8701
900.591	8537
900.711	8579
900.83	8564
900.95	8705
901.069	8644
901.189	8552
901.308	8434
901.427	8377
901.546	8362
901.665	8450
901.784	8495
901.904	8419
902.023	8343
902.141	8271
902.26	8240
902.379	8275
902.498	8237
902.617	8298
902.735	8309
902.854	8301
902.973	8305
903.091	8164
903.21	8187
903.328	8199
903.446	8107
903.565	7974
903.683	8081
903.801	8020
903.919	8168
904.038	8123
904.156	7986
904.274	8126
904.392	8100
904.51	8024
904.627	8024
904.745	8050
904.863	8088
904.981	7902
905.098	7830
905.216	7887
905.334	7940
905.451	7909
905.569	7959
905.686	7913
905.803	7887
905.921	7750
906.038	7909
906.155	7822
906.272	7700
906.389	7753
906.506	7708
906.623	7696
906.74	7552
906.857	7559
906.974	7578
907.091	7670
907.208	7734
907.324	7624
907.441	7582
907.557	7499
907.674	7445
907.79	7487
907.907	7384
908.023	7422
908.139	7441
908.256	7464
908.372	7339
908.488	7343
908.604	7305
908.72	7175
908.836	7293
908.952	7156
909.068	7285
909.184	7320
909.3	7247
909.415	7263
909.531	7312
909.647	7107
909.762	7107
909.878	7061
909.993	7076
910.108	7099
910.224	7069
910.339	7103
910.454	7053
910.57	7069
910.685	6935
910.8	7175
910.915	7084
911.03	7084
911.145	6894
911.259	6890
911.374	6875
911.489	6821
911.604	6840
911.718	6741
911.833	6715
911.947	6692
912.062	6604
912.176	6688
912.291	6741
912.405	6707
912.519	6840
912.633	6806
912.748	6715
912.862	6692
912.976	6578
913.09	6517
913.204	6604
913.318	6578
913.431	6730
913.545	6719
913.659	6700
913.772	6677
913.886	6570
914	6513
914.113	6612
914.226	6608
914.34	6620
914.453	6525
914.566	6574
914.68	6566
914.793	6547
914.906	6429
915.019	6452
915.132	6388
915.245	6467
915.358	6471
915.47	6471
915.583	6494
915.696	6460
915.809	6525
915.921	6551
916.034	6471
916.146	6445
916.259	6403
916.371	6494
916.483	6445
916.595	6346
916.708	6452
916.82	6399
916.932	6410
917.044	6452
917.156	6407
917.268	6304
917.38	6441
917.491	6350
917.603	6350
917.715	6410
917.826	6391
917.938	6296
918.049	6235
918.161	6372
918.272	6384
918.384	6426
918.495	6395
918.606	6292
918.717	6159
918.828	6266
918.939	6273
919.05	6239
919.161	6220
919.272	6110
919.383	6129
919.494	6311
919.604	6448
919.715	6262
919.826	6213
919.936	6254
920.047	6319
920.157	6273
920.267	6437
920.378	6353
920.488	6254
920.598	6441
920.708	6563
920.818	6467
920.928	6498
921.038	6650
921.148	6563
921.258	6350
921.368	6281
921.477	6296
921.587	6159
921.697	6117
921.806	6190
921.916	6053
922.025	5939
922.134	5870
922.244	5889
922.353	5965
922.462	5836
922.571	5779
922.68	5722
922.789	5714
922.898	5707
923.007	5627
923.116	5733
923.224	5676
923.333	5630
923.442	5608
923.55	5604
923.659	5562
923.767	5649
923.876	5532
923.984	5619
924.092	5505
924.201	5554
924.309	5516
924.417	5543
924.525	5490
924.633	5505
924.741	6319
924.849	5353
924.956	5459
925.064	5330
925.172	5299
925.279	5326
925.387	5387
925.494	5360
925.602	5433
925.709	5391
925.816	5296
925.924	5330
926.031	5349
926.138	5318
926.245	5391
926.352	5261
926.459	5311
926.566	5330
926.673	5181
926.779	5109
926.886	5181
926.993	5022
927.099	5003
927.206	4991
927.312	4957
927.419	5033
927.525	5010
927.631	4991
927.737	4896
927.843	4866
927.95	4778
928.056	4812
928.162	4858
928.267	4885
928.373	5307
928.479	4892
928.585	4660
928.69	4771
928.796	4824
928.901	4672
929.007	4611
929.112	4679
929.218	4645
929.323	4630
929.428	4596
929.533	4672
929.638	4519
929.743	4531
929.848	4523
929.953	4504
930.058	4413
930.163	4287
930.267	4375
930.372	4447
930.477	4360
930.581	4485
930.685	4333
930.79	4230
930.894	4299
930.998	4249
931.103	4424
931.207	4116
931.311	4128
931.415	4074
931.519	3930
931.623	3979
