Data from glass_V78500241_1445.txt Node
Date: Wed Sep 01 19:24:31 CST 2021
User: usil
Spectrometer: V785-0024
Trigger mode: 0
Integration Time (sec): 4.000000E-1
Scans to average: 1
Nonlinearity correction enabled: false
Boxcar width: 0
Storing dark spectrum: false
XAxis mode: Wavelengths
Number of Pixels in Spectrum: 1024
>>>>>Begin Spectral Data<<<<<
801.071	3690
801.214	3713
801.356	3740
801.499	3766
801.641	3751
801.783	3743
801.926	3846
802.068	3831
802.211	3857
802.353	3876
802.496	3861
802.638	3865
802.78	3854
802.923	3945
803.065	3915
803.208	3835
803.35	3880
803.492	3899
803.635	3892
803.777	3812
803.919	3907
804.061	4169
804.204	3960
804.346	3926
804.488	3896
804.63	4040
804.773	3960
804.915	4021
805.057	4090
805.199	4036
805.341	4044
805.483	4097
805.626	4166
805.768	4112
805.91	4204
806.052	4207
806.194	4211
806.336	4363
806.478	4230
806.62	4219
806.762	4143
806.904	4242
807.046	4348
807.188	4204
807.33	4177
807.472	4265
807.614	4128
807.756	4253
807.898	4234
808.04	4238
808.182	4291
808.324	4333
808.465	4394
808.607	4462
808.749	4455
808.891	4447
809.033	4481
809.174	4421
809.316	4280
809.458	4242
809.6	4162
809.741	4162
809.883	4101
810.025	4223
810.166	4192
810.308	4238
810.45	4253
810.591	4249
810.733	4314
810.875	4485
811.016	4847
811.158	5105
811.299	5277
811.441	5250
811.582	5083
811.724	4672
811.865	4485
812.007	4451
812.148	4398
812.29	4440
812.431	4390
812.573	4409
812.714	4360
812.855	4428
812.997	4405
813.138	4512
813.279	4394
813.421	4436
813.562	4383
813.703	4333
813.845	4314
813.986	4230
814.127	4234
814.268	4261
814.41	4310
814.551	4238
814.692	4303
814.833	4280
814.974	4360
815.115	4367
815.256	4287
815.397	4246
815.539	4253
815.68	4268
815.821	4196
815.962	4306
816.103	4265
816.244	4223
816.385	4215
816.526	4287
816.666	4230
816.807	4120
816.948	4185
817.089	4147
817.23	4109
817.371	4036
817.512	4032
817.653	4044
817.793	4036
817.934	4090
818.075	4097
818.216	4078
818.356	4101
818.497	4063
818.638	3915
818.778	3922
818.919	3873
819.06	3846
819.2	3922
819.341	3869
819.481	3838
819.622	3926
819.762	4055
819.903	3968
820.043	3865
820.184	3808
820.324	3861
820.465	3918
820.605	3842
820.746	3861
820.886	3789
821.026	3937
821.167	3934
821.307	3975
821.447	3956
821.588	3983
821.728	3972
821.868	3926
822.008	3854
822.149	3911
822.289	3903
822.429	3778
822.569	3717
822.709	3800
822.849	3686
822.99	3747
823.13	3751
823.27	3762
823.41	3720
823.55	3709
823.69	3720
823.83	3705
823.97	3679
824.11	3591
824.25	3572
824.389	3637
824.529	3644
824.669	3656
824.809	3694
824.949	3724
825.089	3747
825.228	3667
825.368	3580
825.508	3603
825.648	3614
825.787	3625
825.927	3625
826.067	3633
826.206	3648
826.346	3800
826.485	3819
826.625	3876
826.765	3911
826.904	3804
827.044	3580
827.183	3545
827.323	3454
827.462	3519
827.601	3439
827.741	3466
827.88	3473
828.02	3363
828.159	3439
828.298	3454
828.437	3538
828.577	3519
828.716	3572
828.855	3534
828.994	3393
829.134	3363
829.273	3370
829.412	3336
829.551	3344
829.69	3367
829.829	3439
829.968	3515
830.107	3447
830.246	3435
830.385	3431
830.524	3370
830.663	3306
830.802	3253
830.941	3207
831.08	3188
831.219	3256
831.357	3268
831.496	3420
831.635	3237
831.774	3192
831.913	3222
832.051	3146
832.19	3165
832.329	3237
832.467	3146
832.606	3142
832.744	3211
832.883	3195
833.022	3226
833.16	3302
833.299	3291
833.437	3332
833.576	3382
833.714	3405
833.852	3420
833.991	3492
834.129	3454
834.267	3504
834.406	3416
834.544	3405
834.682	3447
834.821	3416
834.959	3545
835.097	3401
835.235	3526
835.373	3469
835.511	3504
835.65	3401
835.788	3462
835.926	3435
836.064	3378
836.202	3447
836.34	3568
836.478	3603
836.615	3587
836.753	3603
836.891	3644
837.029	3625
837.167	3549
837.305	3568
837.443	3599
837.58	3549
837.718	3576
837.856	3584
837.993	3538
838.131	3652
838.269	3587
838.406	3629
838.544	3629
838.681	3469
838.819	3485
838.956	3401
839.094	3367
839.231	3496
839.369	3542
839.506	3740
839.643	3610
839.781	3488
839.918	3485
840.055	3519
840.193	3549
840.33	3526
840.467	3561
840.604	3652
840.742	3804
840.879	3561
841.016	3530
841.153	3614
841.29	3740
841.427	3732
841.564	3675
841.701	3720
841.838	3705
841.975	3686
842.112	3705
842.249	3652
842.385	3637
842.522	3797
842.659	3644
842.796	3660
842.933	3701
843.069	3705
843.206	3694
843.343	3831
843.479	3747
843.616	3793
843.752	3660
843.889	3728
844.025	3865
844.162	3686
844.298	3873
844.435	3808
844.571	3759
844.708	3926
844.844	3964
844.98	4040
845.117	4021
845.253	3915
845.389	3918
845.525	3994
845.661	3926
845.798	3918
845.934	3975
846.07	3956
846.206	4067
846.342	4086
846.478	4048
846.614	3983
846.75	3930
846.886	3896
847.022	4025
847.158	3937
847.294	3998
847.429	4021
847.565	4017
847.701	4238
847.837	3865
847.972	3854
848.108	3987
848.244	3987
848.379	3835
848.515	3823
848.65	3819
848.786	3823
848.921	3888
849.057	3945
849.192	3918
849.328	3911
849.463	3956
849.598	3861
849.734	3865
849.869	3850
850.004	3819
850.14	3819
850.275	3797
850.41	3732
850.545	3793
850.68	3759
850.815	3831
850.95	3781
851.085	3945
851.22	3861
851.355	3842
851.49	3838
851.625	3804
851.76	3774
851.895	3781
852.03	3728
852.165	3823
852.299	3842
852.434	3899
852.569	3857
852.703	3861
852.838	3934
852.973	4006
853.107	4013
853.242	3945
853.376	3827
853.511	3759
853.645	3808
853.78	3968
853.914	3869
854.048	3892
854.183	3842
854.317	3945
854.451	4090
854.585	3960
854.72	3975
854.854	4021
854.988	3918
855.122	4006
855.256	3915
855.39	4010
855.524	4112
855.658	4059
855.792	4116
855.926	4128
856.06	4154
856.194	4223
856.327	4147
856.461	4105
856.595	4143
856.729	4173
856.862	4306
856.996	4261
857.13	4268
857.263	4314
857.397	4363
857.53	4322
857.664	4367
857.797	4386
857.931	4417
858.064	4402
858.197	4424
858.331	4363
858.464	4413
858.597	4352
858.731	4474
858.864	4462
858.997	4455
859.13	4527
859.263	4561
859.396	4584
859.529	4569
859.662	4599
859.795	4527
859.928	4577
860.061	4691
860.194	4721
860.327	4626
860.46	4660
860.592	4740
860.725	4744
860.858	4744
860.99	4656
861.123	4683
861.256	4725
861.388	4778
861.521	5307
861.653	4706
861.786	4729
861.918	4759
862.05	4771
862.183	4873
862.315	4904
862.447	4934
862.58	4873
862.712	4786
862.844	4759
862.976	4847
863.108	4889
863.24	5189
863.372	4873
863.504	4915
863.636	4938
863.768	4995
863.9	5006
864.032	4949
864.164	4965
864.296	5006
864.428	5071
864.559	5124
864.691	5117
864.823	5178
864.954	5136
865.086	5197
865.217	5105
865.349	5121
865.48	5109
865.612	5258
865.743	5254
865.875	5181
866.006	5212
866.137	5261
866.269	5231
866.4	5334
866.531	5212
866.662	5227
866.793	5288
866.924	5246
867.055	5326
867.186	5337
867.317	5315
867.448	5307
867.579	5372
867.71	5425
867.841	5387
867.972	5459
868.103	5490
868.233	5490
868.364	5570
868.495	5543
868.625	5672
868.756	5809
868.886	5649
869.017	5726
869.147	5855
869.278	5844
869.408	5836
869.539	5821
869.669	5942
869.799	5923
869.929	6011
870.06	5984
870.19	6213
870.32	6194
870.45	6289
870.58	6327
870.71	6418
870.84	6475
870.97	6422
871.1	6391
871.23	6616
871.36	6650
871.489	6601
871.619	6707
871.749	6783
871.879	6867
872.008	6935
872.138	6951
872.267	7015
872.397	6943
872.526	6985
872.656	7114
872.785	7141
872.915	7392
873.044	7480
873.173	7578
873.303	7666
873.432	7750
873.561	7849
873.69	7883
873.819	8054
873.948	8206
874.077	8237
874.206	8317
874.335	8476
874.464	8674
874.593	8815
874.722	8929
874.851	9123
874.979	9214
875.108	9420
875.237	9439
875.365	9500
875.494	9675
875.623	9869
875.751	9835
875.88	9991
876.008	10112
876.136	10219
876.265	10538
876.393	10691
876.521	10717
876.65	10835
876.778	10915
876.906	10866
877.034	11018
877.162	11124
877.29	11140
877.418	11337
877.546	11356
877.674	11501
877.802	11471
877.93	11558
878.058	11543
878.185	11581
878.313	11611
878.441	11733
878.568	11642
878.696	11847
878.824	11821
878.951	11901
879.079	12091
879.206	12076
879.333	12072
879.461	12087
879.588	12057
879.715	12072
879.842	12251
879.97	12045
880.097	11927
880.224	11874
880.351	11931
880.478	11897
880.605	11851
880.732	11809
880.859	11988
880.986	11775
881.112	11802
881.239	11726
881.366	11600
881.493	11627
881.619	11596
881.746	11573
881.872	11604
881.999	11566
882.125	11512
882.252	11512
882.378	11505
882.505	11505
882.631	11474
882.757	11307
882.883	11337
883.01	11273
883.136	11261
883.262	11147
883.388	11124
883.514	11185
883.64	11216
883.766	11128
883.892	10953
884.018	10995
884.143	11037
884.269	11136
884.395	10953
884.52	10782
884.646	10767
884.772	10664
884.897	10668
885.023	10706
885.148	10740
885.274	10736
885.399	10748
885.524	10649
885.65	10577
885.775	10641
885.9	10493
886.025	10573
886.15	10531
886.275	10455
886.4	10417
886.525	10398
886.65	10344
886.775	10360
886.9	10542
887.025	10599
887.149	10333
887.274	10196
887.399	10234
887.523	10154
887.648	10067
887.773	10086
887.897	10215
888.021	10234
888.146	10211
888.27	10204
888.395	10166
888.519	10192
888.643	10150
888.767	10128
888.891	10090
889.015	9994
889.139	10029
889.263	9915
889.387	10169
889.511	10074
889.635	10063
889.759	9953
889.883	10029
890.006	10021
890.13	10135
890.254	9941
890.377	9899
890.501	9876
890.624	9823
890.748	10025
890.871	9808
890.995	9778
891.118	9732
891.241	9785
891.364	9793
891.488	9778
891.611	9679
891.734	9682
891.857	9816
891.98	9831
892.103	9778
892.226	9629
892.349	9633
892.471	9481
892.594	9568
892.717	9584
892.839	9595
892.962	9614
893.085	9637
893.207	9584
893.33	9412
893.452	9511
893.575	9656
893.697	9500
893.819	9610
893.941	9641
894.064	9603
894.186	9485
894.308	9408
894.43	9500
894.552	9625
894.674	9519
894.796	9401
894.918	9321
895.04	9302
895.161	9405
895.283	9348
895.405	9294
895.526	9302
895.648	9253
895.769	9325
895.891	9294
896.012	9279
896.134	9154
896.255	9195
896.376	9077
896.498	9138
896.619	9150
896.74	9055
896.861	9112
896.982	9294
897.103	9332
897.224	9146
897.345	9062
897.466	9013
897.587	9062
897.708	9108
897.828	9039
897.949	8933
898.07	8872
898.19	8895
898.311	9024
898.431	8906
898.552	8899
898.672	8921
898.792	8910
898.913	8914
899.033	8773
899.153	8720
899.273	8678
899.393	8705
899.513	8743
899.633	8800
899.753	8746
899.873	8686
899.993	8804
900.113	8724
900.232	8678
900.352	8613
900.472	8602
900.591	8484
900.711	8629
900.83	8583
900.95	8693
901.069	8667
901.189	8552
901.308	8469
901.427	8438
901.546	8480
901.665	8408
901.784	8499
901.904	8377
902.023	8286
902.141	8267
902.26	8214
902.379	8336
902.498	8199
902.617	8233
902.735	8240
902.854	8252
902.973	8301
903.091	8088
903.21	8164
903.328	8134
903.446	8126
903.565	8142
903.683	8138
903.801	8077
903.919	8134
904.038	8073
904.156	8031
904.274	8115
904.392	8046
904.51	8024
904.627	8088
904.745	8119
904.863	8134
904.981	7902
905.098	7849
905.216	7822
905.334	7921
905.451	7871
905.569	7864
905.686	7868
905.803	7932
905.921	7792
906.038	7830
906.155	7753
906.272	7738
906.389	7746
906.506	7620
906.623	7620
906.74	7597
906.857	7537
906.974	7605
907.091	7639
907.208	7719
907.324	7636
907.441	7586
907.557	7487
907.674	7434
907.79	7384
907.907	7438
908.023	7476
908.139	7415
908.256	7362
908.372	7403
908.488	7384
908.604	7331
908.72	7213
908.836	7305
908.952	7251
909.068	7266
909.184	7305
909.3	7244
909.415	7316
909.531	7282
909.647	7076
909.762	7122
909.878	7076
909.993	7076
910.108	7091
910.224	7069
910.339	7152
910.454	7019
910.57	6996
910.685	6970
910.8	7156
910.915	7122
911.03	7027
911.145	6867
911.259	6871
911.374	6943
911.489	6825
911.604	6798
911.718	6745
911.833	6787
911.947	6642
912.062	6627
912.176	6726
912.291	6726
912.405	6692
912.519	6856
912.633	6878
912.748	6760
912.862	6658
912.976	6627
913.09	6570
913.204	6597
913.318	6635
913.431	6639
913.545	6654
913.659	6703
913.772	6627
913.886	6536
914	6536
914.113	6635
914.226	6654
914.34	6623
914.453	6494
914.566	6559
914.68	6570
914.793	6517
914.906	6441
915.019	6414
915.132	6334
915.245	6452
915.358	6490
915.47	6429
915.583	6456
915.696	6498
915.809	6521
915.921	6566
916.034	6380
916.146	6437
916.259	6391
916.371	6448
916.483	6456
916.595	6418
916.708	6395
916.82	6437
916.932	6384
917.044	6426
917.156	6365
917.268	6300
917.38	6342
917.491	6285
917.603	6292
917.715	6429
917.826	6433
917.938	6315
918.049	6285
918.161	6281
918.272	6422
918.384	6460
918.495	6334
918.606	6251
918.717	6197
918.828	6277
918.939	6315
919.05	6216
919.161	6213
919.272	6148
919.383	6186
919.494	6266
919.604	6460
919.715	6292
919.826	6182
919.936	6304
920.047	6357
920.157	6258
920.267	6498
920.378	6247
920.488	6285
920.598	6490
920.708	6559
920.818	6429
920.928	6498
921.038	6589
921.148	6566
921.258	6323
921.368	6327
921.477	6190
921.587	6190
921.697	6026
921.806	6121
921.916	6114
922.025	5950
922.134	5942
922.244	5939
922.353	5946
922.462	5813
922.571	5821
922.68	5726
922.789	5642
922.898	5710
923.007	5611
923.116	5729
923.224	5703
923.333	5653
923.442	5646
923.55	5532
923.659	5600
923.767	5627
923.876	5562
923.984	5615
924.092	5535
924.201	5558
924.309	5509
924.417	5562
924.525	5448
924.633	5482
924.741	6175
924.849	5398
924.956	5448
925.064	5398
925.172	5284
925.279	5315
925.387	5318
925.494	5357
925.602	5402
925.709	5364
925.816	5296
925.924	5326
926.031	5372
926.138	5368
926.245	5398
926.352	5227
926.459	5277
926.566	5326
926.673	5208
926.779	5121
926.886	5121
926.993	5075
927.099	4984
927.206	4976
927.312	4927
927.419	5048
927.525	4999
927.631	4980
927.737	4923
927.843	4824
927.95	4748
928.056	4816
928.162	4801
928.267	4870
928.373	5261
928.479	4835
928.585	4698
928.69	4771
928.796	4771
928.901	4660
929.007	4611
929.112	4683
929.218	4615
929.323	4618
929.428	4531
929.533	4653
929.638	4542
929.743	4527
929.848	4546
929.953	4535
930.058	4466
930.163	4325
930.267	4348
930.372	4428
930.477	4344
930.581	4497
930.685	4348
930.79	4249
930.894	4333
930.998	4268
931.103	4356
931.207	4116
931.311	4074
931.415	4013
931.519	3918
931.623	3930
