Data from glass_V78500241_2227.txt Node
Date: Wed Sep 01 19:29:56 CST 2021
User: usil
Spectrometer: V785-0024
Trigger mode: 0
Integration Time (sec): 4.000000E-1
Scans to average: 1
Nonlinearity correction enabled: false
Boxcar width: 0
Storing dark spectrum: false
XAxis mode: Wavelengths
Number of Pixels in Spectrum: 1024
>>>>>Begin Spectral Data<<<<<
801.071	3785
801.214	3762
801.356	3660
801.499	3740
801.641	3736
801.783	3778
801.926	3835
802.068	3789
802.211	3922
802.353	3865
802.496	3861
802.638	3865
802.78	3861
802.923	3892
803.065	3857
803.208	3865
803.35	3884
803.492	3907
803.635	3873
803.777	3800
803.919	3907
804.061	4097
804.204	3945
804.346	3979
804.488	3892
804.63	4006
804.773	3975
804.915	4006
805.057	4128
805.199	4040
805.341	4097
805.483	4131
805.626	4105
805.768	4131
805.91	4204
806.052	4192
806.194	4192
806.336	4367
806.478	4223
806.62	4166
806.762	4227
806.904	4230
807.046	4310
807.188	4192
807.33	4177
807.472	4204
807.614	4162
807.756	4253
807.898	4166
808.04	4234
808.182	4303
808.324	4371
808.465	4390
808.607	4421
808.749	4402
808.891	4493
809.033	4462
809.174	4394
809.316	4291
809.458	4230
809.6	4166
809.741	4131
809.883	4143
810.025	4200
810.166	4230
810.308	4234
810.45	4200
810.591	4253
810.733	4284
810.875	4481
811.016	4820
811.158	5140
811.299	5273
811.441	5269
811.582	5113
811.724	4740
811.865	4485
812.007	4451
812.148	4436
812.29	4360
812.431	4421
812.573	4405
812.714	4344
812.855	4428
812.997	4428
813.138	4436
813.279	4409
813.421	4329
813.562	4405
813.703	4341
813.845	4341
813.986	4234
814.127	4257
814.268	4261
814.41	4265
814.551	4238
814.692	4329
814.833	4287
814.974	4287
815.115	4352
815.256	4261
815.397	4204
815.539	4287
815.68	4173
815.821	4238
815.962	4299
816.103	4265
816.244	4230
816.385	4261
816.526	4303
816.666	4192
816.807	4074
816.948	4215
817.089	4185
817.23	4101
817.371	4063
817.512	4044
817.653	4105
817.793	4044
817.934	4036
818.075	4109
818.216	4040
818.356	4097
818.497	3979
818.638	3922
818.778	3888
818.919	3873
819.06	3823
819.2	3956
819.341	3892
819.481	3850
819.622	3884
819.762	4002
819.903	3960
820.043	3838
820.184	3819
820.324	3869
820.465	3842
820.605	3842
820.746	3846
820.886	3797
821.026	3903
821.167	3945
821.307	3934
821.447	3922
821.588	3953
821.728	3934
821.868	3903
822.008	3876
822.149	3903
822.289	3915
822.429	3755
822.569	3762
822.709	3819
822.849	3667
822.99	3720
823.13	3736
823.27	3770
823.41	3713
823.55	3751
823.69	3667
823.83	3747
823.97	3656
824.11	3606
824.25	3599
824.389	3652
824.529	3667
824.669	3603
824.809	3698
824.949	3770
825.089	3759
825.228	3743
825.368	3595
825.508	3545
825.648	3584
825.787	3587
825.927	3656
826.067	3580
826.206	3644
826.346	3785
826.485	3808
826.625	3835
826.765	3953
826.904	3846
827.044	3587
827.183	3481
827.323	3412
827.462	3511
827.601	3454
827.741	3428
827.88	3469
828.02	3389
828.159	3443
828.298	3439
828.437	3530
828.577	3477
828.716	3584
828.855	3450
828.994	3378
829.134	3325
829.273	3374
829.412	3363
829.551	3336
829.69	3370
829.829	3401
829.968	3496
830.107	3462
830.246	3435
830.385	3359
830.524	3355
830.663	3310
830.802	3230
830.941	3157
831.08	3195
831.219	3241
831.357	3245
831.496	3393
831.635	3214
831.774	3146
831.913	3226
832.051	3097
832.19	3112
832.329	3214
832.467	3104
832.606	3097
832.744	3173
832.883	3207
833.022	3192
833.16	3230
833.299	3291
833.437	3306
833.576	3378
833.714	3393
833.852	3431
833.991	3462
834.129	3454
834.267	3382
834.406	3405
834.544	3401
834.682	3401
834.821	3431
834.959	3530
835.097	3428
835.235	3462
835.373	3496
835.511	3507
835.65	3443
835.788	3481
835.926	3374
836.064	3363
836.202	3374
836.34	3561
836.478	3606
836.615	3519
836.753	3580
836.891	3648
837.029	3637
837.167	3564
837.305	3545
837.443	3504
837.58	3504
837.718	3614
837.856	3538
837.993	3530
838.131	3580
838.269	3549
838.406	3603
838.544	3549
838.681	3473
838.819	3416
838.956	3374
839.094	3409
839.231	3420
839.369	3488
839.506	3698
839.643	3633
839.781	3485
839.918	3454
840.055	3545
840.193	3538
840.33	3534
840.467	3534
840.604	3591
840.742	3728
840.879	3568
841.016	3557
841.153	3572
841.29	3766
841.427	3709
841.564	3713
841.701	3705
841.838	3686
841.975	3648
842.112	3732
842.249	3633
842.385	3587
842.522	3808
842.659	3686
842.796	3637
842.933	3713
843.069	3698
843.206	3679
843.343	3781
843.479	3774
843.616	3793
843.752	3671
843.889	3663
844.025	3850
844.162	3732
844.298	3846
844.435	3797
844.571	3766
844.708	3880
844.844	3960
844.98	4021
845.117	4021
845.253	3915
845.389	3838
845.525	3956
845.661	3896
845.798	3911
845.934	4002
846.07	3937
846.206	4021
846.342	4116
846.478	4105
846.614	3953
846.75	3918
846.886	3915
847.022	4006
847.158	3953
847.294	3968
847.429	3956
847.565	3968
847.701	4207
847.837	3896
847.972	3869
848.108	3983
848.244	3968
848.379	3911
848.515	3774
848.65	3781
848.786	3831
848.921	3831
849.057	3922
849.192	3930
849.328	3861
849.463	3956
849.598	3884
849.734	3884
849.869	3846
850.004	3797
850.14	3835
850.275	3793
850.41	3747
850.545	3751
850.68	3740
850.815	3804
850.95	3831
851.085	3922
851.22	3861
851.355	3808
851.49	3789
851.625	3812
851.76	3800
851.895	3732
852.03	3713
852.165	3793
852.299	3865
852.434	3926
852.569	3861
852.703	3842
852.838	3949
852.973	4010
853.107	3994
853.242	3880
853.376	3823
853.511	3800
853.645	3816
853.78	3964
853.914	3907
854.048	3865
854.183	3884
854.317	3930
854.451	4040
854.585	3903
854.72	3964
854.854	4051
854.988	3899
855.122	4021
855.256	3888
855.39	4013
855.524	4082
855.658	4082
855.792	4040
855.926	4097
856.06	4162
856.194	4188
856.327	4177
856.461	4101
856.595	4128
856.729	4154
856.862	4306
856.996	4188
857.13	4280
857.263	4322
857.397	4344
857.53	4272
857.664	4291
857.797	4379
857.931	4417
858.064	4348
858.197	4436
858.331	4363
858.464	4352
858.597	4333
858.731	4447
858.864	4440
858.997	4432
859.13	4504
859.263	4565
859.396	4577
859.529	4470
859.662	4516
859.795	4497
859.928	4516
860.061	4687
860.194	4744
860.327	4637
860.46	4653
860.592	4736
860.725	4744
860.858	4725
860.99	4721
861.123	4694
861.256	4694
861.388	4774
861.521	5429
861.653	4725
861.786	4714
861.918	4759
862.05	4812
862.183	4820
862.315	4843
862.447	4968
862.58	4885
862.712	4771
862.844	4782
862.976	4908
863.108	4881
863.24	5162
863.372	4831
863.504	4873
863.636	4847
863.768	4976
863.9	4923
864.032	4915
864.164	4942
864.296	5018
864.428	5083
864.559	5083
864.691	5086
864.823	5132
864.954	5094
865.086	5166
865.217	5117
865.349	5090
865.48	5136
865.612	5151
865.743	5315
865.875	5170
866.006	5151
866.137	5189
866.269	5220
866.4	5277
866.531	5181
866.662	5212
866.793	5273
866.924	5254
867.055	5330
867.186	5330
867.317	5341
867.448	5299
867.579	5372
867.71	5360
867.841	5364
867.972	5417
868.103	5467
868.233	5452
868.364	5520
868.495	5558
868.625	5691
868.756	5745
868.886	5668
869.017	5752
869.147	5863
869.278	5840
869.408	5802
869.539	5798
869.669	5946
869.799	5847
869.929	6019
870.06	6034
870.19	6201
870.32	6182
870.45	6258
870.58	6323
870.71	6464
870.84	6395
870.97	6441
871.1	6452
871.23	6627
871.36	6639
871.489	6650
871.619	6692
871.749	6818
871.879	6875
872.008	6966
872.138	6916
872.267	6970
872.397	6958
872.526	7019
872.656	7065
872.785	7232
872.915	7339
873.044	7472
873.173	7525
873.303	7613
873.432	7746
873.561	7814
873.69	7913
873.819	8008
873.948	8092
874.077	8218
874.206	8385
874.335	8396
874.464	8663
874.593	8823
874.722	8929
874.851	9108
874.979	9214
875.108	9340
875.237	9431
875.365	9545
875.494	9511
875.623	9816
875.751	9876
875.88	9979
876.008	10116
876.136	10291
876.265	10474
876.393	10656
876.521	10740
876.65	10805
876.778	10801
876.906	10892
877.034	10942
877.162	11105
877.29	11128
877.418	11322
877.546	11280
877.674	11509
877.802	11509
877.93	11448
878.058	11493
878.185	11604
878.313	11649
878.441	11710
878.568	11756
878.696	11786
878.824	11893
878.951	11878
879.079	12041
879.206	12098
879.333	12026
879.461	11988
879.588	12011
879.715	11992
879.842	12235
879.97	12079
880.097	11851
880.224	11836
880.351	11923
880.478	11828
880.605	11794
880.732	11817
880.859	11927
880.986	11794
881.112	11821
881.239	11752
881.366	11646
881.493	11634
881.619	11630
881.746	11589
881.872	11482
881.999	11566
882.125	11535
882.252	11570
882.378	11520
882.505	11501
882.631	11387
882.757	11254
882.883	11322
883.01	11185
883.136	11109
883.262	11113
883.388	11128
883.514	11212
883.64	11231
883.766	11056
883.892	10991
884.018	10995
884.143	11029
884.269	11071
884.395	10862
884.52	10740
884.646	10702
884.772	10679
884.897	10634
885.023	10710
885.148	10645
885.274	10809
885.399	10641
885.524	10637
885.65	10622
885.775	10672
885.9	10500
886.025	10611
886.15	10531
886.275	10360
886.4	10363
886.525	10459
886.65	10382
886.775	10291
886.9	10474
887.025	10542
887.149	10375
887.274	10314
887.399	10261
887.523	10223
887.648	10173
887.773	10204
887.897	10215
888.021	10181
888.146	10249
888.27	10215
888.395	10215
888.519	10162
888.643	10158
888.767	10131
888.891	10036
889.015	9994
889.139	9994
889.263	9930
889.387	10040
889.511	10090
889.635	10025
889.759	9880
889.883	9953
890.006	9998
890.13	10139
890.254	9972
890.377	9949
890.501	9827
890.624	9854
890.748	9953
890.871	9838
890.995	9728
891.118	9774
891.241	9838
891.364	9751
891.488	9857
891.611	9812
891.734	9793
891.857	9778
891.98	9785
892.103	9759
892.226	9785
892.349	9701
892.471	9576
892.594	9523
892.717	9629
892.839	9568
892.962	9584
893.085	9648
893.207	9534
893.33	9450
893.452	9515
893.575	9698
893.697	9431
893.819	9644
893.941	9591
894.064	9644
894.186	9492
894.308	9401
894.43	9507
894.552	9545
894.674	9580
894.796	9348
894.918	9416
895.04	9298
895.161	9332
895.283	9332
895.405	9180
895.526	9249
895.648	9233
895.769	9192
895.891	9222
896.012	9272
896.134	9207
896.255	9154
896.376	9062
896.498	9119
896.619	9077
896.74	9074
896.861	9077
896.982	9253
897.103	9214
897.224	9180
897.345	8998
897.466	8990
897.587	9017
897.708	9142
897.828	8994
897.949	8998
898.07	8842
898.19	8880
898.311	9005
898.431	8906
898.552	8838
898.672	8948
898.792	8986
898.913	8925
899.033	8838
899.153	8708
899.273	8648
899.393	8743
899.513	8785
899.633	8777
899.753	8754
899.873	8670
899.993	8739
900.113	8727
900.232	8678
900.352	8663
900.472	8564
900.591	8598
900.711	8670
900.83	8587
900.95	8655
901.069	8716
901.189	8499
901.308	8355
901.427	8362
901.546	8362
901.665	8431
901.784	8499
901.904	8404
902.023	8339
902.141	8290
902.26	8252
902.379	8252
902.498	8202
902.617	8286
902.735	8294
902.854	8259
902.973	8267
903.091	8126
903.21	8130
903.328	8115
903.446	8119
903.565	8024
903.683	8130
903.801	7993
903.919	8077
904.038	8107
904.156	8024
904.274	8123
904.392	7951
904.51	7963
904.627	8073
904.745	8054
904.863	8134
904.981	7921
905.098	7833
905.216	7792
905.334	7909
905.451	7894
905.569	7784
905.686	7909
905.803	7932
905.921	7807
906.038	7799
906.155	7753
906.272	7689
906.389	7757
906.506	7613
906.623	7647
906.74	7662
906.857	7518
906.974	7597
907.091	7666
907.208	7685
907.324	7624
907.441	7651
907.557	7434
907.674	7441
907.79	7365
907.907	7400
908.023	7483
908.139	7476
908.256	7369
908.372	7320
908.488	7358
908.604	7244
908.72	7221
908.836	7240
908.952	7274
909.068	7274
909.184	7331
909.3	7228
909.415	7289
909.531	7209
909.647	7107
909.762	7080
909.878	7057
909.993	7141
910.108	7129
910.224	7023
910.339	7069
910.454	7046
910.57	7031
910.685	6852
910.8	7152
910.915	7091
911.03	7000
911.145	6954
911.259	6928
911.374	6867
911.489	6829
911.604	6848
911.718	6646
911.833	6738
911.947	6547
912.062	6627
912.176	6711
912.291	6677
912.405	6711
912.519	6795
912.633	6795
912.748	6791
912.862	6650
912.976	6620
913.09	6517
913.204	6604
913.318	6559
913.431	6673
913.545	6684
913.659	6673
913.772	6654
913.886	6506
914	6604
914.113	6646
914.226	6616
914.34	6570
914.453	6547
914.566	6593
914.68	6509
914.793	6509
914.906	6331
915.019	6353
915.132	6334
915.245	6399
915.358	6433
915.47	6395
915.583	6422
915.696	6486
915.809	6525
915.921	6589
916.034	6437
916.146	6410
916.259	6372
916.371	6490
916.483	6456
916.595	6353
916.708	6445
916.82	6410
916.932	6365
917.044	6376
917.156	6441
917.268	6315
917.38	6361
917.491	6327
917.603	6331
917.715	6426
917.826	6437
917.938	6277
918.049	6235
918.161	6327
918.272	6369
918.384	6429
918.495	6331
918.606	6239
918.717	6175
918.828	6273
918.939	6205
919.05	6228
919.161	6277
919.272	6079
919.383	6171
919.494	6327
919.604	6437
919.715	6232
919.826	6175
919.936	6254
920.047	6319
920.157	6289
920.267	6464
920.378	6338
920.488	6292
920.598	6490
920.708	6547
920.818	6467
920.928	6479
921.038	6582
921.148	6540
921.258	6331
921.368	6300
921.477	6167
921.587	6152
921.697	6083
921.806	6133
921.916	6060
922.025	5889
922.134	5950
922.244	5863
922.353	5946
922.462	5809
922.571	5794
922.68	5684
922.789	5665
922.898	5676
923.007	5585
923.116	5699
923.224	5695
923.333	5615
923.442	5547
923.55	5566
923.659	5562
923.767	5642
923.876	5558
923.984	5547
924.092	5528
924.201	5539
924.309	5528
924.417	5554
924.525	5516
924.633	5478
924.741	6292
924.849	5307
924.956	5520
925.064	5353
925.172	5341
925.279	5284
925.387	5345
925.494	5349
925.602	5429
925.709	5376
925.816	5307
925.924	5273
926.031	5322
926.138	5322
926.245	5303
926.352	5216
926.459	5353
926.566	5318
926.673	5208
926.779	5170
926.886	5109
926.993	4999
927.099	4972
927.206	4968
927.312	4923
927.419	4972
927.525	4919
927.631	5014
927.737	4866
927.843	4854
927.95	4786
928.056	4805
928.162	4797
928.267	4809
928.373	5360
928.479	4862
928.585	4675
928.69	4752
928.796	4793
928.901	4653
929.007	4634
929.112	4683
929.218	4634
929.323	4546
929.428	4558
929.533	4675
929.638	4485
929.743	4527
929.848	4508
929.953	4508
930.058	4436
930.163	4295
930.267	4310
930.372	4432
930.477	4341
930.581	4455
930.685	4367
930.79	4265
930.894	4253
930.998	4272
931.103	4386
931.207	4112
931.311	4116
931.415	4025
931.519	3903
931.623	3934
