Data from glass_V78500241_1614.txt Node
Date: Wed Sep 01 19:25:41 CST 2021
User: usil
Spectrometer: V785-0024
Trigger mode: 0
Integration Time (sec): 4.000000E-1
Scans to average: 1
Nonlinearity correction enabled: false
Boxcar width: 0
Storing dark spectrum: false
XAxis mode: Wavelengths
Number of Pixels in Spectrum: 1024
>>>>>Begin Spectral Data<<<<<
801.071	3785
801.214	3762
801.356	3720
801.499	3732
801.641	3732
801.783	3774
801.926	3819
802.068	3823
802.211	3842
802.353	3884
802.496	3861
802.638	3903
802.78	3903
802.923	3937
803.065	3869
803.208	3838
803.35	3876
803.492	3926
803.635	3934
803.777	3804
803.919	3911
804.061	4116
804.204	3941
804.346	3968
804.488	3892
804.63	3991
804.773	3972
804.915	4036
805.057	4154
805.199	4025
805.341	4082
805.483	4135
805.626	4093
805.768	4112
805.91	4188
806.052	4230
806.194	4219
806.336	4367
806.478	4215
806.62	4177
806.762	4166
806.904	4261
807.046	4390
807.188	4211
807.33	4200
807.472	4238
807.614	4207
807.756	4272
807.898	4207
808.04	4181
808.182	4291
808.324	4333
808.465	4352
808.607	4470
808.749	4478
808.891	4451
809.033	4527
809.174	4421
809.316	4268
809.458	4215
809.6	4139
809.741	4181
809.883	4154
810.025	4204
810.166	4223
810.308	4238
810.45	4249
810.591	4215
810.733	4306
810.875	4462
811.016	4771
811.158	5124
811.299	5269
811.441	5261
811.582	5048
811.724	4694
811.865	4478
812.007	4489
812.148	4409
812.29	4436
812.431	4436
812.573	4436
812.714	4413
812.855	4371
812.997	4409
813.138	4500
813.279	4466
813.421	4409
813.562	4398
813.703	4322
813.845	4341
813.986	4291
814.127	4215
814.268	4314
814.41	4261
814.551	4249
814.692	4318
814.833	4249
814.974	4329
815.115	4344
815.256	4265
815.397	4207
815.539	4257
815.68	4181
815.821	4219
815.962	4337
816.103	4322
816.244	4276
816.385	4257
816.526	4246
816.666	4200
816.807	4093
816.948	4200
817.089	4188
817.23	4093
817.371	4048
817.512	4090
817.653	4048
817.793	4051
817.934	4048
818.075	4128
818.216	4086
818.356	4109
818.497	3983
818.638	3953
818.778	3934
818.919	3892
819.06	3884
819.2	3892
819.341	3896
819.481	3800
819.622	3884
819.762	4048
819.903	3949
820.043	3827
820.184	3789
820.324	3854
820.465	3884
820.605	3869
820.746	3892
820.886	3793
821.026	3945
821.167	3941
821.307	3956
821.447	4017
821.588	3972
821.728	3960
821.868	3915
822.008	3896
822.149	3926
822.289	3918
822.429	3816
822.569	3774
822.709	3816
822.849	3705
822.99	3766
823.13	3751
823.27	3762
823.41	3705
823.55	3732
823.69	3724
823.83	3732
823.97	3667
824.11	3587
824.25	3625
824.389	3644
824.529	3656
824.669	3648
824.809	3713
824.949	3743
825.089	3701
825.228	3675
825.368	3622
825.508	3584
825.648	3599
825.787	3633
825.927	3671
826.067	3610
826.206	3675
826.346	3816
826.485	3812
826.625	3873
826.765	3934
826.904	3842
827.044	3629
827.183	3538
827.323	3424
827.462	3450
827.601	3439
827.741	3386
827.88	3397
828.02	3389
828.159	3447
828.298	3469
828.437	3519
828.577	3450
828.716	3584
828.855	3485
828.994	3401
829.134	3340
829.273	3386
829.412	3374
829.551	3310
829.69	3374
829.829	3443
829.968	3504
830.107	3431
830.246	3428
830.385	3393
830.524	3359
830.663	3306
830.802	3268
830.941	3176
831.08	3199
831.219	3241
831.357	3226
831.496	3424
831.635	3233
831.774	3211
831.913	3222
832.051	3097
832.19	3131
832.329	3195
832.467	3093
832.606	3119
832.744	3184
832.883	3195
833.022	3233
833.16	3264
833.299	3340
833.437	3355
833.576	3325
833.714	3382
833.852	3431
833.991	3473
834.129	3477
834.267	3450
834.406	3393
834.544	3409
834.682	3393
834.821	3374
834.959	3580
835.097	3389
835.235	3507
835.373	3481
835.511	3496
835.65	3481
835.788	3515
835.926	3393
836.064	3401
836.202	3412
836.34	3549
836.478	3622
836.615	3542
836.753	3610
836.891	3618
837.029	3656
837.167	3610
837.305	3557
837.443	3557
837.58	3526
837.718	3572
837.856	3587
837.993	3538
838.131	3610
838.269	3580
838.406	3580
838.544	3564
838.681	3435
838.819	3488
838.956	3416
839.094	3386
839.231	3409
839.369	3500
839.506	3720
839.643	3641
839.781	3496
839.918	3447
840.055	3561
840.193	3519
840.33	3564
840.467	3561
840.604	3599
840.742	3816
840.879	3542
841.016	3519
841.153	3637
841.29	3724
841.427	3709
841.564	3724
841.701	3766
841.838	3709
841.975	3713
842.112	3694
842.249	3660
842.385	3637
842.522	3759
842.659	3759
842.796	3652
842.933	3713
843.069	3690
843.206	3705
843.343	3804
843.479	3827
843.616	3781
843.752	3644
843.889	3713
844.025	3854
844.162	3686
844.298	3827
844.435	3804
844.571	3774
844.708	3915
844.844	4010
844.98	4029
845.117	3991
845.253	3975
845.389	3941
845.525	3907
845.661	3941
845.798	3865
845.934	4036
846.07	3926
846.206	4082
846.342	4143
846.478	4090
846.614	3979
846.75	3934
846.886	3922
847.022	4040
847.158	3964
847.294	4036
847.429	4002
847.565	4025
847.701	4238
847.837	3903
847.972	3873
848.108	4029
848.244	3964
848.379	3884
848.515	3827
848.65	3823
848.786	3850
848.921	3880
849.057	3926
849.192	3968
849.328	3884
849.463	3926
849.598	3873
849.734	3888
849.869	3854
850.004	3800
850.14	3831
850.275	3759
850.41	3743
850.545	3759
850.68	3770
850.815	3774
850.95	3732
851.085	3968
851.22	3873
851.355	3797
851.49	3774
851.625	3812
851.76	3800
851.895	3736
852.03	3717
852.165	3823
852.299	3808
852.434	3896
852.569	3854
852.703	3869
852.838	3949
852.973	3983
853.107	3987
853.242	3880
853.376	3819
853.511	3759
853.645	3854
853.78	3964
853.914	3892
854.048	3876
854.183	3842
854.317	3918
854.451	4067
854.585	3934
854.72	3941
854.854	4017
854.988	3975
855.122	4002
855.256	3934
855.39	4063
855.524	4105
855.658	4074
855.792	4147
855.926	4181
856.06	4188
856.194	4207
856.327	4101
856.461	4131
856.595	4211
856.729	4116
856.862	4280
856.996	4238
857.13	4356
857.263	4329
857.397	4405
857.53	4280
857.664	4333
857.797	4360
857.931	4459
858.064	4379
858.197	4424
858.331	4398
858.464	4402
858.597	4375
858.731	4443
858.864	4459
858.997	4421
859.13	4500
859.263	4558
859.396	4584
859.529	4535
859.662	4569
859.795	4478
859.928	4554
860.061	4702
860.194	4714
860.327	4622
860.46	4622
860.592	4740
860.725	4782
860.858	4824
860.99	4679
861.123	4744
861.256	4717
861.388	4786
861.521	5528
861.653	4748
861.786	4702
861.918	4755
862.05	4828
862.183	4877
862.315	4873
862.447	4930
862.58	4889
862.712	4786
862.844	4774
862.976	4873
863.108	4839
863.24	5284
863.372	4850
863.504	4919
863.636	4904
863.768	4919
863.9	4934
864.032	4934
864.164	4946
864.296	5010
864.428	5056
864.559	5071
864.691	5094
864.823	5086
864.954	5128
865.086	5235
865.217	5083
865.349	5102
865.48	5193
865.612	5212
865.743	5242
865.875	5185
866.006	5216
866.137	5265
866.269	5235
866.4	5216
866.531	5261
866.662	5212
866.793	5269
866.924	5322
867.055	5337
867.186	5296
867.317	5357
867.448	5341
867.579	5349
867.71	5368
867.841	5398
867.972	5467
868.103	5490
868.233	5459
868.364	5471
868.495	5543
868.625	5676
868.756	5828
868.886	5710
869.017	5760
869.147	5809
869.278	5889
869.408	5832
869.539	5832
869.669	5908
869.799	5946
869.929	5954
870.06	5973
870.19	6220
870.32	6243
870.45	6270
870.58	6289
870.71	6384
870.84	6475
870.97	6471
871.1	6395
871.23	6631
871.36	6642
871.489	6627
871.619	6719
871.749	6852
871.879	6863
872.008	7008
872.138	7008
872.267	6973
872.397	7008
872.526	7019
872.656	7110
872.785	7171
872.915	7460
873.044	7487
873.173	7594
873.303	7613
873.432	7742
873.561	7902
873.69	7913
873.819	8008
873.948	8221
874.077	8161
874.206	8343
874.335	8423
874.464	8617
874.593	8819
874.722	8967
874.851	9173
874.979	9287
875.108	9382
875.237	9424
875.365	9504
875.494	9648
875.623	9816
875.751	9823
875.88	10006
876.008	10192
876.136	10257
876.265	10493
876.393	10725
876.521	10729
876.65	10858
876.778	10797
876.906	10942
877.034	11014
877.162	11086
877.29	11220
877.418	11269
877.546	11379
877.674	11425
877.802	11516
877.93	11463
878.058	11528
878.185	11512
878.313	11779
878.441	11718
878.568	11668
878.696	11809
878.824	11828
878.951	11958
879.079	11999
879.206	12072
879.333	12102
879.461	12057
879.588	12098
879.715	12102
879.842	12144
879.97	12114
880.097	11916
880.224	11821
880.351	11901
880.478	11855
880.605	11779
880.732	11790
880.859	12064
880.986	11832
881.112	11790
881.239	11745
881.366	11608
881.493	11623
881.619	11619
881.746	11543
881.872	11532
881.999	11520
882.125	11490
882.252	11558
882.378	11585
882.505	11463
882.631	11467
882.757	11280
882.883	11376
883.01	11242
883.136	11174
883.262	11159
883.388	11105
883.514	11284
883.64	11166
883.766	11197
883.892	10991
884.018	10892
884.143	11090
884.269	11117
884.395	10801
884.52	10835
884.646	10854
884.772	10672
884.897	10653
885.023	10645
885.148	10748
885.274	10763
885.399	10729
885.524	10710
885.65	10588
885.775	10725
885.9	10637
886.025	10558
886.15	10550
886.275	10455
886.4	10493
886.525	10440
886.65	10371
886.775	10356
886.9	10447
887.025	10592
887.149	10398
887.274	10246
887.399	10139
887.523	10109
887.648	10135
887.773	10147
887.897	10299
888.021	10181
888.146	10090
888.27	10211
888.395	10249
888.519	10169
888.643	10185
888.767	10207
888.891	10048
889.015	10116
889.139	9975
889.263	9998
889.387	10074
889.511	10128
889.635	10128
889.759	9968
889.883	9987
890.006	10036
890.13	10059
890.254	9937
890.377	9922
890.501	9865
890.624	9838
890.748	9892
890.871	9846
890.995	9762
891.118	9751
891.241	9747
891.364	9736
891.488	9880
891.611	9819
891.734	9762
891.857	9812
891.98	9740
892.103	9835
892.226	9800
892.349	9701
892.471	9561
892.594	9542
892.717	9606
892.839	9618
892.962	9637
893.085	9656
893.207	9625
893.33	9549
893.452	9496
893.575	9595
893.697	9576
893.819	9629
893.941	9637
894.064	9595
894.186	9443
894.308	9454
894.43	9408
894.552	9652
894.674	9526
894.796	9386
894.918	9374
895.04	9321
895.161	9382
895.283	9367
895.405	9283
895.526	9272
895.648	9233
895.769	9264
895.891	9321
896.012	9245
896.134	9230
896.255	9184
896.376	9058
896.498	9104
896.619	9097
896.74	9116
896.861	9180
896.982	9249
897.103	9340
897.224	9173
897.345	9039
897.466	9047
897.587	8998
897.708	9077
897.828	8986
897.949	8929
898.07	8868
898.19	8887
898.311	9070
898.431	8887
898.552	8887
898.672	8998
898.792	8967
898.913	8944
899.033	8826
899.153	8727
899.273	8720
899.393	8826
899.513	8769
899.633	8716
899.753	8735
899.873	8682
899.993	8796
900.113	8720
900.232	8640
900.352	8712
900.472	8629
900.591	8610
900.711	8617
900.83	8606
900.95	8674
901.069	8705
901.189	8530
901.308	8469
901.427	8347
901.546	8442
901.665	8461
901.784	8427
901.904	8339
902.023	8347
902.141	8240
902.26	8176
902.379	8263
902.498	8275
902.617	8202
902.735	8305
902.854	8298
902.973	8275
903.091	8145
903.21	8092
903.328	8168
903.446	8084
903.565	8054
903.683	8081
903.801	8039
903.919	8145
904.038	8176
904.156	7921
904.274	8100
904.392	8031
904.51	8100
904.627	8016
904.745	8180
904.863	8058
904.981	7936
905.098	7879
905.216	7845
905.334	7875
905.451	7925
905.569	7852
905.686	7928
905.803	7860
905.921	7769
906.038	7875
906.155	7826
906.272	7719
906.389	7731
906.506	7620
906.623	7647
906.74	7624
906.857	7506
906.974	7578
907.091	7666
907.208	7761
907.324	7655
907.441	7628
907.557	7540
907.674	7460
907.79	7441
907.907	7392
908.023	7476
908.139	7403
908.256	7392
908.372	7358
908.488	7373
908.604	7301
908.72	7198
908.836	7225
908.952	7187
909.068	7225
909.184	7331
909.3	7251
909.415	7285
909.531	7236
909.647	7145
909.762	7137
909.878	7031
909.993	7152
910.108	7141
910.224	7145
910.339	7076
910.454	7072
910.57	7008
910.685	6920
910.8	7107
910.915	7152
911.03	7065
911.145	6897
911.259	6871
911.374	6935
911.489	6787
911.604	6776
911.718	6722
911.833	6738
911.947	6719
912.062	6616
912.176	6722
912.291	6681
912.405	6658
912.519	6867
912.633	6844
912.748	6738
912.862	6726
912.976	6521
913.09	6467
913.204	6578
913.318	6597
913.431	6665
913.545	6700
913.659	6715
913.772	6620
913.886	6601
914	6589
914.113	6566
914.226	6654
914.34	6612
914.453	6460
914.566	6593
914.68	6585
914.793	6532
914.906	6437
915.019	6410
915.132	6388
915.245	6403
915.358	6410
915.47	6407
915.583	6521
915.696	6498
915.809	6559
915.921	6601
916.034	6391
916.146	6445
916.259	6369
916.371	6464
916.483	6464
916.595	6407
916.708	6422
916.82	6445
916.932	6331
917.044	6380
917.156	6372
917.268	6331
917.38	6331
917.491	6323
917.603	6357
917.715	6407
917.826	6414
917.938	6369
918.049	6273
918.161	6331
918.272	6365
918.384	6460
918.495	6327
918.606	6209
918.717	6186
918.828	6281
918.939	6281
919.05	6182
919.161	6277
919.272	6114
919.383	6159
919.494	6342
919.604	6361
919.715	6292
919.826	6254
919.936	6235
920.047	6319
920.157	6262
920.267	6422
920.378	6346
920.488	6270
920.598	6452
920.708	6528
920.818	6555
920.928	6464
921.038	6574
921.148	6517
921.258	6334
921.368	6262
921.477	6232
921.587	6159
921.697	6072
921.806	6186
921.916	6034
922.025	5901
922.134	5882
922.244	5882
922.353	5935
922.462	5885
922.571	5863
922.68	5741
922.789	5684
922.898	5688
923.007	5627
923.116	5684
923.224	5630
923.333	5657
923.442	5623
923.55	5615
923.659	5573
923.767	5646
923.876	5554
923.984	5611
924.092	5535
924.201	5638
924.309	5596
924.417	5528
924.525	5463
924.633	5501
924.741	6228
924.849	5387
924.956	5425
925.064	5379
925.172	5337
925.279	5292
925.387	5379
925.494	5258
925.602	5421
925.709	5391
925.816	5284
925.924	5296
926.031	5337
926.138	5296
926.245	5318
926.352	5162
926.459	5337
926.566	5330
926.673	5235
926.779	5132
926.886	5132
926.993	5029
927.099	4968
927.206	4987
927.312	4949
927.419	4972
927.525	4984
927.631	4976
927.737	4858
927.843	4881
927.95	4797
928.056	4835
928.162	4824
928.267	4835
928.373	5406
928.479	4835
928.585	4645
928.69	4805
928.796	4809
928.901	4683
929.007	4588
929.112	4660
929.218	4588
929.323	4634
929.428	4516
929.533	4721
929.638	4508
929.743	4542
929.848	4516
929.953	4462
930.058	4436
930.163	4310
930.267	4306
930.372	4405
930.477	4318
930.581	4500
930.685	4356
930.79	4234
930.894	4238
930.998	4223
931.103	4348
931.207	4150
931.311	4105
931.415	4032
931.519	3937
931.623	3915
