Data from glass_V78500241_1639.txt Node
Date: Wed Sep 01 19:25:51 CST 2021
User: usil
Spectrometer: V785-0024
Trigger mode: 0
Integration Time (sec): 4.000000E-1
Scans to average: 1
Nonlinearity correction enabled: false
Boxcar width: 0
Storing dark spectrum: false
XAxis mode: Wavelengths
Number of Pixels in Spectrum: 1024
>>>>>Begin Spectral Data<<<<<
801.071	3743
801.214	3762
801.356	3675
801.499	3717
801.641	3732
801.783	3789
801.926	3857
802.068	3892
802.211	3869
802.353	3869
802.496	3819
802.638	3888
802.78	3930
802.923	3911
803.065	3896
803.208	3876
803.35	3838
803.492	3888
803.635	3911
803.777	3770
803.919	3892
804.061	4143
804.204	3930
804.346	3934
804.488	3911
804.63	4059
804.773	3953
804.915	4109
805.057	4150
805.199	4017
805.341	4078
805.483	4128
805.626	4154
805.768	4109
805.91	4230
806.052	4211
806.194	4173
806.336	4356
806.478	4177
806.62	4204
806.762	4185
806.904	4242
807.046	4333
807.188	4158
807.33	4181
807.472	4238
807.614	4188
807.756	4253
807.898	4246
808.04	4219
808.182	4291
808.324	4367
808.465	4375
808.607	4474
808.749	4447
808.891	4443
809.033	4508
809.174	4421
809.316	4257
809.458	4261
809.6	4124
809.741	4162
809.883	4166
810.025	4188
810.166	4227
810.308	4223
810.45	4272
810.591	4246
810.733	4246
810.875	4519
811.016	4873
811.158	5113
811.299	5284
811.441	5292
811.582	5052
811.724	4679
811.865	4535
812.007	4462
812.148	4440
812.29	4409
812.431	4394
812.573	4394
812.714	4394
812.855	4424
812.997	4367
813.138	4531
813.279	4443
813.421	4360
813.562	4337
813.703	4329
813.845	4344
813.986	4230
814.127	4223
814.268	4276
814.41	4318
814.551	4242
814.692	4325
814.833	4272
814.974	4291
815.115	4318
815.256	4253
815.397	4230
815.539	4227
815.68	4181
815.821	4215
815.962	4280
816.103	4325
816.244	4211
816.385	4253
816.526	4276
816.666	4246
816.807	4109
816.948	4200
817.089	4173
817.23	4158
817.371	4021
817.512	4029
817.653	4082
817.793	4032
817.934	4040
818.075	4139
818.216	4071
818.356	4105
818.497	4002
818.638	3907
818.778	3899
818.919	3854
819.06	3873
819.2	3907
819.341	3899
819.481	3816
819.622	3907
819.762	4002
819.903	3937
820.043	3861
820.184	3819
820.324	3842
820.465	3892
820.605	3869
820.746	3926
820.886	3812
821.026	3983
821.167	3975
821.307	3987
821.447	4017
821.588	3975
821.728	3972
821.868	3937
822.008	3827
822.149	3892
822.289	3907
822.429	3797
822.569	3732
822.709	3808
822.849	3679
822.99	3694
823.13	3743
823.27	3728
823.41	3709
823.55	3705
823.69	3698
823.83	3743
823.97	3694
824.11	3644
824.25	3606
824.389	3656
824.529	3629
824.669	3633
824.809	3694
824.949	3770
825.089	3709
825.228	3732
825.368	3584
825.508	3542
825.648	3584
825.787	3633
825.927	3637
826.067	3644
826.206	3629
826.346	3785
826.485	3823
826.625	3827
826.765	3941
826.904	3869
827.044	3603
827.183	3473
827.323	3428
827.462	3488
827.601	3454
827.741	3428
827.88	3447
828.02	3386
828.159	3447
828.298	3488
828.437	3515
828.577	3443
828.716	3614
828.855	3534
828.994	3405
829.134	3367
829.273	3363
829.412	3351
829.551	3332
829.69	3348
829.829	3393
829.968	3504
830.107	3477
830.246	3450
830.385	3405
830.524	3359
830.663	3306
830.802	3253
830.941	3188
831.08	3233
831.219	3253
831.357	3279
831.496	3428
831.635	3241
831.774	3226
831.913	3176
832.051	3093
832.19	3104
832.329	3203
832.467	3157
832.606	3108
832.744	3161
832.883	3131
833.022	3218
833.16	3253
833.299	3306
833.437	3310
833.576	3355
833.714	3393
833.852	3466
833.991	3473
834.129	3458
834.267	3477
834.406	3386
834.544	3431
834.682	3435
834.821	3412
834.959	3576
835.097	3450
835.235	3469
835.373	3439
835.511	3504
835.65	3469
835.788	3500
835.926	3370
836.064	3393
836.202	3409
836.34	3542
836.478	3591
836.615	3603
836.753	3603
836.891	3625
837.029	3629
837.167	3610
837.305	3572
837.443	3545
837.58	3523
837.718	3587
837.856	3595
837.993	3542
838.131	3625
838.269	3545
838.406	3557
838.544	3557
838.681	3485
838.819	3439
838.956	3386
839.094	3374
839.231	3428
839.369	3530
839.506	3751
839.643	3599
839.781	3500
839.918	3466
840.055	3534
840.193	3496
840.33	3523
840.467	3587
840.604	3599
840.742	3789
840.879	3542
841.016	3561
841.153	3576
841.29	3747
841.427	3690
841.564	3717
841.701	3740
841.838	3694
841.975	3637
842.112	3717
842.249	3572
842.385	3629
842.522	3797
842.659	3656
842.796	3648
842.933	3679
843.069	3701
843.206	3690
843.343	3854
843.479	3793
843.616	3846
843.752	3686
843.889	3698
844.025	3850
844.162	3717
844.298	3857
844.435	3797
844.571	3804
844.708	3880
844.844	3960
844.98	3960
845.117	3949
845.253	3907
845.389	3884
845.525	3968
845.661	3945
845.798	3956
845.934	3972
846.07	3964
846.206	4025
846.342	4078
846.478	3994
846.614	3918
846.75	3926
846.886	3903
847.022	4082
847.158	4010
847.294	3991
847.429	4032
847.565	3983
847.701	4249
847.837	3861
847.972	3899
848.108	3983
848.244	3994
848.379	3869
848.515	3755
848.65	3812
848.786	3816
848.921	3831
849.057	3941
849.192	3930
849.328	3892
849.463	3888
849.598	3899
849.734	3846
849.869	3831
850.004	3785
850.14	3861
850.275	3755
850.41	3751
850.545	3743
850.68	3759
850.815	3823
850.95	3781
851.085	3880
851.22	3857
851.355	3842
851.49	3816
851.625	3804
851.76	3816
851.895	3743
852.03	3717
852.165	3793
852.299	3842
852.434	3911
852.569	3869
852.703	3846
852.838	3941
852.973	3983
853.107	3994
853.242	3892
853.376	3838
853.511	3793
853.645	3823
853.78	3983
853.914	3892
854.048	3892
854.183	3896
854.317	3937
854.451	4090
854.585	3937
854.72	3922
854.854	4090
854.988	3949
855.122	4002
855.256	3884
855.39	4036
855.524	4101
855.658	4090
855.792	4082
855.926	4150
856.06	4196
856.194	4238
856.327	4173
856.461	4116
856.595	4112
856.729	4158
856.862	4287
856.996	4234
857.13	4306
857.263	4310
857.397	4360
857.53	4268
857.664	4356
857.797	4344
857.931	4409
858.064	4360
858.197	4455
858.331	4348
858.464	4409
858.597	4386
858.731	4466
858.864	4470
858.997	4386
859.13	4527
859.263	4554
859.396	4607
859.529	4538
859.662	4538
859.795	4535
859.928	4603
860.061	4706
860.194	4717
860.327	4630
860.46	4603
860.592	4717
860.725	4812
860.858	4778
860.99	4668
861.123	4744
861.256	4702
861.388	4816
861.521	5547
861.653	4714
861.786	4706
861.918	4721
862.05	4790
862.183	4885
862.315	4885
862.447	4873
862.58	4877
862.712	4767
862.844	4767
862.976	4877
863.108	4892
863.24	5303
863.372	4801
863.504	4919
863.636	4889
863.768	4995
863.9	4980
864.032	4942
864.164	4949
864.296	5022
864.428	5071
864.559	5098
864.691	5086
864.823	5105
864.954	5155
865.086	5193
865.217	5098
865.349	5109
865.48	5136
865.612	5143
865.743	5265
865.875	5170
866.006	5181
866.137	5277
866.269	5254
866.4	5220
866.531	5254
866.662	5227
866.793	5288
866.924	5288
867.055	5330
867.186	5368
867.317	5330
867.448	5345
867.579	5330
867.71	5383
867.841	5376
867.972	5455
868.103	5516
868.233	5440
868.364	5524
868.495	5543
868.625	5661
868.756	5802
868.886	5688
869.017	5722
869.147	5885
869.278	5893
869.408	5775
869.539	5802
869.669	5927
869.799	5874
869.929	6007
870.06	6030
870.19	6171
870.32	6209
870.45	6266
870.58	6308
870.71	6414
870.84	6433
870.97	6422
871.1	6433
871.23	6662
871.36	6662
871.489	6669
871.619	6665
871.749	6764
871.879	6852
872.008	6996
872.138	6981
872.267	7004
872.397	6935
872.526	7110
872.656	7103
872.785	7206
872.915	7388
873.044	7518
873.173	7548
873.303	7712
873.432	7750
873.561	7917
873.69	7921
873.819	8008
873.948	8153
874.077	8237
874.206	8370
874.335	8469
874.464	8663
874.593	8861
874.722	8937
874.851	9100
874.979	9218
875.108	9363
875.237	9412
875.365	9481
875.494	9675
875.623	9842
875.751	9797
875.88	9991
876.008	10109
876.136	10329
876.265	10546
876.393	10710
876.521	10733
876.65	10873
876.778	10824
876.906	10881
877.034	11029
877.162	11109
877.29	11143
877.418	11197
877.546	11345
877.674	11391
877.802	11478
877.93	11611
878.058	11562
878.185	11558
878.313	11634
878.441	11729
878.568	11680
878.696	11756
878.824	11897
878.951	11878
879.079	11984
879.206	12129
879.333	12079
879.461	12007
879.588	12167
879.715	12095
879.842	12194
879.97	12068
880.097	11885
880.224	11912
880.351	11817
880.478	11988
880.605	11916
880.732	11798
880.859	11969
880.986	11748
881.112	11885
881.239	11718
881.366	11646
881.493	11589
881.619	11516
881.746	11627
881.872	11566
881.999	11562
882.125	11471
882.252	11493
882.378	11505
882.505	11573
882.631	11356
882.757	11269
882.883	11299
883.01	11227
883.136	11181
883.262	11147
883.388	11151
883.514	11140
883.64	11132
883.766	11140
883.892	10972
884.018	10999
884.143	11086
884.269	11121
884.395	10820
884.52	10835
884.646	10816
884.772	10672
884.897	10683
885.023	10679
885.148	10763
885.274	10710
885.399	10725
885.524	10527
885.65	10558
885.775	10561
885.9	10622
886.025	10675
886.15	10580
886.275	10489
886.4	10386
886.525	10424
886.65	10428
886.775	10398
886.9	10436
887.025	10622
887.149	10352
887.274	10272
887.399	10219
887.523	10215
887.648	10169
887.773	10158
887.897	10227
888.021	10177
888.146	10188
888.27	10207
888.395	10272
888.519	10249
888.643	10188
888.767	10230
888.891	10044
889.015	10059
889.139	10078
889.263	10002
889.387	10116
889.511	10147
889.635	10082
889.759	10055
889.883	9964
890.006	10074
890.13	10116
890.254	9876
890.377	10040
890.501	9892
890.624	9819
890.748	9808
890.871	9808
890.995	9766
891.118	9751
891.241	9740
891.364	9732
891.488	9808
891.611	9785
891.734	9656
891.857	9800
891.98	9720
892.103	9854
892.226	9686
892.349	9663
892.471	9576
892.594	9591
892.717	9648
892.839	9561
892.962	9580
893.085	9625
893.207	9553
893.33	9492
893.452	9507
893.575	9599
893.697	9530
893.819	9622
893.941	9614
894.064	9622
894.186	9443
894.308	9397
894.43	9542
894.552	9500
894.674	9576
894.796	9408
894.918	9397
895.04	9348
895.161	9420
895.283	9291
895.405	9249
895.526	9253
895.648	9241
895.769	9150
895.891	9275
896.012	9268
896.134	9291
896.255	9180
896.376	9119
896.498	9150
896.619	9127
896.74	9036
896.861	9074
896.982	9249
897.103	9313
897.224	9157
897.345	9085
897.466	8982
897.587	9058
897.708	9089
897.828	9036
897.949	9017
898.07	8910
898.19	8918
898.311	9001
898.431	8979
898.552	8933
898.672	8952
898.792	8910
898.913	8971
899.033	8834
899.153	8800
899.273	8613
899.393	8785
899.513	8705
899.633	8788
899.753	8807
899.873	8705
899.993	8769
900.113	8667
900.232	8724
900.352	8590
900.472	8651
900.591	8518
900.711	8590
900.83	8549
900.95	8708
901.069	8682
901.189	8629
901.308	8404
901.427	8381
901.546	8370
901.665	8507
901.784	8480
901.904	8351
902.023	8282
902.141	8195
902.26	8183
902.379	8271
902.498	8259
902.617	8221
902.735	8347
902.854	8294
902.973	8343
903.091	8134
903.21	8191
903.328	8157
903.446	8069
903.565	8008
903.683	8142
903.801	8088
903.919	8119
904.038	8142
904.156	8024
904.274	8073
904.392	7986
904.51	8008
904.627	8073
904.745	8073
904.863	8088
904.981	7951
905.098	7841
905.216	7852
905.334	7841
905.451	7871
905.569	7917
905.686	7898
905.803	7894
905.921	7788
906.038	7917
906.155	7830
906.272	7772
906.389	7708
906.506	7666
906.623	7597
906.74	7597
906.857	7502
906.974	7476
907.091	7616
907.208	7708
907.324	7616
907.441	7609
907.557	7464
907.674	7377
907.79	7381
907.907	7422
908.023	7396
908.139	7430
908.256	7335
908.372	7365
908.488	7354
908.604	7320
908.72	7221
908.836	7255
908.952	7244
909.068	7289
909.184	7403
909.3	7266
909.415	7316
909.531	7312
909.647	7122
909.762	7152
909.878	7084
909.993	7133
910.108	7072
910.224	7141
910.339	7084
910.454	7042
910.57	7015
910.685	6867
910.8	7110
910.915	7168
911.03	7069
911.145	6966
911.259	6913
911.374	6943
911.489	6825
911.604	6882
911.718	6665
911.833	6631
911.947	6711
912.062	6570
912.176	6646
912.291	6707
912.405	6696
912.519	6802
912.633	6871
912.748	6764
912.862	6741
912.976	6620
913.09	6498
913.204	6604
913.318	6608
913.431	6692
913.545	6658
913.659	6677
913.772	6627
913.886	6578
914	6578
914.113	6650
914.226	6669
914.34	6604
914.453	6464
914.566	6593
914.68	6490
914.793	6509
914.906	6429
915.019	6395
915.132	6399
915.245	6414
915.358	6437
915.47	6456
915.583	6426
915.696	6506
915.809	6525
915.921	6517
916.034	6448
916.146	6395
916.259	6353
916.371	6479
916.483	6445
916.595	6338
916.708	6365
916.82	6384
916.932	6395
917.044	6353
917.156	6346
917.268	6311
917.38	6308
917.491	6273
917.603	6319
917.715	6357
917.826	6395
917.938	6338
918.049	6235
918.161	6357
918.272	6365
918.384	6448
918.495	6319
918.606	6304
918.717	6178
918.828	6224
918.939	6281
919.05	6194
919.161	6220
919.272	6182
919.383	6167
919.494	6273
919.604	6422
919.715	6315
919.826	6281
919.936	6262
920.047	6338
920.157	6277
920.267	6448
920.378	6315
920.488	6270
920.598	6456
920.708	6551
920.818	6494
920.928	6418
921.038	6540
921.148	6631
921.258	6323
921.368	6342
921.477	6167
921.587	6216
921.697	6072
921.806	6190
921.916	6049
922.025	5912
922.134	5939
922.244	5882
922.353	5996
922.462	5794
922.571	5745
922.68	5699
922.789	5699
922.898	5729
923.007	5672
923.116	5695
923.224	5672
923.333	5642
923.442	5634
923.55	5551
923.659	5585
923.767	5680
923.876	5558
923.984	5581
924.092	5463
924.201	5619
924.309	5551
924.417	5532
924.525	5471
924.633	5467
924.741	6247
924.849	5322
924.956	5520
925.064	5357
925.172	5334
925.279	5318
925.387	5349
925.494	5395
925.602	5448
925.709	5433
925.816	5296
925.924	5303
926.031	5372
926.138	5379
926.245	5334
926.352	5239
926.459	5330
926.566	5292
926.673	5197
926.779	5151
926.886	5140
926.993	4991
927.099	4995
927.206	4961
927.312	4938
927.419	5006
927.525	5006
927.631	4961
927.737	4930
927.843	4889
927.95	4767
928.056	4850
928.162	4812
928.267	4873
928.373	5303
928.479	4873
928.585	4706
928.69	4710
928.796	4805
928.901	4679
929.007	4599
929.112	4653
929.218	4630
929.323	4558
929.428	4519
929.533	4691
929.638	4527
929.743	4550
929.848	4561
929.953	4519
930.058	4394
930.163	4363
930.267	4356
930.372	4424
930.477	4284
930.581	4489
930.685	4341
930.79	4306
930.894	4265
930.998	4238
931.103	4409
931.207	4147
931.311	4078
931.415	4017
931.519	3956
931.623	3907
