Data from glass_V78500241_2763.txt Node
Date: Wed Sep 01 19:33:39 CST 2021
User: usil
Spectrometer: V785-0024
Trigger mode: 0
Integration Time (sec): 4.000000E-1
Scans to average: 1
Nonlinearity correction enabled: false
Boxcar width: 0
Storing dark spectrum: false
XAxis mode: Wavelengths
Number of Pixels in Spectrum: 1024
>>>>>Begin Spectral Data<<<<<
801.071	3747
801.214	3713
801.356	3663
801.499	3705
801.641	3671
801.783	3774
801.926	3827
802.068	3812
802.211	3819
802.353	3816
802.496	3797
802.638	3838
802.78	3888
802.923	3899
803.065	3880
803.208	3880
803.35	3861
803.492	3869
803.635	3926
803.777	3835
803.919	3903
804.061	4120
804.204	3922
804.346	3888
804.488	3857
804.63	4006
804.773	3911
804.915	4021
805.057	4135
805.199	4002
805.341	4032
805.483	4128
805.626	4147
805.768	4116
805.91	4166
806.052	4227
806.194	4200
806.336	4329
806.478	4192
806.62	4188
806.762	4139
806.904	4223
807.046	4344
807.188	4196
807.33	4120
807.472	4219
807.614	4169
807.756	4223
807.898	4234
808.04	4162
808.182	4249
808.324	4306
808.465	4356
808.607	4398
808.749	4405
808.891	4447
809.033	4504
809.174	4379
809.316	4242
809.458	4204
809.6	4086
809.741	4173
809.883	4120
810.025	4246
810.166	4204
810.308	4196
810.45	4200
810.591	4166
810.733	4223
810.875	4512
811.016	4809
811.158	5143
811.299	5235
811.441	5265
811.582	5022
811.724	4679
811.865	4436
812.007	4462
812.148	4386
812.29	4367
812.431	4409
812.573	4386
812.714	4360
812.855	4367
812.997	4470
813.138	4523
813.279	4413
813.421	4333
813.562	4322
813.703	4329
813.845	4291
813.986	4215
814.127	4196
814.268	4261
814.41	4249
814.551	4234
814.692	4318
814.833	4242
814.974	4325
815.115	4333
815.256	4238
815.397	4215
815.539	4249
815.68	4188
815.821	4204
815.962	4303
816.103	4276
816.244	4200
816.385	4253
816.526	4295
816.666	4188
816.807	4040
816.948	4150
817.089	4162
817.23	4105
817.371	4025
817.512	4013
817.653	4074
817.793	4029
817.934	3991
818.075	4120
818.216	4074
818.356	4021
818.497	4017
818.638	3857
818.778	3911
818.919	3838
819.06	3819
819.2	3880
819.341	3850
819.481	3812
819.622	3846
819.762	4006
819.903	3918
820.043	3835
820.184	3842
820.324	3797
820.465	3846
820.605	3804
820.746	3831
820.886	3804
821.026	3930
821.167	3880
821.307	3972
821.447	3991
821.588	3918
821.728	3926
821.868	3945
822.008	3842
822.149	3903
822.289	3888
822.429	3785
822.569	3770
822.709	3781
822.849	3720
822.99	3690
823.13	3747
823.27	3720
823.41	3701
823.55	3720
823.69	3709
823.83	3740
823.97	3648
824.11	3603
824.25	3549
824.389	3633
824.529	3652
824.669	3610
824.809	3686
824.949	3728
825.089	3732
825.228	3641
825.368	3561
825.508	3515
825.648	3523
825.787	3587
825.927	3633
826.067	3633
826.206	3644
826.346	3812
826.485	3812
826.625	3865
826.765	3915
826.904	3838
827.044	3595
827.183	3519
827.323	3431
827.462	3439
827.601	3405
827.741	3340
827.88	3450
828.02	3351
828.159	3409
828.298	3469
828.437	3473
828.577	3466
828.716	3572
828.855	3454
828.994	3355
829.134	3359
829.273	3374
829.412	3363
829.551	3348
829.69	3363
829.829	3401
829.968	3485
830.107	3374
830.246	3481
830.385	3317
830.524	3344
830.663	3264
830.802	3211
830.941	3214
831.08	3176
831.219	3283
831.357	3233
831.496	3397
831.635	3218
831.774	3161
831.913	3203
832.051	3154
832.19	3123
832.329	3161
832.467	3161
832.606	3077
832.744	3180
832.883	3138
833.022	3173
833.16	3253
833.299	3310
833.437	3336
833.576	3378
833.714	3397
833.852	3420
833.991	3443
834.129	3439
834.267	3416
834.406	3382
834.544	3412
834.682	3439
834.821	3401
834.959	3561
835.097	3412
835.235	3477
835.373	3462
835.511	3492
835.65	3428
835.788	3469
835.926	3363
836.064	3351
836.202	3401
836.34	3545
836.478	3622
836.615	3515
836.753	3591
836.891	3625
837.029	3572
837.167	3625
837.305	3519
837.443	3538
837.58	3469
837.718	3606
837.856	3523
837.993	3500
838.131	3603
838.269	3553
838.406	3549
838.544	3564
838.681	3500
838.819	3428
838.956	3367
839.094	3386
839.231	3412
839.369	3500
839.506	3694
839.643	3641
839.781	3447
839.918	3424
840.055	3500
840.193	3534
840.33	3523
840.467	3515
840.604	3580
840.742	3736
840.879	3500
841.016	3568
841.153	3572
841.29	3766
841.427	3705
841.564	3717
841.701	3713
841.838	3686
841.975	3652
842.112	3694
842.249	3629
842.385	3629
842.522	3854
842.659	3625
842.796	3610
842.933	3720
843.069	3694
843.206	3679
843.343	3819
843.479	3766
843.616	3762
843.752	3667
843.889	3705
844.025	3842
844.162	3709
844.298	3846
844.435	3762
844.571	3781
844.708	3880
844.844	3960
844.98	3930
845.117	4006
845.253	3922
845.389	3892
845.525	3880
845.661	3937
845.798	3937
845.934	3994
846.07	3915
846.206	4048
846.342	4109
846.478	4067
846.614	3956
846.75	3934
846.886	3922
847.022	3972
847.158	3953
847.294	4010
847.429	3983
847.565	3968
847.701	4211
847.837	3911
847.972	3804
848.108	3964
848.244	3964
848.379	3800
848.515	3831
848.65	3823
848.786	3842
848.921	3819
849.057	3911
849.192	3956
849.328	3888
849.463	3888
849.598	3884
849.734	3846
849.869	3800
850.004	3785
850.14	3804
850.275	3755
850.41	3751
850.545	3724
850.68	3728
850.815	3797
850.95	3789
851.085	3945
851.22	3850
851.355	3800
851.49	3770
851.625	3751
851.76	3755
851.895	3724
852.03	3671
852.165	3793
852.299	3846
852.434	3892
852.569	3861
852.703	3838
852.838	3918
852.973	3945
853.107	3968
853.242	3823
853.376	3819
853.511	3751
853.645	3812
853.78	3972
853.914	3808
854.048	3884
854.183	3861
854.317	3956
854.451	4048
854.585	3926
854.72	3949
854.854	4044
854.988	3899
855.122	3941
855.256	3930
855.39	4013
855.524	4124
855.658	4071
855.792	4135
855.926	4074
856.06	4158
856.194	4211
856.327	4131
856.461	4105
856.595	4120
856.729	4166
856.862	4249
856.996	4192
857.13	4200
857.263	4268
857.397	4360
857.53	4249
857.664	4348
857.797	4356
857.931	4436
858.064	4367
858.197	4436
858.331	4394
858.464	4325
858.597	4291
858.731	4459
858.864	4405
858.997	4470
859.13	4497
859.263	4542
859.396	4558
859.529	4489
859.662	4493
859.795	4508
859.928	4558
860.061	4725
860.194	4702
860.327	4626
860.46	4637
860.592	4694
860.725	4748
860.858	4702
860.99	4706
861.123	4630
861.256	4721
861.388	4740
861.521	5258
861.653	4717
861.786	4710
861.918	4714
862.05	4759
862.183	4839
862.315	4843
862.447	4885
862.58	4843
862.712	4763
862.844	4767
862.976	4881
863.108	4824
863.24	5250
863.372	4782
863.504	4904
863.636	4889
863.768	4991
863.9	4984
864.032	4873
864.164	4942
864.296	5010
864.428	5064
864.559	5121
864.691	5124
864.823	5155
864.954	5128
865.086	5094
865.217	5079
865.349	5113
865.48	5136
865.612	5155
865.743	5273
865.875	5204
866.006	5170
866.137	5280
866.269	5193
866.4	5242
866.531	5185
866.662	5193
866.793	5258
866.924	5311
867.055	5349
867.186	5318
867.317	5269
867.448	5265
867.579	5341
867.71	5417
867.841	5372
867.972	5414
868.103	5471
868.233	5501
868.364	5474
868.495	5566
868.625	5638
868.756	5805
868.886	5691
869.017	5680
869.147	5805
869.278	5805
869.408	5832
869.539	5798
869.669	5882
869.799	5897
869.929	6038
870.06	5977
870.19	6163
870.32	6155
870.45	6289
870.58	6346
870.71	6422
870.84	6369
870.97	6399
871.1	6403
871.23	6559
871.36	6631
871.489	6635
871.619	6681
871.749	6783
871.879	6890
872.008	6996
872.138	7004
872.267	6989
872.397	6993
872.526	7008
872.656	7099
872.785	7236
872.915	7377
873.044	7453
873.173	7544
873.303	7639
873.432	7731
873.561	7860
873.69	7883
873.819	7963
873.948	8168
874.077	8161
874.206	8263
874.335	8457
874.464	8610
874.593	8754
874.722	8944
874.851	9074
874.979	9233
875.108	9397
875.237	9386
875.365	9412
875.494	9667
875.623	9835
875.751	9800
875.88	9987
876.008	10185
876.136	10143
876.265	10538
876.393	10725
876.521	10702
876.65	10763
876.778	10869
876.906	10919
877.034	10908
877.162	11094
877.29	11143
877.418	11368
877.546	11284
877.674	11417
877.802	11547
877.93	11482
878.058	11539
878.185	11551
878.313	11646
878.441	11741
878.568	11726
878.696	11775
878.824	11809
878.951	11935
879.079	11988
879.206	12007
879.333	12022
879.461	11977
879.588	12053
879.715	12068
879.842	12235
879.97	12049
880.097	11821
880.224	11885
880.351	11908
880.478	11889
880.605	11752
880.732	11798
880.859	11942
880.986	11798
881.112	11832
881.239	11729
881.366	11611
881.493	11592
881.619	11524
881.746	11573
881.872	11455
881.999	11520
882.125	11467
882.252	11543
882.378	11452
882.505	11547
882.631	11398
882.757	11246
882.883	11341
883.01	11261
883.136	11140
883.262	11132
883.388	11048
883.514	11143
883.64	11197
883.766	11079
883.892	10927
884.018	10984
884.143	11041
884.269	11071
884.395	10824
884.52	10793
884.646	10782
884.772	10721
884.897	10634
885.023	10653
885.148	10649
885.274	10755
885.399	10618
885.524	10558
885.65	10538
885.775	10535
885.9	10485
886.025	10588
886.15	10561
886.275	10451
886.4	10382
886.525	10363
886.65	10356
886.775	10360
886.9	10493
887.025	10470
887.149	10253
887.274	10280
887.399	10158
887.523	10158
887.648	10109
887.773	10120
887.897	10276
888.021	10211
888.146	10063
888.27	10192
888.395	10200
888.519	10131
888.643	10154
888.767	10185
888.891	10051
889.015	9975
889.139	10025
889.263	9918
889.387	10093
889.511	10097
889.635	9975
889.759	9903
889.883	9934
890.006	10002
890.13	10055
890.254	9975
890.377	9842
890.501	9785
890.624	9888
890.748	9838
890.871	9808
890.995	9755
891.118	9663
891.241	9740
891.364	9766
891.488	9781
891.611	9740
891.734	9717
891.857	9713
891.98	9671
892.103	9759
892.226	9720
892.349	9694
892.471	9523
892.594	9625
892.717	9519
892.839	9564
892.962	9568
893.085	9648
893.207	9618
893.33	9504
893.452	9568
893.575	9675
893.697	9473
893.819	9587
893.941	9557
894.064	9580
894.186	9332
894.308	9374
894.43	9420
894.552	9523
894.674	9500
894.796	9370
894.918	9374
895.04	9359
895.161	9329
895.283	9310
895.405	9119
895.526	9245
895.648	9211
895.769	9192
895.891	9195
896.012	9230
896.134	9123
896.255	9100
896.376	9131
896.498	9127
896.619	9058
896.74	9066
896.861	9058
896.982	9275
897.103	9237
897.224	9135
897.345	9005
897.466	8963
897.587	8986
897.708	9070
897.828	9047
897.949	8910
898.07	8796
898.19	8933
898.311	8998
898.431	8887
898.552	8948
898.672	8933
898.792	8929
898.913	8853
899.033	8804
899.153	8781
899.273	8712
899.393	8697
899.513	8743
899.633	8689
899.753	8724
899.873	8655
899.993	8689
900.113	8674
900.232	8640
900.352	8587
900.472	8648
900.591	8530
900.711	8579
900.83	8571
900.95	8606
901.069	8724
901.189	8511
901.308	8393
901.427	8381
901.546	8377
901.665	8393
901.784	8427
901.904	8366
902.023	8347
902.141	8187
902.26	8161
902.379	8275
902.498	8229
902.617	8130
902.735	8313
902.854	8286
902.973	8221
903.091	8138
903.21	8187
903.328	8149
903.446	8100
903.565	8088
903.683	8149
903.801	8065
903.919	8130
904.038	8073
904.156	7951
904.274	8050
904.392	7978
904.51	8024
904.627	8005
904.745	8077
904.863	8092
904.981	7868
905.098	7856
905.216	7845
905.334	7860
905.451	7811
905.569	7887
905.686	7818
905.803	7883
905.921	7784
906.038	7795
906.155	7772
906.272	7723
906.389	7776
906.506	7685
906.623	7578
906.74	7609
906.857	7510
906.974	7567
907.091	7674
907.208	7685
907.324	7571
907.441	7556
907.557	7426
907.674	7464
907.79	7350
907.907	7411
908.023	7499
908.139	7403
908.256	7365
908.372	7403
908.488	7411
908.604	7270
908.72	7213
908.836	7221
908.952	7236
909.068	7217
909.184	7335
909.3	7198
909.415	7221
909.531	7232
909.647	7118
909.762	7129
909.878	7042
909.993	7091
910.108	7110
910.224	7038
910.339	7065
910.454	7031
910.57	6989
910.685	6916
910.8	7103
910.915	7133
911.03	7015
911.145	6886
911.259	6859
911.374	6859
911.489	6840
911.604	6783
911.718	6665
911.833	6684
911.947	6635
912.062	6570
912.176	6696
912.291	6677
912.405	6726
912.519	6859
912.633	6795
912.748	6753
912.862	6696
912.976	6578
913.09	6597
913.204	6555
913.318	6593
913.431	6604
913.545	6681
913.659	6715
913.772	6623
913.886	6566
914	6525
914.113	6639
914.226	6578
914.34	6559
914.453	6486
914.566	6532
914.68	6536
914.793	6555
914.906	6426
915.019	6460
915.132	6380
915.245	6422
915.358	6426
915.47	6384
915.583	6388
915.696	6441
915.809	6486
915.921	6570
916.034	6437
916.146	6388
916.259	6361
916.371	6448
916.483	6380
916.595	6414
916.708	6403
916.82	6365
916.932	6319
917.044	6369
917.156	6384
917.268	6285
917.38	6342
917.491	6323
917.603	6369
917.715	6391
917.826	6331
917.938	6350
918.049	6228
918.161	6304
918.272	6410
918.384	6464
918.495	6327
918.606	6224
918.717	6178
918.828	6235
918.939	6258
919.05	6159
919.161	6197
919.272	6098
919.383	6125
919.494	6407
919.604	6433
919.715	6315
919.826	6175
919.936	6270
920.047	6300
920.157	6258
920.267	6437
920.378	6304
920.488	6258
920.598	6483
920.708	6544
920.818	6479
920.928	6429
921.038	6608
921.148	6612
921.258	6361
921.368	6304
921.477	6163
921.587	6133
921.697	6087
921.806	6106
921.916	6072
922.025	6007
922.134	5923
922.244	5832
922.353	5999
922.462	5855
922.571	5745
922.68	5672
922.789	5649
922.898	5707
923.007	5596
923.116	5672
923.224	5623
923.333	5634
923.442	5634
923.55	5566
923.659	5535
923.767	5615
923.876	5528
923.984	5573
924.092	5474
924.201	5543
924.309	5524
924.417	5539
924.525	5516
924.633	5448
924.741	6228
924.849	5345
924.956	5410
925.064	5330
925.172	5258
925.279	5265
925.387	5357
925.494	5364
925.602	5433
925.709	5353
925.816	5288
925.924	5299
926.031	5311
926.138	5273
926.245	5280
926.352	5208
926.459	5277
926.566	5265
926.673	5174
926.779	5098
926.886	5140
926.993	5045
927.099	5025
927.206	4953
927.312	4858
927.419	4995
927.525	4957
927.631	5010
927.737	4942
927.843	4927
927.95	4721
928.056	4809
928.162	4801
928.267	4866
928.373	5284
928.479	4805
928.585	4668
928.69	4752
928.796	4748
928.901	4668
929.007	4622
929.112	4668
929.218	4645
929.323	4565
929.428	4565
929.533	4660
929.638	4519
929.743	4512
929.848	4565
929.953	4474
930.058	4413
930.163	4299
930.267	4348
930.372	4390
930.477	4284
930.581	4428
930.685	4299
930.79	4268
930.894	4261
930.998	4295
931.103	4333
931.207	4150
931.311	4067
931.415	4013
931.519	3941
931.623	3915
