Data from glass_V78500241_364.txt Node
Date: Wed Sep 01 19:17:01 CST 2021
User: usil
Spectrometer: V785-0024
Trigger mode: 0
Integration Time (sec): 4.000000E-1
Scans to average: 1
Nonlinearity correction enabled: false
Boxcar width: 0
Storing dark spectrum: false
XAxis mode: Wavelengths
Number of Pixels in Spectrum: 1024
>>>>>Begin Spectral Data<<<<<
801.071	3747
801.214	3751
801.356	3686
801.499	3819
801.641	3728
801.783	3812
801.926	3888
802.068	3854
802.211	3823
802.353	3896
802.496	3857
802.638	3865
802.78	3922
802.923	3941
803.065	3937
803.208	3876
803.35	3892
803.492	3907
803.635	3937
803.777	3804
803.919	3907
804.061	4173
804.204	3968
804.346	3926
804.488	3949
804.63	4044
804.773	4002
804.915	4021
805.057	4109
805.199	4067
805.341	4078
805.483	4143
805.626	4177
805.768	4139
805.91	4234
806.052	4238
806.194	4223
806.336	4363
806.478	4207
806.62	4185
806.762	4242
806.904	4306
807.046	4402
807.188	4242
807.33	4169
807.472	4253
807.614	4204
807.756	4261
807.898	4249
808.04	4238
808.182	4325
808.324	4325
808.465	4436
808.607	4432
808.749	4466
808.891	4500
809.033	4512
809.174	4451
809.316	4325
809.458	4242
809.6	4204
809.741	4135
809.883	4124
810.025	4253
810.166	4204
810.308	4227
810.45	4257
810.591	4196
810.733	4299
810.875	4538
811.016	4816
811.158	5140
811.299	5299
811.441	5303
811.582	5090
811.724	4691
811.865	4489
812.007	4462
812.148	4451
812.29	4440
812.431	4428
812.573	4440
812.714	4405
812.855	4424
812.997	4421
813.138	4466
813.279	4409
813.421	4443
813.562	4390
813.703	4398
813.845	4383
813.986	4291
814.127	4242
814.268	4310
814.41	4306
814.551	4261
814.692	4375
814.833	4306
814.974	4333
815.115	4341
815.256	4272
815.397	4276
815.539	4249
815.68	4192
815.821	4238
815.962	4322
816.103	4295
816.244	4257
816.385	4230
816.526	4280
816.666	4211
816.807	4101
816.948	4181
817.089	4147
817.23	4112
817.371	4051
817.512	4025
817.653	4071
817.793	4025
817.934	4048
818.075	4124
818.216	4101
818.356	4090
818.497	3934
818.638	3930
818.778	3896
818.919	3907
819.06	3869
819.2	3937
819.341	3896
819.481	3903
819.622	3960
819.762	3964
819.903	3930
820.043	3941
820.184	3842
820.324	3804
820.465	3896
820.605	3846
820.746	3941
820.886	3854
821.026	3922
821.167	3915
821.307	3975
821.447	4002
821.588	3949
821.728	3956
821.868	3956
822.008	3896
822.149	3876
822.289	3987
822.429	3785
822.569	3766
822.709	3808
822.849	3717
822.99	3732
823.13	3781
823.27	3808
823.41	3743
823.55	3709
823.69	3762
823.83	3732
823.97	3682
824.11	3660
824.25	3622
824.389	3675
824.529	3679
824.669	3660
824.809	3751
824.949	3785
825.089	3759
825.228	3724
825.368	3564
825.508	3542
825.648	3576
825.787	3606
825.927	3622
826.067	3663
826.206	3698
826.346	3819
826.485	3869
826.625	3888
826.765	3949
826.904	3838
827.044	3648
827.183	3504
827.323	3439
827.462	3488
827.601	3409
827.741	3428
827.88	3488
828.02	3378
828.159	3443
828.298	3515
828.437	3534
828.577	3519
828.716	3599
828.855	3519
828.994	3428
829.134	3397
829.273	3424
829.412	3355
829.551	3386
829.69	3329
829.829	3450
829.968	3545
830.107	3473
830.246	3443
830.385	3386
830.524	3351
830.663	3332
830.802	3275
830.941	3241
831.08	3188
831.219	3291
831.357	3283
831.496	3458
831.635	3237
831.774	3199
831.913	3211
832.051	3161
832.19	3104
832.329	3264
832.467	3154
832.606	3119
832.744	3195
832.883	3207
833.022	3165
833.16	3241
833.299	3272
833.437	3355
833.576	3363
833.714	3428
833.852	3481
833.991	3481
834.129	3454
834.267	3420
834.406	3405
834.544	3424
834.682	3431
834.821	3443
834.959	3580
835.097	3450
835.235	3553
835.373	3553
835.511	3504
835.65	3477
835.788	3504
835.926	3450
836.064	3424
836.202	3428
836.34	3549
836.478	3644
836.615	3595
836.753	3595
836.891	3656
837.029	3618
837.167	3644
837.305	3542
837.443	3584
837.58	3492
837.718	3644
837.856	3549
837.993	3549
838.131	3610
838.269	3584
838.406	3576
838.544	3587
838.681	3492
838.819	3416
838.956	3416
839.094	3370
839.231	3450
839.369	3564
839.506	3751
839.643	3610
839.781	3526
839.918	3488
840.055	3542
840.193	3530
840.33	3584
840.467	3584
840.604	3591
840.742	3812
840.879	3542
841.016	3606
841.153	3595
841.29	3751
841.427	3728
841.564	3724
841.701	3770
841.838	3713
841.975	3705
842.112	3732
842.249	3698
842.385	3625
842.522	3819
842.659	3736
842.796	3679
842.933	3736
843.069	3717
843.206	3682
843.343	3857
843.479	3823
843.616	3861
843.752	3698
843.889	3694
844.025	3869
844.162	3740
844.298	3876
844.435	3800
844.571	3819
844.708	3922
844.844	4006
844.98	4040
845.117	4044
845.253	3941
845.389	3896
845.525	4006
845.661	4006
845.798	3926
845.934	4051
846.07	3960
846.206	4051
846.342	4112
846.478	4067
846.614	3968
846.75	3960
846.886	3941
847.022	4071
847.158	3987
847.294	4006
847.429	4055
847.565	4017
847.701	4280
847.837	3915
847.972	3884
848.108	4006
848.244	3964
848.379	3857
848.515	3842
848.65	3766
848.786	3846
848.921	3857
849.057	3945
849.192	4006
849.328	3930
849.463	3975
849.598	3873
849.734	3884
849.869	3857
850.004	3861
850.14	3797
850.275	3838
850.41	3762
850.545	3736
850.68	3766
850.815	3823
850.95	3850
851.085	3998
851.22	3857
851.355	3842
851.49	3838
851.625	3797
851.76	3766
851.895	3728
852.03	3755
852.165	3850
852.299	3846
852.434	3896
852.569	3884
852.703	3880
852.838	3930
852.973	3994
853.107	4029
853.242	3903
853.376	3876
853.511	3766
853.645	3861
853.78	4059
853.914	3907
854.048	3918
854.183	3876
854.317	3930
854.451	4071
854.585	3975
854.72	3983
854.854	4051
854.988	3941
855.122	3998
855.256	3956
855.39	4048
855.524	4169
855.658	4105
855.792	4101
855.926	4196
856.06	4204
856.194	4162
856.327	4143
856.461	4162
856.595	4139
856.729	4158
856.862	4265
856.996	4227
857.13	4314
857.263	4329
857.397	4383
857.53	4299
857.664	4402
857.797	4421
857.931	4417
858.064	4424
858.197	4497
858.331	4394
858.464	4462
858.597	4333
858.731	4447
858.864	4462
858.997	4478
859.13	4527
859.263	4523
859.396	4599
859.529	4550
859.662	4569
859.795	4512
859.928	4615
860.061	4714
860.194	4729
860.327	4721
860.46	4649
860.592	4721
860.725	4778
860.858	4835
860.99	4733
861.123	4698
861.256	4744
861.388	4778
861.521	5414
861.653	4759
861.786	4698
861.918	4702
862.05	4889
862.183	4812
862.315	4900
862.447	4949
862.58	4930
862.712	4805
862.844	4805
862.976	4881
863.108	4885
863.24	5201
863.372	4850
863.504	4843
863.636	4923
863.768	4984
863.9	4927
864.032	4911
864.164	4946
864.296	5029
864.428	5052
864.559	5056
864.691	5128
864.823	5128
864.954	5128
865.086	5178
865.217	5094
865.349	5143
865.48	5162
865.612	5212
865.743	5269
865.875	5170
866.006	5212
866.137	5288
866.269	5284
866.4	5235
866.531	5220
866.662	5239
866.793	5277
866.924	5322
867.055	5387
867.186	5341
867.317	5315
867.448	5288
867.579	5410
867.71	5398
867.841	5391
867.972	5486
868.103	5516
868.233	5463
868.364	5528
868.495	5547
868.625	5665
868.756	5805
868.886	5619
869.017	5707
869.147	5832
869.278	5885
869.408	5859
869.539	5840
869.669	5931
869.799	5935
869.929	6034
870.06	6015
870.19	6167
870.32	6159
870.45	6262
870.58	6407
870.71	6475
870.84	6441
870.97	6429
871.1	6407
871.23	6612
871.36	6700
871.489	6623
871.619	6760
871.749	6749
871.879	6924
872.008	6989
872.138	6996
872.267	6985
872.397	7046
872.526	7019
872.656	7149
872.785	7137
872.915	7396
873.044	7582
873.173	7548
873.303	7620
873.432	7715
873.561	7856
873.69	7928
873.819	8039
873.948	8199
874.077	8259
874.206	8332
874.335	8434
874.464	8659
874.593	8899
874.722	8963
874.851	9119
874.979	9287
875.108	9382
875.237	9485
875.365	9564
875.494	9629
875.623	9816
875.751	9884
875.88	10029
876.008	10147
876.136	10310
876.265	10542
876.393	10714
876.521	10641
876.65	10824
876.778	10889
876.906	10900
877.034	11010
877.162	11056
877.29	11166
877.418	11326
877.546	11299
877.674	11421
877.802	11505
877.93	11558
878.058	11543
878.185	11581
878.313	11676
878.441	11794
878.568	11684
878.696	11760
878.824	11836
878.951	11973
879.079	12026
879.206	12125
879.333	12057
879.461	11984
879.588	12117
879.715	11988
879.842	12216
879.97	12007
880.097	11946
880.224	11855
880.351	11866
880.478	11901
880.605	11824
880.732	11893
880.859	11897
880.986	11870
881.112	11923
881.239	11703
881.366	11726
881.493	11722
881.619	11539
881.746	11581
881.872	11592
881.999	11505
882.125	11474
882.252	11547
882.378	11486
882.505	11566
882.631	11383
882.757	11334
882.883	11383
883.01	11239
883.136	11235
883.262	11140
883.388	11006
883.514	11178
883.64	11235
883.766	11136
883.892	11029
884.018	10968
884.143	11025
884.269	11086
884.395	10930
884.52	10820
884.646	10778
884.772	10653
884.897	10607
885.023	10675
885.148	10744
885.274	10691
885.399	10641
885.524	10554
885.65	10622
885.775	10542
885.9	10599
886.025	10577
886.15	10611
886.275	10542
886.4	10329
886.525	10424
886.65	10398
886.775	10318
886.9	10459
887.025	10512
887.149	10379
887.274	10268
887.399	10181
887.523	10169
887.648	10150
887.773	10162
887.897	10291
888.021	10207
888.146	10029
888.27	10246
888.395	10196
888.519	10150
888.643	10185
888.767	10131
888.891	10116
889.015	10006
889.139	10131
889.263	9895
889.387	10017
889.511	10154
889.635	10147
889.759	9949
889.883	10010
890.006	9994
890.13	10074
890.254	10040
890.377	9987
890.501	9873
890.624	9873
890.748	9934
890.871	9785
890.995	9800
891.118	9747
891.241	9759
891.364	9728
891.488	9857
891.611	9740
891.734	9724
891.857	9816
891.98	9709
892.103	9770
892.226	9675
892.349	9701
892.471	9469
892.594	9587
892.717	9633
892.839	9629
892.962	9580
893.085	9701
893.207	9610
893.33	9454
893.452	9549
893.575	9568
893.697	9481
893.819	9618
893.941	9633
894.064	9656
894.186	9435
894.308	9447
894.43	9591
894.552	9568
894.674	9473
894.796	9424
894.918	9397
895.04	9378
895.161	9374
895.283	9363
895.405	9283
895.526	9317
895.648	9195
895.769	9260
895.891	9253
896.012	9294
896.134	9268
896.255	9165
896.376	9203
896.498	9116
896.619	9108
896.74	9123
896.861	9104
896.982	9264
897.103	9211
897.224	9135
897.345	9116
897.466	9036
897.587	9032
897.708	9100
897.828	9097
897.949	9009
898.07	8883
898.19	8895
898.311	9112
898.431	8899
898.552	8956
898.672	9013
898.792	8979
898.913	8876
899.033	8910
899.153	8746
899.273	8663
899.393	8674
899.513	8788
899.633	8773
899.753	8750
899.873	8720
899.993	8804
900.113	8716
900.232	8777
900.352	8693
900.472	8651
900.591	8541
900.711	8583
900.83	8564
900.95	8655
901.069	8651
901.189	8541
901.308	8476
901.427	8374
901.546	8400
901.665	8461
901.784	8537
901.904	8412
902.023	8366
902.141	8279
902.26	8214
902.379	8214
902.498	8176
902.617	8180
902.735	8290
902.854	8305
902.973	8282
903.091	8115
903.21	8176
903.328	8218
903.446	8123
903.565	8100
903.683	8069
903.801	8046
903.919	8130
904.038	8183
904.156	8035
904.274	8149
904.392	8054
904.51	8039
904.627	8077
904.745	8073
904.863	8115
904.981	7928
905.098	7913
905.216	7879
905.334	7909
905.451	7894
905.569	7917
905.686	7947
905.803	7974
905.921	7753
906.038	7879
906.155	7731
906.272	7784
906.389	7693
906.506	7632
906.623	7662
906.74	7624
906.857	7575
906.974	7575
907.091	7750
907.208	7761
907.324	7609
907.441	7609
907.557	7491
907.674	7506
907.79	7415
907.907	7403
908.023	7377
908.139	7419
908.256	7430
908.372	7358
908.488	7350
908.604	7297
908.72	7263
908.836	7244
908.952	7263
909.068	7232
909.184	7350
909.3	7285
909.415	7240
909.531	7396
909.647	7149
909.762	7126
909.878	7110
909.993	7156
910.108	7156
910.224	7129
910.339	7164
910.454	7107
910.57	7069
910.685	6989
910.8	7137
910.915	7183
911.03	6970
911.145	6947
911.259	6825
911.374	6878
911.489	6863
911.604	6840
911.718	6730
911.833	6745
911.947	6703
912.062	6665
912.176	6654
912.291	6700
912.405	6673
912.519	6871
912.633	6833
912.748	6722
912.862	6753
912.976	6669
913.09	6536
913.204	6574
913.318	6635
913.431	6665
913.545	6722
913.659	6711
913.772	6715
913.886	6559
914	6612
914.113	6597
914.226	6650
914.34	6635
914.453	6498
914.566	6650
914.68	6433
914.793	6582
914.906	6460
915.019	6384
915.132	6384
915.245	6448
915.358	6506
915.47	6456
915.583	6452
915.696	6494
915.809	6578
915.921	6608
916.034	6486
916.146	6391
916.259	6403
916.371	6475
916.483	6441
916.595	6433
916.708	6384
916.82	6426
916.932	6399
917.044	6380
917.156	6422
917.268	6323
917.38	6369
917.491	6319
917.603	6357
917.715	6369
917.826	6452
917.938	6296
918.049	6277
918.161	6338
918.272	6426
918.384	6426
918.495	6395
918.606	6319
918.717	6251
918.828	6251
918.939	6311
919.05	6190
919.161	6224
919.272	6083
919.383	6171
919.494	6304
919.604	6422
919.715	6334
919.826	6197
919.936	6251
920.047	6410
920.157	6281
920.267	6426
920.378	6308
920.488	6277
920.598	6445
920.708	6483
920.818	6498
920.928	6532
921.038	6578
921.148	6506
921.258	6395
921.368	6319
921.477	6216
921.587	6171
921.697	6083
921.806	6121
921.916	6083
922.025	5992
922.134	5999
922.244	5946
922.353	5942
922.462	5920
922.571	5840
922.68	5729
922.789	5722
922.898	5756
923.007	5634
923.116	5718
923.224	5638
923.333	5665
923.442	5619
923.55	5486
923.659	5646
923.767	5684
923.876	5539
923.984	5714
924.092	5528
924.201	5554
924.309	5600
924.417	5562
924.525	5554
924.633	5528
924.741	6232
924.849	5410
924.956	5509
925.064	5372
925.172	5307
925.279	5284
925.387	5368
925.494	5337
925.602	5471
925.709	5402
925.816	5353
925.924	5330
926.031	5372
926.138	5261
926.245	5357
926.352	5223
926.459	5322
926.566	5326
926.673	5193
926.779	5174
926.886	5162
926.993	5022
927.099	5018
927.206	4995
927.312	4930
927.419	5037
927.525	4991
927.631	5056
927.737	4900
927.843	4881
927.95	4790
928.056	4828
928.162	4816
928.267	4862
928.373	5265
928.479	4862
928.585	4717
928.69	4778
928.796	4790
928.901	4717
929.007	4641
929.112	4694
929.218	4645
929.323	4649
929.428	4542
929.533	4664
929.638	4558
929.743	4497
929.848	4561
929.953	4531
930.058	4428
930.163	4371
930.267	4329
930.372	4447
930.477	4314
930.581	4512
930.685	4405
930.79	4265
930.894	4287
930.998	4280
931.103	4421
931.207	4128
931.311	4059
931.415	4044
931.519	3922
931.623	3998
