Data from glass_V78500241_469.txt Node
Date: Wed Sep 01 19:17:45 CST 2021
User: usil
Spectrometer: V785-0024
Trigger mode: 0
Integration Time (sec): 4.000000E-1
Scans to average: 1
Nonlinearity correction enabled: false
Boxcar width: 0
Storing dark spectrum: false
XAxis mode: Wavelengths
Number of Pixels in Spectrum: 1024
>>>>>Begin Spectral Data<<<<<
801.071	3720
801.214	3816
801.356	3694
801.499	3740
801.641	3755
801.783	3778
801.926	3876
802.068	3854
802.211	3846
802.353	3907
802.496	3884
802.638	3934
802.78	3922
802.923	3945
803.065	3960
803.208	3865
803.35	3842
803.492	3945
803.635	3907
803.777	3793
803.919	3975
804.061	4150
804.204	3934
804.346	3968
804.488	3941
804.63	4051
804.773	4040
804.915	4074
805.057	4150
805.199	4086
805.341	4128
805.483	4192
805.626	4185
805.768	4120
805.91	4230
806.052	4318
806.194	4211
806.336	4367
806.478	4219
806.62	4234
806.762	4204
806.904	4268
807.046	4344
807.188	4188
807.33	4166
807.472	4253
807.614	4204
807.756	4257
807.898	4200
808.04	4272
808.182	4341
808.324	4314
808.465	4409
808.607	4440
808.749	4474
808.891	4519
809.033	4485
809.174	4402
809.316	4257
809.458	4265
809.6	4185
809.741	4185
809.883	4154
810.025	4246
810.166	4200
810.308	4261
810.45	4249
810.591	4234
810.733	4318
810.875	4535
811.016	4835
811.158	5143
811.299	5288
811.441	5334
811.582	5121
811.724	4698
811.865	4474
812.007	4493
812.148	4451
812.29	4451
812.431	4455
812.573	4386
812.714	4333
812.855	4440
812.997	4405
813.138	4462
813.279	4432
813.421	4398
813.562	4421
813.703	4318
813.845	4356
813.986	4246
814.127	4246
814.268	4348
814.41	4325
814.551	4284
814.692	4379
814.833	4227
814.974	4344
815.115	4341
815.256	4337
815.397	4261
815.539	4257
815.68	4188
815.821	4227
815.962	4318
816.103	4306
816.244	4272
816.385	4242
816.526	4280
816.666	4215
816.807	4128
816.948	4200
817.089	4173
817.23	4120
817.371	4082
817.512	4044
817.653	4071
817.793	4067
817.934	4051
818.075	4082
818.216	4101
818.356	4071
818.497	4006
818.638	3983
818.778	3907
818.919	3941
819.06	3873
819.2	3934
819.341	3915
819.481	3869
819.622	3907
819.762	4021
819.903	3945
820.043	3842
820.184	3854
820.324	3842
820.465	3846
820.605	3873
820.746	3899
820.886	3793
821.026	3941
821.167	3926
821.307	3994
821.447	3998
821.588	4010
821.728	3953
821.868	3964
822.008	3934
822.149	3915
822.289	3892
822.429	3797
822.569	3789
822.709	3808
822.849	3701
822.99	3743
823.13	3770
823.27	3781
823.41	3770
823.55	3778
823.69	3690
823.83	3740
823.97	3690
824.11	3625
824.25	3629
824.389	3652
824.529	3682
824.669	3663
824.809	3717
824.949	3789
825.089	3713
825.228	3732
825.368	3625
825.508	3603
825.648	3595
825.787	3633
825.927	3660
826.067	3637
826.206	3694
826.346	3793
826.485	3873
826.625	3884
826.765	3941
826.904	3873
827.044	3595
827.183	3485
827.323	3454
827.462	3507
827.601	3477
827.741	3443
827.88	3431
828.02	3374
828.159	3450
828.298	3519
828.437	3545
828.577	3511
828.716	3629
828.855	3500
828.994	3416
829.134	3386
829.273	3370
829.412	3401
829.551	3313
829.69	3393
829.829	3458
829.968	3526
830.107	3439
830.246	3431
830.385	3409
830.524	3386
830.663	3317
830.802	3287
830.941	3195
831.08	3222
831.219	3329
831.357	3253
831.496	3409
831.635	3253
831.774	3214
831.913	3192
832.051	3150
832.19	3138
832.329	3154
832.467	3150
832.606	3127
832.744	3165
832.883	3188
833.022	3218
833.16	3253
833.299	3321
833.437	3382
833.576	3386
833.714	3405
833.852	3447
833.991	3469
834.129	3488
834.267	3481
834.406	3450
834.544	3435
834.682	3454
834.821	3386
834.959	3595
835.097	3462
835.235	3557
835.373	3504
835.511	3553
835.65	3500
835.788	3507
835.926	3389
836.064	3370
836.202	3401
836.34	3603
836.478	3637
836.615	3519
836.753	3587
836.891	3648
837.029	3633
837.167	3622
837.305	3564
837.443	3538
837.58	3538
837.718	3652
837.856	3542
837.993	3538
838.131	3648
838.269	3595
838.406	3553
838.544	3568
838.681	3469
838.819	3481
838.956	3367
839.094	3363
839.231	3473
839.369	3534
839.506	3755
839.643	3641
839.781	3500
839.918	3454
840.055	3564
840.193	3523
840.33	3526
840.467	3580
840.604	3572
840.742	3827
840.879	3542
841.016	3572
841.153	3587
841.29	3766
841.427	3736
841.564	3732
841.701	3751
841.838	3686
841.975	3694
842.112	3740
842.249	3660
842.385	3641
842.522	3831
842.659	3675
842.796	3698
842.933	3713
843.069	3717
843.206	3740
843.343	3812
843.479	3759
843.616	3850
843.752	3724
843.889	3675
844.025	3884
844.162	3736
844.298	3884
844.435	3800
844.571	3823
844.708	3911
844.844	4010
844.98	4010
845.117	4006
845.253	3937
845.389	3873
845.525	3964
845.661	4006
845.798	3941
845.934	4010
846.07	3979
846.206	4013
846.342	4166
846.478	4086
846.614	4025
846.75	3937
846.886	3911
847.022	4063
847.158	3956
847.294	3953
847.429	4032
847.565	3994
847.701	4219
847.837	3915
847.972	3865
848.108	4048
848.244	3964
848.379	3850
848.515	3819
848.65	3797
848.786	3838
848.921	3884
849.057	3930
849.192	3994
849.328	3911
849.463	3972
849.598	3861
849.734	3838
849.869	3838
850.004	3838
850.14	3819
850.275	3804
850.41	3755
850.545	3766
850.68	3816
850.815	3804
850.95	3797
851.085	3956
851.22	3876
851.355	3842
851.49	3838
851.625	3823
851.76	3789
851.895	3743
852.03	3732
852.165	3797
852.299	3819
852.434	3892
852.569	3915
852.703	3888
852.838	3956
852.973	4032
853.107	3968
853.242	3934
853.376	3850
853.511	3831
853.645	3880
853.78	3975
853.914	3934
854.048	3907
854.183	3899
854.317	3975
854.451	4071
854.585	3987
854.72	3956
854.854	4029
854.988	3983
855.122	3998
855.256	3949
855.39	4032
855.524	4101
855.658	4074
855.792	4093
855.926	4192
856.06	4169
856.194	4181
856.327	4112
856.461	4135
856.595	4166
856.729	4238
856.862	4249
856.996	4249
857.13	4261
857.263	4398
857.397	4398
857.53	4333
857.664	4409
857.797	4390
857.931	4447
858.064	4424
858.197	4459
858.331	4413
858.464	4386
858.597	4379
858.731	4508
858.864	4478
858.997	4466
859.13	4546
859.263	4542
859.396	4611
859.529	4554
859.662	4558
859.795	4558
859.928	4641
860.061	4717
860.194	4687
860.327	4694
860.46	4611
860.592	4778
860.725	4778
860.858	4774
860.99	4721
861.123	4634
861.256	4679
861.388	4759
861.521	5471
861.653	4763
861.786	4687
861.918	4759
862.05	4774
862.183	4870
862.315	4892
862.447	4968
862.58	4885
862.712	4862
862.844	4835
862.976	4873
863.108	4889
863.24	5189
863.372	4877
863.504	4904
863.636	4911
863.768	5018
863.9	4984
864.032	4946
864.164	5025
864.296	5014
864.428	5033
864.559	5083
864.691	5056
864.823	5140
864.954	5109
865.086	5132
865.217	5140
865.349	5083
865.48	5181
865.612	5239
865.743	5311
865.875	5155
866.006	5220
866.137	5174
866.269	5265
866.4	5292
866.531	5299
866.662	5292
866.793	5292
866.924	5322
867.055	5337
867.186	5353
867.317	5383
867.448	5254
867.579	5402
867.71	5376
867.841	5379
867.972	5459
868.103	5497
868.233	5482
868.364	5535
868.495	5539
868.625	5680
868.756	5813
868.886	5718
869.017	5802
869.147	5874
869.278	5870
869.408	5783
869.539	5859
869.669	5973
869.799	5851
869.929	6007
870.06	6015
870.19	6209
870.32	6121
870.45	6273
870.58	6357
870.71	6452
870.84	6502
870.97	6437
871.1	6414
871.23	6692
871.36	6692
871.489	6677
871.619	6776
871.749	6840
871.879	6829
872.008	6989
872.138	7008
872.267	7015
872.397	7061
872.526	7038
872.656	7164
872.785	7202
872.915	7464
873.044	7480
873.173	7575
873.303	7658
873.432	7738
873.561	7875
873.69	7989
873.819	8046
873.948	8142
874.077	8237
874.206	8358
874.335	8507
874.464	8689
874.593	8899
874.722	8914
874.851	9085
874.979	9154
875.108	9321
875.237	9370
875.365	9435
875.494	9675
875.623	9831
875.751	9861
875.88	9983
876.008	10162
876.136	10242
876.265	10577
876.393	10679
876.521	10717
876.65	10839
876.778	10854
876.906	10869
877.034	10968
877.162	11166
877.29	11064
877.418	11261
877.546	11315
877.674	11379
877.802	11558
877.93	11478
878.058	11566
878.185	11604
878.313	11707
878.441	11710
878.568	11688
878.696	11817
878.824	11813
878.951	11988
879.079	12083
879.206	12083
879.333	12068
879.461	12011
879.588	12083
879.715	12045
879.842	12228
879.97	12102
880.097	11870
880.224	11889
880.351	11965
880.478	11851
880.605	11843
880.732	11802
880.859	11996
880.986	11885
881.112	11836
881.239	11718
881.366	11722
881.493	11665
881.619	11520
881.746	11566
881.872	11543
881.999	11444
882.125	11448
882.252	11573
882.378	11509
882.505	11581
882.631	11341
882.757	11280
882.883	11318
883.01	11315
883.136	11136
883.262	11075
883.388	11094
883.514	11170
883.64	11147
883.766	11041
883.892	11029
884.018	11010
884.143	11079
884.269	11075
884.395	10820
884.52	10839
884.646	10733
884.772	10744
884.897	10694
885.023	10702
885.148	10786
885.274	10755
885.399	10744
885.524	10710
885.65	10584
885.775	10649
885.9	10596
886.025	10565
886.15	10538
886.275	10485
886.4	10394
886.525	10386
886.65	10386
886.775	10352
886.9	10474
887.025	10569
887.149	10356
887.274	10253
887.399	10150
887.523	10230
887.648	10090
887.773	10086
887.897	10200
888.021	10192
888.146	10158
888.27	10162
888.395	10265
888.519	10238
888.643	10215
888.767	10177
888.891	10097
889.015	10025
889.139	10048
889.263	10048
889.387	10078
889.511	10048
889.635	10044
889.759	10055
889.883	9987
890.006	10002
890.13	10150
890.254	9934
890.377	10025
890.501	9812
890.624	9899
890.748	9838
890.871	9785
890.995	9800
891.118	9698
891.241	9865
891.364	9762
891.488	9895
891.611	9728
891.734	9717
891.857	9736
891.98	9660
892.103	9698
892.226	9816
892.349	9720
892.471	9515
892.594	9625
892.717	9595
892.839	9610
892.962	9584
893.085	9671
893.207	9549
893.33	9477
893.452	9488
893.575	9599
893.697	9504
893.819	9637
893.941	9641
894.064	9606
894.186	9469
894.308	9477
894.43	9580
894.552	9667
894.674	9584
894.796	9416
894.918	9325
895.04	9367
895.161	9340
895.283	9428
895.405	9256
895.526	9272
895.648	9287
895.769	9214
895.891	9317
896.012	9367
896.134	9199
896.255	9214
896.376	9127
896.498	9154
896.619	9169
896.74	9055
896.861	9077
896.982	9287
897.103	9294
897.224	9169
897.345	9013
897.466	9055
897.587	9017
897.708	9150
897.828	9024
897.949	8921
898.07	8849
898.19	8944
898.311	9051
898.431	8906
898.552	8960
898.672	8971
898.792	8899
898.913	8872
899.033	8819
899.153	8819
899.273	8625
899.393	8689
899.513	8727
899.633	8689
899.753	8811
899.873	8708
899.993	8705
900.113	8712
900.232	8708
900.352	8579
900.472	8610
900.591	8594
900.711	8636
900.83	8644
900.95	8708
901.069	8735
901.189	8594
901.308	8434
901.427	8381
901.546	8423
901.665	8438
901.784	8446
901.904	8374
902.023	8355
902.141	8275
902.26	8240
902.379	8244
902.498	8332
902.617	8199
902.735	8385
902.854	8290
902.973	8225
903.091	8142
903.21	8084
903.328	8126
903.446	8119
903.565	8119
903.683	8145
903.801	8039
903.919	8138
904.038	8187
904.156	7993
904.274	8073
904.392	8024
904.51	8100
904.627	8065
904.745	8043
904.863	8081
904.981	7921
905.098	7921
905.216	7906
905.334	8001
905.451	7913
905.569	7925
905.686	7940
905.803	7906
905.921	7792
906.038	7883
906.155	7837
906.272	7738
906.389	7712
906.506	7639
906.623	7662
906.74	7571
906.857	7514
906.974	7544
907.091	7674
907.208	7750
907.324	7613
907.441	7628
907.557	7506
907.674	7396
907.79	7407
907.907	7457
908.023	7400
908.139	7384
908.256	7358
908.372	7343
908.488	7358
908.604	7297
908.72	7221
908.836	7305
908.952	7259
909.068	7244
909.184	7354
909.3	7255
909.415	7320
909.531	7213
909.647	7061
909.762	7156
909.878	7095
909.993	7156
910.108	7122
910.224	7038
910.339	7118
910.454	7034
910.57	7008
910.685	6996
910.8	7149
910.915	7152
911.03	7072
911.145	6928
911.259	6859
911.374	6867
911.489	6844
911.604	6825
911.718	6696
911.833	6722
911.947	6684
912.062	6585
912.176	6719
912.291	6757
912.405	6745
912.519	6825
912.633	6802
912.748	6814
912.862	6730
912.976	6620
913.09	6525
913.204	6528
913.318	6639
913.431	6684
913.545	6719
913.659	6810
913.772	6646
913.886	6616
914	6540
914.113	6665
914.226	6639
914.34	6589
914.453	6582
914.566	6620
914.68	6555
914.793	6502
914.906	6483
915.019	6410
915.132	6376
915.245	6399
915.358	6506
915.47	6475
915.583	6509
915.696	6513
915.809	6532
915.921	6555
916.034	6395
916.146	6388
916.259	6372
916.371	6437
916.483	6502
916.595	6388
916.708	6494
916.82	6384
916.932	6315
917.044	6399
917.156	6418
917.268	6334
917.38	6384
917.491	6311
917.603	6391
917.715	6407
917.826	6403
917.938	6292
918.049	6300
918.161	6372
918.272	6429
918.384	6456
918.495	6365
918.606	6300
918.717	6194
918.828	6235
918.939	6342
919.05	6194
919.161	6239
919.272	6152
919.383	6140
919.494	6270
919.604	6395
919.715	6304
919.826	6197
919.936	6270
920.047	6338
920.157	6304
920.267	6506
920.378	6289
920.488	6289
920.598	6464
920.708	6540
920.818	6460
920.928	6483
921.038	6631
921.148	6601
921.258	6376
921.368	6281
921.477	6285
921.587	6163
921.697	6079
921.806	6175
921.916	6076
922.025	5984
922.134	5916
922.244	5912
922.353	5889
922.462	5904
922.571	5741
922.68	5737
922.789	5657
922.898	5707
923.007	5611
923.116	5767
923.224	5691
923.333	5634
923.442	5638
923.55	5604
923.659	5611
923.767	5627
923.876	5547
923.984	5604
924.092	5520
924.201	5581
924.309	5539
924.417	5623
924.525	5547
924.633	5524
924.741	6311
924.849	5372
924.956	5486
925.064	5353
925.172	5315
925.279	5379
925.387	5398
925.494	5315
925.602	5414
925.709	5436
925.816	5330
925.924	5292
926.031	5383
926.138	5345
926.245	5345
926.352	5254
926.459	5334
926.566	5330
926.673	5216
926.779	5151
926.886	5140
926.993	5033
927.099	5033
927.206	4968
927.312	4930
927.419	5037
927.525	5006
927.631	4991
927.737	4919
927.843	4915
927.95	4790
928.056	4816
928.162	4843
928.267	4873
928.373	5299
928.479	4847
928.585	4706
928.69	4797
928.796	4824
928.901	4702
929.007	4622
929.112	4714
929.218	4653
929.323	4603
929.428	4584
929.533	4706
929.638	4508
929.743	4573
929.848	4542
929.953	4485
930.058	4466
930.163	4360
930.267	4337
930.372	4440
930.477	4337
930.581	4436
930.685	4409
930.79	4299
930.894	4280
930.998	4242
931.103	4386
931.207	4147
931.311	4090
931.415	4116
931.519	3934
931.623	3956
