Data from glass_V78500241_1072.txt Node
Date: Wed Sep 01 19:21:55 CST 2021
User: usil
Spectrometer: V785-0024
Trigger mode: 0
Integration Time (sec): 4.000000E-1
Scans to average: 1
Nonlinearity correction enabled: false
Boxcar width: 0
Storing dark spectrum: false
XAxis mode: Wavelengths
Number of Pixels in Spectrum: 1024
>>>>>Begin Spectral Data<<<<<
801.071	3755
801.214	3736
801.356	3732
801.499	3724
801.641	3759
801.783	3789
801.926	3835
802.068	3861
802.211	3903
802.353	3892
802.496	3857
802.638	3899
802.78	3888
802.923	3941
803.065	3896
803.208	3869
803.35	3896
803.492	3903
803.635	3972
803.777	3854
803.919	3880
804.061	4204
804.204	4055
804.346	3930
804.488	3934
804.63	4067
804.773	4017
804.915	3987
805.057	4116
805.199	4074
805.341	4097
805.483	4173
805.626	4093
805.768	4147
805.91	4219
806.052	4246
806.194	4204
806.336	4310
806.478	4219
806.62	4200
806.762	4211
806.904	4276
807.046	4337
807.188	4192
807.33	4181
807.472	4276
807.614	4181
807.756	4306
807.898	4272
808.04	4215
808.182	4314
808.324	4337
808.465	4398
808.607	4424
808.749	4466
808.891	4493
809.033	4516
809.174	4405
809.316	4238
809.458	4272
809.6	4135
809.741	4162
809.883	4181
810.025	4196
810.166	4223
810.308	4280
810.45	4246
810.591	4253
810.733	4261
810.875	4516
811.016	4805
811.158	5181
811.299	5273
811.441	5265
811.582	5094
811.724	4691
811.865	4497
812.007	4512
812.148	4462
812.29	4379
812.431	4413
812.573	4394
812.714	4398
812.855	4383
812.997	4440
813.138	4538
813.279	4417
813.421	4447
813.562	4360
813.703	4375
813.845	4322
813.986	4272
814.127	4257
814.268	4249
814.41	4280
814.551	4268
814.692	4383
814.833	4291
814.974	4341
815.115	4333
815.256	4265
815.397	4253
815.539	4272
815.68	4204
815.821	4246
815.962	4310
816.103	4299
816.244	4242
816.385	4287
816.526	4265
816.666	4261
816.807	4090
816.948	4169
817.089	4227
817.23	4143
817.371	4074
817.512	4082
817.653	4067
817.793	4032
817.934	4036
818.075	4093
818.216	4082
818.356	4097
818.497	3994
818.638	3934
818.778	3884
818.919	3888
819.06	3907
819.2	3926
819.341	3884
819.481	3873
819.622	3930
819.762	4029
819.903	3911
820.043	3884
820.184	3865
820.324	3800
820.465	3857
820.605	3884
820.746	3865
820.886	3838
821.026	3964
821.167	3926
821.307	4017
821.447	3922
821.588	3979
821.728	3892
821.868	3975
822.008	3857
822.149	3899
822.289	3964
822.429	3789
822.569	3797
822.709	3819
822.849	3713
822.99	3743
823.13	3759
823.27	3762
823.41	3728
823.55	3747
823.69	3743
823.83	3762
823.97	3690
824.11	3644
824.25	3629
824.389	3652
824.529	3682
824.669	3629
824.809	3743
824.949	3728
825.089	3766
825.228	3698
825.368	3587
825.508	3568
825.648	3606
825.787	3625
825.927	3648
826.067	3618
826.206	3644
826.346	3835
826.485	3835
826.625	3899
826.765	3994
826.904	3846
827.044	3637
827.183	3557
827.323	3469
827.462	3481
827.601	3469
827.741	3416
827.88	3481
828.02	3409
828.159	3431
828.298	3523
828.437	3515
828.577	3469
828.716	3580
828.855	3462
828.994	3359
829.134	3370
829.273	3439
829.412	3351
829.551	3310
829.69	3317
829.829	3450
829.968	3504
830.107	3466
830.246	3412
830.385	3389
830.524	3370
830.663	3313
830.802	3268
830.941	3214
831.08	3230
831.219	3264
831.357	3275
831.496	3447
831.635	3222
831.774	3218
831.913	3180
832.051	3123
832.19	3138
832.329	3253
832.467	3119
832.606	3085
832.744	3176
832.883	3192
833.022	3192
833.16	3241
833.299	3317
833.437	3340
833.576	3351
833.714	3450
833.852	3488
833.991	3424
834.129	3462
834.267	3466
834.406	3450
834.544	3420
834.682	3462
834.821	3393
834.959	3584
835.097	3420
835.235	3576
835.373	3481
835.511	3515
835.65	3504
835.788	3469
835.926	3428
836.064	3412
836.202	3412
836.34	3572
836.478	3599
836.615	3595
836.753	3614
836.891	3637
837.029	3667
837.167	3595
837.305	3557
837.443	3519
837.58	3507
837.718	3599
837.856	3526
837.993	3561
838.131	3587
838.269	3591
838.406	3580
838.544	3591
838.681	3488
838.819	3435
838.956	3359
839.094	3382
839.231	3458
839.369	3576
839.506	3713
839.643	3671
839.781	3481
839.918	3469
840.055	3549
840.193	3507
840.33	3542
840.467	3576
840.604	3576
840.742	3827
840.879	3576
841.016	3591
841.153	3610
841.29	3781
841.427	3755
841.564	3724
841.701	3747
841.838	3713
841.975	3652
842.112	3732
842.249	3671
842.385	3629
842.522	3835
842.659	3717
842.796	3648
842.933	3724
843.069	3713
843.206	3701
843.343	3857
843.479	3808
843.616	3827
843.752	3720
843.889	3728
844.025	3876
844.162	3709
844.298	3827
844.435	3819
844.571	3759
844.708	3930
844.844	3956
844.98	4040
845.117	4040
845.253	3937
845.389	3911
845.525	3998
845.661	4010
845.798	3968
845.934	3994
846.07	3972
846.206	4032
846.342	4120
846.478	4017
846.614	4013
846.75	3964
846.886	3975
847.022	4063
847.158	4029
847.294	3983
847.429	4029
847.565	4002
847.701	4276
847.837	3880
847.972	3835
848.108	3979
848.244	4002
848.379	3911
848.515	3823
848.65	3827
848.786	3854
848.921	3876
849.057	3926
849.192	3964
849.328	3899
849.463	3949
849.598	3876
849.734	3873
849.869	3835
850.004	3793
850.14	3838
850.275	3797
850.41	3778
850.545	3751
850.68	3785
850.815	3831
850.95	3812
851.085	3941
851.22	3869
851.355	3835
851.49	3819
851.625	3797
851.76	3800
851.895	3732
852.03	3740
852.165	3831
852.299	3861
852.434	3873
852.569	3865
852.703	3918
852.838	3945
852.973	4010
853.107	3972
853.242	3941
853.376	3884
853.511	3831
853.645	3831
853.78	4010
853.914	3888
854.048	3915
854.183	3930
854.317	3979
854.451	4063
854.585	3960
854.72	3918
854.854	4032
854.988	3937
855.122	4010
855.256	3926
855.39	4044
855.524	4074
855.658	4067
855.792	4097
855.926	4181
856.06	4135
856.194	4223
856.327	4090
856.461	4162
856.595	4207
856.729	4185
856.862	4291
856.996	4246
857.13	4284
857.263	4329
857.397	4409
857.53	4314
857.664	4356
857.797	4398
857.931	4421
858.064	4379
858.197	4440
858.331	4451
858.464	4405
858.597	4379
858.731	4462
858.864	4447
858.997	4478
859.13	4569
859.263	4542
859.396	4618
859.529	4512
859.662	4558
859.795	4546
859.928	4607
860.061	4698
860.194	4733
860.327	4630
860.46	4664
860.592	4733
860.725	4774
860.858	4786
860.99	4672
861.123	4721
861.256	4714
861.388	4797
861.521	5421
861.653	4755
861.786	4714
861.918	4733
862.05	4774
862.183	4854
862.315	4930
862.447	4911
862.58	4854
862.712	4797
862.844	4843
862.976	4904
863.108	4881
863.24	5311
863.372	4858
863.504	4870
863.636	4889
863.768	5003
863.9	4953
864.032	4946
864.164	4968
864.296	5086
864.428	5136
864.559	5067
864.691	5109
864.823	5140
864.954	5132
865.086	5155
865.217	5155
865.349	5083
865.48	5170
865.612	5193
865.743	5292
865.875	5132
866.006	5132
866.137	5258
866.269	5201
866.4	5292
866.531	5239
866.662	5208
866.793	5330
866.924	5334
867.055	5307
867.186	5353
867.317	5284
867.448	5353
867.579	5376
867.71	5395
867.841	5410
867.972	5482
868.103	5478
868.233	5474
868.364	5493
868.495	5551
868.625	5714
868.756	5783
868.886	5726
869.017	5756
869.147	5878
869.278	5946
869.408	5802
869.539	5824
869.669	5908
869.799	5984
869.929	5961
870.06	6049
870.19	6228
870.32	6213
870.45	6251
870.58	6296
870.71	6414
870.84	6452
870.97	6437
871.1	6460
871.23	6642
871.36	6650
871.489	6669
871.619	6696
871.749	6821
871.879	6890
872.008	6909
872.138	6962
872.267	7069
872.397	7088
872.526	7103
872.656	7152
872.785	7202
872.915	7457
873.044	7491
873.173	7571
873.303	7616
873.432	7780
873.561	7871
873.69	7894
873.819	8054
873.948	8115
874.077	8263
874.206	8339
874.335	8518
874.464	8678
874.593	8838
874.722	8914
874.851	9108
874.979	9275
875.108	9355
875.237	9481
875.365	9515
875.494	9641
875.623	9850
875.751	9861
875.88	9975
876.008	10185
876.136	10219
876.265	10443
876.393	10752
876.521	10721
876.65	10839
876.778	10816
876.906	10915
877.034	11010
877.162	11113
877.29	11220
877.418	11311
877.546	11330
877.674	11440
877.802	11455
877.93	11490
878.058	11573
878.185	11570
878.313	11703
878.441	11760
878.568	11665
878.696	11832
878.824	11923
878.951	11999
879.079	11950
879.206	12186
879.333	12095
879.461	12072
879.588	12053
879.715	12102
879.842	12224
879.97	12083
880.097	11980
880.224	11904
880.351	11923
880.478	11946
880.605	11794
880.732	11809
880.859	12007
880.986	11760
881.112	11935
881.239	11714
881.366	11733
881.493	11596
881.619	11551
881.746	11547
881.872	11596
881.999	11493
882.125	11467
882.252	11653
882.378	11566
882.505	11577
882.631	11482
882.757	11227
882.883	11322
883.01	11254
883.136	11231
883.262	11201
883.388	11128
883.514	11151
883.64	11102
883.766	11178
883.892	11067
884.018	11064
884.143	11132
884.269	11136
884.395	10942
884.52	10702
884.646	10896
884.772	10725
884.897	10577
885.023	10729
885.148	10740
885.274	10850
885.399	10771
885.524	10660
885.65	10622
885.775	10626
885.9	10618
886.025	10641
886.15	10634
886.275	10542
886.4	10390
886.525	10390
886.65	10344
886.775	10341
886.9	10497
887.025	10531
887.149	10432
887.274	10207
887.399	10249
887.523	10200
887.648	10158
887.773	10162
887.897	10257
888.021	10242
888.146	10139
888.27	10166
888.395	10200
888.519	10158
888.643	10177
888.767	10181
888.891	10078
889.015	10029
889.139	10082
889.263	10036
889.387	10147
889.511	10105
889.635	10051
889.759	10017
889.883	9964
890.006	10051
890.13	10105
890.254	9869
890.377	9983
890.501	9857
890.624	9861
890.748	9937
890.871	9835
890.995	9736
891.118	9690
891.241	9770
891.364	9728
891.488	9770
891.611	9720
891.734	9740
891.857	9778
891.98	9701
892.103	9740
892.226	9709
892.349	9671
892.471	9561
892.594	9595
892.717	9610
892.839	9618
892.962	9637
893.085	9713
893.207	9622
893.33	9530
893.452	9572
893.575	9564
893.697	9500
893.819	9637
893.941	9610
894.064	9572
894.186	9439
894.308	9458
894.43	9469
894.552	9584
894.674	9564
894.796	9332
894.918	9389
895.04	9317
895.161	9359
895.283	9386
895.405	9313
895.526	9279
895.648	9249
895.769	9226
895.891	9264
896.012	9291
896.134	9203
896.255	9176
896.376	9108
896.498	9264
896.619	9214
896.74	9028
896.861	9097
896.982	9310
897.103	9256
897.224	9214
897.345	9047
897.466	9077
897.587	9085
897.708	9051
897.828	9036
897.949	8960
898.07	8864
898.19	8868
898.311	9039
898.431	8941
898.552	8929
898.672	8933
898.792	8902
898.913	8929
899.033	8777
899.153	8727
899.273	8758
899.393	8731
899.513	8785
899.633	8762
899.753	8731
899.873	8735
899.993	8739
900.113	8712
900.232	8693
900.352	8773
900.472	8636
900.591	8625
900.711	8663
900.83	8583
900.95	8670
901.069	8727
901.189	8549
901.308	8469
901.427	8362
901.546	8427
901.665	8469
901.784	8484
901.904	8423
902.023	8438
902.141	8221
902.26	8221
902.379	8267
902.498	8309
902.617	8240
902.735	8286
902.854	8294
902.973	8298
903.091	8149
903.21	8111
903.328	8180
903.446	8180
903.565	8107
903.683	8145
903.801	8069
903.919	8130
904.038	8115
904.156	8100
904.274	8054
904.392	8027
904.51	8065
904.627	8058
904.745	8149
904.863	8111
904.981	7883
905.098	7871
905.216	7940
905.334	7852
905.451	7989
905.569	7879
905.686	7833
905.803	7944
905.921	7757
906.038	7879
906.155	7875
906.272	7715
906.389	7776
906.506	7666
906.623	7636
906.74	7613
906.857	7556
906.974	7582
907.091	7677
907.208	7704
907.324	7674
907.441	7586
907.557	7460
907.674	7419
907.79	7415
907.907	7430
908.023	7426
908.139	7495
908.256	7396
908.372	7362
908.488	7365
908.604	7320
908.72	7255
908.836	7270
908.952	7194
909.068	7346
909.184	7244
909.3	7266
909.415	7274
909.531	7247
909.647	7122
909.762	7133
909.878	7149
909.993	7171
910.108	7088
910.224	7103
910.339	7110
910.454	7038
910.57	7053
910.685	6951
910.8	7156
910.915	7114
911.03	7031
911.145	6958
911.259	6886
911.374	6897
911.489	6913
911.604	6795
911.718	6776
911.833	6818
911.947	6623
912.062	6669
912.176	6730
912.291	6688
912.405	6692
912.519	6787
912.633	6798
912.748	6684
912.862	6722
912.976	6658
913.09	6521
913.204	6650
913.318	6601
913.431	6681
913.545	6665
913.659	6795
913.772	6578
913.886	6536
914	6555
914.113	6597
914.226	6616
914.34	6574
914.453	6521
914.566	6612
914.68	6551
914.793	6540
914.906	6422
915.019	6391
915.132	6384
915.245	6441
915.358	6498
915.47	6471
915.583	6464
915.696	6490
915.809	6517
915.921	6585
916.034	6445
916.146	6460
916.259	6422
916.371	6506
916.483	6460
916.595	6384
916.708	6376
916.82	6353
916.932	6391
917.044	6429
917.156	6353
917.268	6384
917.38	6361
917.491	6365
917.603	6399
917.715	6414
917.826	6388
917.938	6350
918.049	6251
918.161	6353
918.272	6395
918.384	6395
918.495	6323
918.606	6228
918.717	6239
918.828	6270
918.939	6258
919.05	6262
919.161	6258
919.272	6121
919.383	6152
919.494	6277
919.604	6418
919.715	6262
919.826	6270
919.936	6292
920.047	6331
920.157	6262
920.267	6498
920.378	6365
920.488	6273
920.598	6471
920.708	6483
920.818	6456
920.928	6490
921.038	6623
921.148	6540
921.258	6403
921.368	6323
921.477	6220
921.587	6216
921.697	6152
921.806	6163
921.916	6114
922.025	5950
922.134	5969
922.244	5908
922.353	5980
922.462	5859
922.571	5840
922.68	5745
922.789	5714
922.898	5722
923.007	5649
923.116	5668
923.224	5657
923.333	5665
923.442	5608
923.55	5638
923.659	5596
923.767	5646
923.876	5589
923.984	5573
924.092	5585
924.201	5600
924.309	5581
924.417	5581
924.525	5524
924.633	5516
924.741	6285
924.849	5433
924.956	5486
925.064	5337
925.172	5349
925.279	5349
925.387	5372
925.494	5360
925.602	5425
925.709	5429
925.816	5277
925.924	5315
926.031	5391
926.138	5288
926.245	5303
926.352	5117
926.459	5334
926.566	5296
926.673	5239
926.779	5143
926.886	5128
926.993	5071
927.099	5041
927.206	4980
927.312	4968
927.419	4991
927.525	4908
927.631	4968
927.737	4927
927.843	4908
927.95	4801
928.056	4854
928.162	4866
928.267	4885
928.373	5364
928.479	4854
928.585	4740
928.69	4774
928.796	4812
928.901	4729
929.007	4599
929.112	4641
929.218	4630
929.323	4599
929.428	4516
929.533	4721
929.638	4512
929.743	4546
929.848	4577
929.953	4542
930.058	4413
930.163	4398
930.267	4352
930.372	4413
930.477	4272
930.581	4447
930.685	4417
930.79	4253
930.894	4287
930.998	4272
931.103	4375
931.207	4109
931.311	4078
931.415	4071
931.519	3903
931.623	3953
