Data from glass_V78500241_352.txt Node
Date: Wed Sep 01 19:16:56 CST 2021
User: usil
Spectrometer: V785-0024
Trigger mode: 0
Integration Time (sec): 4.000000E-1
Scans to average: 1
Nonlinearity correction enabled: false
Boxcar width: 0
Storing dark spectrum: false
XAxis mode: Wavelengths
Number of Pixels in Spectrum: 1024
>>>>>Begin Spectral Data<<<<<
801.071	3736
801.214	3838
801.356	3732
801.499	3778
801.641	3751
801.783	3804
801.926	3896
802.068	3861
802.211	3884
802.353	3915
802.496	3842
802.638	3873
802.78	3884
802.923	3945
803.065	3945
803.208	3888
803.35	3926
803.492	3888
803.635	3930
803.777	3835
803.919	3903
804.061	4120
804.204	3998
804.346	3972
804.488	3945
804.63	4040
804.773	3972
804.915	4029
805.057	4135
805.199	4063
805.341	4063
805.483	4166
805.626	4150
805.768	4101
805.91	4196
806.052	4238
806.194	4238
806.336	4314
806.478	4242
806.62	4188
806.762	4177
806.904	4215
807.046	4390
807.188	4257
807.33	4215
807.472	4261
807.614	4249
807.756	4291
807.898	4200
808.04	4211
808.182	4280
808.324	4348
808.465	4409
808.607	4447
808.749	4440
808.891	4443
809.033	4474
809.174	4436
809.316	4280
809.458	4238
809.6	4150
809.741	4166
809.883	4154
810.025	4295
810.166	4207
810.308	4204
810.45	4253
810.591	4246
810.733	4287
810.875	4542
811.016	4850
811.158	5159
811.299	5303
811.441	5269
811.582	5109
811.724	4717
811.865	4493
812.007	4497
812.148	4504
812.29	4421
812.431	4443
812.573	4436
812.714	4390
812.855	4424
812.997	4405
813.138	4493
813.279	4447
813.421	4383
813.562	4337
813.703	4299
813.845	4329
813.986	4272
814.127	4215
814.268	4268
814.41	4272
814.551	4299
814.692	4310
814.833	4246
814.974	4329
815.115	4344
815.256	4268
815.397	4242
815.539	4268
815.68	4204
815.821	4272
815.962	4318
816.103	4284
816.244	4223
816.385	4265
816.526	4291
816.666	4238
816.807	4105
816.948	4200
817.089	4169
817.23	4131
817.371	4078
817.512	4055
817.653	4071
817.793	4048
817.934	4059
818.075	4063
818.216	4105
818.356	4086
818.497	3983
818.638	3915
818.778	3930
818.919	3865
819.06	3896
819.2	3892
819.341	3876
819.481	3808
819.622	3949
819.762	3987
819.903	3968
820.043	3884
820.184	3831
820.324	3816
820.465	3888
820.605	3915
820.746	3865
820.886	3816
821.026	3945
821.167	3918
821.307	4013
821.447	3998
821.588	3975
821.728	3983
821.868	3968
822.008	3823
822.149	3922
822.289	3949
822.429	3816
822.569	3800
822.709	3800
822.849	3686
822.99	3736
823.13	3732
823.27	3804
823.41	3732
823.55	3751
823.69	3755
823.83	3747
823.97	3671
824.11	3633
824.25	3603
824.389	3679
824.529	3663
824.669	3625
824.809	3751
824.949	3797
825.089	3789
825.228	3701
825.368	3625
825.508	3542
825.648	3622
825.787	3618
825.927	3682
826.067	3641
826.206	3705
826.346	3781
826.485	3850
826.625	3892
826.765	3945
826.904	3850
827.044	3637
827.183	3542
827.323	3405
827.462	3469
827.601	3416
827.741	3412
827.88	3496
828.02	3393
828.159	3469
828.298	3488
828.437	3488
828.577	3530
828.716	3622
828.855	3496
828.994	3424
829.134	3409
829.273	3386
829.412	3359
829.551	3348
829.69	3374
829.829	3447
829.968	3549
830.107	3450
830.246	3420
830.385	3389
830.524	3348
830.663	3310
830.802	3283
830.941	3226
831.08	3195
831.219	3294
831.357	3264
831.496	3370
831.635	3256
831.774	3218
831.913	3214
832.051	3131
832.19	3154
832.329	3199
832.467	3127
832.606	3085
832.744	3226
832.883	3173
833.022	3207
833.16	3260
833.299	3298
833.437	3382
833.576	3393
833.714	3412
833.852	3447
833.991	3428
834.129	3488
834.267	3435
834.406	3386
834.544	3435
834.682	3428
834.821	3454
834.959	3595
835.097	3458
835.235	3545
835.373	3500
835.511	3500
835.65	3473
835.788	3485
835.926	3397
836.064	3374
836.202	3435
836.34	3549
836.478	3663
836.615	3515
836.753	3595
836.891	3679
837.029	3648
837.167	3595
837.305	3568
837.443	3576
837.58	3523
837.718	3614
837.856	3557
837.993	3538
838.131	3633
838.269	3576
838.406	3580
838.544	3553
838.681	3473
838.819	3458
838.956	3409
839.094	3450
839.231	3473
839.369	3545
839.506	3728
839.643	3629
839.781	3488
839.918	3458
840.055	3557
840.193	3545
840.33	3545
840.467	3568
840.604	3614
840.742	3835
840.879	3545
841.016	3561
841.153	3603
841.29	3770
841.427	3728
841.564	3740
841.701	3770
841.838	3709
841.975	3698
842.112	3740
842.249	3671
842.385	3633
842.522	3842
842.659	3675
842.796	3686
842.933	3732
843.069	3690
843.206	3762
843.343	3827
843.479	3789
843.616	3846
843.752	3679
843.889	3728
844.025	3861
844.162	3751
844.298	3842
844.435	3819
844.571	3808
844.708	3945
844.844	3949
844.98	4055
845.117	4051
845.253	3964
845.389	3926
845.525	3979
845.661	3994
845.798	3873
845.934	4002
846.07	3983
846.206	4101
846.342	4124
846.478	4067
846.614	3983
846.75	3979
846.886	3918
847.022	4017
847.158	3964
847.294	4010
847.429	4036
847.565	4002
847.701	4272
847.837	3884
847.972	3918
848.108	3994
848.244	3968
848.379	3884
848.515	3850
848.65	3884
848.786	3865
848.921	3861
849.057	3945
849.192	3956
849.328	3930
849.463	3918
849.598	3861
849.734	3899
849.869	3861
850.004	3793
850.14	3808
850.275	3785
850.41	3732
850.545	3762
850.68	3808
850.815	3804
850.95	3838
851.085	3972
851.22	3865
851.355	3846
851.49	3819
851.625	3816
851.76	3873
851.895	3743
852.03	3755
852.165	3842
852.299	3861
852.434	3941
852.569	3892
852.703	3896
852.838	3930
852.973	4067
853.107	4013
853.242	3915
853.376	3896
853.511	3816
853.645	3850
853.78	3979
853.914	3949
854.048	3937
854.183	3937
854.317	3979
854.451	4082
854.585	3987
854.72	3922
854.854	4059
854.988	3960
855.122	3994
855.256	3926
855.39	4029
855.524	4116
855.658	4101
855.792	4109
855.926	4169
856.06	4207
856.194	4177
856.327	4154
856.461	4150
856.595	4169
856.729	4223
856.862	4306
856.996	4223
857.13	4371
857.263	4310
857.397	4348
857.53	4276
857.664	4379
857.797	4367
857.931	4421
858.064	4440
858.197	4432
858.331	4405
858.464	4409
858.597	4329
858.731	4421
858.864	4497
858.997	4466
859.13	4523
859.263	4554
859.396	4569
859.529	4550
859.662	4558
859.795	4546
859.928	4634
860.061	4755
860.194	4748
860.327	4698
860.46	4672
860.592	4733
860.725	4740
860.858	4767
860.99	4679
861.123	4702
861.256	4748
861.388	4790
861.521	5455
861.653	4733
861.786	4736
861.918	4694
862.05	4790
862.183	4862
862.315	4904
862.447	4942
862.58	4881
862.712	4828
862.844	4790
862.976	4923
863.108	4866
863.24	5227
863.372	4858
863.504	4870
863.636	4911
863.768	4976
863.9	4923
864.032	4911
864.164	4995
864.296	5075
864.428	5140
864.559	5105
864.691	5128
864.823	5102
864.954	5109
865.086	5151
865.217	5159
865.349	5075
865.48	5155
865.612	5181
865.743	5265
865.875	5235
866.006	5223
866.137	5250
866.269	5181
866.4	5273
866.531	5242
866.662	5303
866.793	5280
866.924	5311
867.055	5372
867.186	5391
867.317	5288
867.448	5303
867.579	5357
867.71	5372
867.841	5429
867.972	5433
868.103	5471
868.233	5535
868.364	5493
868.495	5543
868.625	5653
868.756	5824
868.886	5684
869.017	5707
869.147	5859
869.278	5916
869.408	5805
869.539	5805
869.669	5961
869.799	5935
869.929	5996
870.06	6060
870.19	6209
870.32	6243
870.45	6258
870.58	6422
870.71	6441
870.84	6448
870.97	6376
871.1	6471
871.23	6658
871.36	6715
871.489	6673
871.619	6791
871.749	6798
871.879	6844
872.008	6985
872.138	7000
872.267	6993
872.397	6993
872.526	7076
872.656	7114
872.785	7213
872.915	7335
873.044	7521
873.173	7639
873.303	7613
873.432	7799
873.561	7868
873.69	7909
873.819	8020
873.948	8183
874.077	8202
874.206	8374
874.335	8457
874.464	8629
874.593	8918
874.722	8906
874.851	9127
874.979	9176
875.108	9393
875.237	9424
875.365	9507
875.494	9595
875.623	9816
875.751	9816
875.88	10025
876.008	10120
876.136	10246
876.265	10531
876.393	10793
876.521	10733
876.65	10923
876.778	10919
876.906	10877
877.034	10991
877.162	11029
877.29	11216
877.418	11242
877.546	11318
877.674	11440
877.802	11509
877.93	11444
878.058	11551
878.185	11573
878.313	11668
878.441	11718
878.568	11665
878.696	11802
878.824	11847
878.951	11859
879.079	12026
879.206	12129
879.333	12026
879.461	11999
879.588	12102
879.715	12083
879.842	12190
879.97	12140
880.097	11946
880.224	11874
880.351	11897
880.478	11935
880.605	11878
880.732	11870
880.859	12038
880.986	11783
881.112	11847
881.239	11737
881.366	11688
881.493	11688
881.619	11516
881.746	11627
881.872	11463
881.999	11573
882.125	11474
882.252	11577
882.378	11501
882.505	11596
882.631	11417
882.757	11261
882.883	11296
883.01	11208
883.136	11159
883.262	11033
883.388	11079
883.514	11296
883.64	11143
883.766	11124
883.892	10980
884.018	10976
884.143	11037
884.269	11151
884.395	10805
884.52	10816
884.646	10839
884.772	10774
884.897	10615
885.023	10683
885.148	10698
885.274	10725
885.399	10698
885.524	10637
885.65	10592
885.775	10580
885.9	10611
886.025	10497
886.15	10588
886.275	10485
886.4	10424
886.525	10424
886.65	10394
886.775	10348
886.9	10504
887.025	10558
887.149	10432
887.274	10234
887.399	10284
887.523	10230
887.648	10120
887.773	10150
887.897	10303
888.021	10284
888.146	10139
888.27	10234
888.395	10284
888.519	10116
888.643	10223
888.767	10253
888.891	10143
889.015	9991
889.139	9991
889.263	10048
889.387	10078
889.511	10139
889.635	9991
889.759	9964
889.883	9972
890.006	10051
890.13	10112
890.254	9876
890.377	9953
890.501	9899
890.624	9854
890.748	9918
890.871	9819
890.995	9720
891.118	9720
891.241	9736
891.364	9759
891.488	9895
891.611	9732
891.734	9747
891.857	9850
891.98	9755
892.103	9732
892.226	9743
892.349	9663
892.471	9545
892.594	9660
892.717	9580
892.839	9641
892.962	9591
893.085	9698
893.207	9572
893.33	9564
893.452	9485
893.575	9610
893.697	9450
893.819	9644
893.941	9629
894.064	9584
894.186	9473
894.308	9389
894.43	9572
894.552	9587
894.674	9545
894.796	9355
894.918	9355
895.04	9405
895.161	9424
895.283	9306
895.405	9264
895.526	9294
895.648	9279
895.769	9184
895.891	9245
896.012	9275
896.134	9192
896.255	9199
896.376	9108
896.498	9184
896.619	9154
896.74	9093
896.861	9123
896.982	9332
897.103	9272
897.224	9150
897.345	9089
897.466	8975
897.587	9036
897.708	9127
897.828	9089
897.949	8998
898.07	8929
898.19	8918
898.311	9051
898.431	8876
898.552	8853
898.672	8986
898.792	8895
898.913	8880
899.033	8796
899.153	8682
899.273	8693
899.393	8716
899.513	8773
899.633	8712
899.753	8766
899.873	8701
899.993	8788
900.113	8693
900.232	8686
900.352	8689
900.472	8636
900.591	8583
900.711	8625
900.83	8583
900.95	8632
901.069	8636
901.189	8522
901.308	8431
901.427	8446
901.546	8427
901.665	8465
901.784	8499
901.904	8366
902.023	8377
902.141	8301
902.26	8240
902.379	8313
902.498	8237
902.617	8240
902.735	8275
902.854	8324
902.973	8271
903.091	8180
903.21	8111
903.328	8100
903.446	8126
903.565	8016
903.683	8138
903.801	8073
903.919	8073
904.038	8161
904.156	8039
904.274	8130
904.392	8024
904.51	8126
904.627	8031
904.745	8103
904.863	8115
904.981	7917
905.098	7864
905.216	7909
905.334	7928
905.451	7925
905.569	7864
905.686	7890
905.803	7944
905.921	7765
906.038	7871
906.155	7803
906.272	7750
906.389	7727
906.506	7594
906.623	7651
906.74	7594
906.857	7586
906.974	7571
907.091	7643
907.208	7674
907.324	7662
907.441	7521
907.557	7441
907.674	7510
907.79	7419
907.907	7392
908.023	7518
908.139	7441
908.256	7377
908.372	7369
908.488	7373
908.604	7331
908.72	7251
908.836	7331
908.952	7251
909.068	7297
909.184	7331
909.3	7297
909.415	7255
909.531	7289
909.647	7046
909.762	7080
909.878	7145
909.993	7141
910.108	7065
910.224	7046
910.339	7103
910.454	7168
910.57	6989
910.685	6970
910.8	7190
910.915	7095
911.03	7091
911.145	6935
911.259	6878
911.374	6901
911.489	6795
911.604	6833
911.718	6734
911.833	6738
911.947	6669
912.062	6544
912.176	6745
912.291	6745
912.405	6741
912.519	6833
912.633	6840
912.748	6760
912.862	6662
912.976	6684
913.09	6555
913.204	6601
913.318	6616
913.431	6703
913.545	6696
913.659	6741
913.772	6684
913.886	6585
914	6528
914.113	6593
914.226	6589
914.34	6612
914.453	6525
914.566	6642
914.68	6555
914.793	6475
914.906	6448
915.019	6403
915.132	6372
915.245	6479
915.358	6433
915.47	6464
915.583	6475
915.696	6547
915.809	6517
915.921	6555
916.034	6452
916.146	6517
916.259	6388
916.371	6521
916.483	6414
916.595	6391
916.708	6513
916.82	6426
916.932	6426
917.044	6365
917.156	6395
917.268	6350
917.38	6376
917.491	6289
917.603	6338
917.715	6403
917.826	6384
917.938	6350
918.049	6285
918.161	6365
918.272	6437
918.384	6426
918.495	6369
918.606	6243
918.717	6167
918.828	6262
918.939	6304
919.05	6148
919.161	6277
919.272	6136
919.383	6121
919.494	6338
919.604	6464
919.715	6323
919.826	6213
919.936	6300
920.047	6353
920.157	6292
920.267	6490
920.378	6369
920.488	6289
920.598	6429
920.708	6582
920.818	6479
920.928	6448
921.038	6639
921.148	6604
921.258	6391
921.368	6338
921.477	6224
921.587	6194
921.697	6148
921.806	6201
921.916	6011
922.025	5958
922.134	5904
922.244	5916
922.353	5992
922.462	5866
922.571	5836
922.68	5733
922.789	5680
922.898	5748
923.007	5668
923.116	5726
923.224	5649
923.333	5684
923.442	5589
923.55	5627
923.659	5547
923.767	5672
923.876	5611
923.984	5604
924.092	5573
924.201	5608
924.309	5554
924.417	5623
924.525	5471
924.633	5520
924.741	6311
924.849	5360
924.956	5547
925.064	5417
925.172	5357
925.279	5334
925.387	5402
925.494	5315
925.602	5421
925.709	5421
925.816	5315
925.924	5334
926.031	5395
926.138	5280
926.245	5345
926.352	5235
926.459	5334
926.566	5337
926.673	5174
926.779	5136
926.886	5162
926.993	5048
927.099	4984
927.206	4999
927.312	4953
927.419	5060
927.525	4961
927.631	4999
927.737	4889
927.843	4881
927.95	4816
928.056	4801
928.162	4896
928.267	4904
928.373	5250
928.479	4908
928.585	4683
928.69	4786
928.796	4824
928.901	4660
929.007	4615
929.112	4694
929.218	4645
929.323	4599
929.428	4596
929.533	4698
929.638	4554
929.743	4550
929.848	4550
929.953	4535
930.058	4516
930.163	4329
930.267	4386
930.372	4447
930.477	4299
930.581	4466
930.685	4383
930.79	4291
930.894	4268
930.998	4280
931.103	4402
931.207	4131
931.311	4105
931.415	4006
931.519	3953
931.623	3953
