Data from glass_V78500241_532.txt Node
Date: Wed Sep 01 19:18:11 CST 2021
User: usil
Spectrometer: V785-0024
Trigger mode: 0
Integration Time (sec): 4.000000E-1
Scans to average: 1
Nonlinearity correction enabled: false
Boxcar width: 0
Storing dark spectrum: false
XAxis mode: Wavelengths
Number of Pixels in Spectrum: 1024
>>>>>Begin Spectral Data<<<<<
801.071	3762
801.214	3766
801.356	3736
801.499	3755
801.641	3728
801.783	3755
801.926	3804
802.068	3873
802.211	3896
802.353	3911
802.496	3865
802.638	3918
802.78	3934
802.923	3922
803.065	3960
803.208	3869
803.35	3869
803.492	3934
803.635	3907
803.777	3816
803.919	3926
804.061	4177
804.204	4002
804.346	3968
804.488	3922
804.63	4059
804.773	3994
804.915	4051
805.057	4196
805.199	4048
805.341	4109
805.483	4147
805.626	4162
805.768	4105
805.91	4192
806.052	4257
806.194	4234
806.336	4344
806.478	4265
806.62	4196
806.762	4196
806.904	4268
807.046	4322
807.188	4268
807.33	4181
807.472	4200
807.614	4207
807.756	4287
807.898	4227
808.04	4268
808.182	4287
808.324	4348
808.465	4386
808.607	4447
808.749	4459
808.891	4485
809.033	4538
809.174	4424
809.316	4310
809.458	4249
809.6	4204
809.741	4131
809.883	4185
810.025	4200
810.166	4207
810.308	4253
810.45	4257
810.591	4276
810.733	4303
810.875	4519
811.016	4839
811.158	5124
811.299	5261
811.441	5307
811.582	5090
811.724	4706
811.865	4508
812.007	4451
812.148	4447
812.29	4386
812.431	4478
812.573	4413
812.714	4421
812.855	4424
812.997	4428
813.138	4497
813.279	4421
813.421	4390
813.562	4405
813.703	4344
813.845	4344
813.986	4287
814.127	4265
814.268	4261
814.41	4337
814.551	4268
814.692	4322
814.833	4268
814.974	4295
815.115	4363
815.256	4253
815.397	4230
815.539	4280
815.68	4196
815.821	4238
815.962	4352
816.103	4284
816.244	4242
816.385	4211
816.526	4299
816.666	4227
816.807	4143
816.948	4211
817.089	4150
817.23	4105
817.371	4048
817.512	4090
817.653	4093
817.793	4048
817.934	4036
818.075	4051
818.216	4082
818.356	4124
818.497	3998
818.638	3949
818.778	3907
818.919	3922
819.06	3876
819.2	3907
819.341	3896
819.481	3846
819.622	3934
819.762	4036
819.903	3983
820.043	3842
820.184	3835
820.324	3823
820.465	3915
820.605	3892
820.746	3907
820.886	3835
821.026	3930
821.167	3922
821.307	4002
821.447	3983
821.588	3964
821.728	3964
821.868	3915
822.008	3911
822.149	3956
822.289	3960
822.429	3774
822.569	3770
822.709	3812
822.849	3713
822.99	3698
823.13	3751
823.27	3808
823.41	3675
823.55	3762
823.69	3713
823.83	3747
823.97	3705
824.11	3614
824.25	3629
824.389	3652
824.529	3682
824.669	3686
824.809	3713
824.949	3717
825.089	3747
825.228	3743
825.368	3610
825.508	3545
825.648	3580
825.787	3622
825.927	3610
826.067	3622
826.206	3701
826.346	3759
826.485	3854
826.625	3876
826.765	3968
826.904	3827
827.044	3625
827.183	3553
827.323	3492
827.462	3526
827.601	3450
827.741	3485
827.88	3481
828.02	3397
828.159	3447
828.298	3526
828.437	3572
828.577	3488
828.716	3633
828.855	3492
828.994	3447
829.134	3374
829.273	3401
829.412	3351
829.551	3348
829.69	3374
829.829	3443
829.968	3526
830.107	3458
830.246	3481
830.385	3435
830.524	3382
830.663	3306
830.802	3275
830.941	3188
831.08	3237
831.219	3268
831.357	3275
831.496	3386
831.635	3253
831.774	3173
831.913	3199
832.051	3173
832.19	3138
832.329	3222
832.467	3135
832.606	3123
832.744	3138
832.883	3199
833.022	3233
833.16	3272
833.299	3298
833.437	3340
833.576	3450
833.714	3435
833.852	3428
833.991	3492
834.129	3469
834.267	3473
834.406	3378
834.544	3477
834.682	3492
834.821	3397
834.959	3564
835.097	3412
835.235	3557
835.373	3500
835.511	3511
835.65	3447
835.788	3504
835.926	3428
836.064	3401
836.202	3393
836.34	3599
836.478	3610
836.615	3557
836.753	3606
836.891	3675
837.029	3625
837.167	3595
837.305	3538
837.443	3542
837.58	3500
837.718	3641
837.856	3545
837.993	3553
838.131	3587
838.269	3553
838.406	3545
838.544	3549
838.681	3492
838.819	3469
838.956	3405
839.094	3370
839.231	3443
839.369	3507
839.506	3724
839.643	3644
839.781	3526
839.918	3492
840.055	3519
840.193	3523
840.33	3534
840.467	3557
840.604	3633
840.742	3819
840.879	3576
841.016	3549
841.153	3618
841.29	3759
841.427	3728
841.564	3736
841.701	3766
841.838	3743
841.975	3717
842.112	3736
842.249	3671
842.385	3641
842.522	3835
842.659	3740
842.796	3717
842.933	3720
843.069	3701
843.206	3747
843.343	3842
843.479	3823
843.616	3819
843.752	3724
843.889	3667
844.025	3884
844.162	3766
844.298	3857
844.435	3816
844.571	3808
844.708	3876
844.844	3994
844.98	4048
845.117	4002
845.253	3941
845.389	3949
845.525	3960
845.661	3956
845.798	3956
845.934	4025
846.07	4017
846.206	4059
846.342	4166
846.478	4032
846.614	3960
846.75	4010
846.886	3915
847.022	4059
847.158	4002
847.294	4021
847.429	4086
847.565	3991
847.701	4246
847.837	3899
847.972	3903
848.108	3968
848.244	4002
848.379	3876
848.515	3873
848.65	3846
848.786	3854
848.921	3869
849.057	3949
849.192	3964
849.328	3911
849.463	3934
849.598	3884
849.734	3884
849.869	3876
850.004	3823
850.14	3831
850.275	3781
850.41	3762
850.545	3804
850.68	3789
850.815	3789
850.95	3819
851.085	3892
851.22	3880
851.355	3846
851.49	3823
851.625	3873
851.76	3770
851.895	3740
852.03	3732
852.165	3823
852.299	3808
852.434	3884
852.569	3861
852.703	3857
852.838	3975
852.973	4006
853.107	4025
853.242	3880
853.376	3899
853.511	3759
853.645	3850
853.78	4040
853.914	3907
854.048	3888
854.183	3934
854.317	3960
854.451	4040
854.585	3983
854.72	3945
854.854	4025
854.988	3994
855.122	4006
855.256	3915
855.39	4036
855.524	4143
855.658	4124
855.792	4105
855.926	4158
856.06	4223
856.194	4246
856.327	4158
856.461	4128
856.595	4169
856.729	4166
856.862	4265
856.996	4276
857.13	4322
857.263	4363
857.397	4348
857.53	4325
857.664	4363
857.797	4421
857.931	4447
858.064	4421
858.197	4462
858.331	4421
858.464	4402
858.597	4386
858.731	4432
858.864	4474
858.997	4459
859.13	4470
859.263	4577
859.396	4618
859.529	4508
859.662	4554
859.795	4535
859.928	4599
860.061	4675
860.194	4797
860.327	4660
860.46	4664
860.592	4763
860.725	4748
860.858	4797
860.99	4721
861.123	4687
861.256	4694
861.388	4820
861.521	5516
861.653	4748
861.786	4759
861.918	4755
862.05	4828
862.183	4885
862.315	4885
862.447	4946
862.58	4908
862.712	4809
862.844	4767
862.976	4873
863.108	4927
863.24	5181
863.372	4812
863.504	4881
863.636	4881
863.768	4995
863.9	4972
864.032	4896
864.164	4976
864.296	4987
864.428	5113
864.559	5128
864.691	5185
864.823	5117
864.954	5178
865.086	5212
865.217	5151
865.349	5121
865.48	5197
865.612	5227
865.743	5292
865.875	5231
866.006	5204
866.137	5223
866.269	5254
866.4	5250
866.531	5239
866.662	5235
866.793	5273
866.924	5269
867.055	5391
867.186	5383
867.317	5231
867.448	5322
867.579	5357
867.71	5330
867.841	5425
867.972	5452
868.103	5474
868.233	5474
868.364	5455
868.495	5570
868.625	5729
868.756	5802
868.886	5684
869.017	5775
869.147	5851
869.278	5927
869.408	5840
869.539	5809
869.669	5999
869.799	5939
869.929	5999
870.06	5996
870.19	6190
870.32	6228
870.45	6300
870.58	6365
870.71	6403
870.84	6467
870.97	6414
871.1	6426
871.23	6658
871.36	6650
871.489	6715
871.619	6749
871.749	6821
871.879	6913
872.008	6966
872.138	6993
872.267	6977
872.397	6996
872.526	7027
872.656	7103
872.785	7236
872.915	7354
873.044	7533
873.173	7605
873.303	7681
873.432	7719
873.561	7818
873.69	7940
873.819	7959
873.948	8145
874.077	8309
874.206	8408
874.335	8488
874.464	8701
874.593	8864
874.722	8925
874.851	9165
874.979	9195
875.108	9325
875.237	9477
875.365	9454
875.494	9686
875.623	9880
875.751	9926
875.88	9918
876.008	10131
876.136	10181
876.265	10440
876.393	10656
876.521	10733
876.65	10869
876.778	10854
876.906	10908
877.034	10995
877.162	11075
877.29	11197
877.418	11356
877.546	11467
877.674	11474
877.802	11558
877.93	11505
878.058	11551
878.185	11547
878.313	11699
878.441	11809
878.568	11699
878.696	11805
878.824	11798
878.951	11973
879.079	11973
879.206	12133
879.333	11992
879.461	12076
879.588	12087
879.715	12095
879.842	12136
879.97	12038
880.097	11923
880.224	11851
880.351	11961
880.478	11828
880.605	11866
880.732	11786
880.859	12053
880.986	11786
881.112	11836
881.239	11752
881.366	11703
881.493	11661
881.619	11551
881.746	11573
881.872	11520
881.999	11528
882.125	11516
882.252	11505
882.378	11539
882.505	11596
882.631	11414
882.757	11322
882.883	11360
883.01	11322
883.136	11239
883.262	11090
883.388	11090
883.514	11208
883.64	11159
883.766	11117
883.892	10968
884.018	11010
884.143	11022
884.269	11105
884.395	10748
884.52	10694
884.646	10816
884.772	10694
884.897	10683
885.023	10702
885.148	10752
885.274	10793
885.399	10706
885.524	10706
885.65	10542
885.775	10592
885.9	10596
886.025	10577
886.15	10508
886.275	10405
886.4	10409
886.525	10447
886.65	10481
886.775	10390
886.9	10516
887.025	10558
887.149	10363
887.274	10177
887.399	10128
887.523	10185
887.648	10173
887.773	10143
887.897	10227
888.021	10162
888.146	10188
888.27	10215
888.395	10230
888.519	10185
888.643	10169
888.767	10246
888.891	10055
889.015	10002
889.139	10074
889.263	9991
889.387	10116
889.511	10139
889.635	10059
889.759	9975
889.883	10002
890.006	9987
890.13	10154
890.254	9987
890.377	10025
890.501	9911
890.624	9915
890.748	9884
890.871	9816
890.995	9728
891.118	9774
891.241	9816
891.364	9785
891.488	9812
891.611	9835
891.734	9827
891.857	9854
891.98	9701
892.103	9743
892.226	9724
892.349	9641
892.471	9466
892.594	9568
892.717	9633
892.839	9637
892.962	9618
893.085	9682
893.207	9652
893.33	9507
893.452	9507
893.575	9572
893.697	9500
893.819	9679
893.941	9679
894.064	9629
894.186	9431
894.308	9412
894.43	9511
894.552	9568
894.674	9534
894.796	9435
894.918	9408
895.04	9420
895.161	9439
895.283	9386
895.405	9256
895.526	9287
895.648	9233
895.769	9241
895.891	9294
896.012	9359
896.134	9283
896.255	9184
896.376	9138
896.498	9116
896.619	9085
896.74	9077
896.861	9203
896.982	9260
897.103	9287
897.224	9154
897.345	9138
897.466	9039
897.587	9013
897.708	9154
897.828	9024
897.949	8914
898.07	8819
898.19	8937
898.311	9001
898.431	8899
898.552	8838
898.672	9001
898.792	8967
898.913	8861
899.033	8823
899.153	8811
899.273	8632
899.393	8735
899.513	8693
899.633	8792
899.753	8724
899.873	8724
899.993	8743
900.113	8701
900.232	8754
900.352	8674
900.472	8590
900.591	8530
900.711	8571
900.83	8552
900.95	8686
901.069	8682
901.189	8644
901.308	8476
901.427	8423
901.546	8469
901.665	8473
901.784	8495
901.904	8374
902.023	8301
902.141	8263
902.26	8237
902.379	8271
902.498	8172
902.617	8206
902.735	8355
902.854	8294
902.973	8252
903.091	8168
903.21	8172
903.328	8168
903.446	8176
903.565	8153
903.683	8161
903.801	8145
903.919	8088
904.038	8119
904.156	8020
904.274	8062
904.392	8069
904.51	8008
904.627	8016
904.745	8069
904.863	8164
904.981	7978
905.098	7894
905.216	7852
905.334	7940
905.451	7909
905.569	7890
905.686	7887
905.803	7864
905.921	7803
906.038	7860
906.155	7830
906.272	7731
906.389	7712
906.506	7609
906.623	7571
906.74	7674
906.857	7586
906.974	7639
907.091	7655
907.208	7674
907.324	7666
907.441	7643
907.557	7472
907.674	7529
907.79	7445
907.907	7483
908.023	7453
908.139	7453
908.256	7381
908.372	7396
908.488	7331
908.604	7285
908.72	7225
908.836	7236
908.952	7240
909.068	7270
909.184	7381
909.3	7274
909.415	7324
909.531	7350
909.647	7114
909.762	7179
909.878	7156
909.993	7129
910.108	7152
910.224	7129
910.339	7126
910.454	7000
910.57	7012
910.685	6989
910.8	7209
910.915	7114
911.03	6958
911.145	6909
911.259	6894
911.374	6863
911.489	6886
911.604	6863
911.718	6673
911.833	6738
911.947	6711
912.062	6623
912.176	6711
912.291	6738
912.405	6688
912.519	6867
912.633	6791
912.748	6768
912.862	6669
912.976	6639
913.09	6521
913.204	6665
913.318	6635
913.431	6646
913.545	6753
913.659	6711
913.772	6677
913.886	6623
914	6536
914.113	6669
914.226	6646
914.34	6612
914.453	6582
914.566	6612
914.68	6506
914.793	6525
914.906	6445
915.019	6460
915.132	6391
915.245	6464
915.358	6426
915.47	6471
915.583	6479
915.696	6426
915.809	6570
915.921	6540
916.034	6452
916.146	6456
916.259	6403
916.371	6467
916.483	6464
916.595	6391
916.708	6418
916.82	6384
916.932	6410
917.044	6456
917.156	6384
917.268	6342
917.38	6323
917.491	6357
917.603	6388
917.715	6384
917.826	6391
917.938	6308
918.049	6254
918.161	6414
918.272	6407
918.384	6460
918.495	6365
918.606	6197
918.717	6209
918.828	6315
918.939	6270
919.05	6216
919.161	6235
919.272	6102
919.383	6159
919.494	6331
919.604	6456
919.715	6289
919.826	6270
919.936	6247
920.047	6376
920.157	6296
920.267	6464
920.378	6319
920.488	6262
920.598	6498
920.708	6612
920.818	6486
920.928	6490
921.038	6601
921.148	6566
921.258	6342
921.368	6243
921.477	6228
921.587	6205
921.697	6144
921.806	6273
921.916	6087
922.025	5977
922.134	5908
922.244	5935
922.353	5923
922.462	5847
922.571	5790
922.68	5718
922.789	5695
922.898	5748
923.007	5627
923.116	5707
923.224	5680
923.333	5665
923.442	5634
923.55	5573
923.659	5611
923.767	5634
923.876	5543
923.984	5596
924.092	5490
924.201	5547
924.309	5573
924.417	5615
924.525	5459
924.633	5551
924.741	6319
924.849	5383
924.956	5509
925.064	5410
925.172	5330
925.279	5334
925.387	5341
925.494	5337
925.602	5421
925.709	5387
925.816	5280
925.924	5337
926.031	5337
926.138	5330
926.245	5353
926.352	5242
926.459	5357
926.566	5337
926.673	5227
926.779	5159
926.886	5143
926.993	5071
927.099	5003
927.206	4991
927.312	4999
927.419	5037
927.525	4942
927.631	5037
927.737	4911
927.843	4908
927.95	4786
928.056	4828
928.162	4809
928.267	4847
928.373	5254
928.479	4896
928.585	4664
928.69	4786
928.796	4801
928.901	4698
929.007	4618
929.112	4710
929.218	4634
929.323	4596
929.428	4550
929.533	4660
929.638	4516
929.743	4512
929.848	4542
929.953	4504
930.058	4493
930.163	4344
930.267	4348
930.372	4455
930.477	4287
930.581	4459
930.685	4402
930.79	4249
930.894	4333
930.998	4291
931.103	4447
931.207	4112
931.311	4124
931.415	4040
931.519	3979
931.623	3975
