Data from glass_V78500241_179.txt Node
Date: Wed Sep 01 19:15:44 CST 2021
User: usil
Spectrometer: V785-0024
Trigger mode: 0
Integration Time (sec): 4.000000E-1
Scans to average: 1
Nonlinearity correction enabled: false
Boxcar width: 0
Storing dark spectrum: false
XAxis mode: Wavelengths
Number of Pixels in Spectrum: 1024
>>>>>Begin Spectral Data<<<<<
801.071	3724
801.214	3759
801.356	3740
801.499	3747
801.641	3743
801.783	3789
801.926	3922
802.068	3873
802.211	3838
802.353	3896
802.496	3880
802.638	3918
802.78	3922
802.923	3888
803.065	3975
803.208	3869
803.35	3918
803.492	3922
803.635	3972
803.777	3812
803.919	3884
804.061	4162
804.204	3934
804.346	3983
804.488	3968
804.63	4044
804.773	3994
804.915	4044
805.057	4181
805.199	4093
805.341	4040
805.483	4143
805.626	4169
805.768	4090
805.91	4200
806.052	4257
806.194	4196
806.336	4367
806.478	4223
806.62	4185
806.762	4223
806.904	4284
807.046	4318
807.188	4196
807.33	4192
807.472	4272
807.614	4238
807.756	4284
807.898	4204
808.04	4219
808.182	4310
808.324	4394
808.465	4386
808.607	4466
808.749	4474
808.891	4459
809.033	4527
809.174	4436
809.316	4280
809.458	4246
809.6	4223
809.741	4188
809.883	4177
810.025	4230
810.166	4246
810.308	4173
810.45	4223
810.591	4238
810.733	4322
810.875	4554
811.016	4858
811.158	5174
811.299	5303
811.441	5288
811.582	5086
811.724	4679
811.865	4504
812.007	4470
812.148	4478
812.29	4462
812.431	4417
812.573	4440
812.714	4421
812.855	4451
812.997	4432
813.138	4516
813.279	4424
813.421	4405
813.562	4375
813.703	4386
813.845	4344
813.986	4306
814.127	4261
814.268	4306
814.41	4356
814.551	4276
814.692	4299
814.833	4257
814.974	4322
815.115	4386
815.256	4246
815.397	4265
815.539	4310
815.68	4227
815.821	4242
815.962	4318
816.103	4280
816.244	4249
816.385	4257
816.526	4272
816.666	4242
816.807	4112
816.948	4135
817.089	4177
817.23	4147
817.371	4067
817.512	4071
817.653	4128
817.793	4112
817.934	4029
818.075	4109
818.216	4093
818.356	4116
818.497	3998
818.638	3911
818.778	3907
818.919	3934
819.06	3842
819.2	3945
819.341	3876
819.481	3861
819.622	3930
819.762	4044
819.903	3979
820.043	3892
820.184	3880
820.324	3850
820.465	3945
820.605	3876
820.746	3880
820.886	3831
821.026	3941
821.167	3945
821.307	3983
821.447	3987
821.588	3975
821.728	3968
821.868	3953
822.008	3861
822.149	3953
822.289	3953
822.429	3793
822.569	3797
822.709	3800
822.849	3720
822.99	3755
823.13	3812
823.27	3789
823.41	3720
823.55	3759
823.69	3724
823.83	3778
823.97	3686
824.11	3595
824.25	3580
824.389	3656
824.529	3660
824.669	3675
824.809	3740
824.949	3808
825.089	3759
825.228	3736
825.368	3564
825.508	3599
825.648	3606
825.787	3622
825.927	3648
826.067	3648
826.206	3660
826.346	3797
826.485	3892
826.625	3896
826.765	3972
826.904	3869
827.044	3622
827.183	3549
827.323	3424
827.462	3545
827.601	3435
827.741	3439
827.88	3466
828.02	3393
828.159	3439
828.298	3504
828.437	3553
828.577	3473
828.716	3587
828.855	3542
828.994	3378
829.134	3359
829.273	3409
829.412	3416
829.551	3325
829.69	3374
829.829	3420
829.968	3530
830.107	3462
830.246	3477
830.385	3401
830.524	3374
830.663	3294
830.802	3302
830.941	3188
831.08	3241
831.219	3298
831.357	3279
831.496	3397
831.635	3260
831.774	3184
831.913	3214
832.051	3112
832.19	3214
832.329	3199
832.467	3173
832.606	3093
832.744	3180
832.883	3184
833.022	3207
833.16	3294
833.299	3340
833.437	3374
833.576	3386
833.714	3424
833.852	3462
833.991	3431
834.129	3496
834.267	3473
834.406	3393
834.544	3435
834.682	3462
834.821	3401
834.959	3564
835.097	3435
835.235	3542
835.373	3507
835.511	3492
835.65	3469
835.788	3515
835.926	3409
836.064	3401
836.202	3454
836.34	3564
836.478	3603
836.615	3561
836.753	3648
836.891	3660
837.029	3637
837.167	3637
837.305	3553
837.443	3549
837.58	3553
837.718	3652
837.856	3595
837.993	3557
838.131	3637
838.269	3591
838.406	3682
838.544	3614
838.681	3504
838.819	3507
838.956	3378
839.094	3428
839.231	3466
839.369	3507
839.506	3751
839.643	3629
839.781	3526
839.918	3473
840.055	3515
840.193	3538
840.33	3568
840.467	3599
840.604	3637
840.742	3808
840.879	3538
841.016	3641
841.153	3618
841.29	3762
841.427	3747
841.564	3713
841.701	3747
841.838	3724
841.975	3717
842.112	3747
842.249	3637
842.385	3629
842.522	3835
842.659	3724
842.796	3656
842.933	3720
843.069	3717
843.206	3679
843.343	3838
843.479	3793
843.616	3812
843.752	3705
843.889	3660
844.025	3892
844.162	3701
844.298	3884
844.435	3774
844.571	3831
844.708	3907
844.844	3972
844.98	4040
845.117	4032
845.253	3998
845.389	3915
845.525	3972
845.661	3991
845.798	3937
845.934	3994
846.07	3907
846.206	4063
846.342	4097
846.478	4067
846.614	3998
846.75	3922
846.886	3911
847.022	4040
847.158	3991
847.294	3987
847.429	4025
847.565	4013
847.701	4284
847.837	3903
847.972	3873
848.108	4032
848.244	3945
848.379	3835
848.515	3850
848.65	3804
848.786	3880
848.921	3861
849.057	3930
849.192	3975
849.328	3911
849.463	3922
849.598	3888
849.734	3854
849.869	3838
850.004	3823
850.14	3808
850.275	3789
850.41	3766
850.545	3793
850.68	3740
850.815	3770
850.95	3804
851.085	3960
851.22	3915
851.355	3823
851.49	3812
851.625	3812
851.76	3785
851.895	3736
852.03	3766
852.165	3835
852.299	3880
852.434	3911
852.569	3903
852.703	3934
852.838	3945
852.973	4025
853.107	3994
853.242	3953
853.376	3892
853.511	3800
853.645	3876
853.78	3956
853.914	3956
854.048	3911
854.183	3854
854.317	3979
854.451	4124
854.585	3983
854.72	3922
854.854	4078
854.988	3930
855.122	3991
855.256	3945
855.39	4021
855.524	4169
855.658	4109
855.792	4116
855.926	4147
856.06	4207
856.194	4242
856.327	4166
856.461	4150
856.595	4185
856.729	4169
856.862	4249
856.996	4280
857.13	4337
857.263	4344
857.397	4398
857.53	4249
857.664	4379
857.797	4405
857.931	4398
858.064	4390
858.197	4523
858.331	4413
858.464	4398
858.597	4310
858.731	4451
858.864	4440
858.997	4500
859.13	4523
859.263	4527
859.396	4596
859.529	4500
859.662	4546
859.795	4573
859.928	4611
860.061	4714
860.194	4782
860.327	4679
860.46	4668
860.592	4744
860.725	4797
860.858	4763
860.99	4736
861.123	4710
861.256	4710
861.388	4786
861.521	5410
861.653	4721
861.786	4717
861.918	4793
862.05	4771
862.183	4843
862.315	4908
862.447	4953
862.58	4911
862.712	4786
862.844	4778
862.976	4885
863.108	4873
863.24	5231
863.372	4892
863.504	4908
863.636	4873
863.768	4968
863.9	4949
864.032	4949
864.164	4930
864.296	5052
864.428	5086
864.559	5143
864.691	5105
864.823	5102
864.954	5124
865.086	5143
865.217	5121
865.349	5155
865.48	5193
865.612	5254
865.743	5326
865.875	5239
866.006	5189
866.137	5220
866.269	5258
866.4	5269
866.531	5273
866.662	5212
866.793	5254
866.924	5277
867.055	5280
867.186	5292
867.317	5353
867.448	5315
867.579	5395
867.71	5360
867.841	5376
867.972	5478
868.103	5501
868.233	5482
868.364	5524
868.495	5532
868.625	5691
868.756	5821
868.886	5676
869.017	5714
869.147	5870
869.278	5901
869.408	5794
869.539	5863
869.669	5908
869.799	5912
869.929	6019
870.06	5999
870.19	6213
870.32	6205
870.45	6300
870.58	6361
870.71	6452
870.84	6513
870.97	6448
871.1	6441
871.23	6608
871.36	6764
871.489	6677
871.619	6757
871.749	6886
871.879	6856
872.008	7027
872.138	7019
872.267	7015
872.397	6981
872.526	7027
872.656	7091
872.785	7202
872.915	7381
873.044	7499
873.173	7556
873.303	7670
873.432	7776
873.561	7890
873.69	7932
873.819	8092
873.948	8134
874.077	8271
874.206	8355
874.335	8473
874.464	8556
874.593	8944
874.722	8918
874.851	9154
874.979	9233
875.108	9363
875.237	9389
875.365	9523
875.494	9633
875.623	9793
875.751	9819
875.88	10044
876.008	10112
876.136	10318
876.265	10481
876.393	10634
876.521	10752
876.65	10835
876.778	10809
876.906	10995
877.034	11045
877.162	11041
877.29	11132
877.418	11220
877.546	11391
877.674	11387
877.802	11471
877.93	11589
878.058	11509
878.185	11627
878.313	11642
878.441	11741
878.568	11688
878.696	11771
878.824	11882
878.951	12041
879.079	12053
879.206	12159
879.333	12091
879.461	11958
879.588	11999
879.715	11980
879.842	12190
879.97	12117
880.097	11916
880.224	11916
880.351	11908
880.478	11942
880.605	11863
880.732	11843
880.859	12049
880.986	11824
881.112	11821
881.239	11680
881.366	11699
881.493	11672
881.619	11532
881.746	11585
881.872	11551
881.999	11444
882.125	11448
882.252	11558
882.378	11467
882.505	11520
882.631	11368
882.757	11322
882.883	11307
883.01	11307
883.136	11288
883.262	11109
883.388	11143
883.514	11220
883.64	11197
883.766	11041
883.892	10927
884.018	11022
884.143	11022
884.269	11113
884.395	10869
884.52	10790
884.646	10752
884.772	10721
884.897	10694
885.023	10637
885.148	10660
885.274	10786
885.399	10748
885.524	10672
885.65	10714
885.775	10558
885.9	10565
886.025	10649
886.15	10542
886.275	10424
886.4	10417
886.525	10474
886.65	10360
886.775	10333
886.9	10481
887.025	10542
887.149	10318
887.274	10249
887.399	10112
887.523	10219
887.648	10139
887.773	10105
887.897	10200
888.021	10200
888.146	10120
888.27	10272
888.395	10185
888.519	10124
888.643	10177
888.767	10147
888.891	10207
889.015	10086
889.139	10036
889.263	9953
889.387	10051
889.511	10124
889.635	10025
889.759	10021
889.883	10086
890.006	9979
890.13	10071
890.254	9956
890.377	9964
890.501	9926
890.624	9850
890.748	9911
890.871	9838
890.995	9743
891.118	9705
891.241	9869
891.364	9762
891.488	9827
891.611	9663
891.734	9713
891.857	9728
891.98	9732
892.103	9747
892.226	9747
892.349	9709
892.471	9507
892.594	9568
892.717	9648
892.839	9561
892.962	9603
893.085	9656
893.207	9576
893.33	9481
893.452	9519
893.575	9648
893.697	9530
893.819	9629
893.941	9679
894.064	9637
894.186	9428
894.308	9458
894.43	9507
894.552	9599
894.674	9511
894.796	9374
894.918	9389
895.04	9329
895.161	9424
895.283	9367
895.405	9256
895.526	9272
895.648	9218
895.769	9230
895.891	9302
896.012	9302
896.134	9264
896.255	9214
896.376	9154
896.498	9226
896.619	9142
896.74	9058
896.861	9123
896.982	9256
897.103	9374
897.224	9180
897.345	9017
897.466	9047
897.587	8975
897.708	9161
897.828	9047
897.949	8986
898.07	8857
898.19	8914
898.311	9066
898.431	8895
898.552	8899
898.672	8975
898.792	8975
898.913	8990
899.033	8830
899.153	8796
899.273	8689
899.393	8640
899.513	8788
899.633	8701
899.753	8716
899.873	8762
899.993	8842
900.113	8686
900.232	8674
900.352	8701
900.472	8621
900.591	8579
900.711	8606
900.83	8552
900.95	8640
901.069	8678
901.189	8560
901.308	8412
901.427	8419
901.546	8446
901.665	8434
901.784	8507
901.904	8328
902.023	8320
902.141	8240
902.26	8161
902.379	8332
902.498	8187
902.617	8244
902.735	8389
902.854	8279
902.973	8286
903.091	8195
903.21	8092
903.328	8161
903.446	8142
903.565	8088
903.683	8073
903.801	8119
903.919	8100
904.038	8119
904.156	8043
904.274	8107
904.392	7989
904.51	8138
904.627	8046
904.745	8123
904.863	8100
904.981	7932
905.098	7860
905.216	7883
905.334	7909
905.451	7944
905.569	7898
905.686	7906
905.803	7932
905.921	7784
906.038	7845
906.155	7818
906.272	7750
906.389	7750
906.506	7647
906.623	7605
906.74	7571
906.857	7540
906.974	7628
907.091	7632
907.208	7723
907.324	7689
907.441	7620
907.557	7468
907.674	7464
907.79	7373
907.907	7430
908.023	7434
908.139	7491
908.256	7472
908.372	7343
908.488	7320
908.604	7285
908.72	7247
908.836	7198
908.952	7263
909.068	7225
909.184	7266
909.3	7274
909.415	7327
909.531	7278
909.647	7110
909.762	7175
909.878	7118
909.993	7129
910.108	7099
910.224	7137
910.339	7160
910.454	7027
910.57	7027
910.685	7031
910.8	7133
910.915	7061
911.03	7061
911.145	6993
911.259	6901
911.374	6920
911.489	6886
911.604	6844
911.718	6741
911.833	6791
911.947	6711
912.062	6631
912.176	6707
912.291	6738
912.405	6719
912.519	6863
912.633	6913
912.748	6749
912.862	6665
912.976	6677
913.09	6517
913.204	6589
913.318	6601
913.431	6673
913.545	6703
913.659	6764
913.772	6662
913.886	6566
914	6532
914.113	6673
914.226	6616
914.34	6601
914.453	6490
914.566	6654
914.68	6521
914.793	6528
914.906	6437
915.019	6372
915.132	6410
915.245	6517
915.358	6414
915.47	6429
915.583	6483
915.696	6471
915.809	6589
915.921	6601
916.034	6452
916.146	6448
916.259	6410
916.371	6536
916.483	6445
916.595	6422
916.708	6426
916.82	6410
916.932	6376
917.044	6414
917.156	6410
917.268	6342
917.38	6369
917.491	6338
917.603	6376
917.715	6369
917.826	6456
917.938	6331
918.049	6224
918.161	6353
918.272	6437
918.384	6410
918.495	6369
918.606	6144
918.717	6224
918.828	6300
918.939	6270
919.05	6197
919.161	6315
919.272	6136
919.383	6102
919.494	6308
919.604	6464
919.715	6300
919.826	6247
919.936	6285
920.047	6403
920.157	6258
920.267	6399
920.378	6319
920.488	6258
920.598	6399
920.708	6559
920.818	6483
920.928	6486
921.038	6616
921.148	6623
921.258	6365
921.368	6388
921.477	6205
921.587	6194
921.697	6121
921.806	6205
921.916	6129
922.025	5931
922.134	5954
922.244	5874
922.353	5965
922.462	5824
922.571	5824
922.68	5707
922.789	5699
922.898	5756
923.007	5668
923.116	5726
923.224	5649
923.333	5661
923.442	5611
923.55	5551
923.659	5600
923.767	5638
923.876	5570
923.984	5608
924.092	5543
924.201	5554
924.309	5596
924.417	5493
924.525	5493
924.633	5577
924.741	6152
924.849	5368
924.956	5501
925.064	5406
925.172	5341
925.279	5349
925.387	5398
925.494	5406
925.602	5436
925.709	5379
925.816	5311
925.924	5353
926.031	5364
926.138	5345
926.245	5372
926.352	5246
926.459	5322
926.566	5372
926.673	5223
926.779	5174
926.886	5113
926.993	5025
927.099	4995
927.206	5025
927.312	4976
927.419	5045
927.525	4938
927.631	5003
927.737	4923
927.843	4866
927.95	4805
928.056	4858
928.162	4824
928.267	4847
928.373	5307
928.479	4839
928.585	4755
928.69	4774
928.796	4774
928.901	4645
929.007	4637
929.112	4729
929.218	4622
929.323	4603
929.428	4584
929.533	4694
929.638	4531
929.743	4565
929.848	4558
929.953	4565
930.058	4470
930.163	4337
930.267	4371
930.372	4440
930.477	4303
930.581	4500
930.685	4367
930.79	4265
930.894	4325
930.998	4246
931.103	4390
931.207	4116
931.311	4090
931.415	4071
931.519	3934
931.623	3979
