Data from glass_V78500241_2311.txt Node
Date: Wed Sep 01 19:30:31 CST 2021
User: usil
Spectrometer: V785-0024
Trigger mode: 0
Integration Time (sec): 4.000000E-1
Scans to average: 1
Nonlinearity correction enabled: false
Boxcar width: 0
Storing dark spectrum: false
XAxis mode: Wavelengths
Number of Pixels in Spectrum: 1024
>>>>>Begin Spectral Data<<<<<
801.071	3743
801.214	3736
801.356	3732
801.499	3724
801.641	3743
801.783	3778
801.926	3812
802.068	3835
802.211	3831
802.353	3892
802.496	3800
802.638	3835
802.78	3876
802.923	3876
803.065	3930
803.208	3797
803.35	3850
803.492	3949
803.635	3876
803.777	3816
803.919	3869
804.061	4185
804.204	3968
804.346	3941
804.488	3899
804.63	4032
804.773	3964
804.915	4044
805.057	4128
805.199	3979
805.341	4090
805.483	4116
805.626	4090
805.768	4097
805.91	4181
806.052	4276
806.194	4200
806.336	4360
806.478	4192
806.62	4173
806.762	4150
806.904	4185
807.046	4341
807.188	4204
807.33	4166
807.472	4196
807.614	4135
807.756	4234
807.898	4181
808.04	4253
808.182	4261
808.324	4253
808.465	4348
808.607	4451
808.749	4436
808.891	4443
809.033	4466
809.174	4440
809.316	4242
809.458	4249
809.6	4074
809.741	4169
809.883	4169
810.025	4234
810.166	4158
810.308	4188
810.45	4227
810.591	4219
810.733	4268
810.875	4493
811.016	4805
811.158	5109
811.299	5208
811.441	5269
811.582	5083
811.724	4721
811.865	4474
812.007	4436
812.148	4440
812.29	4413
812.431	4394
812.573	4386
812.714	4379
812.855	4436
812.997	4443
813.138	4493
813.279	4413
813.421	4394
813.562	4333
813.703	4329
813.845	4344
813.986	4238
814.127	4185
814.268	4242
814.41	4261
814.551	4261
814.692	4337
814.833	4325
814.974	4333
815.115	4318
815.256	4223
815.397	4192
815.539	4253
815.68	4192
815.821	4238
815.962	4337
816.103	4272
816.244	4272
816.385	4215
816.526	4299
816.666	4158
816.807	4124
816.948	4143
817.089	4154
817.23	4071
817.371	4059
817.512	4086
817.653	4093
817.793	4048
817.934	4017
818.075	4101
818.216	4093
818.356	4048
818.497	3994
818.638	3857
818.778	3911
818.919	3854
819.06	3842
819.2	3911
819.341	3884
819.481	3842
819.622	3869
819.762	4055
819.903	3918
820.043	3892
820.184	3823
820.324	3789
820.465	3838
820.605	3876
820.746	3869
820.886	3766
821.026	3911
821.167	3918
821.307	3926
821.447	3937
821.588	3922
821.728	3968
821.868	3937
822.008	3842
822.149	3892
822.289	3899
822.429	3751
822.569	3709
822.709	3808
822.849	3667
822.99	3709
823.13	3755
823.27	3785
823.41	3717
823.55	3743
823.69	3717
823.83	3732
823.97	3682
824.11	3603
824.25	3610
824.389	3637
824.529	3682
824.669	3644
824.809	3728
824.949	3743
825.089	3701
825.228	3690
825.368	3587
825.508	3561
825.648	3519
825.787	3625
825.927	3644
826.067	3606
826.206	3633
826.346	3793
826.485	3884
826.625	3842
826.765	3937
826.904	3831
827.044	3633
827.183	3523
827.323	3458
827.462	3443
827.601	3439
827.741	3378
827.88	3439
828.02	3389
828.159	3409
828.298	3458
828.437	3492
828.577	3485
828.716	3587
828.855	3504
828.994	3378
829.134	3344
829.273	3382
829.412	3348
829.551	3310
829.69	3344
829.829	3466
829.968	3500
830.107	3462
830.246	3405
830.385	3351
830.524	3370
830.663	3245
830.802	3233
830.941	3184
831.08	3165
831.219	3237
831.357	3253
831.496	3401
831.635	3272
831.774	3184
831.913	3180
832.051	3089
832.19	3138
832.329	3173
832.467	3146
832.606	3085
832.744	3161
832.883	3207
833.022	3211
833.16	3287
833.299	3279
833.437	3340
833.576	3367
833.714	3424
833.852	3416
833.991	3439
834.129	3416
834.267	3424
834.406	3393
834.544	3435
834.682	3405
834.821	3412
834.959	3584
835.097	3431
835.235	3504
835.373	3454
835.511	3496
835.65	3488
835.788	3515
835.926	3420
836.064	3393
836.202	3424
836.34	3538
836.478	3591
836.615	3553
836.753	3591
836.891	3644
837.029	3641
837.167	3561
837.305	3553
837.443	3523
837.58	3523
837.718	3572
837.856	3576
837.993	3500
838.131	3591
838.269	3595
838.406	3549
838.544	3576
838.681	3447
838.819	3435
838.956	3359
839.094	3382
839.231	3431
839.369	3511
839.506	3759
839.643	3625
839.781	3511
839.918	3519
840.055	3545
840.193	3496
840.33	3542
840.467	3599
840.604	3610
840.742	3800
840.879	3553
841.016	3576
841.153	3595
841.29	3698
841.427	3724
841.564	3747
841.701	3732
841.838	3679
841.975	3652
842.112	3728
842.249	3652
842.385	3599
842.522	3816
842.659	3675
842.796	3660
842.933	3713
843.069	3698
843.206	3728
843.343	3804
843.479	3793
843.616	3778
843.752	3629
843.889	3682
844.025	3835
844.162	3724
844.298	3835
844.435	3762
844.571	3804
844.708	3850
844.844	3964
844.98	4044
845.117	3998
845.253	3945
845.389	3873
845.525	3903
845.661	3941
845.798	3915
845.934	3975
846.07	3987
846.206	4002
846.342	4101
846.478	4036
846.614	3991
846.75	3926
846.886	3888
847.022	4090
847.158	3979
847.294	3998
847.429	4002
847.565	4021
847.701	4230
847.837	3880
847.972	3846
848.108	4002
848.244	3949
848.379	3873
848.515	3808
848.65	3793
848.786	3823
848.921	3869
849.057	3949
849.192	3888
849.328	3899
849.463	3876
849.598	3907
849.734	3857
849.869	3827
850.004	3823
850.14	3812
850.275	3694
850.41	3743
850.545	3747
850.68	3789
850.815	3808
850.95	3770
851.085	3945
851.22	3869
851.355	3831
851.49	3774
851.625	3770
851.76	3766
851.895	3720
852.03	3728
852.165	3797
852.299	3846
852.434	3880
852.569	3819
852.703	3861
852.838	3911
852.973	3975
853.107	3968
853.242	3869
853.376	3835
853.511	3781
853.645	3812
853.78	3987
853.914	3911
854.048	3838
854.183	3819
854.317	3945
854.451	4055
854.585	3937
854.72	3960
854.854	4048
854.988	3918
855.122	3972
855.256	3926
855.39	4017
855.524	4067
855.658	4074
855.792	4055
855.926	4177
856.06	4162
856.194	4192
856.327	4128
856.461	4105
856.595	4135
856.729	4169
856.862	4272
856.996	4272
857.13	4291
857.263	4223
857.397	4371
857.53	4268
857.664	4363
857.797	4394
857.931	4440
858.064	4390
858.197	4459
858.331	4405
858.464	4352
858.597	4306
858.731	4436
858.864	4481
858.997	4436
859.13	4459
859.263	4546
859.396	4546
859.529	4542
859.662	4550
859.795	4516
859.928	4577
860.061	4694
860.194	4755
860.327	4668
860.46	4641
860.592	4714
860.725	4729
860.858	4729
860.99	4755
861.123	4641
861.256	4729
861.388	4714
861.521	5223
861.653	4714
861.786	4694
861.918	4736
862.05	4809
862.183	4828
862.315	4911
862.447	4908
862.58	4877
862.712	4805
862.844	4759
862.976	4816
863.108	4862
863.24	5147
863.372	4812
863.504	4911
863.636	4904
863.768	4953
863.9	4984
864.032	4942
864.164	4995
864.296	5010
864.428	5060
864.559	5067
864.691	5083
864.823	5090
864.954	5132
865.086	5113
865.217	5109
865.349	5105
865.48	5151
865.612	5162
865.743	5280
865.875	5178
866.006	5223
866.137	5239
866.269	5227
866.4	5204
866.531	5212
866.662	5223
866.793	5261
866.924	5258
867.055	5360
867.186	5372
867.317	5330
867.448	5326
867.579	5349
867.71	5349
867.841	5387
867.972	5433
868.103	5421
868.233	5501
868.364	5539
868.495	5535
868.625	5623
868.756	5783
868.886	5684
869.017	5710
869.147	5851
869.278	5897
869.408	5733
869.539	5771
869.669	5901
869.799	5893
869.929	5958
870.06	5984
870.19	6167
870.32	6129
870.45	6270
870.58	6331
870.71	6445
870.84	6445
870.97	6429
871.1	6414
871.23	6639
871.36	6669
871.489	6627
871.619	6726
871.749	6802
871.879	6897
872.008	6962
872.138	6966
872.267	7012
872.397	7065
872.526	7019
872.656	7084
872.785	7179
872.915	7346
873.044	7495
873.173	7556
873.303	7643
873.432	7727
873.561	7830
873.69	7959
873.819	7970
873.948	8168
874.077	8282
874.206	8263
874.335	8396
874.464	8629
874.593	8800
874.722	8861
874.851	9085
874.979	9294
875.108	9386
875.237	9393
875.365	9515
875.494	9641
875.623	9819
875.751	9800
875.88	9876
876.008	10188
876.136	10242
876.265	10535
876.393	10649
876.521	10763
876.65	10755
876.778	10816
876.906	10885
877.034	10934
877.162	11102
877.29	11155
877.418	11201
877.546	11391
877.674	11516
877.802	11425
877.93	11516
878.058	11570
878.185	11547
878.313	11653
878.441	11764
878.568	11733
878.696	11764
878.824	11824
878.951	11843
879.079	11923
879.206	12175
879.333	12045
879.461	11931
879.588	12076
879.715	12087
879.842	12243
879.97	12079
880.097	11843
880.224	11824
880.351	11866
880.478	11851
880.605	11878
880.732	11752
880.859	11999
880.986	11836
881.112	11859
881.239	11733
881.366	11676
881.493	11592
881.619	11440
881.746	11570
881.872	11482
881.999	11505
882.125	11505
882.252	11558
882.378	11493
882.505	11520
882.631	11379
882.757	11322
882.883	11269
883.01	11197
883.136	11166
883.262	11079
883.388	11079
883.514	11170
883.64	11151
883.766	11090
883.892	10934
884.018	10991
884.143	11083
884.269	11109
884.395	10869
884.52	10759
884.646	10759
884.772	10740
884.897	10641
885.023	10714
885.148	10683
885.274	10790
885.399	10668
885.524	10618
885.65	10592
885.775	10558
885.9	10558
886.025	10634
886.15	10447
886.275	10367
886.4	10428
886.525	10413
886.65	10382
886.775	10299
886.9	10527
887.025	10485
887.149	10314
887.274	10276
887.399	10192
887.523	10101
887.648	10124
887.773	10120
887.897	10257
888.021	10230
888.146	10120
888.27	10261
888.395	10181
888.519	10219
888.643	10143
888.767	10207
888.891	10086
889.015	10013
889.139	10082
889.263	10013
889.387	10120
889.511	10128
889.635	10055
889.759	9937
889.883	9979
890.006	10036
890.13	10059
890.254	10017
890.377	9968
890.501	9812
890.624	9869
890.748	9865
890.871	9884
890.995	9679
891.118	9667
891.241	9743
891.364	9724
891.488	9762
891.611	9682
891.734	9774
891.857	9778
891.98	9705
892.103	9812
892.226	9751
892.349	9675
892.471	9507
892.594	9614
892.717	9561
892.839	9553
892.962	9553
893.085	9648
893.207	9492
893.33	9462
893.452	9564
893.575	9496
893.697	9500
893.819	9587
893.941	9679
894.064	9641
894.186	9408
894.308	9466
894.43	9477
894.552	9538
894.674	9500
894.796	9424
894.918	9443
895.04	9287
895.161	9450
895.283	9344
895.405	9195
895.526	9173
895.648	9233
895.769	9180
895.891	9283
896.012	9313
896.134	9241
896.255	9245
896.376	9085
896.498	9184
896.619	9085
896.74	9051
896.861	9032
896.982	9188
897.103	9283
897.224	9230
897.345	9081
897.466	9047
897.587	8956
897.708	9070
897.828	9020
897.949	8933
898.07	8883
898.19	8967
898.311	9009
898.431	8948
898.552	8857
898.672	8971
898.792	8990
898.913	8937
899.033	8804
899.153	8766
899.273	8689
899.393	8724
899.513	8819
899.633	8720
899.753	8716
899.873	8716
899.993	8746
900.113	8651
900.232	8724
900.352	8617
900.472	8613
900.591	8541
900.711	8693
900.83	8556
900.95	8667
901.069	8689
901.189	8621
901.308	8351
901.427	8351
901.546	8469
901.665	8454
901.784	8408
901.904	8450
902.023	8301
902.141	8199
902.26	8221
902.379	8256
902.498	8244
902.617	8214
902.735	8248
902.854	8286
902.973	8301
903.091	8084
903.21	8195
903.328	8126
903.446	8134
903.565	8084
903.683	8088
903.801	8043
903.919	8134
904.038	8180
904.156	8065
904.274	8077
904.392	8005
904.51	8077
904.627	8073
904.745	8027
904.863	8058
904.981	7913
905.098	7837
905.216	7868
905.334	7879
905.451	7887
905.569	7845
905.686	7917
905.803	7887
905.921	7792
906.038	7925
906.155	7784
906.272	7776
906.389	7723
906.506	7666
906.623	7586
906.74	7609
906.857	7552
906.974	7487
907.091	7651
907.208	7666
907.324	7613
907.441	7540
907.557	7457
907.674	7354
907.79	7362
907.907	7392
908.023	7453
908.139	7396
908.256	7316
908.372	7426
908.488	7331
908.604	7293
908.72	7255
908.836	7236
908.952	7255
909.068	7251
909.184	7312
909.3	7251
909.415	7308
909.531	7339
909.647	7061
909.762	7175
909.878	7072
909.993	7084
910.108	7065
910.224	7084
910.339	7019
910.454	7038
910.57	6985
910.685	6920
910.8	7122
910.915	7069
911.03	7027
911.145	6840
911.259	6840
911.374	6871
911.489	6848
911.604	6806
911.718	6726
911.833	6741
911.947	6681
912.062	6627
912.176	6719
912.291	6673
912.405	6658
912.519	6833
912.633	6802
912.748	6741
912.862	6692
912.976	6601
913.09	6540
913.204	6570
913.318	6639
913.431	6707
913.545	6662
913.659	6696
913.772	6688
913.886	6608
914	6502
914.113	6616
914.226	6631
914.34	6623
914.453	6498
914.566	6620
914.68	6467
914.793	6532
914.906	6445
915.019	6380
915.132	6350
915.245	6399
915.358	6448
915.47	6426
915.583	6418
915.696	6513
915.809	6559
915.921	6525
916.034	6448
916.146	6380
916.259	6380
916.371	6433
916.483	6471
916.595	6369
916.708	6426
916.82	6391
916.932	6407
917.044	6464
917.156	6365
917.268	6327
917.38	6266
917.491	6296
917.603	6296
917.715	6376
917.826	6426
917.938	6369
918.049	6224
918.161	6258
918.272	6357
918.384	6441
918.495	6331
918.606	6228
918.717	6178
918.828	6220
918.939	6311
919.05	6228
919.161	6273
919.272	6140
919.383	6110
919.494	6296
919.604	6391
919.715	6251
919.826	6285
919.936	6197
920.047	6251
920.157	6285
920.267	6490
920.378	6331
920.488	6251
920.598	6441
920.708	6502
920.818	6418
920.928	6418
921.038	6559
921.148	6536
921.258	6414
921.368	6319
921.477	6216
921.587	6136
921.697	6087
921.806	6232
921.916	6022
922.025	5897
922.134	5946
922.244	5885
922.353	5897
922.462	5805
922.571	5741
922.68	5691
922.789	5672
922.898	5691
923.007	5642
923.116	5668
923.224	5646
923.333	5634
923.442	5604
923.55	5566
923.659	5562
923.767	5554
923.876	5520
923.984	5577
924.092	5532
924.201	5539
924.309	5577
924.417	5524
924.525	5448
924.633	5486
924.741	6308
924.849	5341
924.956	5482
925.064	5429
925.172	5292
925.279	5280
925.387	5326
925.494	5303
925.602	5414
925.709	5383
925.816	5284
925.924	5292
926.031	5345
926.138	5280
926.245	5326
926.352	5250
926.459	5284
926.566	5368
926.673	5227
926.779	5102
926.886	5124
926.993	5052
927.099	5003
927.206	4968
927.312	4995
927.419	4999
927.525	4953
927.631	5018
927.737	4885
927.843	4847
927.95	4740
928.056	4782
928.162	4839
928.267	4873
928.373	5292
928.479	4885
928.585	4672
928.69	4805
928.796	4767
928.901	4675
929.007	4584
929.112	4637
929.218	4626
929.323	4637
929.428	4584
929.533	4672
929.638	4497
929.743	4500
929.848	4535
929.953	4504
930.058	4413
930.163	4299
930.267	4363
930.372	4405
930.477	4280
930.581	4421
930.685	4348
930.79	4284
930.894	4314
930.998	4249
931.103	4348
931.207	4090
931.311	4105
931.415	4071
931.519	3911
931.623	3930
