Data from glass_V78500241_1325.txt Node
Date: Wed Sep 01 19:23:41 CST 2021
User: usil
Spectrometer: V785-0024
Trigger mode: 0
Integration Time (sec): 4.000000E-1
Scans to average: 1
Nonlinearity correction enabled: false
Boxcar width: 0
Storing dark spectrum: false
XAxis mode: Wavelengths
Number of Pixels in Spectrum: 1024
>>>>>Begin Spectral Data<<<<<
801.071	3774
801.214	3774
801.356	3724
801.499	3740
801.641	3736
801.783	3778
801.926	3880
802.068	3823
802.211	3865
802.353	3930
802.496	3850
802.638	3934
802.78	3975
802.923	3911
803.065	3880
803.208	3869
803.35	3835
803.492	3926
803.635	3937
803.777	3816
803.919	3934
804.061	4185
804.204	3937
804.346	3983
804.488	3896
804.63	4063
804.773	4006
804.915	3998
805.057	4120
805.199	4055
805.341	4078
805.483	4105
805.626	4166
805.768	4116
805.91	4223
806.052	4234
806.194	4162
806.336	4356
806.478	4185
806.62	4188
806.762	4181
806.904	4291
807.046	4322
807.188	4249
807.33	4177
807.472	4284
807.614	4166
807.756	4223
807.898	4242
808.04	4185
808.182	4303
808.324	4299
808.465	4394
808.607	4443
808.749	4447
808.891	4478
809.033	4504
809.174	4394
809.316	4276
809.458	4261
809.6	4181
809.741	4162
809.883	4090
810.025	4234
810.166	4253
810.308	4188
810.45	4177
810.591	4227
810.733	4276
810.875	4474
811.016	4828
811.158	5109
811.299	5277
811.441	5284
811.582	5098
811.724	4698
811.865	4489
812.007	4527
812.148	4436
812.29	4383
812.431	4398
812.573	4405
812.714	4383
812.855	4386
812.997	4363
813.138	4497
813.279	4413
813.421	4348
813.562	4379
813.703	4367
813.845	4322
813.986	4272
814.127	4253
814.268	4276
814.41	4318
814.551	4246
814.692	4325
814.833	4284
814.974	4375
815.115	4375
815.256	4272
815.397	4246
815.539	4287
815.68	4169
815.821	4238
815.962	4268
816.103	4276
816.244	4280
816.385	4280
816.526	4261
816.666	4177
816.807	4109
816.948	4196
817.089	4196
817.23	4071
817.371	4071
817.512	4086
817.653	4067
817.793	4040
817.934	4071
818.075	4109
818.216	4059
818.356	4055
818.497	4006
818.638	3918
818.778	3903
818.919	3880
819.06	3857
819.2	3941
819.341	3907
819.481	3835
819.622	3937
819.762	4051
819.903	3956
820.043	3903
820.184	3819
820.324	3819
820.465	3937
820.605	3907
820.746	3857
820.886	3797
821.026	3911
821.167	3907
821.307	3991
821.447	4021
821.588	3953
821.728	3972
821.868	3930
822.008	3880
822.149	3922
822.289	3896
822.429	3751
822.569	3778
822.709	3846
822.849	3713
822.99	3686
823.13	3728
823.27	3808
823.41	3705
823.55	3728
823.69	3732
823.83	3762
823.97	3720
824.11	3587
824.25	3587
824.389	3641
824.529	3675
824.669	3648
824.809	3705
824.949	3728
825.089	3740
825.228	3682
825.368	3606
825.508	3576
825.648	3561
825.787	3572
825.927	3671
826.067	3656
826.206	3671
826.346	3797
826.485	3819
826.625	3888
826.765	3956
826.904	3797
827.044	3610
827.183	3580
827.323	3431
827.462	3469
827.601	3416
827.741	3435
827.88	3481
828.02	3340
828.159	3466
828.298	3477
828.437	3530
828.577	3466
828.716	3644
828.855	3488
828.994	3416
829.134	3386
829.273	3412
829.412	3340
829.551	3332
829.69	3386
829.829	3409
829.968	3545
830.107	3458
830.246	3431
830.385	3382
830.524	3389
830.663	3302
830.802	3279
830.941	3207
831.08	3192
831.219	3264
831.357	3264
831.496	3412
831.635	3207
831.774	3207
831.913	3207
832.051	3119
832.19	3169
832.329	3245
832.467	3112
832.606	3100
832.744	3180
832.883	3195
833.022	3207
833.16	3226
833.299	3298
833.437	3374
833.576	3393
833.714	3397
833.852	3420
833.991	3504
834.129	3420
834.267	3492
834.406	3389
834.544	3420
834.682	3492
834.821	3401
834.959	3568
835.097	3431
835.235	3507
835.373	3492
835.511	3561
835.65	3473
835.788	3488
835.926	3409
836.064	3412
836.202	3447
836.34	3576
836.478	3625
836.615	3584
836.753	3610
836.891	3663
837.029	3652
837.167	3568
837.305	3530
837.443	3561
837.58	3523
837.718	3614
837.856	3542
837.993	3557
838.131	3618
838.269	3580
838.406	3572
838.544	3557
838.681	3511
838.819	3431
838.956	3382
839.094	3393
839.231	3454
839.369	3526
839.506	3724
839.643	3614
839.781	3485
839.918	3469
840.055	3511
840.193	3523
840.33	3454
840.467	3549
840.604	3564
840.742	3797
840.879	3584
841.016	3553
841.153	3625
841.29	3724
841.427	3701
841.564	3705
841.701	3709
841.838	3660
841.975	3690
842.112	3759
842.249	3671
842.385	3652
842.522	3819
842.659	3694
842.796	3633
842.933	3732
843.069	3740
843.206	3705
843.343	3797
843.479	3797
843.616	3831
843.752	3656
843.889	3701
844.025	3869
844.162	3740
844.298	3861
844.435	3808
844.571	3819
844.708	3922
844.844	3991
844.98	4029
845.117	4055
845.253	3960
845.389	3911
845.525	3975
845.661	3968
845.798	3960
845.934	3991
846.07	3930
846.206	4078
846.342	4124
846.478	4006
846.614	3975
846.75	3964
846.886	3911
847.022	4021
847.158	3991
847.294	4010
847.429	4017
847.565	3991
847.701	4303
847.837	3880
847.972	3892
848.108	3956
848.244	3979
848.379	3850
848.515	3819
848.65	3823
848.786	3850
848.921	3842
849.057	3903
849.192	3911
849.328	3911
849.463	3945
849.598	3827
849.734	3842
849.869	3838
850.004	3804
850.14	3831
850.275	3762
850.41	3747
850.545	3804
850.68	3781
850.815	3804
850.95	3857
851.085	3953
851.22	3876
851.355	3850
851.49	3816
851.625	3812
851.76	3816
851.895	3762
852.03	3740
852.165	3823
852.299	3842
852.434	3873
852.569	3880
852.703	3930
852.838	3915
852.973	4010
853.107	3964
853.242	3861
853.376	3823
853.511	3781
853.645	3823
853.78	3956
853.914	3888
854.048	3884
854.183	3918
854.317	3960
854.451	4025
854.585	3972
854.72	3964
854.854	4105
854.988	3896
855.122	3941
855.256	3857
855.39	4055
855.524	4109
855.658	4105
855.792	4120
855.926	4139
856.06	4211
856.194	4204
856.327	4147
856.461	4078
856.595	4169
856.729	4227
856.862	4280
856.996	4242
857.13	4310
857.263	4344
857.397	4371
857.53	4265
857.664	4348
857.797	4398
857.931	4405
858.064	4402
858.197	4443
858.331	4398
858.464	4402
858.597	4352
858.731	4436
858.864	4443
858.997	4508
859.13	4504
859.263	4523
859.396	4599
859.529	4497
859.662	4516
859.795	4508
859.928	4584
860.061	4729
860.194	4721
860.327	4725
860.46	4649
860.592	4698
860.725	4767
860.858	4801
860.99	4736
861.123	4691
861.256	4679
861.388	4797
861.521	5516
861.653	4797
861.786	4675
861.918	4729
862.05	4854
862.183	4809
862.315	4889
862.447	4877
862.58	4858
862.712	4843
862.844	4767
862.976	4854
863.108	4900
863.24	5197
863.372	4877
863.504	4930
863.636	4877
863.768	4961
863.9	4991
864.032	4915
864.164	4995
864.296	5010
864.428	5079
864.559	5143
864.691	5132
864.823	5136
864.954	5109
865.086	5121
865.217	5162
865.349	5090
865.48	5128
865.612	5223
865.743	5322
865.875	5181
866.006	5174
866.137	5239
866.269	5227
866.4	5246
866.531	5258
866.662	5265
866.793	5239
866.924	5277
867.055	5318
867.186	5303
867.317	5376
867.448	5326
867.579	5353
867.71	5364
867.841	5410
867.972	5532
868.103	5482
868.233	5482
868.364	5551
868.495	5547
868.625	5676
868.756	5809
868.886	5649
869.017	5722
869.147	5824
869.278	5847
869.408	5805
869.539	5844
869.669	5916
869.799	5912
869.929	5988
870.06	6057
870.19	6205
870.32	6220
870.45	6266
870.58	6319
870.71	6372
870.84	6471
870.97	6448
871.1	6433
871.23	6639
871.36	6730
871.489	6627
871.619	6741
871.749	6848
871.879	6878
872.008	7015
872.138	6916
872.267	6973
872.397	7008
872.526	7046
872.656	7103
872.785	7259
872.915	7438
873.044	7529
873.173	7605
873.303	7666
873.432	7761
873.561	7868
873.69	7906
873.819	8046
873.948	8164
874.077	8206
874.206	8301
874.335	8518
874.464	8670
874.593	8800
874.722	8956
874.851	9138
874.979	9321
875.108	9310
875.237	9439
875.365	9473
875.494	9709
875.623	9827
875.751	9838
875.88	9987
876.008	10169
876.136	10276
876.265	10527
876.393	10645
876.521	10740
876.65	10892
876.778	10881
876.906	10850
877.034	10968
877.162	11102
877.29	11140
877.418	11284
877.546	11280
877.674	11452
877.802	11532
877.93	11505
878.058	11577
878.185	11600
878.313	11630
878.441	11771
878.568	11627
878.696	11817
878.824	11870
878.951	11893
879.079	12030
879.206	12190
879.333	12019
879.461	11969
879.588	12117
879.715	12114
879.842	12254
879.97	12106
880.097	11988
880.224	11927
880.351	11783
880.478	11935
880.605	11798
880.732	11874
880.859	11954
880.986	11832
881.112	11847
881.239	11729
881.366	11703
881.493	11547
881.619	11562
881.746	11581
881.872	11592
881.999	11421
882.125	11528
882.252	11562
882.378	11524
882.505	11585
882.631	11421
882.757	11322
882.883	11280
883.01	11288
883.136	11113
883.262	11128
883.388	11090
883.514	11181
883.64	11235
883.766	11113
883.892	10980
884.018	11029
884.143	11109
884.269	11071
884.395	10908
884.52	10816
884.646	10710
884.772	10763
884.897	10733
885.023	10729
885.148	10641
885.274	10752
885.399	10691
885.524	10618
885.65	10641
885.775	10618
885.9	10558
886.025	10622
886.15	10588
886.275	10428
886.4	10394
886.525	10398
886.65	10409
886.775	10310
886.9	10489
887.025	10535
887.149	10329
887.274	10276
887.399	10196
887.523	10166
887.648	10120
887.773	10147
887.897	10265
888.021	10280
888.146	10135
888.27	10246
888.395	10147
888.519	10139
888.643	10185
888.767	10135
888.891	10078
889.015	10071
889.139	10017
889.263	9983
889.387	10090
889.511	10185
889.635	9998
889.759	9949
889.883	9991
890.006	10071
890.13	10082
890.254	9884
890.377	9964
890.501	9873
890.624	9823
890.748	9926
890.871	9915
890.995	9686
891.118	9690
891.241	9781
891.364	9736
891.488	9918
891.611	9660
891.734	9781
891.857	9766
891.98	9743
892.103	9724
892.226	9690
892.349	9720
892.471	9507
892.594	9576
892.717	9587
892.839	9545
892.962	9603
893.085	9728
893.207	9576
893.33	9526
893.452	9603
893.575	9618
893.697	9549
893.819	9614
893.941	9633
894.064	9618
894.186	9462
894.308	9389
894.43	9591
894.552	9587
894.674	9526
894.796	9302
894.918	9412
895.04	9275
895.161	9336
895.283	9325
895.405	9256
895.526	9272
895.648	9207
895.769	9207
895.891	9230
896.012	9253
896.134	9230
896.255	9249
896.376	9131
896.498	9150
896.619	9150
896.74	9116
896.861	9093
896.982	9272
897.103	9389
897.224	9214
897.345	9112
897.466	9024
897.587	9062
897.708	9108
897.828	9089
897.949	9001
898.07	8914
898.19	8929
898.311	9028
898.431	8971
898.552	8941
898.672	9062
898.792	8956
898.913	8849
899.033	8826
899.153	8746
899.273	8727
899.393	8716
899.513	8815
899.633	8739
899.753	8785
899.873	8693
899.993	8731
900.113	8640
900.232	8727
900.352	8632
900.472	8636
900.591	8587
900.711	8606
900.83	8514
900.95	8655
901.069	8644
901.189	8522
901.308	8431
901.427	8355
901.546	8415
901.665	8461
901.784	8415
901.904	8358
902.023	8370
902.141	8286
902.26	8202
902.379	8320
902.498	8202
902.617	8164
902.735	8320
902.854	8271
902.973	8252
903.091	8039
903.21	8100
903.328	8180
903.446	8157
903.565	8103
903.683	8145
903.801	8001
903.919	8111
904.038	8187
904.156	8088
904.274	8073
904.392	8035
904.51	8073
904.627	8092
904.745	8084
904.863	8111
904.981	7959
905.098	7871
905.216	7883
905.334	7925
905.451	7860
905.569	7909
905.686	7909
905.803	7913
905.921	7837
906.038	7921
906.155	7807
906.272	7780
906.389	7719
906.506	7636
906.623	7590
906.74	7647
906.857	7510
906.974	7556
907.091	7765
907.208	7795
907.324	7651
907.441	7613
907.557	7483
907.674	7457
907.79	7472
907.907	7373
908.023	7449
908.139	7422
908.256	7350
908.372	7419
908.488	7373
908.604	7285
908.72	7282
908.836	7251
908.952	7225
909.068	7247
909.184	7308
909.3	7312
909.415	7251
909.531	7324
909.647	7114
909.762	7080
909.878	7099
909.993	7137
910.108	7114
910.224	7080
910.339	7038
910.454	7057
910.57	7012
910.685	6966
910.8	7179
910.915	7133
911.03	6985
911.145	6973
911.259	6897
911.374	6890
911.489	6818
911.604	6783
911.718	6658
911.833	6757
911.947	6677
912.062	6593
912.176	6703
912.291	6719
912.405	6662
912.519	6806
912.633	6783
912.748	6726
912.862	6715
912.976	6597
913.09	6544
913.204	6585
913.318	6612
913.431	6677
913.545	6722
913.659	6696
913.772	6722
913.886	6566
914	6585
914.113	6642
914.226	6707
914.34	6627
914.453	6528
914.566	6597
914.68	6540
914.793	6490
914.906	6445
915.019	6380
915.132	6346
915.245	6426
915.358	6448
915.47	6418
915.583	6426
915.696	6483
915.809	6547
915.921	6593
916.034	6448
916.146	6391
916.259	6380
916.371	6456
916.483	6448
916.595	6407
916.708	6433
916.82	6422
916.932	6407
917.044	6399
917.156	6426
917.268	6270
917.38	6353
917.491	6315
917.603	6353
917.715	6399
917.826	6384
917.938	6323
918.049	6224
918.161	6285
918.272	6452
918.384	6414
918.495	6338
918.606	6296
918.717	6281
918.828	6258
918.939	6270
919.05	6220
919.161	6232
919.272	6163
919.383	6194
919.494	6289
919.604	6369
919.715	6308
919.826	6239
919.936	6232
920.047	6327
920.157	6224
920.267	6452
920.378	6292
920.488	6243
920.598	6456
920.708	6627
920.818	6498
920.928	6517
921.038	6574
921.148	6620
921.258	6357
921.368	6327
921.477	6201
921.587	6186
921.697	6110
921.806	6159
921.916	6079
922.025	5973
922.134	5920
922.244	5885
922.353	5935
922.462	5878
922.571	5813
922.68	5722
922.789	5680
922.898	5714
923.007	5676
923.116	5714
923.224	5695
923.333	5672
923.442	5619
923.55	5592
923.659	5619
923.767	5630
923.876	5524
923.984	5634
924.092	5505
924.201	5551
924.309	5558
924.417	5585
924.525	5474
924.633	5516
924.741	6300
924.849	5391
924.956	5467
925.064	5383
925.172	5299
925.279	5292
925.387	5353
925.494	5376
925.602	5478
925.709	5387
925.816	5273
925.924	5326
926.031	5376
926.138	5330
926.245	5311
926.352	5250
926.459	5311
926.566	5303
926.673	5151
926.779	5147
926.886	5143
926.993	5033
927.099	5033
927.206	4984
927.312	4946
927.419	4987
927.525	4976
927.631	4942
927.737	4850
927.843	4828
927.95	4771
928.056	4793
928.162	4809
928.267	4831
928.373	5433
928.479	4877
928.585	4691
928.69	4740
928.796	4793
928.901	4744
929.007	4626
929.112	4630
929.218	4615
929.323	4637
929.428	4519
929.533	4634
929.638	4550
929.743	4516
929.848	4573
929.953	4523
930.058	4432
930.163	4348
930.267	4337
930.372	4436
930.477	4322
930.581	4421
930.685	4363
930.79	4295
930.894	4299
930.998	4287
931.103	4375
931.207	4120
931.311	4074
931.415	4055
931.519	3953
931.623	3918
