Data from glass_V78500241_455.txt Node
Date: Wed Sep 01 19:17:39 CST 2021
User: usil
Spectrometer: V785-0024
Trigger mode: 0
Integration Time (sec): 4.000000E-1
Scans to average: 1
Nonlinearity correction enabled: false
Boxcar width: 0
Storing dark spectrum: false
XAxis mode: Wavelengths
Number of Pixels in Spectrum: 1024
>>>>>Begin Spectral Data<<<<<
801.071	3770
801.214	3759
801.356	3732
801.499	3774
801.641	3724
801.783	3766
801.926	3854
802.068	3846
802.211	3876
802.353	3899
802.496	3850
802.638	3899
802.78	3934
802.923	3949
803.065	3876
803.208	3854
803.35	3861
803.492	3899
803.635	3987
803.777	3766
803.919	3907
804.061	4227
804.204	3968
804.346	3998
804.488	3903
804.63	4025
804.773	3972
804.915	4051
805.057	4131
805.199	4017
805.341	4090
805.483	4112
805.626	4139
805.768	4158
805.91	4204
806.052	4238
806.194	4177
806.336	4352
806.478	4219
806.62	4181
806.762	4249
806.904	4303
807.046	4379
807.188	4253
807.33	4230
807.472	4238
807.614	4230
807.756	4299
807.898	4276
808.04	4223
808.182	4265
808.324	4344
808.465	4360
808.607	4459
808.749	4424
808.891	4421
809.033	4535
809.174	4417
809.316	4276
809.458	4227
809.6	4185
809.741	4192
809.883	4185
810.025	4211
810.166	4227
810.308	4249
810.45	4280
810.591	4223
810.733	4280
810.875	4516
811.016	4786
811.158	5166
811.299	5269
811.441	5280
811.582	5045
811.724	4683
811.865	4459
812.007	4481
812.148	4470
812.29	4466
812.431	4436
812.573	4413
812.714	4341
812.855	4478
812.997	4455
813.138	4508
813.279	4424
813.421	4386
813.562	4424
813.703	4352
813.845	4333
813.986	4219
814.127	4227
814.268	4284
814.41	4299
814.551	4268
814.692	4352
814.833	4287
814.974	4344
815.115	4325
815.256	4303
815.397	4234
815.539	4268
815.68	4177
815.821	4242
815.962	4318
816.103	4303
816.244	4299
816.385	4280
816.526	4280
816.666	4234
816.807	4082
816.948	4185
817.089	4173
817.23	4177
817.371	4071
817.512	4086
817.653	4071
817.793	4082
817.934	4093
818.075	4093
818.216	4078
818.356	4112
818.497	3991
818.638	3941
818.778	3907
818.919	3915
819.06	3888
819.2	3918
819.341	3926
819.481	3846
819.622	3922
819.762	4044
819.903	3968
820.043	3873
820.184	3850
820.324	3819
820.465	3823
820.605	3865
820.746	3896
820.886	3831
821.026	3960
821.167	3896
821.307	3945
821.447	3994
821.588	3960
821.728	3972
821.868	3968
822.008	3880
822.149	3922
822.289	3991
822.429	3808
822.569	3812
822.709	3831
822.849	3660
822.99	3736
823.13	3759
823.27	3842
823.41	3743
823.55	3736
823.69	3747
823.83	3747
823.97	3713
824.11	3694
824.25	3618
824.389	3679
824.529	3660
824.669	3625
824.809	3679
824.949	3751
825.089	3762
825.228	3690
825.368	3606
825.508	3591
825.648	3629
825.787	3591
825.927	3599
826.067	3622
826.206	3709
826.346	3831
826.485	3865
826.625	3899
826.765	3934
826.904	3819
827.044	3641
827.183	3515
827.323	3500
827.462	3523
827.601	3458
827.741	3435
827.88	3443
828.02	3382
828.159	3447
828.298	3466
828.437	3526
828.577	3519
828.716	3633
828.855	3488
828.994	3405
829.134	3348
829.273	3409
829.412	3325
829.551	3325
829.69	3405
829.829	3447
829.968	3530
830.107	3458
830.246	3458
830.385	3412
830.524	3363
830.663	3355
830.802	3279
830.941	3203
831.08	3180
831.219	3294
831.357	3283
831.496	3420
831.635	3279
831.774	3241
831.913	3226
832.051	3161
832.19	3161
832.329	3241
832.467	3154
832.606	3112
832.744	3173
832.883	3184
833.022	3222
833.16	3287
833.299	3336
833.437	3363
833.576	3405
833.714	3416
833.852	3424
833.991	3466
834.129	3420
834.267	3469
834.406	3435
834.544	3401
834.682	3435
834.821	3412
834.959	3576
835.097	3397
835.235	3530
835.373	3485
835.511	3496
835.65	3469
835.788	3500
835.926	3397
836.064	3416
836.202	3382
836.34	3610
836.478	3591
836.615	3530
836.753	3622
836.891	3625
837.029	3603
837.167	3637
837.305	3587
837.443	3519
837.58	3526
837.718	3595
837.856	3568
837.993	3526
838.131	3599
838.269	3606
838.406	3618
838.544	3599
838.681	3458
838.819	3454
838.956	3370
839.094	3397
839.231	3515
839.369	3564
839.506	3755
839.643	3682
839.781	3500
839.918	3466
840.055	3542
840.193	3542
840.33	3538
840.467	3595
840.604	3606
840.742	3869
840.879	3523
841.016	3572
841.153	3591
841.29	3759
841.427	3698
841.564	3728
841.701	3724
841.838	3736
841.975	3663
842.112	3713
842.249	3671
842.385	3644
842.522	3819
842.659	3743
842.796	3690
842.933	3720
843.069	3705
843.206	3717
843.343	3827
843.479	3781
843.616	3819
843.752	3690
843.889	3698
844.025	3884
844.162	3686
844.298	3873
844.435	3850
844.571	3766
844.708	3915
844.844	4013
844.98	4029
845.117	4025
845.253	3964
845.389	3896
845.525	3979
845.661	3956
845.798	3930
845.934	4044
846.07	3964
846.206	4067
846.342	4150
846.478	4128
846.614	3968
846.75	4006
846.886	3922
847.022	4071
847.158	3968
847.294	4017
847.429	4025
847.565	3994
847.701	4238
847.837	3899
847.972	3873
848.108	4036
848.244	3987
848.379	3846
848.515	3838
848.65	3842
848.786	3865
848.921	3888
849.057	3930
849.192	3937
849.328	3949
849.463	3922
849.598	3896
849.734	3945
849.869	3869
850.004	3800
850.14	3873
850.275	3808
850.41	3766
850.545	3770
850.68	3781
850.815	3812
850.95	3789
851.085	3994
851.22	3854
851.355	3835
851.49	3797
851.625	3770
851.76	3831
851.895	3751
852.03	3740
852.165	3831
852.299	3873
852.434	3934
852.569	3888
852.703	3915
852.838	3941
852.973	4002
853.107	3964
853.242	3903
853.376	3899
853.511	3770
853.645	3819
853.78	3937
853.914	3918
854.048	3922
854.183	3934
854.317	3975
854.451	4067
854.585	3960
854.72	3949
854.854	4097
854.988	3922
855.122	4013
855.256	3937
855.39	4051
855.524	4112
855.658	4105
855.792	4173
855.926	4162
856.06	4192
856.194	4211
856.327	4166
856.461	4120
856.595	4200
856.729	4215
856.862	4265
856.996	4284
857.13	4306
857.263	4356
857.397	4367
857.53	4287
857.664	4348
857.797	4383
857.931	4409
858.064	4424
858.197	4516
858.331	4405
858.464	4375
858.597	4386
858.731	4432
858.864	4455
858.997	4455
859.13	4538
859.263	4561
859.396	4615
859.529	4550
859.662	4500
859.795	4546
859.928	4622
860.061	4694
860.194	4767
860.327	4679
860.46	4706
860.592	4771
860.725	4793
860.858	4748
860.99	4691
861.123	4710
861.256	4679
861.388	4759
861.521	5402
861.653	4740
861.786	4702
861.918	4717
862.05	4831
862.183	4854
862.315	4850
862.447	4946
862.58	4957
862.712	4828
862.844	4797
862.976	4915
863.108	4904
863.24	5166
863.372	4870
863.504	4892
863.636	4896
863.768	4968
863.9	4987
864.032	4923
864.164	4946
864.296	4980
864.428	5064
864.559	5132
864.691	5113
864.823	5181
864.954	5124
865.086	5159
865.217	5147
865.349	5117
865.48	5136
865.612	5197
865.743	5280
865.875	5254
866.006	5223
866.137	5269
866.269	5231
866.4	5250
866.531	5261
866.662	5242
866.793	5284
866.924	5273
867.055	5334
867.186	5326
867.317	5334
867.448	5326
867.579	5376
867.71	5395
867.841	5334
867.972	5482
868.103	5474
868.233	5497
868.364	5558
868.495	5501
868.625	5688
868.756	5840
868.886	5657
869.017	5764
869.147	5893
869.278	5920
869.408	5832
869.539	5885
869.669	5946
869.799	5958
869.929	6022
870.06	6041
870.19	6235
870.32	6220
870.45	6327
870.58	6372
870.71	6441
870.84	6532
870.97	6452
871.1	6475
871.23	6650
871.36	6681
871.489	6696
871.619	6783
871.749	6837
871.879	6859
872.008	7008
872.138	6970
872.267	7000
872.397	7019
872.526	7080
872.656	7099
872.785	7206
872.915	7362
873.044	7518
873.173	7601
873.303	7693
873.432	7788
873.561	7925
873.69	7947
873.819	7993
873.948	8172
874.077	8290
874.206	8286
874.335	8476
874.464	8693
874.593	8861
874.722	8944
874.851	9100
874.979	9195
875.108	9412
875.237	9294
875.365	9488
875.494	9641
875.623	9842
875.751	9800
875.88	10048
876.008	10215
876.136	10341
876.265	10531
876.393	10687
876.521	10691
876.65	10847
876.778	10892
876.906	10904
877.034	10889
877.162	11037
877.29	11197
877.418	11299
877.546	11326
877.674	11459
877.802	11391
877.93	11509
878.058	11528
878.185	11596
878.313	11745
878.441	11745
878.568	11680
878.696	11802
878.824	11897
878.951	11901
879.079	12026
879.206	12076
879.333	12022
879.461	12007
879.588	12121
879.715	12167
879.842	12262
879.97	12098
880.097	11897
880.224	11969
880.351	11817
880.478	11859
880.605	11802
880.732	11851
880.859	11961
880.986	11832
881.112	11882
881.239	11745
881.366	11627
881.493	11665
881.619	11535
881.746	11554
881.872	11630
881.999	11467
882.125	11444
882.252	11630
882.378	11535
882.505	11543
882.631	11337
882.757	11269
882.883	11273
883.01	11239
883.136	11239
883.262	11174
883.388	11121
883.514	11159
883.64	11147
883.766	11201
883.892	11003
884.018	11006
884.143	11064
884.269	11075
884.395	10820
884.52	10790
884.646	10729
884.772	10755
884.897	10637
885.023	10653
885.148	10714
885.274	10782
885.399	10672
885.524	10592
885.65	10660
885.775	10592
885.9	10561
886.025	10592
886.15	10603
886.275	10478
886.4	10409
886.525	10344
886.65	10413
886.775	10367
886.9	10516
887.025	10531
887.149	10413
887.274	10200
887.399	10287
887.523	10059
887.648	10166
887.773	10109
887.897	10147
888.021	10246
888.146	10120
888.27	10207
888.395	10185
888.519	10242
888.643	10196
888.767	10192
888.891	10013
889.015	10025
889.139	10040
889.263	9915
889.387	10071
889.511	10124
889.635	10090
889.759	9979
889.883	10013
890.006	10036
890.13	10211
890.254	9987
890.377	9972
890.501	9793
890.624	9953
890.748	9903
890.871	9869
890.995	9694
891.118	9736
891.241	9759
891.364	9698
891.488	9854
891.611	9694
891.734	9778
891.857	9827
891.98	9682
892.103	9770
892.226	9713
892.349	9606
892.471	9523
892.594	9561
892.717	9606
892.839	9618
892.962	9557
893.085	9648
893.207	9561
893.33	9504
893.452	9545
893.575	9622
893.697	9500
893.819	9633
893.941	9610
894.064	9637
894.186	9492
894.308	9435
894.43	9595
894.552	9530
894.674	9572
894.796	9332
894.918	9344
895.04	9359
895.161	9469
895.283	9374
895.405	9310
895.526	9355
895.648	9237
895.769	9294
895.891	9253
896.012	9275
896.134	9245
896.255	9154
896.376	9123
896.498	9169
896.619	9154
896.74	9100
896.861	9131
896.982	9253
897.103	9302
897.224	9135
897.345	9074
897.466	9005
897.587	9017
897.708	9066
897.828	9032
897.949	9028
898.07	8906
898.19	8952
898.311	8967
898.431	8891
898.552	8914
898.672	8929
898.792	9024
898.913	8941
899.033	8807
899.153	8754
899.273	8693
899.393	8758
899.513	8796
899.633	8804
899.753	8766
899.873	8667
899.993	8800
900.113	8724
900.232	8686
900.352	8648
900.472	8583
900.591	8590
900.711	8644
900.83	8488
900.95	8682
901.069	8724
901.189	8571
901.308	8465
901.427	8343
901.546	8415
901.665	8507
901.784	8476
901.904	8362
902.023	8339
902.141	8252
902.26	8195
902.379	8324
902.498	8161
902.617	8214
902.735	8328
902.854	8324
902.973	8244
903.091	8149
903.21	8187
903.328	8107
903.446	8084
903.565	8164
903.683	8119
903.801	8062
903.919	8115
904.038	8062
904.156	8054
904.274	8142
904.392	8077
904.51	7993
904.627	8046
904.745	8111
904.863	8183
904.981	7871
905.098	7890
905.216	7906
905.334	7940
905.451	7887
905.569	7894
905.686	7925
905.803	7894
905.921	7776
906.038	7913
906.155	7811
906.272	7769
906.389	7750
906.506	7643
906.623	7636
906.74	7677
906.857	7563
906.974	7544
907.091	7658
907.208	7685
907.324	7685
907.441	7594
907.557	7502
907.674	7388
907.79	7438
907.907	7434
908.023	7426
908.139	7472
908.256	7346
908.372	7422
908.488	7384
908.604	7282
908.72	7236
908.836	7301
908.952	7327
909.068	7263
909.184	7324
909.3	7202
909.415	7274
909.531	7308
909.647	7065
909.762	7183
909.878	7091
909.993	7152
910.108	7126
910.224	7053
910.339	7065
910.454	7012
910.57	7012
910.685	6977
910.8	7149
910.915	7027
911.03	7053
911.145	6913
911.259	6973
911.374	6947
911.489	6840
911.604	6821
911.718	6764
911.833	6776
911.947	6585
912.062	6627
912.176	6707
912.291	6779
912.405	6662
912.519	6806
912.633	6795
912.748	6738
912.862	6764
912.976	6608
913.09	6563
913.204	6601
913.318	6608
913.431	6612
913.545	6673
913.659	6654
913.772	6654
913.886	6608
914	6570
914.113	6681
914.226	6639
914.34	6570
914.453	6494
914.566	6635
914.68	6460
914.793	6582
914.906	6399
915.019	6395
915.132	6391
915.245	6437
915.358	6410
915.47	6456
915.583	6399
915.696	6509
915.809	6509
915.921	6547
916.034	6483
916.146	6414
916.259	6410
916.371	6452
916.483	6464
916.595	6388
916.708	6403
916.82	6426
916.932	6429
917.044	6422
917.156	6395
917.268	6353
917.38	6353
917.491	6304
917.603	6414
917.715	6407
917.826	6376
917.938	6319
918.049	6251
918.161	6273
918.272	6403
918.384	6475
918.495	6346
918.606	6304
918.717	6220
918.828	6327
918.939	6281
919.05	6300
919.161	6266
919.272	6091
919.383	6136
919.494	6342
919.604	6452
919.715	6281
919.826	6266
919.936	6281
920.047	6342
920.157	6289
920.267	6456
920.378	6353
920.488	6194
920.598	6441
920.708	6566
920.818	6509
920.928	6464
921.038	6566
921.148	6589
921.258	6380
921.368	6357
921.477	6216
921.587	6178
921.697	6106
921.806	6167
921.916	6102
922.025	5923
922.134	5912
922.244	5893
922.353	5931
922.462	5863
922.571	5836
922.68	5741
922.789	5676
922.898	5707
923.007	5665
923.116	5722
923.224	5695
923.333	5657
923.442	5611
923.55	5566
923.659	5627
923.767	5611
923.876	5558
923.984	5623
924.092	5535
924.201	5604
924.309	5577
924.417	5577
924.525	5490
924.633	5524
924.741	6281
924.849	5436
924.956	5471
925.064	5402
925.172	5307
925.279	5315
925.387	5387
925.494	5357
925.602	5425
925.709	5398
925.816	5265
925.924	5315
926.031	5330
926.138	5349
926.245	5326
926.352	5246
926.459	5269
926.566	5353
926.673	5204
926.779	5090
926.886	5151
926.993	5090
927.099	5022
927.206	4976
927.312	4965
927.419	5029
927.525	4976
927.631	5022
927.737	4919
927.843	4866
927.95	4805
928.056	4847
928.162	4847
928.267	4847
928.373	5277
928.479	4877
928.585	4714
928.69	4816
928.796	4774
928.901	4729
929.007	4641
929.112	4675
929.218	4675
929.323	4603
929.428	4611
929.533	4683
929.638	4561
929.743	4577
929.848	4603
929.953	4508
930.058	4455
930.163	4356
930.267	4379
930.372	4405
930.477	4295
930.581	4474
930.685	4386
930.79	4280
930.894	4322
930.998	4261
931.103	4413
931.207	4124
931.311	4135
931.415	4021
931.519	3915
931.623	3949
