Data from glass_V78500241_1914.txt Node
Date: Wed Sep 01 19:27:46 CST 2021
User: usil
Spectrometer: V785-0024
Trigger mode: 0
Integration Time (sec): 4.000000E-1
Scans to average: 1
Nonlinearity correction enabled: false
Boxcar width: 0
Storing dark spectrum: false
XAxis mode: Wavelengths
Number of Pixels in Spectrum: 1024
>>>>>Begin Spectral Data<<<<<
801.071	3743
801.214	3732
801.356	3720
801.499	3705
801.641	3743
801.783	3819
801.926	3857
802.068	3808
802.211	3831
802.353	3880
802.496	3835
802.638	3884
802.78	3873
802.923	3911
803.065	3884
803.208	3869
803.35	3808
803.492	3861
803.635	3869
803.777	3854
803.919	3930
804.061	4162
804.204	3926
804.346	3968
804.488	3907
804.63	4002
804.773	3979
804.915	4032
805.057	4150
805.199	4048
805.341	4059
805.483	4124
805.626	4139
805.768	4120
805.91	4204
806.052	4227
806.194	4257
806.336	4352
806.478	4169
806.62	4154
806.762	4215
806.904	4268
807.046	4337
807.188	4230
807.33	4188
807.472	4215
807.614	4185
807.756	4253
807.898	4219
808.04	4227
808.182	4272
808.324	4356
808.465	4390
808.607	4459
808.749	4447
808.891	4428
809.033	4523
809.174	4443
809.316	4280
809.458	4238
809.6	4131
809.741	4150
809.883	4158
810.025	4246
810.166	4223
810.308	4242
810.45	4230
810.591	4261
810.733	4265
810.875	4531
811.016	4759
811.158	5132
811.299	5242
811.441	5315
811.582	5045
811.724	4706
811.865	4455
812.007	4504
812.148	4440
812.29	4432
812.431	4375
812.573	4386
812.714	4363
812.855	4413
812.997	4424
813.138	4470
813.279	4402
813.421	4383
813.562	4443
813.703	4322
813.845	4291
813.986	4242
814.127	4223
814.268	4242
814.41	4306
814.551	4257
814.692	4360
814.833	4257
814.974	4341
815.115	4303
815.256	4272
815.397	4234
815.539	4287
815.68	4196
815.821	4185
815.962	4287
816.103	4287
816.244	4204
816.385	4249
816.526	4257
816.666	4181
816.807	4093
816.948	4204
817.089	4158
817.23	4162
817.371	4055
817.512	4090
817.653	4029
817.793	4036
817.934	4044
818.075	4074
818.216	4120
818.356	4093
818.497	3979
818.638	3896
818.778	3846
818.919	3899
819.06	3842
819.2	3850
819.341	3896
819.481	3812
819.622	3896
819.762	4006
819.903	3964
820.043	3831
820.184	3857
820.324	3842
820.465	3850
820.605	3873
820.746	3842
820.886	3770
821.026	3941
821.167	3907
821.307	3953
821.447	3953
821.588	3972
821.728	3979
821.868	3949
822.008	3842
822.149	3934
822.289	3918
822.429	3804
822.569	3743
822.709	3793
822.849	3675
822.99	3751
823.13	3751
823.27	3808
823.41	3743
823.55	3728
823.69	3705
823.83	3743
823.97	3686
824.11	3629
824.25	3538
824.389	3686
824.529	3660
824.669	3622
824.809	3713
824.949	3690
825.089	3740
825.228	3660
825.368	3595
825.508	3591
825.648	3553
825.787	3603
825.927	3622
826.067	3625
826.206	3644
826.346	3770
826.485	3816
826.625	3838
826.765	3941
826.904	3781
827.044	3606
827.183	3511
827.323	3409
827.462	3462
827.601	3443
827.741	3435
827.88	3458
828.02	3401
828.159	3435
828.298	3431
828.437	3500
828.577	3466
828.716	3576
828.855	3496
828.994	3386
829.134	3355
829.273	3412
829.412	3313
829.551	3329
829.69	3393
829.829	3389
829.968	3515
830.107	3466
830.246	3420
830.385	3378
830.524	3351
830.663	3272
830.802	3249
830.941	3222
831.08	3214
831.219	3260
831.357	3264
831.496	3389
831.635	3199
831.774	3165
831.913	3203
832.051	3123
832.19	3157
832.329	3207
832.467	3123
832.606	3138
832.744	3165
832.883	3203
833.022	3173
833.16	3241
833.299	3317
833.437	3325
833.576	3374
833.714	3401
833.852	3389
833.991	3450
834.129	3412
834.267	3462
834.406	3367
834.544	3439
834.682	3431
834.821	3374
834.959	3561
835.097	3424
835.235	3504
835.373	3523
835.511	3542
835.65	3454
835.788	3500
835.926	3386
836.064	3382
836.202	3439
836.34	3572
836.478	3595
836.615	3584
836.753	3641
836.891	3660
837.029	3625
837.167	3572
837.305	3545
837.443	3542
837.58	3481
837.718	3641
837.856	3549
837.993	3557
838.131	3595
838.269	3553
838.406	3568
838.544	3606
838.681	3469
838.819	3450
838.956	3374
839.094	3363
839.231	3477
839.369	3500
839.506	3709
839.643	3641
839.781	3526
839.918	3428
840.055	3504
840.193	3545
840.33	3496
840.467	3599
840.604	3606
840.742	3781
840.879	3496
841.016	3572
841.153	3545
841.29	3720
841.427	3701
841.564	3667
841.701	3717
841.838	3686
841.975	3686
842.112	3660
842.249	3652
842.385	3656
842.522	3819
842.659	3686
842.796	3682
842.933	3755
843.069	3709
843.206	3728
843.343	3804
843.479	3816
843.616	3850
843.752	3671
843.889	3663
844.025	3884
844.162	3724
844.298	3804
844.435	3793
844.571	3781
844.708	3899
844.844	3991
844.98	4029
845.117	4010
845.253	3937
845.389	3873
845.525	3994
845.661	3968
845.798	3930
845.934	3987
846.07	3979
846.206	4002
846.342	4105
846.478	4059
846.614	3937
846.75	3918
846.886	3896
847.022	4059
847.158	4013
847.294	3953
847.429	4017
847.565	3975
847.701	4207
847.837	3884
847.972	3838
848.108	4010
848.244	3979
848.379	3880
848.515	3797
848.65	3778
848.786	3850
848.921	3857
849.057	3899
849.192	3953
849.328	3899
849.463	3903
849.598	3911
849.734	3869
849.869	3835
850.004	3789
850.14	3819
850.275	3781
850.41	3686
850.545	3770
850.68	3789
850.815	3774
850.95	3774
851.085	3918
851.22	3896
851.355	3827
851.49	3755
851.625	3774
851.76	3789
851.895	3778
852.03	3698
852.165	3781
852.299	3876
852.434	3911
852.569	3861
852.703	3888
852.838	3934
852.973	3968
853.107	4032
853.242	3899
853.376	3880
853.511	3736
853.645	3819
853.78	3949
853.914	3888
854.048	3918
854.183	3846
854.317	3934
854.451	4048
854.585	3956
854.72	3953
854.854	4032
854.988	3918
855.122	3972
855.256	3911
855.39	3991
855.524	4116
855.658	4067
855.792	4067
855.926	4139
856.06	4173
856.194	4223
856.327	4116
856.461	4109
856.595	4131
856.729	4147
856.862	4291
856.996	4276
857.13	4303
857.263	4310
857.397	4325
857.53	4261
857.664	4348
857.797	4402
857.931	4413
858.064	4390
858.197	4466
858.331	4398
858.464	4428
858.597	4337
858.731	4451
858.864	4451
858.997	4424
859.13	4538
859.263	4519
859.396	4546
859.529	4527
859.662	4493
859.795	4535
859.928	4588
860.061	4694
860.194	4717
860.327	4694
860.46	4660
860.592	4645
860.725	4771
860.858	4778
860.99	4710
861.123	4641
861.256	4683
861.388	4721
861.521	5395
861.653	4694
861.786	4687
861.918	4801
862.05	4824
862.183	4866
862.315	4881
862.447	4908
862.58	4877
862.712	4778
862.844	4786
862.976	4847
863.108	4850
863.24	5189
863.372	4801
863.504	4911
863.636	4831
863.768	4995
863.9	4976
864.032	4930
864.164	4915
864.296	5056
864.428	5071
864.559	5117
864.691	5113
864.823	5132
864.954	5067
865.086	5140
865.217	5105
865.349	5102
865.48	5178
865.612	5159
865.743	5261
865.875	5178
866.006	5178
866.137	5223
866.269	5204
866.4	5258
866.531	5227
866.662	5246
866.793	5292
866.924	5307
867.055	5322
867.186	5311
867.317	5330
867.448	5303
867.579	5341
867.71	5391
867.841	5444
867.972	5421
868.103	5444
868.233	5486
868.364	5474
868.495	5528
868.625	5642
868.756	5764
868.886	5680
869.017	5745
869.147	5847
869.278	5844
869.408	5779
869.539	5836
869.669	5882
869.799	5901
869.929	6011
870.06	6030
870.19	6106
870.32	6182
870.45	6258
870.58	6323
870.71	6376
870.84	6475
870.97	6437
871.1	6445
871.23	6597
871.36	6688
871.489	6654
871.619	6711
871.749	6821
871.879	6852
872.008	6966
872.138	6932
872.267	7042
872.397	6993
872.526	6939
872.656	7122
872.785	7118
872.915	7476
873.044	7476
873.173	7639
873.303	7677
873.432	7757
873.561	7887
873.69	7906
873.819	8043
873.948	8237
874.077	8252
874.206	8328
874.335	8442
874.464	8606
874.593	8788
874.722	8918
874.851	9154
874.979	9199
875.108	9355
875.237	9424
875.365	9519
875.494	9740
875.623	9808
875.751	9937
875.88	10017
876.008	10078
876.136	10253
876.265	10462
876.393	10805
876.521	10611
876.65	10797
876.778	10885
876.906	10885
877.034	10984
877.162	11166
877.29	11159
877.418	11330
877.546	11372
877.674	11471
877.802	11436
877.93	11497
878.058	11589
878.185	11634
878.313	11661
878.441	11657
878.568	11672
878.696	11779
878.824	11840
878.951	11904
879.079	11977
879.206	12015
879.333	11939
879.461	12041
879.588	12045
879.715	12007
879.842	12167
879.97	12060
880.097	11870
880.224	11878
880.351	11813
880.478	11874
880.605	11851
880.732	11817
880.859	11999
880.986	11870
881.112	11855
881.239	11703
881.366	11699
881.493	11653
881.619	11573
881.746	11516
881.872	11501
881.999	11497
882.125	11520
882.252	11547
882.378	11501
882.505	11566
882.631	11383
882.757	11273
882.883	11315
883.01	11227
883.136	11162
883.262	11151
883.388	11128
883.514	11201
883.64	11159
883.766	11102
883.892	11010
884.018	10987
884.143	11090
884.269	11045
884.395	10923
884.52	10763
884.646	10805
884.772	10668
884.897	10615
885.023	10714
885.148	10744
885.274	10736
885.399	10710
885.524	10626
885.65	10565
885.775	10538
885.9	10493
886.025	10599
886.15	10573
886.275	10402
886.4	10375
886.525	10409
886.65	10325
886.775	10329
886.9	10512
887.025	10554
887.149	10394
887.274	10299
887.399	10238
887.523	10166
887.648	10185
887.773	10109
887.897	10238
888.021	10265
888.146	10162
888.27	10230
888.395	10238
888.519	10109
888.643	10215
888.767	10257
888.891	10086
889.015	10021
889.139	10006
889.263	10021
889.387	10169
889.511	10048
889.635	10059
889.759	10067
889.883	9964
890.006	10017
890.13	10063
890.254	9960
890.377	9915
890.501	9895
890.624	9899
890.748	9876
890.871	9789
890.995	9736
891.118	9797
891.241	9838
891.364	9679
891.488	9823
891.611	9789
891.734	9720
891.857	9793
891.98	9736
892.103	9766
892.226	9724
892.349	9637
892.471	9549
892.594	9652
892.717	9599
892.839	9603
892.962	9576
893.085	9667
893.207	9637
893.33	9515
893.452	9557
893.575	9538
893.697	9443
893.819	9603
893.941	9584
894.064	9591
894.186	9447
894.308	9382
894.43	9599
894.552	9568
894.674	9515
894.796	9454
894.918	9412
895.04	9344
895.161	9389
895.283	9317
895.405	9161
895.526	9283
895.648	9237
895.769	9218
895.891	9275
896.012	9230
896.134	9218
896.255	9127
896.376	9176
896.498	9077
896.619	9112
896.74	9154
896.861	9055
896.982	9298
897.103	9264
897.224	9195
897.345	9119
897.466	9047
897.587	9112
897.708	9005
897.828	9017
897.949	8994
898.07	8880
898.19	8902
898.311	9077
898.431	8895
898.552	8937
898.672	8948
898.792	8921
898.913	8952
899.033	8796
899.153	8743
899.273	8648
899.393	8701
899.513	8693
899.633	8781
899.753	8708
899.873	8617
899.993	8750
900.113	8648
900.232	8693
900.352	8648
900.472	8556
900.591	8541
900.711	8499
900.83	8473
900.95	8670
901.069	8735
901.189	8590
901.308	8461
901.427	8366
901.546	8412
901.665	8461
901.784	8427
901.904	8415
902.023	8286
902.141	8214
902.26	8252
902.379	8290
902.498	8259
902.617	8195
902.735	8317
902.854	8298
902.973	8195
903.091	8096
903.21	8153
903.328	8233
903.446	8126
903.565	8103
903.683	8115
903.801	8077
903.919	8157
904.038	8069
904.156	8039
904.274	8027
904.392	8024
904.51	8031
904.627	8043
904.745	8035
904.863	8123
904.981	7871
905.098	7849
905.216	7883
905.334	7913
905.451	7936
905.569	7883
905.686	7902
905.803	7921
905.921	7715
906.038	7871
906.155	7811
906.272	7742
906.389	7693
906.506	7681
906.623	7655
906.74	7658
906.857	7556
906.974	7578
907.091	7658
907.208	7738
907.324	7643
907.441	7514
907.557	7445
907.674	7434
907.79	7434
907.907	7419
908.023	7426
908.139	7392
908.256	7305
908.372	7381
908.488	7350
908.604	7225
908.72	7206
908.836	7255
908.952	7198
909.068	7217
909.184	7362
909.3	7255
909.415	7263
909.531	7293
909.647	7160
909.762	7088
909.878	7114
909.993	7118
910.108	6993
910.224	7110
910.339	7095
910.454	7027
910.57	7027
910.685	7008
910.8	7202
910.915	7129
911.03	7046
911.145	6916
911.259	6909
911.374	6867
911.489	6818
911.604	6886
911.718	6757
911.833	6715
911.947	6654
912.062	6585
912.176	6654
912.291	6719
912.405	6719
912.519	6825
912.633	6795
912.748	6772
912.862	6646
912.976	6665
913.09	6525
913.204	6589
913.318	6635
913.431	6700
913.545	6601
913.659	6696
913.772	6654
913.886	6566
914	6597
914.113	6608
914.226	6608
914.34	6563
914.453	6551
914.566	6593
914.68	6547
914.793	6547
914.906	6448
915.019	6433
915.132	6414
915.245	6452
915.358	6475
915.47	6456
915.583	6452
915.696	6452
915.809	6566
915.921	6517
916.034	6388
916.146	6395
916.259	6376
916.371	6475
916.483	6395
916.595	6372
916.708	6357
916.82	6433
916.932	6331
917.044	6380
917.156	6331
917.268	6369
917.38	6273
917.491	6346
917.603	6296
917.715	6426
917.826	6365
917.938	6304
918.049	6228
918.161	6285
918.272	6407
918.384	6467
918.495	6399
918.606	6201
918.717	6216
918.828	6292
918.939	6258
919.05	6175
919.161	6277
919.272	6159
919.383	6095
919.494	6285
919.604	6433
919.715	6262
919.826	6194
919.936	6209
920.047	6289
920.157	6273
920.267	6464
920.378	6327
920.488	6285
920.598	6467
920.708	6536
920.818	6521
920.928	6486
921.038	6662
921.148	6536
921.258	6384
921.368	6285
921.477	6136
921.587	6209
921.697	6095
921.806	6121
921.916	6095
922.025	5980
922.134	5935
922.244	5923
922.353	5897
922.462	5844
922.571	5813
922.68	5707
922.789	5665
922.898	5691
923.007	5638
923.116	5691
923.224	5627
923.333	5642
923.442	5577
923.55	5535
923.659	5554
923.767	5589
923.876	5497
923.984	5623
924.092	5467
924.201	5505
924.309	5512
924.417	5615
924.525	5501
924.633	5497
924.741	6266
924.849	5383
924.956	5501
925.064	5334
925.172	5261
925.279	5303
925.387	5315
925.494	5296
925.602	5429
925.709	5417
925.816	5280
925.924	5349
926.031	5368
926.138	5353
926.245	5341
926.352	5212
926.459	5284
926.566	5280
926.673	5223
926.779	5109
926.886	5117
926.993	5037
927.099	5037
927.206	5003
927.312	4984
927.419	5025
927.525	4987
927.631	5014
927.737	4892
927.843	4828
927.95	4733
928.056	4812
928.162	4831
928.267	4858
928.373	5254
928.479	4873
928.585	4664
928.69	4729
928.796	4801
928.901	4725
929.007	4580
929.112	4622
929.218	4626
929.323	4641
929.428	4588
929.533	4641
929.638	4584
929.743	4558
929.848	4580
929.953	4512
930.058	4413
930.163	4341
930.267	4356
930.372	4394
930.477	4272
930.581	4485
930.685	4402
930.79	4253
930.894	4257
930.998	4265
931.103	4375
931.207	4131
931.311	4074
931.415	3994
931.519	3911
931.623	3926
