Data from glass_V78500241_1504.txt Node
Date: Wed Sep 01 19:24:55 CST 2021
User: usil
Spectrometer: V785-0024
Trigger mode: 0
Integration Time (sec): 4.000000E-1
Scans to average: 1
Nonlinearity correction enabled: false
Boxcar width: 0
Storing dark spectrum: false
XAxis mode: Wavelengths
Number of Pixels in Spectrum: 1024
>>>>>Begin Spectral Data<<<<<
801.071	3778
801.214	3724
801.356	3690
801.499	3751
801.641	3736
801.783	3751
801.926	3896
802.068	3804
802.211	3816
802.353	3896
802.496	3888
802.638	3812
802.78	3949
802.923	3953
803.065	3876
803.208	3880
803.35	3838
803.492	3899
803.635	3934
803.777	3823
803.919	3873
804.061	4158
804.204	3937
804.346	3956
804.488	3876
804.63	4036
804.773	4010
804.915	4032
805.057	4192
805.199	4025
805.341	4059
805.483	4139
805.626	4162
805.768	4093
805.91	4166
806.052	4188
806.194	4192
806.336	4314
806.478	4207
806.62	4139
806.762	4188
806.904	4280
807.046	4318
807.188	4204
807.33	4200
807.472	4215
807.614	4169
807.756	4325
807.898	4227
808.04	4204
808.182	4257
808.324	4352
808.465	4348
808.607	4440
808.749	4440
808.891	4466
809.033	4504
809.174	4398
809.316	4306
809.458	4272
809.6	4147
809.741	4131
809.883	4128
810.025	4207
810.166	4185
810.308	4246
810.45	4234
810.591	4223
810.733	4280
810.875	4538
811.016	4839
811.158	5121
811.299	5216
811.441	5250
811.582	5052
811.724	4675
811.865	4443
812.007	4462
812.148	4447
812.29	4398
812.431	4466
812.573	4405
812.714	4398
812.855	4398
812.997	4409
813.138	4447
813.279	4451
813.421	4405
813.562	4352
813.703	4322
813.845	4310
813.986	4299
814.127	4230
814.268	4204
814.41	4291
814.551	4261
814.692	4314
814.833	4295
814.974	4348
815.115	4306
815.256	4284
815.397	4246
815.539	4253
815.68	4223
815.821	4246
815.962	4295
816.103	4234
816.244	4261
816.385	4230
816.526	4291
816.666	4238
816.807	4116
816.948	4166
817.089	4173
817.23	4124
817.371	4082
817.512	4036
817.653	4082
817.793	4013
817.934	4059
818.075	4109
818.216	4074
818.356	4074
818.497	3964
818.638	3937
818.778	3922
818.919	3888
819.06	3880
819.2	3869
819.341	3888
819.481	3797
819.622	3911
819.762	4002
819.903	3922
820.043	3896
820.184	3823
820.324	3812
820.465	3903
820.605	3827
820.746	3926
820.886	3804
821.026	3930
821.167	3880
821.307	3983
821.447	3975
821.588	3972
821.728	3941
821.868	3922
822.008	3918
822.149	3896
822.289	3911
822.429	3785
822.569	3778
822.709	3808
822.849	3667
822.99	3694
823.13	3766
823.27	3793
823.41	3736
823.55	3755
823.69	3717
823.83	3766
823.97	3679
824.11	3618
824.25	3625
824.389	3663
824.529	3679
824.669	3629
824.809	3705
824.949	3766
825.089	3713
825.228	3732
825.368	3587
825.508	3530
825.648	3568
825.787	3648
825.927	3648
826.067	3610
826.206	3629
826.346	3808
826.485	3842
826.625	3850
826.765	3983
826.904	3816
827.044	3618
827.183	3519
827.323	3435
827.462	3488
827.601	3447
827.741	3409
827.88	3469
828.02	3389
828.159	3431
828.298	3485
828.437	3557
828.577	3473
828.716	3599
828.855	3507
828.994	3344
829.134	3378
829.273	3344
829.412	3355
829.551	3298
829.69	3397
829.829	3420
829.968	3515
830.107	3431
830.246	3431
830.385	3351
830.524	3359
830.663	3332
830.802	3268
830.941	3203
831.08	3199
831.219	3253
831.357	3275
831.496	3397
831.635	3199
831.774	3169
831.913	3195
832.051	3150
832.19	3146
832.329	3207
832.467	3169
832.606	3112
832.744	3157
832.883	3218
833.022	3188
833.16	3253
833.299	3298
833.437	3344
833.576	3409
833.714	3405
833.852	3454
833.991	3428
834.129	3488
834.267	3458
834.406	3370
834.544	3435
834.682	3428
834.821	3420
834.959	3557
835.097	3428
835.235	3561
835.373	3504
835.511	3511
835.65	3466
835.788	3466
835.926	3397
836.064	3367
836.202	3412
836.34	3568
836.478	3572
836.615	3561
836.753	3606
836.891	3660
837.029	3610
837.167	3610
837.305	3526
837.443	3526
837.58	3534
837.718	3614
837.856	3557
837.993	3553
838.131	3591
838.269	3622
838.406	3603
838.544	3545
838.681	3473
838.819	3485
838.956	3378
839.094	3374
839.231	3466
839.369	3538
839.506	3736
839.643	3629
839.781	3477
839.918	3496
840.055	3523
840.193	3515
840.33	3553
840.467	3557
840.604	3584
840.742	3800
840.879	3542
841.016	3625
841.153	3599
841.29	3762
841.427	3740
841.564	3732
841.701	3740
841.838	3713
841.975	3663
842.112	3709
842.249	3633
842.385	3633
842.522	3823
842.659	3667
842.796	3690
842.933	3709
843.069	3728
843.206	3713
843.343	3804
843.479	3766
843.616	3835
843.752	3652
843.889	3732
844.025	3865
844.162	3778
844.298	3869
844.435	3800
844.571	3778
844.708	3907
844.844	3975
844.98	4036
845.117	3998
845.253	3873
845.389	3907
845.525	3956
845.661	3941
845.798	3896
845.934	3991
846.07	3968
846.206	4082
846.342	4105
846.478	4029
846.614	3960
846.75	3907
846.886	3918
847.022	4040
847.158	3994
847.294	3960
847.429	4029
847.565	4010
847.701	4200
847.837	3899
847.972	3823
848.108	4006
848.244	3922
848.379	3896
848.515	3808
848.65	3789
848.786	3857
848.921	3899
849.057	3918
849.192	3956
849.328	3899
849.463	3968
849.598	3899
849.734	3850
849.869	3819
850.004	3793
850.14	3793
850.275	3766
850.41	3743
850.545	3751
850.68	3781
850.815	3785
850.95	3743
851.085	3949
851.22	3884
851.355	3819
851.49	3808
851.625	3800
851.76	3774
851.895	3770
852.03	3724
852.165	3800
852.299	3842
852.434	3926
852.569	3804
852.703	3857
852.838	3922
852.973	4010
853.107	3975
853.242	3873
853.376	3861
853.511	3762
853.645	3873
853.78	3998
853.914	3888
854.048	3896
854.183	3903
854.317	3968
854.451	4135
854.585	3960
854.72	3907
854.854	4059
854.988	3956
855.122	3998
855.256	3918
855.39	4006
855.524	4131
855.658	4090
855.792	4082
855.926	4120
856.06	4150
856.194	4215
856.327	4112
856.461	4116
856.595	4124
856.729	4143
856.862	4242
856.996	4257
857.13	4306
857.263	4356
857.397	4440
857.53	4295
857.664	4310
857.797	4417
857.931	4459
858.064	4383
858.197	4462
858.331	4424
858.464	4379
858.597	4367
858.731	4451
858.864	4424
858.997	4504
859.13	4481
859.263	4523
859.396	4603
859.529	4519
859.662	4527
859.795	4561
859.928	4653
860.061	4702
860.194	4691
860.327	4653
860.46	4714
860.592	4763
860.725	4805
860.858	4744
860.99	4748
861.123	4645
861.256	4725
861.388	4786
861.521	5471
861.653	4714
861.786	4706
861.918	4733
862.05	4801
862.183	4847
862.315	4870
862.447	4927
862.58	4881
862.712	4831
862.844	4771
862.976	4877
863.108	4892
863.24	5261
863.372	4812
863.504	4885
863.636	4877
863.768	5006
863.9	4957
864.032	4866
864.164	4938
864.296	5105
864.428	5064
864.559	5113
864.691	5083
864.823	5117
864.954	5136
865.086	5140
865.217	5155
865.349	5102
865.48	5155
865.612	5204
865.743	5273
865.875	5227
866.006	5208
866.137	5261
866.269	5223
866.4	5284
866.531	5235
866.662	5269
866.793	5311
866.924	5273
867.055	5349
867.186	5341
867.317	5353
867.448	5273
867.579	5345
867.71	5357
867.841	5391
867.972	5398
868.103	5501
868.233	5436
868.364	5497
868.495	5532
868.625	5661
868.756	5771
868.886	5630
869.017	5733
869.147	5866
869.278	5866
869.408	5805
869.539	5805
869.669	5889
869.799	5889
869.929	5973
870.06	6045
870.19	6209
870.32	6197
870.45	6232
870.58	6304
870.71	6426
870.84	6407
870.97	6414
871.1	6437
871.23	6662
871.36	6684
871.489	6734
871.619	6696
871.749	6814
871.879	6798
872.008	6970
872.138	6985
872.267	7019
872.397	6966
872.526	6977
872.656	7088
872.785	7206
872.915	7354
873.044	7521
873.173	7594
873.303	7609
873.432	7795
873.561	7894
873.69	7871
873.819	8008
873.948	8157
874.077	8275
874.206	8309
874.335	8438
874.464	8686
874.593	8872
874.722	8891
874.851	9188
874.979	9199
875.108	9351
875.237	9526
875.365	9496
875.494	9637
875.623	9884
875.751	9903
875.88	10036
876.008	10097
876.136	10261
876.265	10478
876.393	10691
876.521	10679
876.65	10847
876.778	10885
876.906	10885
877.034	10942
877.162	11124
877.29	11086
877.418	11341
877.546	11326
877.674	11455
877.802	11524
877.93	11486
878.058	11562
878.185	11551
878.313	11653
878.441	11748
878.568	11672
878.696	11775
878.824	11893
878.951	11958
879.079	11965
879.206	12182
879.333	12053
879.461	11923
879.588	12079
879.715	12102
879.842	12220
879.97	12041
880.097	11897
880.224	11859
880.351	11874
880.478	11824
880.605	11954
880.732	11946
880.859	11931
880.986	11813
881.112	11775
881.239	11707
881.366	11691
881.493	11642
881.619	11444
881.746	11600
881.872	11592
881.999	11570
882.125	11482
882.252	11604
882.378	11486
882.505	11535
882.631	11406
882.757	11235
882.883	11299
883.01	11204
883.136	11212
883.262	11041
883.388	11033
883.514	11181
883.64	11136
883.766	11094
883.892	10908
884.018	10991
884.143	11060
884.269	11117
884.395	10866
884.52	10820
884.646	10744
884.772	10740
884.897	10645
885.023	10645
885.148	10778
885.274	10721
885.399	10694
885.524	10565
885.65	10531
885.775	10672
885.9	10577
886.025	10668
886.15	10546
886.275	10485
886.4	10424
886.525	10455
886.65	10413
886.775	10367
886.9	10440
887.025	10573
887.149	10375
887.274	10306
887.399	10230
887.523	10169
887.648	10181
887.773	10078
887.897	10287
888.021	10177
888.146	10147
888.27	10238
888.395	10246
888.519	10185
888.643	10246
888.767	10238
888.891	10105
889.015	10071
889.139	10040
889.263	9907
889.387	10059
889.511	10109
889.635	10097
889.759	9895
889.883	9934
890.006	9960
890.13	10120
890.254	9975
890.377	10040
890.501	9842
890.624	9888
890.748	9937
890.871	9842
890.995	9747
891.118	9732
891.241	9759
891.364	9740
891.488	9854
891.611	9701
891.734	9797
891.857	9644
891.98	9679
892.103	9793
892.226	9732
892.349	9667
892.471	9507
892.594	9553
892.717	9534
892.839	9564
892.962	9580
893.085	9652
893.207	9584
893.33	9511
893.452	9538
893.575	9629
893.697	9561
893.819	9675
893.941	9682
894.064	9599
894.186	9435
894.308	9408
894.43	9568
894.552	9507
894.674	9561
894.796	9382
894.918	9344
895.04	9325
895.161	9378
895.283	9336
895.405	9268
895.526	9291
895.648	9291
895.769	9279
895.891	9298
896.012	9253
896.134	9222
896.255	9104
896.376	9188
896.498	9154
896.619	9062
896.74	9131
896.861	9089
896.982	9401
897.103	9317
897.224	9097
897.345	9036
897.466	9009
897.587	8982
897.708	9097
897.828	8956
897.949	8956
898.07	8933
898.19	8914
898.311	9036
898.431	8929
898.552	8891
898.672	8971
898.792	9005
898.913	8868
899.033	8762
899.153	8754
899.273	8632
899.393	8689
899.513	8708
899.633	8750
899.753	8807
899.873	8636
899.993	8712
900.113	8716
900.232	8697
900.352	8655
900.472	8564
900.591	8507
900.711	8583
900.83	8556
900.95	8697
901.069	8762
901.189	8606
901.308	8450
901.427	8457
901.546	8434
901.665	8404
901.784	8473
901.904	8431
902.023	8275
902.141	8244
902.26	8294
902.379	8290
902.498	8210
902.617	8225
902.735	8298
902.854	8202
902.973	8248
903.091	8176
903.21	8130
903.328	8180
903.446	8130
903.565	8077
903.683	8103
903.801	8031
903.919	8142
904.038	8176
904.156	8027
904.274	8043
904.392	7959
904.51	8031
904.627	8073
904.745	8027
904.863	8024
904.981	7890
905.098	7894
905.216	7864
905.334	7951
905.451	7902
905.569	7925
905.686	7955
905.803	7936
905.921	7833
906.038	7856
906.155	7757
906.272	7727
906.389	7772
906.506	7666
906.623	7639
906.74	7590
906.857	7529
906.974	7609
907.091	7620
907.208	7738
907.324	7613
907.441	7575
907.557	7468
907.674	7468
907.79	7327
907.907	7457
908.023	7457
908.139	7480
908.256	7400
908.372	7381
908.488	7327
908.604	7316
908.72	7240
908.836	7285
908.952	7247
909.068	7274
909.184	7293
909.3	7308
909.415	7255
909.531	7221
909.647	7145
909.762	7122
909.878	7103
909.993	7084
910.108	7171
910.224	7084
910.339	7072
910.454	7065
910.57	6958
910.685	6920
910.8	7187
910.915	7118
911.03	7061
911.145	6886
911.259	6878
911.374	6837
911.489	6848
911.604	6867
911.718	6745
911.833	6738
911.947	6642
912.062	6646
912.176	6696
912.291	6738
912.405	6665
912.519	6863
912.633	6844
912.748	6703
912.862	6730
912.976	6566
913.09	6547
913.204	6585
913.318	6639
913.431	6688
913.545	6700
913.659	6711
913.772	6673
913.886	6582
914	6547
914.113	6635
914.226	6627
914.34	6612
914.453	6509
914.566	6608
914.68	6521
914.793	6521
914.906	6376
915.019	6414
915.132	6357
915.245	6471
915.358	6464
915.47	6410
915.583	6471
915.696	6441
915.809	6517
915.921	6532
916.034	6479
916.146	6369
916.259	6380
916.371	6490
916.483	6517
916.595	6391
916.708	6448
916.82	6391
916.932	6380
917.044	6369
917.156	6410
917.268	6350
917.38	6327
917.491	6346
917.603	6365
917.715	6395
917.826	6407
917.938	6315
918.049	6247
918.161	6376
918.272	6391
918.384	6433
918.495	6350
918.606	6254
918.717	6239
918.828	6258
918.939	6304
919.05	6270
919.161	6243
919.272	6133
919.383	6125
919.494	6273
919.604	6391
919.715	6323
919.826	6224
919.936	6270
920.047	6372
920.157	6243
920.267	6471
920.378	6338
920.488	6315
920.598	6429
920.708	6559
920.818	6448
920.928	6448
921.038	6582
921.148	6597
921.258	6342
921.368	6285
921.477	6239
921.587	6144
921.697	6110
921.806	6190
921.916	6076
922.025	5969
922.134	5920
922.244	5927
922.353	5942
922.462	5798
922.571	5775
922.68	5638
922.789	5695
922.898	5707
923.007	5680
923.116	5710
923.224	5699
923.333	5661
923.442	5562
923.55	5581
923.659	5592
923.767	5638
923.876	5600
923.984	5611
924.092	5520
924.201	5585
924.309	5501
924.417	5505
924.525	5512
924.633	5512
924.741	6102
924.849	5376
924.956	5474
925.064	5379
925.172	5296
925.279	5341
925.387	5379
925.494	5349
925.602	5414
925.709	5364
925.816	5288
925.924	5318
926.031	5383
926.138	5311
926.245	5334
926.352	5239
926.459	5360
926.566	5265
926.673	5220
926.779	5090
926.886	5102
926.993	5029
927.099	4984
927.206	5010
927.312	4900
927.419	5033
927.525	5006
927.631	4987
927.737	4858
927.843	4812
927.95	4820
928.056	4782
928.162	4831
928.267	4862
928.373	5269
928.479	4862
928.585	4714
928.69	4809
928.796	4801
928.901	4672
929.007	4577
929.112	4653
929.218	4618
929.323	4580
929.428	4554
929.533	4641
929.638	4558
929.743	4561
929.848	4580
929.953	4535
930.058	4424
930.163	4352
930.267	4337
930.372	4459
930.477	4272
930.581	4459
930.685	4363
930.79	4242
930.894	4291
930.998	4234
931.103	4413
931.207	4097
931.311	4082
931.415	4048
931.519	3930
931.623	3907
