Data from glass_V78500241_710.txt Node
Date: Wed Sep 01 19:19:25 CST 2021
User: usil
Spectrometer: V785-0024
Trigger mode: 0
Integration Time (sec): 4.000000E-1
Scans to average: 1
Nonlinearity correction enabled: false
Boxcar width: 0
Storing dark spectrum: false
XAxis mode: Wavelengths
Number of Pixels in Spectrum: 1024
>>>>>Begin Spectral Data<<<<<
801.071	3724
801.214	3732
801.356	3698
801.499	3728
801.641	3770
801.783	3797
801.926	3873
802.068	3831
802.211	3869
802.353	3888
802.496	3903
802.638	3846
802.78	3911
802.923	3941
803.065	3960
803.208	3846
803.35	3854
803.492	3941
803.635	3934
803.777	3819
803.919	3926
804.061	4150
804.204	4010
804.346	3949
804.488	3892
804.63	4044
804.773	4006
804.915	4051
805.057	4116
805.199	4082
805.341	4109
805.483	4105
805.626	4128
805.768	4131
805.91	4219
806.052	4249
806.194	4261
806.336	4375
806.478	4268
806.62	4177
806.762	4227
806.904	4261
807.046	4352
807.188	4215
807.33	4200
807.472	4223
807.614	4188
807.756	4230
807.898	4249
808.04	4173
808.182	4306
808.324	4348
808.465	4371
808.607	4432
808.749	4493
808.891	4459
809.033	4500
809.174	4455
809.316	4291
809.458	4242
809.6	4200
809.741	4158
809.883	4116
810.025	4211
810.166	4261
810.308	4265
810.45	4238
810.591	4238
810.733	4280
810.875	4558
811.016	4831
811.158	5143
811.299	5277
811.441	5261
811.582	5071
811.724	4736
811.865	4462
812.007	4500
812.148	4466
812.29	4405
812.431	4436
812.573	4428
812.714	4360
812.855	4394
812.997	4405
813.138	4554
813.279	4428
813.421	4428
813.562	4409
813.703	4348
813.845	4383
813.986	4227
814.127	4219
814.268	4242
814.41	4375
814.551	4268
814.692	4348
814.833	4295
814.974	4325
815.115	4386
815.256	4280
815.397	4246
815.539	4303
815.68	4192
815.821	4192
815.962	4337
816.103	4276
816.244	4219
816.385	4268
816.526	4337
816.666	4215
816.807	4105
816.948	4185
817.089	4215
817.23	4128
817.371	4078
817.512	4105
817.653	4093
817.793	4025
817.934	4051
818.075	4078
818.216	4109
818.356	4074
818.497	3964
818.638	3945
818.778	3918
818.919	3926
819.06	3911
819.2	3926
819.341	3869
819.481	3854
819.622	3899
819.762	4063
819.903	3983
820.043	3869
820.184	3884
820.324	3854
820.465	3915
820.605	3888
820.746	3880
820.886	3778
821.026	3960
821.167	3941
821.307	4025
821.447	3956
821.588	3941
821.728	3956
821.868	3930
822.008	3846
822.149	3934
822.289	3941
822.429	3785
822.569	3789
822.709	3823
822.849	3759
822.99	3709
823.13	3774
823.27	3827
823.41	3724
823.55	3751
823.69	3701
823.83	3762
823.97	3701
824.11	3633
824.25	3587
824.389	3652
824.529	3679
824.669	3641
824.809	3743
824.949	3732
825.089	3717
825.228	3701
825.368	3603
825.508	3580
825.648	3564
825.787	3622
825.927	3667
826.067	3614
826.206	3705
826.346	3827
826.485	3873
826.625	3884
826.765	3998
826.904	3876
827.044	3614
827.183	3542
827.323	3428
827.462	3488
827.601	3412
827.741	3424
827.88	3435
828.02	3412
828.159	3439
828.298	3447
828.437	3526
828.577	3492
828.716	3587
828.855	3538
828.994	3397
829.134	3405
829.273	3424
829.412	3389
829.551	3325
829.69	3389
829.829	3447
829.968	3545
830.107	3443
830.246	3439
830.385	3386
830.524	3344
830.663	3294
830.802	3260
830.941	3203
831.08	3237
831.219	3291
831.357	3310
831.496	3389
831.635	3222
831.774	3203
831.913	3226
832.051	3161
832.19	3138
832.329	3218
832.467	3138
832.606	3108
832.744	3180
832.883	3203
833.022	3188
833.16	3268
833.299	3348
833.437	3325
833.576	3374
833.714	3389
833.852	3443
833.991	3401
834.129	3534
834.267	3458
834.406	3409
834.544	3443
834.682	3507
834.821	3416
834.959	3568
835.097	3443
835.235	3549
835.373	3469
835.511	3500
835.65	3458
835.788	3511
835.926	3416
836.064	3363
836.202	3424
836.34	3564
836.478	3591
836.615	3549
836.753	3622
836.891	3679
837.029	3614
837.167	3603
837.305	3591
837.443	3549
837.58	3526
837.718	3591
837.856	3599
837.993	3606
838.131	3625
838.269	3580
838.406	3603
838.544	3545
838.681	3443
838.819	3454
838.956	3386
839.094	3431
839.231	3431
839.369	3553
839.506	3766
839.643	3675
839.781	3492
839.918	3477
840.055	3557
840.193	3538
840.33	3500
840.467	3564
840.604	3606
840.742	3804
840.879	3553
841.016	3553
841.153	3595
841.29	3781
841.427	3732
841.564	3728
841.701	3781
841.838	3717
841.975	3724
842.112	3717
842.249	3633
842.385	3656
842.522	3873
842.659	3686
842.796	3698
842.933	3698
843.069	3736
843.206	3675
843.343	3823
843.479	3838
843.616	3804
843.752	3663
843.889	3701
844.025	3899
844.162	3732
844.298	3876
844.435	3808
844.571	3781
844.708	3926
844.844	4040
844.98	4021
845.117	4032
845.253	3934
845.389	3968
845.525	3922
845.661	3987
845.798	3968
845.934	4021
846.07	3968
846.206	4059
846.342	4112
846.478	4093
846.614	4002
846.75	3960
846.886	3922
847.022	4006
847.158	4010
847.294	3991
847.429	3972
847.565	3975
847.701	4234
847.837	3857
847.972	3884
848.108	4017
848.244	3956
848.379	3838
848.515	3831
848.65	3850
848.786	3819
848.921	3892
849.057	3975
849.192	3987
849.328	3880
849.463	3918
849.598	3934
849.734	3861
849.869	3850
850.004	3778
850.14	3850
850.275	3812
850.41	3698
850.545	3762
850.68	3789
850.815	3835
850.95	3812
851.085	3896
851.22	3869
851.355	3850
851.49	3850
851.625	3797
851.76	3804
851.895	3774
852.03	3743
852.165	3797
852.299	3861
852.434	3945
852.569	3861
852.703	3945
852.838	3922
852.973	4013
853.107	3987
853.242	3930
853.376	3812
853.511	3781
853.645	3812
853.78	3983
853.914	3937
854.048	3911
854.183	3911
854.317	4013
854.451	4078
854.585	3968
854.72	3934
854.854	4044
854.988	3915
855.122	4025
855.256	3911
855.39	4036
855.524	4112
855.658	4101
855.792	4162
855.926	4120
856.06	4158
856.194	4192
856.327	4162
856.461	4166
856.595	4207
856.729	4219
856.862	4272
856.996	4223
857.13	4356
857.263	4303
857.397	4352
857.53	4284
857.664	4402
857.797	4341
857.931	4440
858.064	4371
858.197	4451
858.331	4413
858.464	4413
858.597	4333
858.731	4432
858.864	4451
858.997	4504
859.13	4512
859.263	4497
859.396	4596
859.529	4538
859.662	4569
859.795	4531
859.928	4603
860.061	4710
860.194	4702
860.327	4607
860.46	4683
860.592	4710
860.725	4771
860.858	4793
860.99	4710
861.123	4675
861.256	4710
861.388	4790
861.521	5235
861.653	4710
861.786	4679
861.918	4767
862.05	4797
862.183	4862
862.315	4930
862.447	4892
862.58	4927
862.712	4812
862.844	4805
862.976	4892
863.108	4873
863.24	5269
863.372	4862
863.504	4961
863.636	4911
863.768	4934
863.9	5003
864.032	4927
864.164	4999
864.296	5025
864.428	5098
864.559	5067
864.691	5121
864.823	5136
864.954	5086
865.086	5174
865.217	5185
865.349	5128
865.48	5136
865.612	5212
865.743	5292
865.875	5223
866.006	5216
866.137	5242
866.269	5246
866.4	5311
866.531	5258
866.662	5235
866.793	5311
866.924	5330
867.055	5322
867.186	5364
867.317	5364
867.448	5318
867.579	5353
867.71	5421
867.841	5383
867.972	5493
868.103	5482
868.233	5509
868.364	5497
868.495	5505
868.625	5714
868.756	5809
868.886	5672
869.017	5767
869.147	5874
869.278	5847
869.408	5817
869.539	5824
869.669	5950
869.799	5908
869.929	6003
870.06	6038
870.19	6182
870.32	6247
870.45	6270
870.58	6315
870.71	6483
870.84	6502
870.97	6422
871.1	6475
871.23	6639
871.36	6719
871.489	6662
871.619	6745
871.749	6783
871.879	6894
872.008	7027
872.138	6924
872.267	6970
872.397	7019
872.526	7053
872.656	7114
872.785	7255
872.915	7396
873.044	7552
873.173	7556
873.303	7738
873.432	7757
873.561	7913
873.69	7883
873.819	8058
873.948	8176
874.077	8259
874.206	8404
874.335	8381
874.464	8659
874.593	8834
874.722	8876
874.851	9047
874.979	9230
875.108	9344
875.237	9507
875.365	9469
875.494	9682
875.623	9816
875.751	9934
875.88	9953
876.008	10139
876.136	10344
876.265	10546
876.393	10656
876.521	10679
876.65	10812
876.778	10892
876.906	10938
877.034	10976
877.162	11045
877.29	11124
877.418	11360
877.546	11383
877.674	11520
877.802	11490
877.93	11554
878.058	11570
878.185	11611
878.313	11703
878.441	11729
878.568	11634
878.696	11802
878.824	11840
878.951	11992
879.079	11969
879.206	12072
879.333	12091
879.461	11999
879.588	12121
879.715	12136
879.842	12220
879.97	12110
880.097	11889
880.224	11942
880.351	11908
880.478	11901
880.605	11866
880.732	11809
880.859	12022
880.986	11828
881.112	11920
881.239	11748
881.366	11661
881.493	11684
881.619	11608
881.746	11516
881.872	11535
881.999	11493
882.125	11402
882.252	11532
882.378	11573
882.505	11581
882.631	11356
882.757	11288
882.883	11318
883.01	11277
883.136	11227
883.262	11086
883.388	11014
883.514	11113
883.64	11231
883.766	11174
883.892	10953
884.018	11025
884.143	11018
884.269	11136
884.395	10885
884.52	10771
884.646	10774
884.772	10683
884.897	10710
885.023	10717
885.148	10714
885.274	10683
885.399	10725
885.524	10725
885.65	10615
885.775	10645
885.9	10584
886.025	10531
886.15	10519
886.275	10447
886.4	10409
886.525	10428
886.65	10352
886.775	10337
886.9	10497
887.025	10596
887.149	10382
887.274	10276
887.399	10249
887.523	10253
887.648	10204
887.773	10128
887.897	10215
888.021	10238
888.146	10143
888.27	10261
888.395	10291
888.519	10238
888.643	10147
888.767	10230
888.891	10071
889.015	10025
889.139	10067
889.263	10013
889.387	10059
889.511	10188
889.635	10048
889.759	9991
889.883	9979
890.006	9991
890.13	10055
890.254	10006
890.377	10029
890.501	9861
890.624	9880
890.748	9838
890.871	9751
890.995	9755
891.118	9728
891.241	9793
891.364	9720
891.488	9869
891.611	9766
891.734	9743
891.857	9736
891.98	9686
892.103	9850
892.226	9686
892.349	9656
892.471	9511
892.594	9584
892.717	9652
892.839	9625
892.962	9656
893.085	9633
893.207	9599
893.33	9538
893.452	9553
893.575	9648
893.697	9500
893.819	9622
893.941	9732
894.064	9561
894.186	9412
894.308	9359
894.43	9542
894.552	9595
894.674	9553
894.796	9397
894.918	9393
895.04	9382
895.161	9374
895.283	9287
895.405	9264
895.526	9264
895.648	9233
895.769	9211
895.891	9237
896.012	9359
896.134	9279
896.255	9127
896.376	9214
896.498	9241
896.619	9104
896.74	9131
896.861	9066
896.982	9230
897.103	9355
897.224	9188
897.345	9085
897.466	9001
897.587	8986
897.708	9051
897.828	9043
897.949	8925
898.07	8902
898.19	8960
898.311	8986
898.431	8929
898.552	8914
898.672	9043
898.792	8956
898.913	8918
899.033	8811
899.153	8746
899.273	8670
899.393	8686
899.513	8716
899.633	8720
899.753	8739
899.873	8674
899.993	8766
900.113	8686
900.232	8743
900.352	8712
900.472	8571
900.591	8568
900.711	8674
900.83	8564
900.95	8636
901.069	8731
901.189	8564
901.308	8480
901.427	8400
901.546	8492
901.665	8552
901.784	8507
901.904	8434
902.023	8343
902.141	8252
902.26	8157
902.379	8301
902.498	8210
902.617	8214
902.735	8294
902.854	8237
902.973	8244
903.091	8142
903.21	8157
903.328	8214
903.446	8134
903.565	8081
903.683	8084
903.801	7997
903.919	8111
904.038	8119
904.156	8058
904.274	8046
904.392	8001
904.51	8020
904.627	8092
904.745	8123
904.863	8096
904.981	7913
905.098	7898
905.216	7845
905.334	7925
905.451	7913
905.569	7898
905.686	7989
905.803	7925
905.921	7814
906.038	7894
906.155	7753
906.272	7753
906.389	7750
906.506	7628
906.623	7636
906.74	7658
906.857	7594
906.974	7586
907.091	7674
907.208	7776
907.324	7731
907.441	7582
907.557	7510
907.674	7438
907.79	7388
907.907	7434
908.023	7453
908.139	7415
908.256	7350
908.372	7350
908.488	7362
908.604	7289
908.72	7232
908.836	7282
908.952	7221
909.068	7285
909.184	7388
909.3	7274
909.415	7278
909.531	7297
909.647	7080
909.762	7114
909.878	7099
909.993	7179
910.108	7099
910.224	7084
910.339	7110
910.454	7015
910.57	7050
910.685	6932
910.8	7152
910.915	7122
911.03	7053
911.145	6882
911.259	6833
911.374	6916
911.489	6859
911.604	6848
911.718	6722
911.833	6684
911.947	6673
912.062	6585
912.176	6692
912.291	6738
912.405	6726
912.519	6806
912.633	6856
912.748	6734
912.862	6753
912.976	6650
913.09	6563
913.204	6547
913.318	6642
913.431	6703
913.545	6726
913.659	6738
913.772	6639
913.886	6547
914	6601
914.113	6574
914.226	6639
914.34	6593
914.453	6544
914.566	6578
914.68	6544
914.793	6585
914.906	6429
915.019	6388
915.132	6338
915.245	6445
915.358	6437
915.47	6502
915.583	6422
915.696	6429
915.809	6506
915.921	6582
916.034	6426
916.146	6418
916.259	6399
916.371	6422
916.483	6460
916.595	6369
916.708	6452
916.82	6346
916.932	6350
917.044	6395
917.156	6391
917.268	6331
917.38	6338
917.491	6289
917.603	6285
917.715	6353
917.826	6448
917.938	6346
918.049	6266
918.161	6361
918.272	6475
918.384	6418
918.495	6388
918.606	6327
918.717	6258
918.828	6266
918.939	6273
919.05	6254
919.161	6258
919.272	6163
919.383	6144
919.494	6296
919.604	6456
919.715	6270
919.826	6270
919.936	6262
920.047	6361
920.157	6308
920.267	6460
920.378	6331
920.488	6342
920.598	6528
920.708	6616
920.818	6456
920.928	6509
921.038	6635
921.148	6525
921.258	6384
921.368	6331
921.477	6201
921.587	6197
921.697	6129
921.806	6220
921.916	6034
922.025	5942
922.134	6019
922.244	5889
922.353	5977
922.462	5942
922.571	5760
922.68	5748
922.789	5718
922.898	5722
923.007	5691
923.116	5718
923.224	5710
923.333	5665
923.442	5581
923.55	5638
923.659	5630
923.767	5611
923.876	5589
923.984	5604
924.092	5520
924.201	5573
924.309	5554
924.417	5577
924.525	5497
924.633	5490
924.741	6144
924.849	5406
924.956	5501
925.064	5372
925.172	5326
925.279	5330
925.387	5372
925.494	5330
925.602	5421
925.709	5357
925.816	5315
925.924	5318
926.031	5334
926.138	5280
926.245	5296
926.352	5204
926.459	5307
926.566	5334
926.673	5189
926.779	5159
926.886	5143
926.993	5025
927.099	4980
927.206	4953
927.312	4991
927.419	5056
927.525	4991
927.631	4961
927.737	4892
927.843	4835
927.95	4778
928.056	4793
928.162	4843
928.267	4885
928.373	5406
928.479	4858
928.585	4656
928.69	4763
928.796	4782
928.901	4694
929.007	4538
929.112	4706
929.218	4668
929.323	4611
929.428	4535
929.533	4660
929.638	4527
929.743	4573
929.848	4584
929.953	4508
930.058	4428
930.163	4322
930.267	4341
930.372	4436
930.477	4322
930.581	4436
930.685	4352
930.79	4246
930.894	4287
930.998	4261
931.103	4413
931.207	4166
931.311	4097
931.415	4032
931.519	3930
931.623	3979
