Data from glass_V78500241_196.txt Node
Date: Wed Sep 01 19:15:51 CST 2021
User: usil
Spectrometer: V785-0024
Trigger mode: 0
Integration Time (sec): 4.000000E-1
Scans to average: 1
Nonlinearity correction enabled: false
Boxcar width: 0
Storing dark spectrum: false
XAxis mode: Wavelengths
Number of Pixels in Spectrum: 1024
>>>>>Begin Spectral Data<<<<<
801.071	3720
801.214	3766
801.356	3751
801.499	3781
801.641	3751
801.783	3797
801.926	3899
802.068	3835
802.211	3899
802.353	3873
802.496	3850
802.638	3907
802.78	3934
802.923	3960
803.065	3956
803.208	3888
803.35	3888
803.492	3892
803.635	3907
803.777	3804
803.919	3926
804.061	4181
804.204	3941
804.346	3934
804.488	3903
804.63	4040
804.773	3930
804.915	4059
805.057	4166
805.199	4074
805.341	4082
805.483	4150
805.626	4166
805.768	4143
805.91	4200
806.052	4227
806.194	4200
806.336	4356
806.478	4211
806.62	4158
806.762	4223
806.904	4284
807.046	4322
807.188	4227
807.33	4204
807.472	4246
807.614	4188
807.756	4314
807.898	4169
808.04	4207
808.182	4310
808.324	4348
808.465	4352
808.607	4462
808.749	4481
808.891	4485
809.033	4561
809.174	4402
809.316	4268
809.458	4287
809.6	4143
809.741	4154
809.883	4116
810.025	4272
810.166	4242
810.308	4246
810.45	4261
810.591	4238
810.733	4295
810.875	4512
811.016	4816
811.158	5064
811.299	5280
811.441	5280
811.582	5083
811.724	4714
811.865	4489
812.007	4538
812.148	4451
812.29	4432
812.431	4413
812.573	4402
812.714	4363
812.855	4451
812.997	4421
813.138	4478
813.279	4428
813.421	4386
813.562	4337
813.703	4352
813.845	4310
813.986	4318
814.127	4223
814.268	4261
814.41	4306
814.551	4234
814.692	4306
814.833	4272
814.974	4333
815.115	4325
815.256	4246
815.397	4249
815.539	4242
815.68	4188
815.821	4223
815.962	4367
816.103	4265
816.244	4246
816.385	4253
816.526	4314
816.666	4211
816.807	4082
816.948	4219
817.089	4204
817.23	4116
817.371	4071
817.512	4067
817.653	4048
817.793	4067
817.934	4029
818.075	4200
818.216	4055
818.356	4112
818.497	3994
818.638	3903
818.778	3968
818.919	3903
819.06	3873
819.2	3934
819.341	3922
819.481	3835
819.622	3930
819.762	3983
819.903	3975
820.043	3884
820.184	3880
820.324	3842
820.465	3918
820.605	3854
820.746	3857
820.886	3819
821.026	3953
821.167	3956
821.307	4051
821.447	4048
821.588	3956
821.728	3979
821.868	3949
822.008	3880
822.149	3918
822.289	3956
822.429	3785
822.569	3797
822.709	3835
822.849	3694
822.99	3720
823.13	3793
823.27	3789
823.41	3740
823.55	3740
823.69	3740
823.83	3751
823.97	3694
824.11	3595
824.25	3629
824.389	3637
824.529	3690
824.669	3679
824.809	3720
824.949	3759
825.089	3740
825.228	3717
825.368	3591
825.508	3584
825.648	3557
825.787	3641
825.927	3705
826.067	3648
826.206	3720
826.346	3766
826.485	3865
826.625	3869
826.765	3983
826.904	3846
827.044	3606
827.183	3545
827.323	3496
827.462	3481
827.601	3450
827.741	3477
827.88	3439
828.02	3405
828.159	3450
828.298	3477
828.437	3538
828.577	3488
828.716	3633
828.855	3511
828.994	3389
829.134	3382
829.273	3405
829.412	3348
829.551	3359
829.69	3351
829.829	3454
829.968	3557
830.107	3462
830.246	3462
830.385	3397
830.524	3370
830.663	3336
830.802	3283
830.941	3241
831.08	3195
831.219	3268
831.357	3260
831.496	3412
831.635	3268
831.774	3184
831.913	3195
832.051	3165
832.19	3146
832.329	3195
832.467	3161
832.606	3119
832.744	3169
832.883	3211
833.022	3241
833.16	3226
833.299	3336
833.437	3370
833.576	3397
833.714	3405
833.852	3424
833.991	3488
834.129	3477
834.267	3466
834.406	3382
834.544	3469
834.682	3424
834.821	3393
834.959	3595
835.097	3416
835.235	3538
835.373	3530
835.511	3507
835.65	3477
835.788	3507
835.926	3424
836.064	3428
836.202	3374
836.34	3591
836.478	3618
836.615	3580
836.753	3610
836.891	3637
837.029	3660
837.167	3629
837.305	3561
837.443	3561
837.58	3466
837.718	3629
837.856	3564
837.993	3568
838.131	3603
838.269	3568
838.406	3614
838.544	3606
838.681	3515
838.819	3450
838.956	3393
839.094	3405
839.231	3492
839.369	3504
839.506	3755
839.643	3625
839.781	3496
839.918	3477
840.055	3591
840.193	3557
840.33	3538
840.467	3603
840.604	3637
840.742	3770
840.879	3580
841.016	3572
841.153	3622
841.29	3751
841.427	3698
841.564	3759
841.701	3797
841.838	3694
841.975	3663
842.112	3740
842.249	3701
842.385	3629
842.522	3865
842.659	3717
842.796	3705
842.933	3667
843.069	3694
843.206	3747
843.343	3800
843.479	3778
843.616	3831
843.752	3663
843.889	3709
844.025	3861
844.162	3740
844.298	3846
844.435	3800
844.571	3778
844.708	3922
844.844	3964
844.98	4051
845.117	4059
845.253	3945
845.389	3964
845.525	3983
845.661	3972
845.798	3979
845.934	4021
846.07	3983
846.206	4116
846.342	4128
846.478	4059
846.614	3994
846.75	3960
846.886	3941
847.022	4105
847.158	3964
847.294	4025
847.429	3998
847.565	4021
847.701	4265
847.837	3869
847.972	3892
848.108	3972
848.244	3998
848.379	3861
848.515	3876
848.65	3861
848.786	3869
848.921	3888
849.057	4010
849.192	3972
849.328	3915
849.463	3907
849.598	3888
849.734	3873
849.869	3869
850.004	3762
850.14	3793
850.275	3762
850.41	3759
850.545	3789
850.68	3766
850.815	3842
850.95	3781
851.085	3956
851.22	3876
851.355	3816
851.49	3808
851.625	3808
851.76	3846
851.895	3755
852.03	3732
852.165	3800
852.299	3842
852.434	3960
852.569	3838
852.703	3892
852.838	3975
852.973	4002
853.107	4006
853.242	3869
853.376	3911
853.511	3800
853.645	3819
853.78	3983
853.914	3884
854.048	3888
854.183	3869
854.317	3945
854.451	4093
854.585	3983
854.72	3956
854.854	4025
854.988	3987
855.122	4013
855.256	3869
855.39	4032
855.524	4101
855.658	4139
855.792	4074
855.926	4128
856.06	4166
856.194	4223
856.327	4173
856.461	4093
856.595	4158
856.729	4196
856.862	4291
856.996	4272
857.13	4333
857.263	4356
857.397	4348
857.53	4291
857.664	4341
857.797	4383
857.931	4440
858.064	4428
858.197	4459
858.331	4390
858.464	4398
858.597	4386
858.731	4504
858.864	4504
858.997	4500
859.13	4527
859.263	4538
859.396	4584
859.529	4622
859.662	4573
859.795	4531
859.928	4607
860.061	4714
860.194	4744
860.327	4622
860.46	4630
860.592	4782
860.725	4755
860.858	4771
860.99	4706
861.123	4702
861.256	4729
861.388	4763
861.521	5376
861.653	4740
861.786	4714
861.918	4782
862.05	4793
862.183	4835
862.315	4877
862.447	4968
862.58	4870
862.712	4805
862.844	4835
862.976	4866
863.108	4862
863.24	5235
863.372	4843
863.504	4919
863.636	4949
863.768	4953
863.9	4980
864.032	4934
864.164	4987
864.296	4968
864.428	5060
864.559	5124
864.691	5181
864.823	5098
864.954	5189
865.086	5193
865.217	5143
865.349	5170
865.48	5204
865.612	5261
865.743	5307
865.875	5216
866.006	5212
866.137	5239
866.269	5273
866.4	5185
866.531	5254
866.662	5250
866.793	5288
866.924	5307
867.055	5398
867.186	5318
867.317	5357
867.448	5292
867.579	5395
867.71	5402
867.841	5391
867.972	5471
868.103	5429
868.233	5505
868.364	5516
868.495	5608
868.625	5691
868.756	5836
868.886	5668
869.017	5695
869.147	5866
869.278	5863
869.408	5840
869.539	5866
869.669	5931
869.799	5908
869.929	6022
870.06	6049
870.19	6228
870.32	6171
870.45	6323
870.58	6319
870.71	6433
870.84	6521
870.97	6414
871.1	6498
871.23	6631
871.36	6681
871.489	6646
871.619	6741
871.749	6779
871.879	6863
872.008	7046
872.138	6924
872.267	6989
872.397	7034
872.526	7027
872.656	7137
872.785	7206
872.915	7384
873.044	7540
873.173	7548
873.303	7677
873.432	7811
873.561	7845
873.69	7864
873.819	8043
873.948	8225
874.077	8244
874.206	8351
874.335	8476
874.464	8590
874.593	8788
874.722	8933
874.851	9176
874.979	9241
875.108	9393
875.237	9374
875.365	9492
875.494	9618
875.623	9800
875.751	9876
875.88	10006
876.008	10120
876.136	10272
876.265	10588
876.393	10717
876.521	10717
876.65	10835
876.778	10820
876.906	10980
877.034	11010
877.162	11105
877.29	11204
877.418	11315
877.546	11326
877.674	11505
877.802	11573
877.93	11516
878.058	11493
878.185	11547
878.313	11699
878.441	11779
878.568	11748
878.696	11794
878.824	11874
878.951	11916
879.079	12068
879.206	12155
879.333	12110
879.461	11977
879.588	12038
879.715	12106
879.842	12270
879.97	12072
880.097	11874
880.224	11863
880.351	11840
880.478	11958
880.605	11824
880.732	11851
880.859	11901
880.986	11790
881.112	11802
881.239	11703
881.366	11623
881.493	11592
881.619	11566
881.746	11589
881.872	11554
881.999	11539
882.125	11478
882.252	11581
882.378	11581
882.505	11512
882.631	11353
882.757	11341
882.883	11368
883.01	11242
883.136	11277
883.262	11162
883.388	11105
883.514	11155
883.64	11265
883.766	11162
883.892	11045
884.018	11014
884.143	11064
884.269	11052
884.395	10885
884.52	10828
884.646	10793
884.772	10790
884.897	10660
885.023	10755
885.148	10755
885.274	10835
885.399	10618
885.524	10603
885.65	10618
885.775	10577
885.9	10558
886.025	10611
886.15	10523
886.275	10470
886.4	10481
886.525	10459
886.65	10356
886.775	10306
886.9	10512
887.025	10504
887.149	10291
887.274	10325
887.399	10139
887.523	10154
887.648	10128
887.773	10093
887.897	10284
888.021	10276
888.146	10158
888.27	10242
888.395	10234
888.519	10242
888.643	10188
888.767	10284
888.891	10071
889.015	10017
889.139	10055
889.263	10021
889.387	10109
889.511	10116
889.635	10090
889.759	10013
889.883	10017
890.006	10051
890.13	10124
890.254	9991
890.377	9975
890.501	9812
890.624	9892
890.748	9873
890.871	9774
890.995	9800
891.118	9793
891.241	9816
891.364	9728
891.488	9880
891.611	9854
891.734	9823
891.857	9865
891.98	9751
892.103	9850
892.226	9717
892.349	9641
892.471	9530
892.594	9591
892.717	9633
892.839	9633
892.962	9618
893.085	9629
893.207	9576
893.33	9447
893.452	9519
893.575	9660
893.697	9523
893.819	9595
893.941	9603
894.064	9599
894.186	9466
894.308	9431
894.43	9561
894.552	9538
894.674	9523
894.796	9363
894.918	9405
895.04	9393
895.161	9424
895.283	9363
895.405	9253
895.526	9264
895.648	9268
895.769	9370
895.891	9310
896.012	9226
896.134	9203
896.255	9184
896.376	9165
896.498	9173
896.619	9184
896.74	9131
896.861	9150
896.982	9310
897.103	9351
897.224	9230
897.345	9108
897.466	9013
897.587	9043
897.708	9119
897.828	9032
897.949	8963
898.07	8845
898.19	8887
898.311	8971
898.431	8967
898.552	8975
898.672	8990
898.792	9013
898.913	8906
899.033	8819
899.153	8727
899.273	8663
899.393	8777
899.513	8766
899.633	8716
899.753	8743
899.873	8727
899.993	8792
900.113	8667
900.232	8815
900.352	8689
900.472	8587
900.591	8583
900.711	8598
900.83	8522
900.95	8682
901.069	8659
901.189	8617
901.308	8488
901.427	8469
901.546	8423
901.665	8533
901.784	8560
901.904	8370
902.023	8393
902.141	8267
902.26	8271
902.379	8252
902.498	8172
902.617	8244
902.735	8290
902.854	8256
902.973	8336
903.091	8199
903.21	8214
903.328	8191
903.446	8119
903.565	8065
903.683	8081
903.801	8031
903.919	8130
904.038	8172
904.156	8065
904.274	8161
904.392	8031
904.51	8027
904.627	8054
904.745	8103
904.863	8111
904.981	7917
905.098	7894
905.216	7917
905.334	7894
905.451	7883
905.569	7944
905.686	7997
905.803	7906
905.921	7765
906.038	7818
906.155	7841
906.272	7708
906.389	7647
906.506	7567
906.623	7620
906.74	7624
906.857	7453
906.974	7609
907.091	7693
907.208	7704
907.324	7677
907.441	7605
907.557	7480
907.674	7419
907.79	7407
907.907	7426
908.023	7460
908.139	7445
908.256	7415
908.372	7388
908.488	7358
908.604	7331
908.72	7247
908.836	7369
908.952	7225
909.068	7259
909.184	7293
909.3	7213
909.415	7320
909.531	7198
909.647	7107
909.762	7149
909.878	7091
909.993	7141
910.108	7118
910.224	7084
910.339	7061
910.454	7091
910.57	7000
910.685	6977
910.8	7160
910.915	7168
911.03	7023
911.145	6935
911.259	6886
911.374	6909
911.489	6825
911.604	6848
911.718	6730
911.833	6700
911.947	6703
912.062	6597
912.176	6722
912.291	6719
912.405	6745
912.519	6764
912.633	6859
912.748	6738
912.862	6703
912.976	6673
913.09	6566
913.204	6597
913.318	6673
913.431	6741
913.545	6700
913.659	6734
913.772	6684
913.886	6559
914	6509
914.113	6623
914.226	6665
914.34	6631
914.453	6555
914.566	6703
914.68	6544
914.793	6532
914.906	6410
915.019	6403
915.132	6372
915.245	6429
915.358	6467
915.47	6437
915.583	6422
915.696	6464
915.809	6517
915.921	6544
916.034	6448
916.146	6403
916.259	6380
916.371	6490
916.483	6426
916.595	6399
916.708	6479
916.82	6346
916.932	6460
917.044	6403
917.156	6452
917.268	6262
917.38	6384
917.491	6361
917.603	6372
917.715	6433
917.826	6399
917.938	6331
918.049	6239
918.161	6331
918.272	6467
918.384	6429
918.495	6334
918.606	6292
918.717	6232
918.828	6296
918.939	6281
919.05	6235
919.161	6251
919.272	6106
919.383	6129
919.494	6304
919.604	6452
919.715	6308
919.826	6197
919.936	6251
920.047	6327
920.157	6285
920.267	6471
920.378	6331
920.488	6338
920.598	6452
920.708	6578
920.818	6467
920.928	6517
921.038	6604
921.148	6563
921.258	6361
921.368	6323
921.477	6171
921.587	6171
921.697	6129
921.806	6220
921.916	6064
922.025	5996
922.134	5897
922.244	5908
922.353	6007
922.462	5874
922.571	5798
922.68	5680
922.789	5699
922.898	5745
923.007	5615
923.116	5661
923.224	5722
923.333	5649
923.442	5657
923.55	5558
923.659	5570
923.767	5627
923.876	5585
923.984	5570
924.092	5471
924.201	5554
924.309	5551
924.417	5604
924.525	5532
924.633	5493
924.741	6190
924.849	5444
924.956	5516
925.064	5372
925.172	5318
925.279	5364
925.387	5334
925.494	5353
925.602	5448
925.709	5387
925.816	5261
925.924	5334
926.031	5360
926.138	5334
926.245	5311
926.352	5273
926.459	5341
926.566	5341
926.673	5239
926.779	5140
926.886	5159
926.993	5045
927.099	5022
927.206	4991
927.312	4972
927.419	5056
927.525	4972
927.631	5010
927.737	4900
927.843	4816
927.95	4782
928.056	4862
928.162	4839
928.267	4908
928.373	5258
928.479	4877
928.585	4687
928.69	4774
928.796	4805
928.901	4698
929.007	4573
929.112	4694
929.218	4675
929.323	4634
929.428	4588
929.533	4702
929.638	4497
929.743	4565
929.848	4531
929.953	4516
930.058	4451
930.163	4352
930.267	4375
930.372	4436
930.477	4356
930.581	4462
930.685	4386
930.79	4253
930.894	4314
930.998	4276
931.103	4451
931.207	4147
931.311	4078
931.415	4021
931.519	3926
931.623	3960
