Data from glass_V78500241_2857.txt Node
Date: Wed Sep 01 19:34:18 CST 2021
User: usil
Spectrometer: V785-0024
Trigger mode: 0
Integration Time (sec): 4.000000E-1
Scans to average: 1
Nonlinearity correction enabled: false
Boxcar width: 0
Storing dark spectrum: false
XAxis mode: Wavelengths
Number of Pixels in Spectrum: 1024
>>>>>Begin Spectral Data<<<<<
801.071	3717
801.214	3743
801.356	3690
801.499	3701
801.641	3720
801.783	3770
801.926	3880
802.068	3819
802.211	3842
802.353	3873
802.496	3800
802.638	3869
802.78	3869
802.923	3907
803.065	3884
803.208	3823
803.35	3880
803.492	3888
803.635	3896
803.777	3774
803.919	3911
804.061	4090
804.204	3922
804.346	3903
804.488	3861
804.63	4029
804.773	3953
804.915	3987
805.057	4128
805.199	4017
805.341	4044
805.483	4048
805.626	4086
805.768	4082
805.91	4215
806.052	4207
806.194	4166
806.336	4318
806.478	4162
806.62	4147
806.762	4166
806.904	4230
807.046	4344
807.188	4211
807.33	4192
807.472	4211
807.614	4177
807.756	4249
807.898	4169
808.04	4166
808.182	4284
808.324	4318
808.465	4390
808.607	4409
808.749	4447
808.891	4447
809.033	4538
809.174	4409
809.316	4192
809.458	4173
809.6	4135
809.741	4139
809.883	4124
810.025	4200
810.166	4204
810.308	4185
810.45	4207
810.591	4200
810.733	4291
810.875	4466
811.016	4816
811.158	5124
811.299	5258
811.441	5231
811.582	5090
811.724	4710
811.865	4466
812.007	4436
812.148	4413
812.29	4394
812.431	4375
812.573	4405
812.714	4386
812.855	4379
812.997	4383
813.138	4466
813.279	4352
813.421	4360
813.562	4363
813.703	4280
813.845	4333
813.986	4204
814.127	4196
814.268	4246
814.41	4291
814.551	4249
814.692	4253
814.833	4215
814.974	4295
815.115	4329
815.256	4234
815.397	4219
815.539	4242
815.68	4188
815.821	4207
815.962	4303
816.103	4249
816.244	4238
816.385	4188
816.526	4249
816.666	4166
816.807	4093
816.948	4162
817.089	4139
817.23	4059
817.371	4017
817.512	4048
817.653	4067
817.793	4010
817.934	4010
818.075	4116
818.216	4048
818.356	4051
818.497	3975
818.638	3903
818.778	3880
818.919	3903
819.06	3816
819.2	3880
819.341	3835
819.481	3808
819.622	3884
819.762	4013
819.903	3899
820.043	3857
820.184	3819
820.324	3797
820.465	3869
820.605	3812
820.746	3873
820.886	3800
821.026	3964
821.167	3865
821.307	3926
821.447	3941
821.588	3941
821.728	3892
821.868	3903
822.008	3869
822.149	3854
822.289	3838
822.429	3781
822.569	3736
822.709	3808
822.849	3705
822.99	3732
823.13	3720
823.27	3766
823.41	3671
823.55	3694
823.69	3724
823.83	3740
823.97	3648
824.11	3591
824.25	3603
824.389	3614
824.529	3648
824.669	3599
824.809	3686
824.949	3675
825.089	3728
825.228	3682
825.368	3599
825.508	3561
825.648	3561
825.787	3610
825.927	3595
826.067	3618
826.206	3660
826.346	3728
826.485	3812
826.625	3812
826.765	3903
826.904	3838
827.044	3606
827.183	3507
827.323	3397
827.462	3477
827.601	3386
827.741	3389
827.88	3431
828.02	3332
828.159	3447
828.298	3450
828.437	3526
828.577	3439
828.716	3538
828.855	3477
828.994	3332
829.134	3344
829.273	3363
829.412	3325
829.551	3344
829.69	3321
829.829	3416
829.968	3481
830.107	3466
830.246	3409
830.385	3355
830.524	3363
830.663	3283
830.802	3256
830.941	3184
831.08	3173
831.219	3203
831.357	3245
831.496	3389
831.635	3211
831.774	3161
831.913	3211
832.051	3127
832.19	3169
832.329	3211
832.467	3119
832.606	3081
832.744	3184
832.883	3188
833.022	3192
833.16	3260
833.299	3264
833.437	3348
833.576	3378
833.714	3389
833.852	3435
833.991	3420
834.129	3466
834.267	3424
834.406	3363
834.544	3409
834.682	3412
834.821	3401
834.959	3561
835.097	3393
835.235	3500
835.373	3473
835.511	3488
835.65	3416
835.788	3458
835.926	3401
836.064	3386
836.202	3401
836.34	3519
836.478	3576
836.615	3511
836.753	3622
836.891	3644
837.029	3618
837.167	3595
837.305	3496
837.443	3515
837.58	3466
837.718	3557
837.856	3538
837.993	3545
838.131	3572
838.269	3557
838.406	3557
838.544	3526
838.681	3447
838.819	3431
838.956	3401
839.094	3401
839.231	3443
839.369	3504
839.506	3675
839.643	3603
839.781	3466
839.918	3477
840.055	3523
840.193	3526
840.33	3504
840.467	3534
840.604	3603
840.742	3755
840.879	3542
841.016	3511
841.153	3591
841.29	3732
841.427	3717
841.564	3682
841.701	3759
841.838	3682
841.975	3618
842.112	3694
842.249	3606
842.385	3633
842.522	3804
842.659	3679
842.796	3671
842.933	3705
843.069	3694
843.206	3648
843.343	3785
843.479	3759
843.616	3789
843.752	3629
843.889	3663
844.025	3838
844.162	3682
844.298	3846
844.435	3774
844.571	3770
844.708	3873
844.844	3949
844.98	3994
845.117	4029
845.253	3884
845.389	3903
845.525	3949
845.661	4006
845.798	3880
845.934	3964
846.07	3876
846.206	4074
846.342	4105
846.478	4013
846.614	3953
846.75	3945
846.886	3880
847.022	3994
847.158	3972
847.294	3987
847.429	4036
847.565	3983
847.701	4200
847.837	3876
847.972	3865
848.108	3945
848.244	3983
848.379	3838
848.515	3808
848.65	3785
848.786	3827
848.921	3831
849.057	3930
849.192	3911
849.328	3884
849.463	3915
849.598	3873
849.734	3808
849.869	3812
850.004	3793
850.14	3800
850.275	3785
850.41	3720
850.545	3755
850.68	3766
850.815	3778
850.95	3774
851.085	3918
851.22	3838
851.355	3808
851.49	3778
851.625	3751
851.76	3766
851.895	3724
852.03	3709
852.165	3770
852.299	3800
852.434	3861
852.569	3854
852.703	3819
852.838	3918
852.973	3991
853.107	3956
853.242	3850
853.376	3846
853.511	3762
853.645	3785
853.78	3949
853.914	3869
854.048	3850
854.183	3884
854.317	3915
854.451	4025
854.585	3937
854.72	3903
854.854	4032
854.988	3918
855.122	3968
855.256	3937
855.39	4006
855.524	4109
855.658	3994
855.792	4044
855.926	4112
856.06	4135
856.194	4192
856.327	4120
856.461	4067
856.595	4177
856.729	4147
856.862	4246
856.996	4242
857.13	4276
857.263	4310
857.397	4344
857.53	4276
857.664	4329
857.797	4394
857.931	4413
858.064	4360
858.197	4432
858.331	4341
858.464	4363
858.597	4341
858.731	4417
858.864	4459
858.997	4413
859.13	4440
859.263	4527
859.396	4561
859.529	4500
859.662	4569
859.795	4565
859.928	4542
860.061	4656
860.194	4698
860.327	4637
860.46	4649
860.592	4733
860.725	4759
860.858	4748
860.99	4653
861.123	4679
861.256	4702
861.388	4744
861.521	5292
861.653	4725
861.786	4736
861.918	4725
862.05	4767
862.183	4805
862.315	4858
862.447	4942
862.58	4866
862.712	4759
862.844	4752
862.976	4870
863.108	4850
863.24	5212
863.372	4782
863.504	4915
863.636	4870
863.768	4942
863.9	4934
864.032	4919
864.164	4938
864.296	5056
864.428	5067
864.559	5094
864.691	5079
864.823	5102
864.954	5094
865.086	5124
865.217	5090
865.349	5121
865.48	5109
865.612	5147
865.743	5292
865.875	5212
866.006	5181
866.137	5227
866.269	5174
866.4	5223
866.531	5220
866.662	5212
866.793	5220
866.924	5269
867.055	5311
867.186	5318
867.317	5273
867.448	5296
867.579	5360
867.71	5334
867.841	5345
867.972	5452
868.103	5417
868.233	5459
868.364	5459
868.495	5524
868.625	5638
868.756	5764
868.886	5623
869.017	5718
869.147	5851
869.278	5851
869.408	5741
869.539	5817
869.669	5882
869.799	5904
869.929	6007
870.06	6038
870.19	6182
870.32	6140
870.45	6239
870.58	6346
870.71	6471
870.84	6460
870.97	6395
871.1	6395
871.23	6608
871.36	6707
871.489	6631
871.619	6760
871.749	6821
871.879	6810
872.008	6943
872.138	6916
872.267	6966
872.397	6970
872.526	6989
872.656	7050
872.785	7156
872.915	7358
873.044	7491
873.173	7571
873.303	7597
873.432	7685
873.561	7845
873.69	7856
873.819	8035
873.948	8176
874.077	8206
874.206	8332
874.335	8454
874.464	8667
874.593	8781
874.722	8933
874.851	9119
874.979	9176
875.108	9329
875.237	9412
875.365	9534
875.494	9633
875.623	9827
875.751	9797
875.88	10013
876.008	10143
876.136	10253
876.265	10500
876.393	10733
876.521	10714
876.65	10793
876.778	10809
876.906	10957
877.034	10915
877.162	11048
877.29	11121
877.418	11273
877.546	11311
877.674	11490
877.802	11368
877.93	11398
878.058	11490
878.185	11543
878.313	11684
878.441	11672
878.568	11748
878.696	11859
878.824	11794
878.951	11882
879.079	11984
879.206	12121
879.333	11988
879.461	11946
879.588	12083
879.715	12171
879.842	12152
879.97	12068
880.097	11764
880.224	11863
880.351	11847
880.478	11958
880.605	11851
880.732	11851
880.859	11931
880.986	11821
881.112	11805
881.239	11710
881.366	11680
881.493	11623
881.619	11509
881.746	11554
881.872	11520
881.999	11429
882.125	11455
882.252	11505
882.378	11589
882.505	11493
882.631	11250
882.757	11341
882.883	11353
883.01	11216
883.136	11227
883.262	11162
883.388	11094
883.514	11147
883.64	11098
883.766	11098
883.892	10965
884.018	10881
884.143	11113
884.269	10961
884.395	10934
884.52	10725
884.646	10733
884.772	10664
884.897	10653
885.023	10679
885.148	10733
885.274	10767
885.399	10691
885.524	10599
885.65	10474
885.775	10584
885.9	10504
886.025	10607
886.15	10569
886.275	10409
886.4	10371
886.525	10402
886.65	10356
886.775	10356
886.9	10447
887.025	10512
887.149	10333
887.274	10211
887.399	10188
887.523	10169
887.648	10131
887.773	10162
887.897	10173
888.021	10188
888.146	10139
888.27	10131
888.395	10215
888.519	10181
888.643	10139
888.767	10177
888.891	10055
889.015	10021
889.139	10071
889.263	9934
889.387	10074
889.511	10154
889.635	10109
889.759	9880
889.883	9960
890.006	10017
890.13	10078
890.254	9972
890.377	9975
890.501	9797
890.624	9880
890.748	9812
890.871	9842
890.995	9698
891.118	9625
891.241	9804
891.364	9751
891.488	9846
891.611	9629
891.734	9671
891.857	9785
891.98	9686
892.103	9785
892.226	9629
892.349	9633
892.471	9557
892.594	9530
892.717	9606
892.839	9580
892.962	9538
893.085	9656
893.207	9564
893.33	9416
893.452	9507
893.575	9572
893.697	9447
893.819	9584
893.941	9587
894.064	9603
894.186	9397
894.308	9370
894.43	9504
894.552	9576
894.674	9488
894.796	9393
894.918	9389
895.04	9340
895.161	9340
895.283	9310
895.405	9195
895.526	9237
895.648	9218
895.769	9192
895.891	9260
896.012	9260
896.134	9294
896.255	9173
896.376	9085
896.498	9184
896.619	9157
896.74	9028
896.861	9127
896.982	9294
897.103	9283
897.224	9180
897.345	9032
897.466	9039
897.587	8998
897.708	8979
897.828	9024
897.949	8918
898.07	8933
898.19	8819
898.311	8982
898.431	8868
898.552	8891
898.672	8933
898.792	8963
898.913	8887
899.033	8754
899.153	8739
899.273	8533
899.393	8678
899.513	8750
899.633	8693
899.753	8766
899.873	8644
899.993	8746
900.113	8689
900.232	8655
900.352	8667
900.472	8526
900.591	8629
900.711	8492
900.83	8545
900.95	8678
901.069	8693
901.189	8522
901.308	8343
901.427	8400
901.546	8442
901.665	8492
901.784	8511
901.904	8358
902.023	8240
902.141	8275
902.26	8183
902.379	8248
902.498	8202
902.617	8187
902.735	8275
902.854	8263
902.973	8263
903.091	8107
903.21	8073
903.328	8142
903.446	8096
903.565	8073
903.683	8069
903.801	8096
903.919	8062
904.038	8092
904.156	8027
904.274	8073
904.392	7944
904.51	7978
904.627	8012
904.745	8039
904.863	8050
904.981	7845
905.098	7894
905.216	7799
905.334	7921
905.451	7871
905.569	7830
905.686	7993
905.803	7970
905.921	7788
906.038	7811
906.155	7772
906.272	7693
906.389	7727
906.506	7590
906.623	7609
906.74	7552
906.857	7411
906.974	7499
907.091	7616
907.208	7670
907.324	7708
907.441	7514
907.557	7502
907.674	7411
907.79	7411
907.907	7377
908.023	7419
908.139	7339
908.256	7308
908.372	7320
908.488	7331
908.604	7255
908.72	7225
908.836	7270
908.952	7183
909.068	7236
909.184	7346
909.3	7247
909.415	7251
909.531	7266
909.647	7149
909.762	7084
909.878	7110
909.993	7088
910.108	7088
910.224	7061
910.339	7076
910.454	7091
910.57	6966
910.685	6958
910.8	7160
910.915	7069
911.03	6977
911.145	6863
911.259	6783
911.374	6875
911.489	6852
911.604	6810
911.718	6707
911.833	6757
911.947	6665
912.062	6620
912.176	6692
912.291	6658
912.405	6700
912.519	6806
912.633	6837
912.748	6684
912.862	6703
912.976	6563
913.09	6506
913.204	6612
913.318	6547
913.431	6677
913.545	6650
913.659	6662
913.772	6585
913.886	6563
914	6494
914.113	6597
914.226	6635
914.34	6540
914.453	6448
914.566	6551
914.68	6490
914.793	6528
914.906	6414
915.019	6403
915.132	6350
915.245	6384
915.358	6433
915.47	6384
915.583	6414
915.696	6429
915.809	6517
915.921	6566
916.034	6353
916.146	6498
916.259	6403
916.371	6456
916.483	6391
916.595	6361
916.708	6445
916.82	6395
916.932	6342
917.044	6331
917.156	6357
917.268	6262
917.38	6342
917.491	6357
917.603	6334
917.715	6327
917.826	6429
917.938	6311
918.049	6281
918.161	6296
918.272	6437
918.384	6426
918.495	6334
918.606	6205
918.717	6209
918.828	6247
918.939	6281
919.05	6190
919.161	6205
919.272	6083
919.383	6136
919.494	6285
919.604	6353
919.715	6247
919.826	6167
919.936	6281
920.047	6334
920.157	6251
920.267	6365
920.378	6281
920.488	6281
920.598	6433
920.708	6532
920.818	6422
920.928	6410
921.038	6555
921.148	6589
921.258	6365
921.368	6277
921.477	6129
921.587	6133
921.697	6095
921.806	6171
921.916	6117
922.025	5965
922.134	5927
922.244	5840
922.353	5889
922.462	5821
922.571	5817
922.68	5688
922.789	5642
922.898	5665
923.007	5657
923.116	5710
923.224	5638
923.333	5642
923.442	5547
923.55	5581
923.659	5585
923.767	5566
923.876	5509
923.984	5570
924.092	5493
924.201	5562
924.309	5516
924.417	5589
924.525	5478
924.633	5463
924.741	6144
924.849	5296
924.956	5440
925.064	5364
925.172	5292
925.279	5311
925.387	5349
925.494	5273
925.602	5391
925.709	5330
925.816	5242
925.924	5311
926.031	5345
926.138	5265
926.245	5299
926.352	5197
926.459	5315
926.566	5334
926.673	5185
926.779	5174
926.886	5102
926.993	5018
927.099	4965
927.206	4984
927.312	4919
927.419	5006
927.525	4961
927.631	4976
927.737	4862
927.843	4820
927.95	4759
928.056	4782
928.162	4828
928.267	4828
928.373	5212
928.479	4820
928.585	4714
928.69	4778
928.796	4782
928.901	4645
929.007	4573
929.112	4675
929.218	4634
929.323	4599
929.428	4546
929.533	4660
929.638	4504
929.743	4519
929.848	4527
929.953	4493
930.058	4417
930.163	4367
930.267	4333
930.372	4402
930.477	4318
930.581	4417
930.685	4337
930.79	4215
930.894	4299
930.998	4230
931.103	4386
931.207	4116
931.311	4063
931.415	4029
931.519	3960
931.623	3926
