Data from glass_V78500241_2372.txt Node
Date: Wed Sep 01 19:30:56 CST 2021
User: usil
Spectrometer: V785-0024
Trigger mode: 0
Integration Time (sec): 4.000000E-1
Scans to average: 1
Nonlinearity correction enabled: false
Boxcar width: 0
Storing dark spectrum: false
XAxis mode: Wavelengths
Number of Pixels in Spectrum: 1024
>>>>>Begin Spectral Data<<<<<
801.071	3759
801.214	3728
801.356	3682
801.499	3736
801.641	3766
801.783	3808
801.926	3831
802.068	3762
802.211	3827
802.353	3892
802.496	3838
802.638	3873
802.78	3876
802.923	3926
803.065	3892
803.208	3850
803.35	3850
803.492	3907
803.635	3941
803.777	3804
803.919	3911
804.061	4150
804.204	3991
804.346	3930
804.488	3930
804.63	4040
804.773	3937
804.915	4025
805.057	4135
805.199	4021
805.341	4112
805.483	4227
805.626	4093
805.768	4143
805.91	4169
806.052	4234
806.194	4196
806.336	4352
806.478	4223
806.62	4196
806.762	4192
806.904	4230
807.046	4363
807.188	4211
807.33	4147
807.472	4257
807.614	4166
807.756	4276
807.898	4219
808.04	4234
808.182	4310
808.324	4299
808.465	4390
808.607	4455
808.749	4455
808.891	4462
809.033	4470
809.174	4386
809.316	4261
809.458	4249
809.6	4082
809.741	4124
809.883	4166
810.025	4162
810.166	4230
810.308	4204
810.45	4238
810.591	4207
810.733	4246
810.875	4493
811.016	4839
811.158	5140
811.299	5193
811.441	5235
811.582	5056
811.724	4702
811.865	4462
812.007	4375
812.148	4428
812.29	4329
812.431	4390
812.573	4371
812.714	4363
812.855	4424
812.997	4428
813.138	4466
813.279	4432
813.421	4390
813.562	4390
813.703	4325
813.845	4295
813.986	4280
814.127	4200
814.268	4230
814.41	4257
814.551	4192
814.692	4337
814.833	4325
814.974	4310
815.115	4348
815.256	4223
815.397	4246
815.539	4253
815.68	4192
815.821	4242
815.962	4333
816.103	4234
816.244	4238
816.385	4204
816.526	4242
816.666	4249
816.807	4093
816.948	4200
817.089	4101
817.23	4147
817.371	4036
817.512	4032
817.653	4090
817.793	4029
817.934	4051
818.075	4067
818.216	4078
818.356	4055
818.497	4002
818.638	3918
818.778	3911
818.919	3831
819.06	3869
819.2	3903
819.341	3842
819.481	3831
819.622	3884
819.762	3998
819.903	3960
820.043	3865
820.184	3831
820.324	3823
820.465	3831
820.605	3846
820.746	3869
820.886	3846
821.026	3941
821.167	3937
821.307	3994
821.447	3979
821.588	3903
821.728	3937
821.868	3945
822.008	3896
822.149	3941
822.289	3911
822.429	3759
822.569	3728
822.709	3774
822.849	3732
822.99	3717
823.13	3755
823.27	3778
823.41	3675
823.55	3728
823.69	3743
823.83	3724
823.97	3648
824.11	3599
824.25	3572
824.389	3633
824.529	3671
824.669	3625
824.809	3732
824.949	3747
825.089	3705
825.228	3705
825.368	3519
825.508	3545
825.648	3534
825.787	3625
825.927	3667
826.067	3584
826.206	3705
826.346	3766
826.485	3816
826.625	3835
826.765	3903
826.904	3827
827.044	3610
827.183	3496
827.323	3416
827.462	3447
827.601	3409
827.741	3409
827.88	3458
828.02	3359
828.159	3469
828.298	3481
828.437	3530
828.577	3443
828.716	3584
828.855	3500
828.994	3401
829.134	3351
829.273	3374
829.412	3374
829.551	3359
829.69	3348
829.829	3428
829.968	3488
830.107	3382
830.246	3447
830.385	3382
830.524	3329
830.663	3302
830.802	3233
830.941	3169
831.08	3214
831.219	3279
831.357	3272
831.496	3416
831.635	3218
831.774	3138
831.913	3173
832.051	3142
832.19	3138
832.329	3226
832.467	3157
832.606	3112
832.744	3157
832.883	3188
833.022	3203
833.16	3256
833.299	3291
833.437	3317
833.576	3351
833.714	3405
833.852	3409
833.991	3424
834.129	3447
834.267	3424
834.406	3397
834.544	3378
834.682	3439
834.821	3443
834.959	3587
835.097	3412
835.235	3473
835.373	3466
835.511	3492
835.65	3435
835.788	3496
835.926	3355
836.064	3405
836.202	3409
836.34	3530
836.478	3603
836.615	3530
836.753	3599
836.891	3644
837.029	3644
837.167	3606
837.305	3530
837.443	3538
837.58	3534
837.718	3599
837.856	3530
837.993	3488
838.131	3614
838.269	3572
838.406	3599
838.544	3553
838.681	3450
838.819	3458
838.956	3348
839.094	3416
839.231	3420
839.369	3473
839.506	3732
839.643	3610
839.781	3473
839.918	3424
840.055	3504
840.193	3542
840.33	3500
840.467	3511
840.604	3584
840.742	3831
840.879	3538
841.016	3545
841.153	3580
841.29	3808
841.427	3686
841.564	3667
841.701	3717
841.838	3713
841.975	3690
842.112	3720
842.249	3633
842.385	3606
842.522	3800
842.659	3709
842.796	3671
842.933	3682
843.069	3667
843.206	3671
843.343	3808
843.479	3770
843.616	3804
843.752	3682
843.889	3698
844.025	3846
844.162	3724
844.298	3854
844.435	3789
844.571	3808
844.708	3846
844.844	3975
844.98	4006
845.117	3994
845.253	3945
845.389	3842
845.525	3975
845.661	3915
845.798	3907
845.934	3975
846.07	3930
846.206	4071
846.342	4097
846.478	4086
846.614	3991
846.75	3915
846.886	3903
847.022	4013
847.158	4006
847.294	4006
847.429	3949
847.565	3991
847.701	4207
847.837	3880
847.972	3880
848.108	3964
848.244	3953
848.379	3873
848.515	3755
848.65	3766
848.786	3850
848.921	3854
849.057	3911
849.192	3934
849.328	3884
849.463	3896
849.598	3880
849.734	3857
849.869	3812
850.004	3793
850.14	3800
850.275	3800
850.41	3724
850.545	3736
850.68	3808
850.815	3789
850.95	3808
851.085	3956
851.22	3884
851.355	3827
851.49	3740
851.625	3766
851.76	3804
851.895	3747
852.03	3747
852.165	3861
852.299	3816
852.434	3896
852.569	3846
852.703	3880
852.838	3915
852.973	4044
853.107	3975
853.242	3850
853.376	3823
853.511	3743
853.645	3800
853.78	3911
853.914	3892
854.048	3873
854.183	3884
854.317	3953
854.451	4082
854.585	3945
854.72	3907
854.854	4036
854.988	3922
855.122	4025
855.256	3915
855.39	4017
855.524	4109
855.658	4013
855.792	4093
855.926	4162
856.06	4166
856.194	4185
856.327	4147
856.461	4112
856.595	4147
856.729	4200
856.862	4268
856.996	4257
857.13	4303
857.263	4344
857.397	4383
857.53	4287
857.664	4299
857.797	4398
857.931	4348
858.064	4386
858.197	4398
858.331	4417
858.464	4371
858.597	4333
858.731	4398
858.864	4402
858.997	4466
859.13	4459
859.263	4531
859.396	4611
859.529	4550
859.662	4535
859.795	4535
859.928	4603
860.061	4668
860.194	4717
860.327	4664
860.46	4660
860.592	4710
860.725	4767
860.858	4771
860.99	4622
861.123	4717
861.256	4710
861.388	4778
861.521	5490
861.653	4694
861.786	4626
861.918	4725
862.05	4771
862.183	4820
862.315	4854
862.447	4889
862.58	4904
862.712	4759
862.844	4733
862.976	4904
863.108	4858
863.24	5223
863.372	4881
863.504	4904
863.636	4858
863.768	5029
863.9	4976
864.032	4930
864.164	4900
864.296	5037
864.428	5022
864.559	5071
864.691	5083
864.823	5132
864.954	5090
865.086	5102
865.217	5071
865.349	5075
865.48	5166
865.612	5178
865.743	5258
865.875	5197
866.006	5159
866.137	5288
866.269	5208
866.4	5220
866.531	5231
866.662	5201
866.793	5258
866.924	5288
867.055	5292
867.186	5360
867.317	5322
867.448	5296
867.579	5395
867.71	5341
867.841	5406
867.972	5395
868.103	5448
868.233	5497
868.364	5493
868.495	5566
868.625	5653
868.756	5733
868.886	5661
869.017	5764
869.147	5805
869.278	5851
869.408	5802
869.539	5779
869.669	5931
869.799	5935
869.929	5992
870.06	6022
870.19	6175
870.32	6182
870.45	6254
870.58	6308
870.71	6437
870.84	6517
870.97	6346
871.1	6361
871.23	6597
871.36	6677
871.489	6681
871.619	6722
871.749	6764
871.879	6878
872.008	7004
872.138	6996
872.267	6962
872.397	7000
872.526	6951
872.656	7057
872.785	7145
872.915	7373
873.044	7457
873.173	7529
873.303	7609
873.432	7780
873.561	7845
873.69	7860
873.819	8039
873.948	8172
874.077	8263
874.206	8320
874.335	8370
874.464	8705
874.593	8807
874.722	8982
874.851	9154
874.979	9176
875.108	9363
875.237	9435
875.365	9477
875.494	9755
875.623	9800
875.751	9873
875.88	10010
876.008	10010
876.136	10303
876.265	10436
876.393	10733
876.521	10637
876.65	10812
876.778	10900
876.906	10923
877.034	10927
877.162	11018
877.29	11121
877.418	11277
877.546	11364
877.674	11402
877.802	11463
877.93	11528
878.058	11482
878.185	11585
878.313	11703
878.441	11832
878.568	11646
878.696	11714
878.824	11866
878.951	11977
879.079	11984
879.206	12117
879.333	12102
879.461	11973
879.588	12079
879.715	12110
879.842	12285
879.97	12011
880.097	11901
880.224	11855
880.351	11843
880.478	11901
880.605	11836
880.732	11809
880.859	12045
880.986	11786
881.112	11821
881.239	11642
881.366	11611
881.493	11592
881.619	11539
881.746	11604
881.872	11619
881.999	11520
882.125	11493
882.252	11551
882.378	11554
882.505	11551
882.631	11402
882.757	11277
882.883	11318
883.01	11288
883.136	11212
883.262	11079
883.388	11037
883.514	11178
883.64	11193
883.766	11090
883.892	11037
884.018	10957
884.143	11132
884.269	11083
884.395	10862
884.52	10801
884.646	10812
884.772	10748
884.897	10694
885.023	10649
885.148	10752
885.274	10717
885.399	10710
885.524	10592
885.65	10584
885.775	10588
885.9	10569
886.025	10538
886.15	10538
886.275	10436
886.4	10402
886.525	10440
886.65	10443
886.775	10367
886.9	10485
887.025	10519
887.149	10314
887.274	10188
887.399	10207
887.523	10116
887.648	10131
887.773	10116
887.897	10185
888.021	10128
888.146	10131
888.27	10200
888.395	10204
888.519	10192
888.643	10112
888.767	10200
888.891	10059
889.015	9964
889.139	10021
889.263	9949
889.387	10051
889.511	10177
889.635	10010
889.759	10013
889.883	9960
890.006	9926
890.13	10166
890.254	9934
890.377	9956
890.501	9865
890.624	9789
890.748	9854
890.871	9774
890.995	9762
891.118	9667
891.241	9789
891.364	9701
891.488	9835
891.611	9762
891.734	9743
891.857	9709
891.98	9705
892.103	9675
892.226	9709
892.349	9675
892.471	9519
892.594	9561
892.717	9675
892.839	9606
892.962	9606
893.085	9622
893.207	9663
893.33	9492
893.452	9500
893.575	9629
893.697	9488
893.819	9629
893.941	9610
894.064	9606
894.186	9443
894.308	9325
894.43	9485
894.552	9523
894.674	9492
894.796	9420
894.918	9458
895.04	9321
895.161	9374
895.283	9378
895.405	9294
895.526	9272
895.648	9165
895.769	9241
895.891	9222
896.012	9245
896.134	9199
896.255	9157
896.376	9173
896.498	9161
896.619	9123
896.74	9024
896.861	8963
896.982	9268
897.103	9272
897.224	9195
897.345	9032
897.466	8971
897.587	8990
897.708	9055
897.828	9024
897.949	8918
898.07	8872
898.19	8906
898.311	8986
898.431	8891
898.552	8967
898.672	8998
898.792	8952
898.913	8880
899.033	8853
899.153	8743
899.273	8670
899.393	8762
899.513	8670
899.633	8663
899.753	8743
899.873	8663
899.993	8705
900.113	8674
900.232	8670
900.352	8621
900.472	8594
900.591	8556
900.711	8556
900.83	8518
900.95	8697
901.069	8754
901.189	8549
901.308	8419
901.427	8351
901.546	8415
901.665	8427
901.784	8564
901.904	8495
902.023	8347
902.141	8233
902.26	8195
902.379	8305
902.498	8191
902.617	8153
902.735	8317
902.854	8286
902.973	8259
903.091	8123
903.21	8046
903.328	8202
903.446	8069
903.565	8069
903.683	8073
903.801	8043
903.919	8115
904.038	8119
904.156	8046
904.274	8081
904.392	8024
904.51	7970
904.627	7978
904.745	8100
904.863	8123
904.981	7940
905.098	7875
905.216	7803
905.334	7921
905.451	7841
905.569	7871
905.686	7871
905.803	7860
905.921	7753
906.038	7894
906.155	7727
906.272	7658
906.389	7696
906.506	7674
906.623	7616
906.74	7559
906.857	7476
906.974	7556
907.091	7700
907.208	7689
907.324	7616
907.441	7559
907.557	7430
907.674	7392
907.79	7373
907.907	7400
908.023	7346
908.139	7400
908.256	7365
908.372	7365
908.488	7373
908.604	7274
908.72	7240
908.836	7244
908.952	7247
909.068	7194
909.184	7324
909.3	7225
909.415	7278
909.531	7320
909.647	7088
909.762	7152
909.878	7042
909.993	7080
910.108	7164
910.224	7118
910.339	7099
910.454	7057
910.57	7034
910.685	6989
910.8	7126
910.915	7088
911.03	7027
911.145	6882
911.259	6821
911.374	6810
911.489	6810
911.604	6791
911.718	6738
911.833	6745
911.947	6665
912.062	6677
912.176	6711
912.291	6673
912.405	6673
912.519	6745
912.633	6814
912.748	6669
912.862	6662
912.976	6654
913.09	6528
913.204	6585
913.318	6582
913.431	6707
913.545	6658
913.659	6677
913.772	6658
913.886	6612
914	6513
914.113	6574
914.226	6627
914.34	6570
914.453	6525
914.566	6597
914.68	6494
914.793	6509
914.906	6414
915.019	6369
915.132	6418
915.245	6380
915.358	6494
915.47	6464
915.583	6506
915.696	6433
915.809	6486
915.921	6509
916.034	6445
916.146	6372
916.259	6433
916.371	6475
916.483	6471
916.595	6388
916.708	6384
916.82	6380
916.932	6372
917.044	6376
917.156	6395
917.268	6311
917.38	6334
917.491	6285
917.603	6365
917.715	6410
917.826	6384
917.938	6334
918.049	6247
918.161	6334
918.272	6456
918.384	6372
918.495	6304
918.606	6273
918.717	6228
918.828	6224
918.939	6239
919.05	6228
919.161	6300
919.272	6110
919.383	6163
919.494	6235
919.604	6342
919.715	6258
919.826	6197
919.936	6251
920.047	6262
920.157	6289
920.267	6376
920.378	6342
920.488	6254
920.598	6410
920.708	6513
920.818	6479
920.928	6467
921.038	6582
921.148	6540
921.258	6350
921.368	6315
921.477	6220
921.587	6148
921.697	6079
921.806	6152
921.916	6106
922.025	5882
922.134	5916
922.244	5897
922.353	5935
922.462	5859
922.571	5756
922.68	5710
922.789	5733
922.898	5707
923.007	5604
923.116	5657
923.224	5680
923.333	5699
923.442	5573
923.55	5570
923.659	5608
923.767	5592
923.876	5501
923.984	5653
924.092	5516
924.201	5627
924.309	5528
924.417	5570
924.525	5486
924.633	5493
924.741	6228
924.849	5406
924.956	5436
925.064	5379
925.172	5318
925.279	5277
925.387	5376
925.494	5368
925.602	5436
925.709	5410
925.816	5273
925.924	5273
926.031	5353
926.138	5296
926.245	5330
926.352	5223
926.459	5360
926.566	5265
926.673	5250
926.779	5109
926.886	5117
926.993	5056
927.099	5048
927.206	4919
927.312	4980
927.419	5014
927.525	4957
927.631	4999
927.737	4847
927.843	4831
927.95	4740
928.056	4790
928.162	4835
928.267	4850
928.373	5242
928.479	4801
928.585	4649
928.69	4763
928.796	4755
928.901	4687
929.007	4550
929.112	4660
929.218	4683
929.323	4573
929.428	4569
929.533	4622
929.638	4489
929.743	4535
929.848	4538
929.953	4497
930.058	4440
930.163	4303
930.267	4310
930.372	4421
930.477	4329
930.581	4432
930.685	4329
930.79	4280
930.894	4299
930.998	4249
931.103	4394
931.207	4162
931.311	4082
931.415	4051
931.519	3899
931.623	3945
