Data from glass_V78500241_503.txt Node
Date: Wed Sep 01 19:17:59 CST 2021
User: usil
Spectrometer: V785-0024
Trigger mode: 0
Integration Time (sec): 4.000000E-1
Scans to average: 1
Nonlinearity correction enabled: false
Boxcar width: 0
Storing dark spectrum: false
XAxis mode: Wavelengths
Number of Pixels in Spectrum: 1024
>>>>>Begin Spectral Data<<<<<
801.071	3724
801.214	3747
801.356	3747
801.499	3743
801.641	3781
801.783	3812
801.926	3873
802.068	3831
802.211	3823
802.353	3888
802.496	3857
802.638	3892
802.78	3876
802.923	3960
803.065	3930
803.208	3827
803.35	3884
803.492	3915
803.635	3896
803.777	3838
803.919	3964
804.061	4112
804.204	3994
804.346	3956
804.488	3941
804.63	4010
804.773	3953
804.915	4013
805.057	4169
805.199	4029
805.341	4116
805.483	4154
805.626	4143
805.768	4139
805.91	4219
806.052	4227
806.194	4215
806.336	4371
806.478	4268
806.62	4154
806.762	4169
806.904	4284
807.046	4360
807.188	4249
807.33	4181
807.472	4242
807.614	4192
807.756	4299
807.898	4188
808.04	4227
808.182	4287
808.324	4314
808.465	4417
808.607	4470
808.749	4432
808.891	4481
809.033	4493
809.174	4409
809.316	4287
809.458	4257
809.6	4200
809.741	4150
809.883	4139
810.025	4200
810.166	4207
810.308	4238
810.45	4249
810.591	4303
810.733	4291
810.875	4493
811.016	4850
811.158	5151
811.299	5288
811.441	5239
811.582	5056
811.724	4687
811.865	4478
812.007	4493
812.148	4455
812.29	4394
812.431	4417
812.573	4409
812.714	4413
812.855	4402
812.997	4402
813.138	4481
813.279	4375
813.421	4436
813.562	4379
813.703	4352
813.845	4341
813.986	4268
814.127	4246
814.268	4291
814.41	4287
814.551	4265
814.692	4341
814.833	4211
814.974	4303
815.115	4356
815.256	4287
815.397	4211
815.539	4227
815.68	4173
815.821	4207
815.962	4363
816.103	4310
816.244	4249
816.385	4227
816.526	4295
816.666	4276
816.807	4116
816.948	4128
817.089	4242
817.23	4150
817.371	4082
817.512	4063
817.653	4078
817.793	4025
817.934	4120
818.075	4116
818.216	4086
818.356	4105
818.497	4032
818.638	3941
818.778	3937
818.919	3934
819.06	3899
819.2	3953
819.341	3865
819.481	3907
819.622	3953
819.762	4067
819.903	3964
820.043	3838
820.184	3831
820.324	3804
820.465	3873
820.605	3869
820.746	3884
820.886	3823
821.026	3964
821.167	3937
821.307	3960
821.447	3994
821.588	3994
821.728	3979
821.868	3991
822.008	3907
822.149	3899
822.289	3934
822.429	3804
822.569	3755
822.709	3804
822.849	3717
822.99	3736
823.13	3785
823.27	3808
823.41	3720
823.55	3781
823.69	3751
823.83	3740
823.97	3682
824.11	3656
824.25	3622
824.389	3701
824.529	3686
824.669	3656
824.809	3724
824.949	3778
825.089	3785
825.228	3694
825.368	3614
825.508	3549
825.648	3568
825.787	3660
825.927	3614
826.067	3637
826.206	3663
826.346	3804
826.485	3846
826.625	3876
826.765	3953
826.904	3850
827.044	3618
827.183	3549
827.323	3447
827.462	3515
827.601	3424
827.741	3435
827.88	3443
828.02	3351
828.159	3431
828.298	3473
828.437	3542
828.577	3504
828.716	3618
828.855	3549
828.994	3412
829.134	3401
829.273	3389
829.412	3348
829.551	3348
829.69	3359
829.829	3409
829.968	3526
830.107	3462
830.246	3443
830.385	3389
830.524	3348
830.663	3321
830.802	3272
830.941	3233
831.08	3245
831.219	3272
831.357	3272
831.496	3401
831.635	3245
831.774	3230
831.913	3214
832.051	3131
832.19	3146
832.329	3214
832.467	3142
832.606	3123
832.744	3195
832.883	3211
833.022	3173
833.16	3249
833.299	3279
833.437	3302
833.576	3401
833.714	3458
833.852	3428
833.991	3431
834.129	3496
834.267	3462
834.406	3382
834.544	3447
834.682	3454
834.821	3416
834.959	3553
835.097	3473
835.235	3557
835.373	3507
835.511	3477
835.65	3496
835.788	3507
835.926	3397
836.064	3389
836.202	3416
836.34	3595
836.478	3564
836.615	3526
836.753	3633
836.891	3625
837.029	3637
837.167	3603
837.305	3606
837.443	3549
837.58	3507
837.718	3614
837.856	3564
837.993	3526
838.131	3625
838.269	3542
838.406	3591
838.544	3606
838.681	3473
838.819	3466
838.956	3386
839.094	3412
839.231	3500
839.369	3557
839.506	3762
839.643	3610
839.781	3515
839.918	3447
840.055	3500
840.193	3523
840.33	3549
840.467	3557
840.604	3656
840.742	3850
840.879	3523
841.016	3610
841.153	3606
841.29	3842
841.427	3728
841.564	3736
841.701	3720
841.838	3690
841.975	3679
842.112	3732
842.249	3663
842.385	3652
842.522	3804
842.659	3732
842.796	3705
842.933	3724
843.069	3701
843.206	3679
843.343	3804
843.479	3808
843.616	3816
843.752	3667
843.889	3713
844.025	3888
844.162	3743
844.298	3850
844.435	3808
844.571	3819
844.708	3876
844.844	4036
844.98	4029
845.117	3968
845.253	3983
845.389	3945
845.525	4017
845.661	4006
845.798	3975
845.934	3983
846.07	3964
846.206	4074
846.342	4147
846.478	4101
846.614	4048
846.75	3937
846.886	3926
847.022	4044
847.158	3991
847.294	3987
847.429	3987
847.565	4006
847.701	4253
847.837	3903
847.972	3922
848.108	4002
848.244	3949
848.379	3888
848.515	3838
848.65	3850
848.786	3854
848.921	3869
849.057	3953
849.192	3934
849.328	3911
849.463	3915
849.598	3880
849.734	3869
849.869	3861
850.004	3797
850.14	3819
850.275	3781
850.41	3774
850.545	3793
850.68	3774
850.815	3857
850.95	3804
851.085	3979
851.22	3861
851.355	3850
851.49	3823
851.625	3835
851.76	3827
851.895	3717
852.03	3728
852.165	3797
852.299	3861
852.434	3922
852.569	3907
852.703	3922
852.838	3998
852.973	4055
853.107	3983
853.242	3884
853.376	3857
853.511	3800
853.645	3850
853.78	3987
853.914	3884
854.048	3918
854.183	3896
854.317	3960
854.451	4112
854.585	3972
854.72	3991
854.854	4097
854.988	3964
855.122	4013
855.256	3953
855.39	4017
855.524	4124
855.658	4093
855.792	4112
855.926	4139
856.06	4139
856.194	4230
856.327	4162
856.461	4181
856.595	4150
856.729	4166
856.862	4329
856.996	4223
857.13	4348
857.263	4325
857.397	4413
857.53	4306
857.664	4356
857.797	4398
857.931	4432
858.064	4413
858.197	4493
858.331	4383
858.464	4356
858.597	4367
858.731	4447
858.864	4478
858.997	4451
859.13	4554
859.263	4538
859.396	4615
859.529	4535
859.662	4527
859.795	4546
859.928	4634
860.061	4702
860.194	4744
860.327	4675
860.46	4664
860.592	4763
860.725	4793
860.858	4786
860.99	4702
861.123	4736
861.256	4687
861.388	4771
861.521	5512
861.653	4752
861.786	4683
861.918	4748
862.05	4839
862.183	4850
862.315	4908
862.447	4961
862.58	4839
862.712	4820
862.844	4763
862.976	4839
863.108	4934
863.24	5178
863.372	4824
863.504	4972
863.636	4843
863.768	5018
863.9	4961
864.032	4930
864.164	4942
864.296	5045
864.428	5140
864.559	5113
864.691	5162
864.823	5166
864.954	5113
865.086	5147
865.217	5162
865.349	5094
865.48	5185
865.612	5185
865.743	5284
865.875	5212
866.006	5193
866.137	5239
866.269	5216
866.4	5273
866.531	5273
866.662	5288
866.793	5307
866.924	5273
867.055	5364
867.186	5299
867.317	5330
867.448	5345
867.579	5379
867.71	5376
867.841	5429
867.972	5417
868.103	5528
868.233	5543
868.364	5532
868.495	5532
868.625	5672
868.756	5798
868.886	5688
869.017	5752
869.147	5901
869.278	5901
869.408	5866
869.539	5828
869.669	5946
869.799	5954
869.929	6053
870.06	5992
870.19	6167
870.32	6178
870.45	6311
870.58	6342
870.71	6445
870.84	6452
870.97	6490
871.1	6395
871.23	6639
871.36	6715
871.489	6719
871.619	6734
871.749	6810
871.879	6863
872.008	6943
872.138	6947
872.267	7057
872.397	6958
872.526	7023
872.656	7133
872.785	7217
872.915	7415
873.044	7533
873.173	7613
873.303	7636
873.432	7818
873.561	7871
873.69	7913
873.819	7989
873.948	8183
874.077	8244
874.206	8317
874.335	8412
874.464	8682
874.593	8929
874.722	8842
874.851	9112
874.979	9226
875.108	9424
875.237	9428
875.365	9553
875.494	9622
875.623	9816
875.751	9827
875.88	9998
876.008	10097
876.136	10253
876.265	10580
876.393	10714
876.521	10717
876.65	10835
876.778	10873
876.906	10892
877.034	10953
877.162	11083
877.29	11159
877.418	11402
877.546	11322
877.674	11512
877.802	11490
877.93	11615
878.058	11554
878.185	11585
878.313	11623
878.441	11733
878.568	11699
878.696	11840
878.824	11809
878.951	11958
879.079	12095
879.206	12190
879.333	12072
879.461	11992
879.588	12136
879.715	12095
879.842	12232
879.97	12087
880.097	11893
880.224	11836
880.351	11912
880.478	11923
880.605	11828
880.732	11741
880.859	12003
880.986	11889
881.112	11847
881.239	11718
881.366	11627
881.493	11630
881.619	11566
881.746	11524
881.872	11463
881.999	11474
882.125	11436
882.252	11611
882.378	11505
882.505	11512
882.631	11398
882.757	11280
882.883	11284
883.01	11296
883.136	11189
883.262	11147
883.388	11159
883.514	11193
883.64	11227
883.766	11170
883.892	10911
884.018	11045
884.143	11029
884.269	11086
884.395	10896
884.52	10790
884.646	10801
884.772	10782
884.897	10656
885.023	10687
885.148	10725
885.274	10729
885.399	10740
885.524	10660
885.65	10615
885.775	10618
885.9	10500
886.025	10588
886.15	10577
886.275	10481
886.4	10413
886.525	10394
886.65	10360
886.775	10398
886.9	10443
887.025	10500
887.149	10402
887.274	10238
887.399	10234
887.523	10128
887.648	10158
887.773	10105
887.897	10280
888.021	10287
888.146	10090
888.27	10154
888.395	10257
888.519	10192
888.643	10188
888.767	10166
888.891	10105
889.015	10036
889.139	10067
889.263	10013
889.387	10067
889.511	10082
889.635	10112
889.759	9983
889.883	9930
890.006	10010
890.13	10082
890.254	9930
890.377	9994
890.501	9823
890.624	9884
890.748	9960
890.871	9762
890.995	9785
891.118	9732
891.241	9778
891.364	9808
891.488	9880
891.611	9774
891.734	9747
891.857	9797
891.98	9682
892.103	9762
892.226	9694
892.349	9724
892.471	9595
892.594	9618
892.717	9637
892.839	9614
892.962	9591
893.085	9660
893.207	9561
893.33	9492
893.452	9633
893.575	9610
893.697	9595
893.819	9629
893.941	9656
894.064	9599
894.186	9447
894.308	9458
894.43	9557
894.552	9633
894.674	9545
894.796	9428
894.918	9370
895.04	9336
895.161	9405
895.283	9405
895.405	9199
895.526	9245
895.648	9199
895.769	9256
895.891	9321
896.012	9272
896.134	9245
896.255	9135
896.376	9169
896.498	9138
896.619	9131
896.74	9062
896.861	9173
896.982	9355
897.103	9279
897.224	9253
897.345	9093
897.466	9009
897.587	9051
897.708	9108
897.828	8986
897.949	8895
898.07	8883
898.19	8895
898.311	9028
898.431	8910
898.552	8941
898.672	8925
898.792	8975
898.913	8914
899.033	8857
899.153	8766
899.273	8610
899.393	8724
899.513	8781
899.633	8731
899.753	8743
899.873	8667
899.993	8724
900.113	8750
900.232	8781
900.352	8648
900.472	8598
900.591	8606
900.711	8659
900.83	8571
900.95	8602
901.069	8674
901.189	8575
901.308	8446
901.427	8404
901.546	8480
901.665	8484
901.784	8450
901.904	8385
902.023	8343
902.141	8290
902.26	8191
902.379	8259
902.498	8229
902.617	8248
902.735	8305
902.854	8332
902.973	8320
903.091	8111
903.21	8183
903.328	8088
903.446	8130
903.565	8119
903.683	8142
903.801	8069
903.919	8046
904.038	8183
904.156	8035
904.274	8130
904.392	8005
904.51	7982
904.627	8081
904.745	8054
904.863	8058
904.981	7898
905.098	7909
905.216	7879
905.334	7864
905.451	7890
905.569	7875
905.686	7947
905.803	7951
905.921	7826
906.038	7864
906.155	7784
906.272	7700
906.389	7715
906.506	7647
906.623	7639
906.74	7636
906.857	7552
906.974	7537
907.091	7639
907.208	7670
907.324	7651
907.441	7613
907.557	7468
907.674	7445
907.79	7445
907.907	7354
908.023	7445
908.139	7430
908.256	7384
908.372	7331
908.488	7346
908.604	7270
908.72	7209
908.836	7270
908.952	7270
909.068	7251
909.184	7339
909.3	7266
909.415	7312
909.531	7270
909.647	7168
909.762	7141
909.878	7133
909.993	7129
910.108	7175
910.224	7118
910.339	7069
910.454	7034
910.57	7057
910.685	6958
910.8	7183
910.915	7179
911.03	7091
911.145	6943
911.259	6947
911.374	6916
911.489	6897
911.604	6856
911.718	6673
911.833	6764
911.947	6620
912.062	6642
912.176	6692
912.291	6734
912.405	6730
912.519	6840
912.633	6882
912.748	6703
912.862	6688
912.976	6642
913.09	6509
913.204	6566
913.318	6631
913.431	6688
913.545	6703
913.659	6726
913.772	6639
913.886	6578
914	6601
914.113	6639
914.226	6688
914.34	6593
914.453	6513
914.566	6642
914.68	6536
914.793	6547
914.906	6437
915.019	6376
915.132	6331
915.245	6464
915.358	6418
915.47	6467
915.583	6456
915.696	6513
915.809	6517
915.921	6616
916.034	6456
916.146	6445
916.259	6369
916.371	6563
916.483	6445
916.595	6372
916.708	6433
916.82	6369
916.932	6414
917.044	6403
917.156	6380
917.268	6357
917.38	6361
917.491	6300
917.603	6327
917.715	6350
917.826	6429
917.938	6334
918.049	6262
918.161	6407
918.272	6426
918.384	6422
918.495	6331
918.606	6289
918.717	6239
918.828	6319
918.939	6300
919.05	6186
919.161	6319
919.272	6121
919.383	6106
919.494	6331
919.604	6464
919.715	6289
919.826	6167
919.936	6315
920.047	6357
920.157	6300
920.267	6403
920.378	6342
920.488	6338
920.598	6433
920.708	6517
920.818	6532
920.928	6498
921.038	6631
921.148	6570
921.258	6319
921.368	6285
921.477	6239
921.587	6186
921.697	6114
921.806	6155
921.916	6110
922.025	5954
922.134	5931
922.244	5912
922.353	5977
922.462	5817
922.571	5847
922.68	5764
922.789	5642
922.898	5745
923.007	5680
923.116	5680
923.224	5688
923.333	5718
923.442	5642
923.55	5558
923.659	5566
923.767	5672
923.876	5562
923.984	5615
924.092	5585
924.201	5585
924.309	5562
924.417	5558
924.525	5528
924.633	5478
924.741	6258
924.849	5417
924.956	5440
925.064	5349
925.172	5315
925.279	5315
925.387	5387
925.494	5326
925.602	5452
925.709	5398
925.816	5303
925.924	5322
926.031	5349
926.138	5315
926.245	5280
926.352	5231
926.459	5330
926.566	5334
926.673	5223
926.779	5189
926.886	5159
926.993	5003
927.099	5041
927.206	5025
927.312	4999
927.419	4961
927.525	5018
927.631	4946
927.737	4930
927.843	4873
927.95	4786
928.056	4828
928.162	4854
928.267	4858
928.373	5261
928.479	4908
928.585	4717
928.69	4778
928.796	4774
928.901	4710
929.007	4607
929.112	4679
929.218	4637
929.323	4603
929.428	4588
929.533	4694
929.638	4535
929.743	4546
929.848	4565
929.953	4531
930.058	4409
930.163	4303
930.267	4344
930.372	4379
930.477	4310
930.581	4462
930.685	4386
930.79	4310
930.894	4348
930.998	4280
931.103	4405
931.207	4158
931.311	4074
931.415	4067
931.519	3991
931.623	3937
