Data from glass_V78500241_2396.txt Node
Date: Wed Sep 01 19:31:06 CST 2021
User: usil
Spectrometer: V785-0024
Trigger mode: 0
Integration Time (sec): 4.000000E-1
Scans to average: 1
Nonlinearity correction enabled: false
Boxcar width: 0
Storing dark spectrum: false
XAxis mode: Wavelengths
Number of Pixels in Spectrum: 1024
>>>>>Begin Spectral Data<<<<<
801.071	3740
801.214	3709
801.356	3705
801.499	3713
801.641	3755
801.783	3785
801.926	3861
802.068	3842
802.211	3838
802.353	3861
802.496	3804
802.638	3911
802.78	3861
802.923	3918
803.065	3865
803.208	3838
803.35	3838
803.492	3892
803.635	3949
803.777	3831
803.919	3892
804.061	4143
804.204	4010
804.346	3945
804.488	3918
804.63	4048
804.773	3960
804.915	4013
805.057	4143
805.199	4010
805.341	3987
805.483	4078
805.626	4150
805.768	4116
805.91	4188
806.052	4215
806.194	4227
806.336	4356
806.478	4188
806.62	4181
806.762	4166
806.904	4234
807.046	4314
807.188	4238
807.33	4158
807.472	4211
807.614	4162
807.756	4238
807.898	4162
808.04	4154
808.182	4287
808.324	4284
808.465	4367
808.607	4447
808.749	4440
808.891	4436
809.033	4523
809.174	4436
809.316	4230
809.458	4253
809.6	4188
809.741	4124
809.883	4154
810.025	4181
810.166	4219
810.308	4185
810.45	4238
810.591	4215
810.733	4299
810.875	4523
811.016	4820
811.158	5124
811.299	5258
811.441	5242
811.582	5056
811.724	4687
811.865	4455
812.007	4451
812.148	4405
812.29	4390
812.431	4390
812.573	4386
812.714	4371
812.855	4405
812.997	4367
813.138	4470
813.279	4417
813.421	4421
813.562	4371
813.703	4333
813.845	4318
813.986	4192
814.127	4227
814.268	4215
814.41	4268
814.551	4234
814.692	4310
814.833	4272
814.974	4299
815.115	4341
815.256	4261
815.397	4272
815.539	4265
815.68	4185
815.821	4192
815.962	4299
816.103	4223
816.244	4181
816.385	4204
816.526	4257
816.666	4215
816.807	4116
816.948	4185
817.089	4162
817.23	4109
817.371	4025
817.512	4036
817.653	4078
817.793	4025
817.934	3979
818.075	4071
818.216	4071
818.356	4078
818.497	4002
818.638	3922
818.778	3876
818.919	3892
819.06	3888
819.2	3922
819.341	3865
819.481	3835
819.622	3876
819.762	4055
819.903	3956
820.043	3861
820.184	3827
820.324	3804
820.465	3876
820.605	3854
820.746	3888
820.886	3827
821.026	3956
821.167	3884
821.307	3972
821.447	3937
821.588	3934
821.728	3949
821.868	3960
822.008	3838
822.149	3911
822.289	3861
822.429	3759
822.569	3774
822.709	3823
822.849	3701
822.99	3717
823.13	3781
823.27	3800
823.41	3709
823.55	3736
823.69	3732
823.83	3732
823.97	3675
824.11	3603
824.25	3591
824.389	3648
824.529	3637
824.669	3587
824.809	3694
824.949	3728
825.089	3740
825.228	3686
825.368	3549
825.508	3576
825.648	3584
825.787	3610
825.927	3675
826.067	3603
826.206	3641
826.346	3774
826.485	3846
826.625	3854
826.765	3945
826.904	3823
827.044	3622
827.183	3511
827.323	3420
827.462	3458
827.601	3397
827.741	3416
827.88	3378
828.02	3344
828.159	3386
828.298	3462
828.437	3519
828.577	3473
828.716	3599
828.855	3477
828.994	3393
829.134	3367
829.273	3370
829.412	3374
829.551	3332
829.69	3374
829.829	3454
829.968	3477
830.107	3447
830.246	3435
830.385	3382
830.524	3344
830.663	3268
830.802	3268
830.941	3195
831.08	3135
831.219	3237
831.357	3245
831.496	3412
831.635	3203
831.774	3199
831.913	3207
832.051	3131
832.19	3146
832.329	3176
832.467	3123
832.606	3089
832.744	3184
832.883	3165
833.022	3230
833.16	3233
833.299	3313
833.437	3340
833.576	3397
833.714	3367
833.852	3420
833.991	3393
834.129	3504
834.267	3439
834.406	3412
834.544	3416
834.682	3420
834.821	3393
834.959	3530
835.097	3435
835.235	3526
835.373	3473
835.511	3504
835.65	3435
835.788	3477
835.926	3378
836.064	3382
836.202	3386
836.34	3572
836.478	3622
836.615	3511
836.753	3591
836.891	3656
837.029	3584
837.167	3538
837.305	3561
837.443	3488
837.58	3481
837.718	3595
837.856	3534
837.993	3526
838.131	3576
838.269	3568
838.406	3534
838.544	3576
838.681	3481
838.819	3454
838.956	3401
839.094	3397
839.231	3462
839.369	3504
839.506	3736
839.643	3618
839.781	3504
839.918	3519
840.055	3515
840.193	3534
840.33	3530
840.467	3507
840.604	3580
840.742	3751
840.879	3538
841.016	3545
841.153	3584
841.29	3728
841.427	3732
841.564	3705
841.701	3724
841.838	3713
841.975	3667
842.112	3713
842.249	3595
842.385	3610
842.522	3842
842.659	3686
842.796	3618
842.933	3724
843.069	3724
843.206	3740
843.343	3789
843.479	3819
843.616	3804
843.752	3724
843.889	3682
844.025	3842
844.162	3717
844.298	3823
844.435	3812
844.571	3770
844.708	3857
844.844	3975
844.98	3991
845.117	4055
845.253	3884
845.389	3888
845.525	3934
845.661	3972
845.798	3899
845.934	4002
846.07	3960
846.206	4055
846.342	4112
846.478	4044
846.614	3926
846.75	3941
846.886	3899
847.022	4051
847.158	3941
847.294	4002
847.429	3994
847.565	4002
847.701	4261
847.837	3896
847.972	3857
848.108	3956
848.244	3991
848.379	3861
848.515	3819
848.65	3781
848.786	3823
848.921	3793
849.057	3896
849.192	3972
849.328	3857
849.463	3922
849.598	3888
849.734	3876
849.869	3842
850.004	3785
850.14	3785
850.275	3732
850.41	3724
850.545	3728
850.68	3766
850.815	3797
850.95	3808
851.085	3956
851.22	3827
851.355	3812
851.49	3747
851.625	3751
851.76	3762
851.895	3732
852.03	3736
852.165	3789
852.299	3850
852.434	3907
852.569	3846
852.703	3869
852.838	3960
852.973	3964
853.107	3994
853.242	3903
853.376	3873
853.511	3728
853.645	3823
853.78	3956
853.914	3846
854.048	3922
854.183	3922
854.317	3991
854.451	4055
854.585	3949
854.72	3983
854.854	4101
854.988	3903
855.122	4013
855.256	3926
855.39	3987
855.524	4112
855.658	4059
855.792	4078
855.926	4086
856.06	4147
856.194	4173
856.327	4150
856.461	4139
856.595	4101
856.729	4177
856.862	4284
856.996	4280
857.13	4287
857.263	4333
857.397	4356
857.53	4196
857.664	4341
857.797	4344
857.931	4405
858.064	4398
858.197	4462
858.331	4398
858.464	4333
858.597	4333
858.731	4462
858.864	4466
858.997	4409
859.13	4516
859.263	4489
859.396	4561
859.529	4535
859.662	4573
859.795	4500
859.928	4569
860.061	4641
860.194	4687
860.327	4660
860.46	4618
860.592	4744
860.725	4755
860.858	4759
860.99	4710
861.123	4714
861.256	4683
861.388	4748
861.521	5562
861.653	4752
861.786	4710
861.918	4694
862.05	4774
862.183	4847
862.315	4908
862.447	4904
862.58	4862
862.712	4797
862.844	4755
862.976	4824
863.108	4847
863.24	5189
863.372	4885
863.504	4862
863.636	4835
863.768	4976
863.9	4942
864.032	4919
864.164	4942
864.296	5003
864.428	5128
864.559	5086
864.691	5102
864.823	5098
864.954	5086
865.086	5090
865.217	5147
865.349	5098
865.48	5201
865.612	5170
865.743	5277
865.875	5189
866.006	5204
866.137	5227
866.269	5227
866.4	5261
866.531	5212
866.662	5204
866.793	5239
866.924	5265
867.055	5318
867.186	5307
867.317	5322
867.448	5315
867.579	5395
867.71	5357
867.841	5383
867.972	5444
868.103	5425
868.233	5474
868.364	5505
868.495	5532
868.625	5710
868.756	5718
868.886	5661
869.017	5661
869.147	5817
869.278	5897
869.408	5786
869.539	5844
869.669	5916
869.799	5847
869.929	6041
870.06	6015
870.19	6175
870.32	6171
870.45	6285
870.58	6372
870.71	6437
870.84	6502
870.97	6399
871.1	6422
871.23	6673
871.36	6673
871.489	6635
871.619	6779
871.749	6791
871.879	6798
872.008	7004
872.138	6966
872.267	7042
872.397	6958
872.526	7012
872.656	7042
872.785	7221
872.915	7407
873.044	7483
873.173	7514
873.303	7666
873.432	7742
873.561	7849
873.69	7921
873.819	8031
873.948	8077
874.077	8259
874.206	8305
874.335	8434
874.464	8636
874.593	8845
874.722	8982
874.851	9138
874.979	9226
875.108	9344
875.237	9424
875.365	9469
875.494	9648
875.623	9831
875.751	9819
875.88	9998
876.008	10147
876.136	10223
876.265	10519
876.393	10725
876.521	10752
876.65	10828
876.778	10881
876.906	10889
877.034	10938
877.162	11060
877.29	11094
877.418	11360
877.546	11315
877.674	11444
877.802	11444
877.93	11505
878.058	11524
878.185	11562
878.313	11726
878.441	11748
878.568	11729
878.696	11828
878.824	11809
878.951	11874
879.079	11961
879.206	12060
879.333	11950
879.461	11992
879.588	12038
879.715	12026
879.842	12209
879.97	12087
880.097	11832
880.224	11832
880.351	11836
880.478	11923
880.605	11836
880.732	11916
880.859	11988
880.986	11805
881.112	11840
881.239	11649
881.366	11710
881.493	11611
881.619	11558
881.746	11566
881.872	11608
881.999	11417
882.125	11516
882.252	11547
882.378	11509
882.505	11539
882.631	11318
882.757	11364
882.883	11368
883.01	11269
883.136	11189
883.262	11090
883.388	11048
883.514	11143
883.64	11113
883.766	11170
883.892	11056
884.018	11067
884.143	11075
884.269	11147
884.395	10790
884.52	10767
884.646	10790
884.772	10710
884.897	10679
885.023	10710
885.148	10607
885.274	10774
885.399	10706
885.524	10607
885.65	10546
885.775	10599
885.9	10516
886.025	10580
886.15	10535
886.275	10493
886.4	10390
886.525	10379
886.65	10344
886.775	10265
886.9	10481
887.025	10546
887.149	10322
887.274	10162
887.399	10192
887.523	10185
887.648	10101
887.773	10147
887.897	10253
888.021	10173
888.146	10135
888.27	10192
888.395	10242
888.519	10234
888.643	10192
888.767	10238
888.891	10116
889.015	9991
889.139	9926
889.263	9918
889.387	10078
889.511	10131
889.635	9956
889.759	9922
889.883	10025
890.006	10044
890.13	10032
890.254	9922
890.377	9941
890.501	9888
890.624	9850
890.748	9922
890.871	9774
890.995	9781
891.118	9717
891.241	9720
891.364	9709
891.488	9869
891.611	9671
891.734	9800
891.857	9713
891.98	9717
892.103	9808
892.226	9682
892.349	9629
892.471	9515
892.594	9534
892.717	9576
892.839	9599
892.962	9667
893.085	9686
893.207	9553
893.33	9504
893.452	9485
893.575	9587
893.697	9443
893.819	9568
893.941	9564
894.064	9568
894.186	9485
894.308	9458
894.43	9500
894.552	9625
894.674	9553
894.796	9408
894.918	9374
895.04	9325
895.161	9348
895.283	9302
895.405	9298
895.526	9272
895.648	9211
895.769	9245
895.891	9249
896.012	9317
896.134	9298
896.255	9180
896.376	9154
896.498	9146
896.619	9089
896.74	9077
896.861	9100
896.982	9230
897.103	9302
897.224	9142
897.345	9081
897.466	9028
897.587	9058
897.708	9108
897.828	8956
897.949	8948
898.07	8876
898.19	8883
898.311	9005
898.431	8899
898.552	8895
898.672	8963
898.792	8967
898.913	8925
899.033	8796
899.153	8716
899.273	8564
899.393	8674
899.513	8629
899.633	8716
899.753	8800
899.873	8655
899.993	8735
900.113	8689
900.232	8682
900.352	8659
900.472	8568
900.591	8526
900.711	8625
900.83	8579
900.95	8667
901.069	8663
901.189	8560
901.308	8381
901.427	8355
901.546	8332
901.665	8461
901.784	8507
901.904	8336
902.023	8290
902.141	8218
902.26	8180
902.379	8256
902.498	8267
902.617	8256
902.735	8301
902.854	8263
902.973	8259
903.091	8096
903.21	8145
903.328	8161
903.446	8115
903.565	8092
903.683	8020
903.801	8103
903.919	8107
904.038	8126
904.156	7928
904.274	8050
904.392	8031
904.51	8008
904.627	8058
904.745	8123
904.863	8134
904.981	7928
905.098	7906
905.216	7902
905.334	7887
905.451	7932
905.569	7868
905.686	7921
905.803	7898
905.921	7757
906.038	7913
906.155	7826
906.272	7772
906.389	7708
906.506	7628
906.623	7628
906.74	7590
906.857	7533
906.974	7571
907.091	7658
907.208	7723
907.324	7601
907.441	7597
907.557	7434
907.674	7392
907.79	7434
907.907	7358
908.023	7441
908.139	7422
908.256	7434
908.372	7350
908.488	7362
908.604	7255
908.72	7259
908.836	7251
908.952	7240
909.068	7213
909.184	7350
909.3	7255
909.415	7232
909.531	7297
909.647	7133
909.762	7118
909.878	7004
909.993	7061
910.108	7091
910.224	7095
910.339	7076
910.454	7061
910.57	6996
910.685	6920
910.8	7145
910.915	7091
911.03	6943
911.145	6890
911.259	6818
911.374	6897
911.489	6802
911.604	6833
911.718	6696
911.833	6738
911.947	6646
912.062	6631
912.176	6627
912.291	6772
912.405	6734
912.519	6795
912.633	6810
912.748	6730
912.862	6684
912.976	6623
913.09	6536
913.204	6578
913.318	6612
913.431	6597
913.545	6700
913.659	6715
913.772	6620
913.886	6582
914	6525
914.113	6642
914.226	6642
914.34	6559
914.453	6475
914.566	6563
914.68	6483
914.793	6525
914.906	6429
915.019	6422
915.132	6399
915.245	6448
915.358	6437
915.47	6445
915.583	6445
915.696	6467
915.809	6521
915.921	6498
916.034	6403
916.146	6422
916.259	6323
916.371	6490
916.483	6418
916.595	6372
916.708	6376
916.82	6342
916.932	6346
917.044	6391
917.156	6372
917.268	6353
917.38	6346
917.491	6315
917.603	6300
917.715	6407
917.826	6437
917.938	6353
918.049	6235
918.161	6323
918.272	6376
918.384	6460
918.495	6338
918.606	6289
918.717	6205
918.828	6247
918.939	6296
919.05	6171
919.161	6194
919.272	6129
919.383	6136
919.494	6300
919.604	6471
919.715	6254
919.826	6197
919.936	6239
920.047	6403
920.157	6281
920.267	6399
920.378	6391
920.488	6254
920.598	6479
920.708	6509
920.818	6426
920.928	6395
921.038	6597
921.148	6616
921.258	6361
921.368	6270
921.477	6201
921.587	6186
921.697	6095
921.806	6182
921.916	6072
922.025	5961
922.134	5912
922.244	5908
922.353	5942
922.462	5844
922.571	5760
922.68	5680
922.789	5657
922.898	5668
923.007	5604
923.116	5688
923.224	5684
923.333	5634
923.442	5608
923.55	5577
923.659	5558
923.767	5600
923.876	5524
923.984	5619
924.092	5474
924.201	5512
924.309	5528
924.417	5558
924.525	5497
924.633	5471
924.741	6292
924.849	5376
924.956	5467
925.064	5353
925.172	5349
925.279	5269
925.387	5315
925.494	5345
925.602	5402
925.709	5364
925.816	5242
925.924	5277
926.031	5376
926.138	5235
926.245	5326
926.352	5254
926.459	5296
926.566	5334
926.673	5223
926.779	5132
926.886	5124
926.993	4991
927.099	5003
927.206	4923
927.312	4965
927.419	5025
927.525	4896
927.631	4991
927.737	4896
927.843	4866
927.95	4733
928.056	4763
928.162	4812
928.267	4839
928.373	5212
928.479	4877
928.585	4691
928.69	4759
928.796	4786
928.901	4675
929.007	4577
929.112	4660
929.218	4660
929.323	4622
929.428	4588
929.533	4649
929.638	4508
929.743	4519
929.848	4554
929.953	4523
930.058	4432
930.163	4276
930.267	4322
930.372	4436
930.477	4284
930.581	4443
930.685	4306
930.79	4207
930.894	4227
930.998	4200
931.103	4386
931.207	4093
931.311	4082
931.415	4067
931.519	3937
931.623	3937
