Data from glass_V78500241_2349.txt Node
Date: Wed Sep 01 19:30:47 CST 2021
User: usil
Spectrometer: V785-0024
Trigger mode: 0
Integration Time (sec): 4.000000E-1
Scans to average: 1
Nonlinearity correction enabled: false
Boxcar width: 0
Storing dark spectrum: false
XAxis mode: Wavelengths
Number of Pixels in Spectrum: 1024
>>>>>Begin Spectral Data<<<<<
801.071	3713
801.214	3724
801.356	3713
801.499	3717
801.641	3743
801.783	3762
801.926	3857
802.068	3823
802.211	3831
802.353	3907
802.496	3781
802.638	3865
802.78	3896
802.923	3949
803.065	3865
803.208	3823
803.35	3873
803.492	3846
803.635	3918
803.777	3808
803.919	3892
804.061	4166
804.204	3915
804.346	3934
804.488	3869
804.63	4040
804.773	3979
804.915	3979
805.057	4185
805.199	4044
805.341	4059
805.483	4112
805.626	4116
805.768	4112
805.91	4181
806.052	4246
806.194	4211
806.336	4375
806.478	4227
806.62	4124
806.762	4158
806.904	4234
807.046	4356
807.188	4238
807.33	4166
807.472	4227
807.614	4227
807.756	4234
807.898	4188
808.04	4223
808.182	4261
808.324	4299
808.465	4367
808.607	4440
808.749	4417
808.891	4455
809.033	4485
809.174	4402
809.316	4246
809.458	4249
809.6	4131
809.741	4093
809.883	4101
810.025	4185
810.166	4192
810.308	4246
810.45	4234
810.591	4246
810.733	4246
810.875	4523
811.016	4797
811.158	5132
811.299	5269
811.441	5303
811.582	5045
811.724	4691
811.865	4459
812.007	4428
812.148	4470
812.29	4402
812.431	4421
812.573	4344
812.714	4413
812.855	4375
812.997	4386
813.138	4470
813.279	4417
813.421	4375
813.562	4348
813.703	4329
813.845	4337
813.986	4261
814.127	4261
814.268	4246
814.41	4284
814.551	4272
814.692	4333
814.833	4238
814.974	4276
815.115	4363
815.256	4238
815.397	4238
815.539	4268
815.68	4227
815.821	4207
815.962	4329
816.103	4234
816.244	4257
816.385	4238
816.526	4276
816.666	4215
816.807	4078
816.948	4181
817.089	4188
817.23	4150
817.371	4082
817.512	4040
817.653	4101
817.793	4029
817.934	4048
818.075	4090
818.216	4055
818.356	4105
818.497	3979
818.638	3937
818.778	3934
818.919	3876
819.06	3876
819.2	3896
819.341	3835
819.481	3842
819.622	3945
819.762	3998
819.903	3934
820.043	3892
820.184	3823
820.324	3819
820.465	3896
820.605	3850
820.746	3869
820.886	3740
821.026	3945
821.167	3915
821.307	4029
821.447	3964
821.588	3968
821.728	3922
821.868	3953
822.008	3835
822.149	3903
822.289	3911
822.429	3766
822.569	3736
822.709	3743
822.849	3679
822.99	3743
823.13	3766
823.27	3755
823.41	3675
823.55	3713
823.69	3713
823.83	3717
823.97	3663
824.11	3629
824.25	3587
824.389	3660
824.529	3648
824.669	3584
824.809	3686
824.949	3743
825.089	3690
825.228	3671
825.368	3606
825.508	3557
825.648	3580
825.787	3614
825.927	3644
826.067	3622
826.206	3641
826.346	3816
826.485	3835
826.625	3812
826.765	3937
826.904	3835
827.044	3610
827.183	3523
827.323	3382
827.462	3523
827.601	3370
827.741	3447
827.88	3454
828.02	3378
828.159	3466
828.298	3447
828.437	3530
828.577	3454
828.716	3572
828.855	3485
828.994	3378
829.134	3340
829.273	3370
829.412	3332
829.551	3336
829.69	3321
829.829	3435
829.968	3534
830.107	3409
830.246	3462
830.385	3340
830.524	3397
830.663	3298
830.802	3245
830.941	3146
831.08	3195
831.219	3279
831.357	3253
831.496	3389
831.635	3207
831.774	3173
831.913	3180
832.051	3123
832.19	3116
832.329	3199
832.467	3104
832.606	3077
832.744	3180
832.883	3199
833.022	3154
833.16	3253
833.299	3275
833.437	3325
833.576	3386
833.714	3367
833.852	3409
833.991	3447
834.129	3454
834.267	3447
834.406	3374
834.544	3409
834.682	3428
834.821	3412
834.959	3599
835.097	3401
835.235	3507
835.373	3447
835.511	3466
835.65	3458
835.788	3515
835.926	3336
836.064	3416
836.202	3431
836.34	3538
836.478	3561
836.615	3538
836.753	3523
836.891	3633
837.029	3595
837.167	3584
837.305	3545
837.443	3515
837.58	3538
837.718	3564
837.856	3549
837.993	3561
838.131	3614
838.269	3576
838.406	3530
838.544	3545
838.681	3450
838.819	3416
838.956	3378
839.094	3409
839.231	3447
839.369	3496
839.506	3743
839.643	3614
839.781	3511
839.918	3462
840.055	3500
840.193	3568
840.33	3534
840.467	3572
840.604	3580
840.742	3838
840.879	3526
841.016	3557
841.153	3572
841.29	3713
841.427	3717
841.564	3728
841.701	3732
841.838	3671
841.975	3663
842.112	3709
842.249	3648
842.385	3629
842.522	3808
842.659	3656
842.796	3675
842.933	3682
843.069	3709
843.206	3720
843.343	3816
843.479	3766
843.616	3785
843.752	3644
843.889	3660
844.025	3838
844.162	3698
844.298	3857
844.435	3804
844.571	3762
844.708	3888
844.844	3994
844.98	4048
845.117	4029
845.253	3915
845.389	3896
845.525	3972
845.661	3930
845.798	3899
845.934	4006
846.07	3915
846.206	4013
846.342	4109
846.478	4086
846.614	3994
846.75	3880
846.886	3903
847.022	3983
847.158	4002
847.294	4025
847.429	4006
847.565	3998
847.701	4185
847.837	3918
847.972	3854
848.108	3994
848.244	3987
848.379	3854
848.515	3819
848.65	3823
848.786	3861
848.921	3876
849.057	3899
849.192	3937
849.328	3975
849.463	3915
849.598	3896
849.734	3850
849.869	3865
850.004	3740
850.14	3797
850.275	3781
850.41	3709
850.545	3743
850.68	3766
850.815	3816
850.95	3747
851.085	3922
851.22	3846
851.355	3838
851.49	3785
851.625	3838
851.76	3785
851.895	3709
852.03	3762
852.165	3831
852.299	3819
852.434	3907
852.569	3876
852.703	3827
852.838	3956
852.973	4002
853.107	4021
853.242	3876
853.376	3854
853.511	3736
853.645	3808
853.78	3937
853.914	3899
854.048	3873
854.183	3884
854.317	3945
854.451	4021
854.585	3956
854.72	3956
854.854	3998
854.988	3926
855.122	3964
855.256	3903
855.39	4048
855.524	4086
855.658	4074
855.792	4059
855.926	4116
856.06	4109
856.194	4169
856.327	4131
856.461	4154
856.595	4139
856.729	4169
856.862	4230
856.996	4219
857.13	4253
857.263	4257
857.397	4337
857.53	4287
857.664	4322
857.797	4402
857.931	4424
858.064	4348
858.197	4447
858.331	4371
858.464	4394
858.597	4310
858.731	4466
858.864	4424
858.997	4436
859.13	4417
859.263	4584
859.396	4584
859.529	4561
859.662	4519
859.795	4455
859.928	4580
860.061	4714
860.194	4740
860.327	4660
860.46	4668
860.592	4706
860.725	4797
860.858	4763
860.99	4672
861.123	4664
861.256	4702
861.388	4774
861.521	5242
861.653	4740
861.786	4755
861.918	4748
862.05	4801
862.183	4820
862.315	4911
862.447	4923
862.58	4915
862.712	4771
862.844	4767
862.976	4889
863.108	4881
863.24	5185
863.372	4850
863.504	4824
863.636	4896
863.768	4968
863.9	4968
864.032	4892
864.164	4953
864.296	5071
864.428	5064
864.559	5086
864.691	5136
864.823	5109
864.954	5071
865.086	5143
865.217	5098
865.349	5086
865.48	5178
865.612	5193
865.743	5292
865.875	5185
866.006	5197
866.137	5193
866.269	5223
866.4	5208
866.531	5231
866.662	5181
866.793	5303
866.924	5288
867.055	5307
867.186	5353
867.317	5280
867.448	5250
867.579	5349
867.71	5360
867.841	5417
867.972	5448
868.103	5429
868.233	5474
868.364	5486
868.495	5535
868.625	5665
868.756	5718
868.886	5657
869.017	5745
869.147	5783
869.278	5809
869.408	5767
869.539	5828
869.669	5878
869.799	5965
869.929	5992
870.06	5980
870.19	6201
870.32	6133
870.45	6232
870.58	6304
870.71	6433
870.84	6460
870.97	6422
871.1	6486
871.23	6639
871.36	6642
871.489	6646
871.619	6764
871.749	6798
871.879	6814
872.008	6909
872.138	6993
872.267	6973
872.397	6966
872.526	7046
872.656	7099
872.785	7110
872.915	7388
873.044	7457
873.173	7571
873.303	7647
873.432	7738
873.561	7860
873.69	7898
873.819	7978
873.948	8077
874.077	8229
874.206	8301
874.335	8412
874.464	8648
874.593	8857
874.722	9024
874.851	9036
874.979	9195
875.108	9386
875.237	9549
875.365	9523
875.494	9599
875.623	9823
875.751	9838
875.88	9987
876.008	10112
876.136	10253
876.265	10489
876.393	10714
876.521	10702
876.65	10816
876.778	10828
876.906	10904
877.034	10965
877.162	11037
877.29	11124
877.418	11303
877.546	11303
877.674	11410
877.802	11478
877.93	11566
878.058	11592
878.185	11619
878.313	11688
878.441	11726
878.568	11699
878.696	11767
878.824	11840
878.951	11939
879.079	12064
879.206	12079
879.333	12022
879.461	11973
879.588	11996
879.715	12091
879.842	12175
879.97	11984
880.097	11885
880.224	11870
880.351	11977
880.478	11912
880.605	11870
880.732	11874
880.859	12079
880.986	11767
881.112	11923
881.239	11756
881.366	11642
881.493	11551
881.619	11463
881.746	11600
881.872	11467
881.999	11414
882.125	11452
882.252	11623
882.378	11391
882.505	11558
882.631	11284
882.757	11273
882.883	11223
883.01	11307
883.136	11132
883.262	11067
883.388	11102
883.514	11166
883.64	11162
883.766	11109
883.892	11045
884.018	10995
884.143	10946
884.269	10987
884.395	10797
884.52	10763
884.646	10797
884.772	10672
884.897	10641
885.023	10656
885.148	10809
885.274	10763
885.399	10714
885.524	10569
885.65	10546
885.775	10531
885.9	10615
886.025	10577
886.15	10615
886.275	10360
886.4	10409
886.525	10367
886.65	10379
886.775	10394
886.9	10523
887.025	10470
887.149	10325
887.274	10246
887.399	10166
887.523	10158
887.648	10109
887.773	10135
887.897	10280
888.021	10215
888.146	10090
888.27	10223
888.395	10219
888.519	10192
888.643	10124
888.767	10101
888.891	10120
889.015	10021
889.139	10139
889.263	9953
889.387	10082
889.511	10036
889.635	10071
889.759	9987
889.883	9991
890.006	9991
890.13	10086
890.254	9998
890.377	9934
890.501	9819
890.624	9793
890.748	9888
890.871	9778
890.995	9778
891.118	9701
891.241	9793
891.364	9770
891.488	9785
891.611	9797
891.734	9835
891.857	9755
891.98	9682
892.103	9812
892.226	9823
892.349	9637
892.471	9523
892.594	9610
892.717	9671
892.839	9549
892.962	9641
893.085	9652
893.207	9572
893.33	9485
893.452	9530
893.575	9675
893.697	9408
893.819	9584
893.941	9557
894.064	9561
894.186	9405
894.308	9439
894.43	9507
894.552	9625
894.674	9511
894.796	9355
894.918	9435
895.04	9310
895.161	9355
895.283	9287
895.405	9237
895.526	9283
895.648	9279
895.769	9237
895.891	9321
896.012	9260
896.134	9237
896.255	9127
896.376	9176
896.498	9150
896.619	9070
896.74	9112
896.861	9116
896.982	9214
897.103	9283
897.224	9131
897.345	9039
897.466	9013
897.587	8994
897.708	9036
897.828	9093
897.949	8944
898.07	8918
898.19	8967
898.311	9097
898.431	8872
898.552	8933
898.672	8982
898.792	9005
898.913	8861
899.033	8777
899.153	8708
899.273	8708
899.393	8785
899.513	8678
899.633	8705
899.753	8712
899.873	8712
899.993	8705
900.113	8625
900.232	8686
900.352	8651
900.472	8625
900.591	8533
900.711	8556
900.83	8564
900.95	8663
901.069	8648
901.189	8579
901.308	8358
901.427	8305
901.546	8362
901.665	8461
901.784	8450
901.904	8438
902.023	8343
902.141	8263
902.26	8206
902.379	8324
902.498	8183
902.617	8218
902.735	8263
902.854	8282
902.973	8214
903.091	8130
903.21	8157
903.328	8195
903.446	8039
903.565	8084
903.683	8126
903.801	8050
903.919	8138
904.038	8111
904.156	8046
904.274	8035
904.392	7978
904.51	8024
904.627	8016
904.745	8115
904.863	8103
904.981	7894
905.098	7856
905.216	7913
905.334	7871
905.451	7795
905.569	7860
905.686	7875
905.803	7849
905.921	7769
906.038	7902
906.155	7792
906.272	7727
906.389	7761
906.506	7693
906.623	7636
906.74	7616
906.857	7510
906.974	7563
907.091	7620
907.208	7696
907.324	7616
907.441	7529
907.557	7373
907.674	7430
907.79	7377
907.907	7365
908.023	7472
908.139	7350
908.256	7343
908.372	7297
908.488	7339
908.604	7293
908.72	7198
908.836	7209
908.952	7232
909.068	7206
909.184	7354
909.3	7171
909.415	7213
909.531	7266
909.647	7034
909.762	7129
909.878	7168
909.993	7149
910.108	7129
910.224	7046
910.339	7069
910.454	7012
910.57	6966
910.685	6932
910.8	7152
910.915	7152
911.03	7012
911.145	6852
911.259	6932
911.374	6916
911.489	6886
911.604	6821
911.718	6738
911.833	6734
911.947	6669
912.062	6646
912.176	6707
912.291	6734
912.405	6688
912.519	6798
912.633	6806
912.748	6722
912.862	6741
912.976	6642
913.09	6502
913.204	6616
913.318	6604
913.431	6684
913.545	6665
913.659	6707
913.772	6635
913.886	6589
914	6547
914.113	6604
914.226	6658
914.34	6547
914.453	6502
914.566	6574
914.68	6589
914.793	6517
914.906	6395
915.019	6372
915.132	6414
915.245	6426
915.358	6376
915.47	6372
915.583	6388
915.696	6437
915.809	6589
915.921	6536
916.034	6422
916.146	6403
916.259	6426
916.371	6464
916.483	6357
916.595	6353
916.708	6346
916.82	6429
916.932	6403
917.044	6380
917.156	6331
917.268	6308
917.38	6353
917.491	6315
917.603	6327
917.715	6433
917.826	6395
917.938	6262
918.049	6251
918.161	6331
918.272	6471
918.384	6448
918.495	6357
918.606	6235
918.717	6194
918.828	6247
918.939	6289
919.05	6197
919.161	6194
919.272	6121
919.383	6133
919.494	6285
919.604	6410
919.715	6243
919.826	6224
919.936	6273
920.047	6369
920.157	6300
920.267	6433
920.378	6289
920.488	6266
920.598	6479
920.708	6540
920.818	6448
920.928	6483
921.038	6582
921.148	6540
921.258	6311
921.368	6292
921.477	6213
921.587	6201
921.697	6110
921.806	6163
921.916	6087
922.025	5939
922.134	5935
922.244	5942
922.353	5946
922.462	5798
922.571	5764
922.68	5745
922.789	5657
922.898	5684
923.007	5638
923.116	5691
923.224	5668
923.333	5634
923.442	5596
923.55	5535
923.659	5512
923.767	5596
923.876	5524
923.984	5539
924.092	5528
924.201	5547
924.309	5554
924.417	5524
924.525	5474
924.633	5474
924.741	6292
924.849	5376
924.956	5528
925.064	5315
925.172	5307
925.279	5307
925.387	5345
925.494	5307
925.602	5398
925.709	5391
925.816	5284
925.924	5307
926.031	5330
926.138	5311
926.245	5334
926.352	5189
926.459	5311
926.566	5345
926.673	5185
926.779	5136
926.886	5136
926.993	5029
927.099	5014
927.206	4953
927.312	4976
927.419	5022
927.525	4957
927.631	4961
927.737	4847
927.843	4831
927.95	4771
928.056	4854
928.162	4839
928.267	4831
928.373	5322
928.479	4839
928.585	4679
928.69	4675
928.796	4721
928.901	4694
929.007	4592
929.112	4702
929.218	4637
929.323	4603
929.428	4554
929.533	4687
929.638	4493
929.743	4561
929.848	4554
929.953	4500
930.058	4409
930.163	4314
930.267	4318
930.372	4386
930.477	4306
930.581	4432
930.685	4341
930.79	4246
930.894	4268
930.998	4227
931.103	4413
931.207	4135
931.311	4078
931.415	4063
931.519	3975
931.623	3972
