Data from glass_V78500241_573.txt Node
Date: Wed Sep 01 19:18:28 CST 2021
User: usil
Spectrometer: V785-0024
Trigger mode: 0
Integration Time (sec): 4.000000E-1
Scans to average: 1
Nonlinearity correction enabled: false
Boxcar width: 0
Storing dark spectrum: false
XAxis mode: Wavelengths
Number of Pixels in Spectrum: 1024
>>>>>Begin Spectral Data<<<<<
801.071	3713
801.214	3759
801.356	3762
801.499	3793
801.641	3720
801.783	3827
801.926	3865
802.068	3831
802.211	3907
802.353	3937
802.496	3827
802.638	3903
802.78	3907
802.923	3949
803.065	3880
803.208	3873
803.35	3918
803.492	3911
803.635	3888
803.777	3789
803.919	3854
804.061	4143
804.204	3983
804.346	3979
804.488	3960
804.63	4040
804.773	3987
804.915	4101
805.057	4147
805.199	4074
805.341	4139
805.483	4188
805.626	4166
805.768	4097
805.91	4265
806.052	4242
806.194	4238
806.336	4363
806.478	4200
806.62	4200
806.762	4211
806.904	4299
807.046	4333
807.188	4265
807.33	4188
807.472	4284
807.614	4219
807.756	4280
807.898	4196
808.04	4223
808.182	4287
808.324	4322
808.465	4390
808.607	4485
808.749	4489
808.891	4455
809.033	4493
809.174	4436
809.316	4261
809.458	4230
809.6	4158
809.741	4196
809.883	4177
810.025	4188
810.166	4204
810.308	4192
810.45	4276
810.591	4219
810.733	4284
810.875	4523
811.016	4839
811.158	5109
811.299	5235
811.441	5326
811.582	5045
811.724	4660
811.865	4459
812.007	4485
812.148	4440
812.29	4432
812.431	4428
812.573	4409
812.714	4390
812.855	4462
812.997	4409
813.138	4478
813.279	4417
813.421	4375
813.562	4375
813.703	4356
813.845	4360
813.986	4284
814.127	4272
814.268	4280
814.41	4337
814.551	4299
814.692	4310
814.833	4265
814.974	4303
815.115	4322
815.256	4265
815.397	4238
815.539	4265
815.68	4211
815.821	4215
815.962	4310
816.103	4306
816.244	4268
816.385	4234
816.526	4276
816.666	4261
816.807	4120
816.948	4173
817.089	4188
817.23	4139
817.371	4082
817.512	4040
817.653	4105
817.793	4051
817.934	4044
818.075	4116
818.216	4116
818.356	4082
818.497	3968
818.638	3899
818.778	3937
818.919	3915
819.06	3873
819.2	3930
819.341	3861
819.481	3846
819.622	3937
819.762	3998
819.903	3987
820.043	3873
820.184	3838
820.324	3816
820.465	3854
820.605	3899
820.746	3869
820.886	3812
821.026	3934
821.167	3926
821.307	3953
821.447	3960
821.588	3983
821.728	3956
821.868	3934
822.008	3899
822.149	3934
822.289	3953
822.429	3812
822.569	3770
822.709	3842
822.849	3701
822.99	3709
823.13	3797
823.27	3835
823.41	3732
823.55	3743
823.69	3713
823.83	3755
823.97	3686
824.11	3595
824.25	3603
824.389	3671
824.529	3652
824.669	3622
824.809	3705
824.949	3797
825.089	3740
825.228	3709
825.368	3587
825.508	3564
825.648	3572
825.787	3610
825.927	3656
826.067	3633
826.206	3709
826.346	3793
826.485	3831
826.625	3846
826.765	3915
826.904	3835
827.044	3606
827.183	3542
827.323	3485
827.462	3500
827.601	3435
827.741	3431
827.88	3416
828.02	3363
828.159	3485
828.298	3473
828.437	3519
828.577	3477
828.716	3595
828.855	3545
828.994	3389
829.134	3389
829.273	3409
829.412	3336
829.551	3351
829.69	3382
829.829	3447
829.968	3526
830.107	3454
830.246	3431
830.385	3416
830.524	3370
830.663	3332
830.802	3249
830.941	3180
831.08	3188
831.219	3279
831.357	3272
831.496	3412
831.635	3211
831.774	3230
831.913	3241
832.051	3135
832.19	3154
832.329	3199
832.467	3161
832.606	3112
832.744	3188
832.883	3195
833.022	3241
833.16	3302
833.299	3298
833.437	3332
833.576	3367
833.714	3389
833.852	3450
833.991	3500
834.129	3481
834.267	3462
834.406	3428
834.544	3450
834.682	3431
834.821	3420
834.959	3610
835.097	3424
835.235	3492
835.373	3496
835.511	3519
835.65	3473
835.788	3477
835.926	3397
836.064	3367
836.202	3420
836.34	3595
836.478	3595
836.615	3591
836.753	3629
836.891	3656
837.029	3644
837.167	3599
837.305	3595
837.443	3561
837.58	3534
837.718	3587
837.856	3595
837.993	3564
838.131	3553
838.269	3606
838.406	3606
838.544	3622
838.681	3469
838.819	3511
838.956	3374
839.094	3382
839.231	3466
839.369	3485
839.506	3770
839.643	3625
839.781	3496
839.918	3507
840.055	3584
840.193	3557
840.33	3507
840.467	3553
840.604	3595
840.742	3781
840.879	3568
841.016	3549
841.153	3625
841.29	3762
841.427	3720
841.564	3728
841.701	3743
841.838	3686
841.975	3679
842.112	3717
842.249	3629
842.385	3622
842.522	3816
842.659	3667
842.796	3705
842.933	3709
843.069	3694
843.206	3747
843.343	3823
843.479	3785
843.616	3827
843.752	3698
843.889	3701
844.025	3861
844.162	3774
844.298	3873
844.435	3804
844.571	3816
844.708	3930
844.844	4021
844.98	4059
845.117	4029
845.253	3926
845.389	3918
845.525	4013
845.661	3994
845.798	3869
845.934	4036
846.07	3953
846.206	4082
846.342	4120
846.478	4051
846.614	3979
846.75	3937
846.886	3922
847.022	3991
847.158	4010
847.294	3994
847.429	4021
847.565	4040
847.701	4249
847.837	3911
847.972	3876
848.108	3953
848.244	4010
848.379	3861
848.515	3857
848.65	3827
848.786	3842
848.921	3865
849.057	3941
849.192	3941
849.328	3949
849.463	3937
849.598	3903
849.734	3838
849.869	3838
850.004	3808
850.14	3857
850.275	3785
850.41	3728
850.545	3728
850.68	3781
850.815	3793
850.95	3800
851.085	3994
851.22	3888
851.355	3831
851.49	3869
851.625	3793
851.76	3808
851.895	3724
852.03	3701
852.165	3797
852.299	3831
852.434	3922
852.569	3899
852.703	3876
852.838	3953
852.973	4002
853.107	4029
853.242	3911
853.376	3869
853.511	3816
853.645	3789
853.78	3972
853.914	3922
854.048	3926
854.183	3884
854.317	3983
854.451	4086
854.585	3953
854.72	3956
854.854	4051
854.988	3972
855.122	4002
855.256	3918
855.39	4032
855.524	4112
855.658	4143
855.792	4082
855.926	4109
856.06	4207
856.194	4204
856.327	4109
856.461	4135
856.595	4135
856.729	4150
856.862	4325
856.996	4291
857.13	4295
857.263	4356
857.397	4386
857.53	4280
857.664	4341
857.797	4462
857.931	4402
858.064	4417
858.197	4504
858.331	4409
858.464	4356
858.597	4367
858.731	4402
858.864	4440
858.997	4478
859.13	4519
859.263	4550
859.396	4611
859.529	4493
859.662	4569
859.795	4558
859.928	4577
860.061	4683
860.194	4725
860.327	4675
860.46	4717
860.592	4733
860.725	4748
860.858	4847
860.99	4752
861.123	4687
861.256	4733
861.388	4755
861.521	5406
861.653	4721
861.786	4683
861.918	4748
862.05	4797
862.183	4881
862.315	4870
862.447	4968
862.58	4957
862.712	4873
862.844	4809
862.976	4839
863.108	4873
863.24	5212
863.372	4816
863.504	4915
863.636	4881
863.768	4980
863.9	4900
864.032	4900
864.164	4953
864.296	5060
864.428	5094
864.559	5075
864.691	5102
864.823	5124
864.954	5117
865.086	5197
865.217	5170
865.349	5132
865.48	5166
865.612	5189
865.743	5284
865.875	5166
866.006	5201
866.137	5235
866.269	5265
866.4	5220
866.531	5201
866.662	5239
866.793	5269
866.924	5311
867.055	5372
867.186	5368
867.317	5303
867.448	5349
867.579	5391
867.71	5322
867.841	5349
867.972	5490
868.103	5493
868.233	5433
868.364	5520
868.495	5566
868.625	5638
868.756	5817
868.886	5642
869.017	5737
869.147	5882
869.278	5817
869.408	5786
869.539	5828
869.669	5969
869.799	5901
869.929	5984
870.06	6022
870.19	6239
870.32	6167
870.45	6273
870.58	6376
870.71	6452
870.84	6437
870.97	6407
871.1	6460
871.23	6662
871.36	6707
871.489	6722
871.619	6776
871.749	6791
871.879	6905
872.008	6985
872.138	6954
872.267	6932
872.397	7015
872.526	7042
872.656	7046
872.785	7206
872.915	7415
873.044	7506
873.173	7597
873.303	7639
873.432	7750
873.561	7890
873.69	7925
873.819	8008
873.948	8202
874.077	8282
874.206	8324
874.335	8507
874.464	8731
874.593	8857
874.722	8902
874.851	9157
874.979	9226
875.108	9401
875.237	9469
875.365	9462
875.494	9709
875.623	9865
875.751	9850
875.88	10021
876.008	10109
876.136	10272
876.265	10535
876.393	10721
876.521	10752
876.65	10774
876.778	10877
876.906	10980
877.034	11067
877.162	11132
877.29	11143
877.418	11341
877.546	11330
877.674	11398
877.802	11490
877.93	11474
878.058	11535
878.185	11608
878.313	11634
878.441	11840
878.568	11657
878.696	11859
878.824	11916
878.951	11965
879.079	11984
879.206	12087
879.333	12095
879.461	11988
879.588	12030
879.715	12091
879.842	12224
879.97	12053
880.097	11840
880.224	11904
880.351	11817
880.478	11832
880.605	11878
880.732	11855
880.859	12034
880.986	11836
881.112	11870
881.239	11752
881.366	11710
881.493	11653
881.619	11516
881.746	11543
881.872	11551
881.999	11478
882.125	11524
882.252	11467
882.378	11505
882.505	11516
882.631	11414
882.757	11334
882.883	11368
883.01	11216
883.136	11216
883.262	11174
883.388	11140
883.514	11239
883.64	11132
883.766	11075
883.892	11025
884.018	11029
884.143	11079
884.269	11151
884.395	10858
884.52	10782
884.646	10854
884.772	10767
884.897	10656
885.023	10641
885.148	10736
885.274	10790
885.399	10698
885.524	10656
885.65	10577
885.775	10679
885.9	10645
886.025	10622
886.15	10504
886.275	10516
886.4	10413
886.525	10436
886.65	10367
886.775	10303
886.9	10447
887.025	10584
887.149	10337
887.274	10238
887.399	10230
887.523	10166
887.648	10124
887.773	10215
887.897	10310
888.021	10242
888.146	10188
888.27	10238
888.395	10242
888.519	10173
888.643	10234
888.767	10219
888.891	10128
889.015	10074
889.139	9987
889.263	10036
889.387	10013
889.511	10147
889.635	10071
889.759	9979
889.883	9964
890.006	9998
890.13	10055
890.254	9953
890.377	10101
890.501	9888
890.624	9865
890.748	9892
890.871	9785
890.995	9759
891.118	9698
891.241	9736
891.364	9728
891.488	9930
891.611	9743
891.734	9732
891.857	9755
891.98	9740
892.103	9736
892.226	9690
892.349	9675
892.471	9526
892.594	9572
892.717	9633
892.839	9633
892.962	9576
893.085	9679
893.207	9595
893.33	9523
893.452	9488
893.575	9644
893.697	9599
893.819	9557
893.941	9618
894.064	9603
894.186	9485
894.308	9439
894.43	9526
894.552	9466
894.674	9519
894.796	9348
894.918	9367
895.04	9378
895.161	9420
895.283	9351
895.405	9253
895.526	9230
895.648	9298
895.769	9298
895.891	9245
896.012	9272
896.134	9207
896.255	9230
896.376	9097
896.498	9169
896.619	9104
896.74	9119
896.861	9074
896.982	9287
897.103	9374
897.224	9127
897.345	9039
897.466	9024
897.587	9093
897.708	9081
897.828	9055
897.949	8982
898.07	8838
898.19	8971
898.311	8998
898.431	8929
898.552	9032
898.672	9001
898.792	8944
898.913	8941
899.033	8834
899.153	8826
899.273	8632
899.393	8708
899.513	8724
899.633	8697
899.753	8754
899.873	8739
899.993	8769
900.113	8686
900.232	8796
900.352	8724
900.472	8629
900.591	8583
900.711	8541
900.83	8522
900.95	8727
901.069	8727
901.189	8655
901.308	8488
901.427	8358
901.546	8480
901.665	8511
901.784	8473
901.904	8385
902.023	8366
902.141	8286
902.26	8267
902.379	8290
902.498	8267
902.617	8237
902.735	8305
902.854	8282
902.973	8263
903.091	8145
903.21	8134
903.328	8172
903.446	8138
903.565	8077
903.683	8164
903.801	8142
903.919	8115
904.038	8119
904.156	8039
904.274	8111
904.392	8103
904.51	8039
904.627	8054
904.745	8123
904.863	8050
904.981	7917
905.098	7909
905.216	7898
905.334	7936
905.451	7921
905.569	7875
905.686	7967
905.803	7928
905.921	7776
906.038	7875
906.155	7860
906.272	7731
906.389	7769
906.506	7670
906.623	7643
906.74	7655
906.857	7563
906.974	7594
907.091	7670
907.208	7734
907.324	7620
907.441	7552
907.557	7540
907.674	7441
907.79	7392
907.907	7430
908.023	7430
908.139	7400
908.256	7403
908.372	7369
908.488	7365
908.604	7266
908.72	7255
908.836	7285
908.952	7244
909.068	7255
909.184	7331
909.3	7343
909.415	7335
909.531	7335
909.647	7088
909.762	7126
909.878	7137
909.993	7202
910.108	7152
910.224	7133
910.339	7084
910.454	7099
910.57	7023
910.685	7038
910.8	7183
910.915	7141
911.03	7091
911.145	6901
911.259	6863
911.374	6875
911.489	6875
911.604	6814
911.718	6738
911.833	6783
911.947	6654
912.062	6547
912.176	6703
912.291	6703
912.405	6711
912.519	6859
912.633	6833
912.748	6776
912.862	6722
912.976	6639
913.09	6555
913.204	6642
913.318	6646
913.431	6665
913.545	6669
913.659	6703
913.772	6635
913.886	6566
914	6601
914.113	6604
914.226	6616
914.34	6703
914.453	6544
914.566	6627
914.68	6551
914.793	6566
914.906	6407
915.019	6422
915.132	6376
915.245	6464
915.358	6490
915.47	6433
915.583	6433
915.696	6498
915.809	6547
915.921	6502
916.034	6410
916.146	6384
916.259	6334
916.371	6471
916.483	6441
916.595	6414
916.708	6467
916.82	6441
916.932	6399
917.044	6391
917.156	6384
917.268	6372
917.38	6376
917.491	6338
917.603	6346
917.715	6464
917.826	6407
917.938	6357
918.049	6266
918.161	6342
918.272	6429
918.384	6448
918.495	6323
918.606	6224
918.717	6190
918.828	6251
918.939	6281
919.05	6232
919.161	6281
919.272	6175
919.383	6159
919.494	6315
919.604	6464
919.715	6311
919.826	6281
919.936	6323
920.047	6391
920.157	6311
920.267	6456
920.378	6289
920.488	6300
920.598	6490
920.708	6623
920.818	6536
920.928	6475
921.038	6646
921.148	6566
921.258	6369
921.368	6331
921.477	6311
921.587	6163
921.697	6171
921.806	6251
921.916	6117
922.025	5885
922.134	5931
922.244	5901
922.353	5923
922.462	5889
922.571	5790
922.68	5722
922.789	5710
922.898	5684
923.007	5634
923.116	5642
923.224	5695
923.333	5676
923.442	5630
923.55	5551
923.659	5589
923.767	5642
923.876	5585
923.984	5634
924.092	5505
924.201	5570
924.309	5532
924.417	5570
924.525	5562
924.633	5497
924.741	6239
924.849	5421
924.956	5486
925.064	5387
925.172	5360
925.279	5265
925.387	5322
925.494	5337
925.602	5429
925.709	5402
925.816	5265
925.924	5258
926.031	5368
926.138	5296
926.245	5284
926.352	5216
926.459	5318
926.566	5330
926.673	5166
926.779	5204
926.886	5162
926.993	5048
927.099	5041
927.206	4953
927.312	4927
927.419	5033
927.525	4984
927.631	5022
927.737	4889
927.843	4847
927.95	4767
928.056	4809
928.162	4824
928.267	4847
928.373	5299
928.479	4892
928.585	4698
928.69	4793
928.796	4755
928.901	4668
929.007	4618
929.112	4706
929.218	4656
929.323	4664
929.428	4546
929.533	4668
929.638	4561
929.743	4596
929.848	4588
929.953	4531
930.058	4447
930.163	4360
930.267	4367
930.372	4493
930.477	4306
930.581	4481
930.685	4375
930.79	4287
930.894	4341
930.998	4238
931.103	4371
931.207	4150
931.311	4090
931.415	4032
931.519	3930
931.623	3922
