Data from glass_V78500241_486.txt Node
Date: Wed Sep 01 19:17:52 CST 2021
User: usil
Spectrometer: V785-0024
Trigger mode: 0
Integration Time (sec): 4.000000E-1
Scans to average: 1
Nonlinearity correction enabled: false
Boxcar width: 0
Storing dark spectrum: false
XAxis mode: Wavelengths
Number of Pixels in Spectrum: 1024
>>>>>Begin Spectral Data<<<<<
801.071	3720
801.214	3785
801.356	3709
801.499	3766
801.641	3724
801.783	3781
801.926	3926
802.068	3899
802.211	3892
802.353	3884
802.496	3899
802.638	3915
802.78	3915
802.923	3937
803.065	3880
803.208	3888
803.35	3876
803.492	3903
803.635	3911
803.777	3808
803.919	3884
804.061	4169
804.204	3987
804.346	3953
804.488	3956
804.63	4032
804.773	3949
804.915	4029
805.057	4200
805.199	4051
805.341	4109
805.483	4154
805.626	4139
805.768	4082
805.91	4223
806.052	4261
806.194	4242
806.336	4371
806.478	4249
806.62	4196
806.762	4181
806.904	4268
807.046	4344
807.188	4238
807.33	4181
807.472	4234
807.614	4188
807.756	4295
807.898	4196
808.04	4227
808.182	4268
808.324	4356
808.465	4383
808.607	4485
808.749	4455
808.891	4519
809.033	4527
809.174	4466
809.316	4272
809.458	4249
809.6	4166
809.741	4162
809.883	4135
810.025	4230
810.166	4238
810.308	4211
810.45	4238
810.591	4227
810.733	4272
810.875	4569
811.016	4774
811.158	5132
811.299	5292
811.441	5280
811.582	5064
811.724	4725
811.865	4470
812.007	4504
812.148	4424
812.29	4436
812.431	4451
812.573	4405
812.714	4405
812.855	4398
812.997	4394
813.138	4489
813.279	4432
813.421	4367
813.562	4390
813.703	4360
813.845	4306
813.986	4249
814.127	4238
814.268	4257
814.41	4265
814.551	4295
814.692	4348
814.833	4287
814.974	4291
815.115	4322
815.256	4280
815.397	4249
815.539	4268
815.68	4257
815.821	4204
815.962	4337
816.103	4284
816.244	4234
816.385	4238
816.526	4314
816.666	4192
816.807	4105
816.948	4219
817.089	4200
817.23	4112
817.371	4036
817.512	4074
817.653	4101
817.793	4051
817.934	4071
818.075	4105
818.216	4112
818.356	4093
818.497	3987
818.638	3915
818.778	3896
818.919	3934
819.06	3865
819.2	3964
819.341	3899
819.481	3899
819.622	3918
819.762	4048
819.903	3975
820.043	3861
820.184	3854
820.324	3827
820.465	3869
820.605	3896
820.746	3876
820.886	3808
821.026	3968
821.167	3903
821.307	3956
821.447	3964
821.588	3968
821.728	3941
821.868	3968
822.008	3899
822.149	3892
822.289	3911
822.429	3819
822.569	3747
822.709	3797
822.849	3755
822.99	3728
823.13	3785
823.27	3781
823.41	3755
823.55	3724
823.69	3751
823.83	3766
823.97	3740
824.11	3652
824.25	3587
824.389	3667
824.529	3656
824.669	3637
824.809	3740
824.949	3789
825.089	3743
825.228	3751
825.368	3614
825.508	3568
825.648	3610
825.787	3648
825.927	3614
826.067	3644
826.206	3675
826.346	3816
826.485	3869
826.625	3899
826.765	3949
826.904	3850
827.044	3614
827.183	3515
827.323	3504
827.462	3523
827.601	3466
827.741	3481
827.88	3469
828.02	3355
828.159	3439
828.298	3477
828.437	3519
828.577	3458
828.716	3633
828.855	3477
828.994	3382
829.134	3397
829.273	3382
829.412	3378
829.551	3363
829.69	3401
829.829	3485
829.968	3519
830.107	3473
830.246	3485
830.385	3405
830.524	3378
830.663	3298
830.802	3275
830.941	3245
831.08	3222
831.219	3294
831.357	3275
831.496	3466
831.635	3264
831.774	3207
831.913	3226
832.051	3150
832.19	3150
832.329	3214
832.467	3142
832.606	3112
832.744	3211
832.883	3188
833.022	3157
833.16	3287
833.299	3325
833.437	3363
833.576	3405
833.714	3466
833.852	3454
833.991	3428
834.129	3492
834.267	3439
834.406	3348
834.544	3466
834.682	3450
834.821	3435
834.959	3599
835.097	3405
835.235	3523
835.373	3496
835.511	3538
835.65	3485
835.788	3523
835.926	3393
836.064	3424
836.202	3401
836.34	3568
836.478	3633
836.615	3591
836.753	3568
836.891	3675
837.029	3644
837.167	3641
837.305	3564
837.443	3561
837.58	3511
837.718	3641
837.856	3610
837.993	3523
838.131	3637
838.269	3576
838.406	3572
838.544	3614
838.681	3523
838.819	3469
838.956	3367
839.094	3428
839.231	3485
839.369	3515
839.506	3762
839.643	3644
839.781	3526
839.918	3473
840.055	3523
840.193	3553
840.33	3538
840.467	3591
840.604	3591
840.742	3770
840.879	3549
841.016	3538
841.153	3618
841.29	3789
841.427	3724
841.564	3717
841.701	3724
841.838	3667
841.975	3682
842.112	3701
842.249	3644
842.385	3656
842.522	3842
842.659	3698
842.796	3705
842.933	3732
843.069	3667
843.206	3740
843.343	3819
843.479	3751
843.616	3797
843.752	3682
843.889	3724
844.025	3869
844.162	3736
844.298	3873
844.435	3804
844.571	3857
844.708	3945
844.844	4013
844.98	3994
845.117	3994
845.253	3983
845.389	3896
845.525	3915
845.661	3964
845.798	3968
845.934	4059
846.07	3949
846.206	4040
846.342	4139
846.478	4082
846.614	4006
846.75	3956
846.886	3960
847.022	4036
847.158	3949
847.294	3998
847.429	4051
847.565	3983
847.701	4219
847.837	3915
847.972	3896
848.108	3956
848.244	4006
848.379	3831
848.515	3899
848.65	3846
848.786	3838
848.921	3876
849.057	3953
849.192	3964
849.328	3907
849.463	3941
849.598	3896
849.734	3880
849.869	3884
850.004	3819
850.14	3827
850.275	3800
850.41	3759
850.545	3797
850.68	3762
850.815	3804
850.95	3808
851.085	3964
851.22	3888
851.355	3823
851.49	3850
851.625	3804
851.76	3838
851.895	3770
852.03	3755
852.165	3823
852.299	3876
852.434	3911
852.569	3835
852.703	3896
852.838	3998
852.973	4029
853.107	4055
853.242	3915
853.376	3869
853.511	3808
853.645	3892
853.78	3968
853.914	3918
854.048	3937
854.183	3926
854.317	3964
854.451	4063
854.585	3926
854.72	3956
854.854	4067
854.988	3975
855.122	3991
855.256	3915
855.39	4040
855.524	4120
855.658	4135
855.792	4109
855.926	4166
856.06	4230
856.194	4230
856.327	4143
856.461	4097
856.595	4185
856.729	4169
856.862	4280
856.996	4284
857.13	4325
857.263	4299
857.397	4447
857.53	4306
857.664	4322
857.797	4455
857.931	4386
858.064	4402
858.197	4462
858.331	4363
858.464	4344
858.597	4356
858.731	4459
858.864	4478
858.997	4440
859.13	4580
859.263	4546
859.396	4630
859.529	4516
859.662	4580
859.795	4565
859.928	4618
860.061	4733
860.194	4774
860.327	4668
860.46	4656
860.592	4725
860.725	4774
860.858	4786
860.99	4736
861.123	4698
861.256	4721
861.388	4763
861.521	5493
861.653	4733
861.786	4744
861.918	4721
862.05	4824
862.183	4858
862.315	4881
862.447	4961
862.58	4892
862.712	4786
862.844	4809
862.976	4820
863.108	4873
863.24	5185
863.372	4809
863.504	4938
863.636	4858
863.768	5014
863.9	4980
864.032	4927
864.164	5033
864.296	5048
864.428	5090
864.559	5117
864.691	5178
864.823	5136
864.954	5132
865.086	5094
865.217	5147
865.349	5052
865.48	5121
865.612	5223
865.743	5280
865.875	5212
866.006	5223
866.137	5258
866.269	5220
866.4	5315
866.531	5246
866.662	5223
866.793	5261
866.924	5269
867.055	5379
867.186	5357
867.317	5368
867.448	5368
867.579	5414
867.71	5372
867.841	5372
867.972	5448
868.103	5452
868.233	5501
868.364	5512
868.495	5562
868.625	5661
868.756	5828
868.886	5608
869.017	5741
869.147	5912
869.278	5889
869.408	5870
869.539	5855
869.669	5969
869.799	5889
869.929	5954
870.06	6068
870.19	6194
870.32	6205
870.45	6289
870.58	6372
870.71	6441
870.84	6528
870.97	6429
871.1	6418
871.23	6593
871.36	6681
871.489	6681
871.619	6749
871.749	6779
871.879	6886
872.008	7000
872.138	6996
872.267	6977
872.397	6977
872.526	7038
872.656	7122
872.785	7244
872.915	7400
873.044	7559
873.173	7552
873.303	7658
873.432	7727
873.561	7917
873.69	7959
873.819	7959
873.948	8161
874.077	8267
874.206	8298
874.335	8412
874.464	8636
874.593	8921
874.722	8876
874.851	9127
874.979	9294
875.108	9317
875.237	9466
875.365	9435
875.494	9686
875.623	9880
875.751	9831
875.88	10010
876.008	10154
876.136	10276
876.265	10535
876.393	10717
876.521	10668
876.65	10790
876.778	10763
876.906	10904
877.034	10843
877.162	11128
877.29	11178
877.418	11296
877.546	11368
877.674	11440
877.802	11539
877.93	11436
878.058	11577
878.185	11554
878.313	11619
878.441	11745
878.568	11737
878.696	11866
878.824	11859
878.951	11999
879.079	12038
879.206	12136
879.333	12041
879.461	12011
879.588	12034
879.715	12148
879.842	12315
879.97	12076
880.097	11904
880.224	11863
880.351	11908
880.478	11866
880.605	11851
880.732	11817
880.859	11931
880.986	11794
881.112	11779
881.239	11684
881.366	11676
881.493	11611
881.619	11581
881.746	11577
881.872	11570
881.999	11535
882.125	11410
882.252	11573
882.378	11478
882.505	11596
882.631	11368
882.757	11345
882.883	11299
883.01	11303
883.136	11197
883.262	11064
883.388	11113
883.514	11220
883.64	11166
883.766	11151
883.892	11037
884.018	10999
884.143	10995
884.269	11094
884.395	10702
884.52	10801
884.646	10805
884.772	10698
884.897	10672
885.023	10653
885.148	10755
885.274	10710
885.399	10691
885.524	10645
885.65	10592
885.775	10607
885.9	10565
886.025	10558
886.15	10527
886.275	10455
886.4	10367
886.525	10375
886.65	10329
886.775	10413
886.9	10367
887.025	10512
887.149	10299
887.274	10261
887.399	10150
887.523	10223
887.648	10139
887.773	10230
887.897	10280
888.021	10242
888.146	10101
888.27	10246
888.395	10265
888.519	10246
888.643	10192
888.767	10200
888.891	10139
889.015	9968
889.139	10063
889.263	9983
889.387	10093
889.511	10093
889.635	10067
889.759	9949
889.883	9949
890.006	9994
890.13	10063
890.254	10002
890.377	9903
890.501	9888
890.624	9892
890.748	9899
890.871	9785
890.995	9717
891.118	9679
891.241	9740
891.364	9789
891.488	9869
891.611	9778
891.734	9766
891.857	9819
891.98	9660
892.103	9724
892.226	9743
892.349	9675
892.471	9545
892.594	9553
892.717	9652
892.839	9564
892.962	9618
893.085	9663
893.207	9682
893.33	9447
893.452	9576
893.575	9656
893.697	9580
893.819	9622
893.941	9656
894.064	9656
894.186	9439
894.308	9511
894.43	9488
894.552	9549
894.674	9523
894.796	9416
894.918	9462
895.04	9294
895.161	9443
895.283	9336
895.405	9272
895.526	9294
895.648	9195
895.769	9279
895.891	9260
896.012	9336
896.134	9294
896.255	9199
896.376	9108
896.498	9119
896.619	9138
896.74	9081
896.861	9116
896.982	9256
897.103	9393
897.224	9104
897.345	9070
897.466	8990
897.587	9039
897.708	9112
897.828	9093
897.949	8963
898.07	8937
898.19	8929
898.311	9017
898.431	8910
898.552	8929
898.672	8971
898.792	8998
898.913	8990
899.033	8750
899.153	8758
899.273	8583
899.393	8667
899.513	8800
899.633	8758
899.753	8720
899.873	8720
899.993	8701
900.113	8693
900.232	8712
900.352	8648
900.472	8625
900.591	8613
900.711	8594
900.83	8613
900.95	8701
901.069	8644
901.189	8590
901.308	8442
901.427	8370
901.546	8419
901.665	8507
901.784	8492
901.904	8450
902.023	8389
902.141	8191
902.26	8199
902.379	8320
902.498	8221
902.617	8237
902.735	8324
902.854	8259
902.973	8195
903.091	8168
903.21	8100
903.328	8153
903.446	8126
903.565	8100
903.683	8111
903.801	8062
903.919	8134
904.038	8157
904.156	8035
904.274	8103
904.392	8058
904.51	8058
904.627	8126
904.745	8111
904.863	8103
904.981	7974
905.098	7841
905.216	7913
905.334	7947
905.451	7921
905.569	7959
905.686	8020
905.803	7917
905.921	7860
906.038	7917
906.155	7795
906.272	7727
906.389	7731
906.506	7662
906.623	7613
906.74	7651
906.857	7578
906.974	7594
907.091	7734
907.208	7693
907.324	7636
907.441	7582
907.557	7445
907.674	7514
907.79	7449
907.907	7388
908.023	7434
908.139	7445
908.256	7415
908.372	7381
908.488	7381
908.604	7282
908.72	7266
908.836	7305
908.952	7289
909.068	7255
909.184	7331
909.3	7244
909.415	7324
909.531	7247
909.647	7107
909.762	7095
909.878	7053
909.993	7160
910.108	7072
910.224	7091
910.339	7141
910.454	7076
910.57	7031
910.685	6924
910.8	7103
910.915	7149
911.03	7031
911.145	6913
911.259	6840
911.374	6913
911.489	6867
911.604	6863
911.718	6772
911.833	6753
911.947	6684
912.062	6631
912.176	6688
912.291	6688
912.405	6681
912.519	6787
912.633	6837
912.748	6734
912.862	6673
912.976	6623
913.09	6547
913.204	6601
913.318	6620
913.431	6688
913.545	6681
913.659	6662
913.772	6623
913.886	6631
914	6566
914.113	6681
914.226	6650
914.34	6574
914.453	6448
914.566	6608
914.68	6582
914.793	6506
914.906	6452
915.019	6448
915.132	6418
915.245	6479
915.358	6471
915.47	6464
915.583	6452
915.696	6460
915.809	6544
915.921	6498
916.034	6376
916.146	6388
916.259	6456
916.371	6498
916.483	6403
916.595	6441
916.708	6388
916.82	6403
916.932	6407
917.044	6365
917.156	6422
917.268	6308
917.38	6311
917.491	6350
917.603	6357
917.715	6456
917.826	6464
917.938	6388
918.049	6338
918.161	6372
918.272	6422
918.384	6399
918.495	6346
918.606	6281
918.717	6243
918.828	6243
918.939	6285
919.05	6178
919.161	6281
919.272	6136
919.383	6175
919.494	6281
919.604	6437
919.715	6304
919.826	6270
919.936	6266
920.047	6429
920.157	6258
920.267	6479
920.378	6357
920.488	6228
920.598	6532
920.708	6544
920.818	6471
920.928	6498
921.038	6631
921.148	6631
921.258	6338
921.368	6319
921.477	6213
921.587	6258
921.697	6148
921.806	6182
921.916	6098
922.025	6034
922.134	5901
922.244	5897
922.353	6019
922.462	5878
922.571	5805
922.68	5726
922.789	5707
922.898	5707
923.007	5646
923.116	5722
923.224	5684
923.333	5691
923.442	5558
923.55	5638
923.659	5615
923.767	5638
923.876	5532
923.984	5619
924.092	5509
924.201	5562
924.309	5577
924.417	5581
924.525	5463
924.633	5452
924.741	6281
924.849	5410
924.956	5459
925.064	5395
925.172	5337
925.279	5341
925.387	5383
925.494	5311
925.602	5474
925.709	5436
925.816	5258
925.924	5322
926.031	5368
926.138	5315
926.245	5337
926.352	5254
926.459	5303
926.566	5349
926.673	5170
926.779	5140
926.886	5094
926.993	5033
927.099	5022
927.206	5014
927.312	4976
927.419	4987
927.525	4991
927.631	4965
927.737	4908
927.843	4896
927.95	4805
928.056	4847
928.162	4866
928.267	4870
928.373	5288
928.479	4786
928.585	4714
928.69	4759
928.796	4809
928.901	4675
929.007	4637
929.112	4725
929.218	4637
929.323	4611
929.428	4592
929.533	4683
929.638	4512
929.743	4554
929.848	4569
929.953	4554
930.058	4462
930.163	4314
930.267	4394
930.372	4500
930.477	4337
930.581	4519
930.685	4371
930.79	4215
930.894	4306
930.998	4268
931.103	4383
931.207	4166
931.311	4090
931.415	4097
931.519	3918
931.623	3937
