Data from glass_V78500241_1183.txt Node
Date: Wed Sep 01 19:22:42 CST 2021
User: usil
Spectrometer: V785-0024
Trigger mode: 0
Integration Time (sec): 4.000000E-1
Scans to average: 1
Nonlinearity correction enabled: false
Boxcar width: 0
Storing dark spectrum: false
XAxis mode: Wavelengths
Number of Pixels in Spectrum: 1024
>>>>>Begin Spectral Data<<<<<
801.071	3720
801.214	3747
801.356	3709
801.499	3770
801.641	3751
801.783	3770
801.926	3876
802.068	3854
802.211	3846
802.353	3854
802.496	3827
802.638	3850
802.78	3930
802.923	3960
803.065	3907
803.208	3861
803.35	3865
803.492	3915
803.635	3937
803.777	3808
803.919	3907
804.061	4169
804.204	3960
804.346	3998
804.488	3960
804.63	4029
804.773	4013
804.915	4032
805.057	4196
805.199	4044
805.341	4082
805.483	4143
805.626	4116
805.768	4135
805.91	4200
806.052	4261
806.194	4204
806.336	4344
806.478	4246
806.62	4166
806.762	4234
806.904	4291
807.046	4352
807.188	4204
807.33	4219
807.472	4230
807.614	4169
807.756	4280
807.898	4227
808.04	4207
808.182	4284
808.324	4337
808.465	4383
808.607	4508
808.749	4440
808.891	4462
809.033	4519
809.174	4432
809.316	4246
809.458	4276
809.6	4139
809.741	4162
809.883	4196
810.025	4257
810.166	4238
810.308	4227
810.45	4276
810.591	4253
810.733	4344
810.875	4550
811.016	4774
811.158	5117
811.299	5212
811.441	5269
811.582	5067
811.724	4725
811.865	4481
812.007	4493
812.148	4478
812.29	4459
812.431	4390
812.573	4440
812.714	4363
812.855	4386
812.997	4428
813.138	4523
813.279	4451
813.421	4367
813.562	4375
813.703	4367
813.845	4341
813.986	4227
814.127	4211
814.268	4249
814.41	4306
814.551	4276
814.692	4314
814.833	4249
814.974	4310
815.115	4310
815.256	4299
815.397	4242
815.539	4227
815.68	4196
815.821	4223
815.962	4352
816.103	4310
816.244	4246
816.385	4219
816.526	4295
816.666	4166
816.807	4086
816.948	4177
817.089	4173
817.23	4101
817.371	4036
817.512	4036
817.653	4101
817.793	4048
817.934	4082
818.075	4090
818.216	4086
818.356	4131
818.497	4010
818.638	3945
818.778	3922
818.919	3869
819.06	3850
819.2	3926
819.341	3846
819.481	3831
819.622	3918
819.762	3998
819.903	3941
820.043	3930
820.184	3846
820.324	3823
820.465	3903
820.605	3854
820.746	3884
820.886	3816
821.026	3926
821.167	3926
821.307	4013
821.447	3972
821.588	3903
821.728	3926
821.868	3953
822.008	3880
822.149	3934
822.289	3945
822.429	3778
822.569	3770
822.709	3797
822.849	3701
822.99	3728
823.13	3797
823.27	3800
823.41	3713
823.55	3720
823.69	3732
823.83	3762
823.97	3698
824.11	3622
824.25	3599
824.389	3610
824.529	3648
824.669	3641
824.809	3717
824.949	3751
825.089	3747
825.228	3709
825.368	3595
825.508	3599
825.648	3572
825.787	3610
825.927	3648
826.067	3633
826.206	3679
826.346	3812
826.485	3831
826.625	3869
826.765	3983
826.904	3854
827.044	3614
827.183	3584
827.323	3450
827.462	3473
827.601	3435
827.741	3416
827.88	3454
828.02	3386
828.159	3462
828.298	3492
828.437	3542
828.577	3466
828.716	3584
828.855	3557
828.994	3382
829.134	3363
829.273	3363
829.412	3378
829.551	3325
829.69	3397
829.829	3462
829.968	3530
830.107	3439
830.246	3450
830.385	3416
830.524	3367
830.663	3313
830.802	3253
830.941	3192
831.08	3211
831.219	3249
831.357	3298
831.496	3458
831.635	3260
831.774	3173
831.913	3233
832.051	3138
832.19	3146
832.329	3245
832.467	3157
832.606	3127
832.744	3218
832.883	3180
833.022	3192
833.16	3287
833.299	3310
833.437	3287
833.576	3363
833.714	3409
833.852	3443
833.991	3462
834.129	3466
834.267	3454
834.406	3443
834.544	3431
834.682	3435
834.821	3412
834.959	3553
835.097	3389
835.235	3564
835.373	3473
835.511	3504
835.65	3454
835.788	3485
835.926	3389
836.064	3386
836.202	3416
836.34	3576
836.478	3606
836.615	3500
836.753	3614
836.891	3641
837.029	3622
837.167	3595
837.305	3553
837.443	3534
837.58	3545
837.718	3572
837.856	3595
837.993	3530
838.131	3564
838.269	3568
838.406	3576
838.544	3587
838.681	3466
838.819	3481
838.956	3325
839.094	3386
839.231	3458
839.369	3534
839.506	3717
839.643	3629
839.781	3526
839.918	3450
840.055	3526
840.193	3545
840.33	3542
840.467	3568
840.604	3606
840.742	3778
840.879	3542
841.016	3572
841.153	3633
841.29	3759
841.427	3743
841.564	3747
841.701	3736
841.838	3740
841.975	3690
842.112	3713
842.249	3709
842.385	3652
842.522	3831
842.659	3660
842.796	3690
842.933	3717
843.069	3652
843.206	3709
843.343	3819
843.479	3781
843.616	3846
843.752	3652
843.889	3675
844.025	3880
844.162	3690
844.298	3842
844.435	3812
844.571	3759
844.708	3918
844.844	3991
844.98	4059
845.117	4013
845.253	3953
845.389	3922
845.525	3991
845.661	3991
845.798	3941
845.934	4032
846.07	3941
846.206	4044
846.342	4135
846.478	4032
846.614	3979
846.75	3926
846.886	3915
847.022	4025
847.158	4002
847.294	4025
847.429	4006
847.565	4017
847.701	4234
847.837	3915
847.972	3857
848.108	3983
848.244	4002
848.379	3884
848.515	3850
848.65	3831
848.786	3869
848.921	3873
849.057	3934
849.192	3964
849.328	3888
849.463	3975
849.598	3873
849.734	3850
849.869	3819
850.004	3762
850.14	3846
850.275	3797
850.41	3724
850.545	3781
850.68	3797
850.815	3797
850.95	3850
851.085	3945
851.22	3915
851.355	3835
851.49	3816
851.625	3785
851.76	3789
851.895	3747
852.03	3736
852.165	3797
852.299	3873
852.434	3911
852.569	3854
852.703	3854
852.838	3934
852.973	4006
853.107	4029
853.242	3934
853.376	3819
853.511	3793
853.645	3888
853.78	3991
853.914	3903
854.048	3880
854.183	3930
854.317	3968
854.451	4105
854.585	3979
854.72	3960
854.854	4055
854.988	3926
855.122	4036
855.256	3975
855.39	4002
855.524	4090
855.658	4086
855.792	4055
855.926	4139
856.06	4162
856.194	4230
856.327	4101
856.461	4105
856.595	4158
856.729	4204
856.862	4322
856.996	4238
857.13	4303
857.263	4318
857.397	4394
857.53	4265
857.664	4337
857.797	4402
857.931	4455
858.064	4379
858.197	4455
858.331	4394
858.464	4424
858.597	4390
858.731	4451
858.864	4455
858.997	4459
859.13	4485
859.263	4550
859.396	4565
859.529	4577
859.662	4508
859.795	4504
859.928	4569
860.061	4687
860.194	4763
860.327	4645
860.46	4649
860.592	4725
860.725	4740
860.858	4748
860.99	4706
861.123	4683
861.256	4687
861.388	4763
861.521	5250
861.653	4759
861.786	4694
861.918	4774
862.05	4790
862.183	4850
862.315	4915
862.447	4961
862.58	4870
862.712	4843
862.844	4812
862.976	4911
863.108	4866
863.24	5204
863.372	4816
863.504	4915
863.636	4862
863.768	4980
863.9	5003
864.032	4942
864.164	4911
864.296	5033
864.428	5102
864.559	5132
864.691	5166
864.823	5140
864.954	5128
865.086	5147
865.217	5159
865.349	5075
865.48	5204
865.612	5151
865.743	5357
865.875	5204
866.006	5250
866.137	5246
866.269	5303
866.4	5296
866.531	5208
866.662	5220
866.793	5311
866.924	5292
867.055	5307
867.186	5368
867.317	5311
867.448	5280
867.579	5349
867.71	5368
867.841	5402
867.972	5425
868.103	5520
868.233	5486
868.364	5547
868.495	5585
868.625	5680
868.756	5779
868.886	5668
869.017	5760
869.147	5813
869.278	5855
869.408	5794
869.539	5832
869.669	5980
869.799	5885
869.929	5958
870.06	6007
870.19	6209
870.32	6232
870.45	6235
870.58	6376
870.71	6422
870.84	6494
870.97	6429
871.1	6479
871.23	6669
871.36	6677
871.489	6665
871.619	6703
871.749	6833
871.879	6833
872.008	6939
872.138	7031
872.267	7023
872.397	6985
872.526	7061
872.656	7122
872.785	7187
872.915	7426
873.044	7495
873.173	7582
873.303	7655
873.432	7780
873.561	7913
873.69	7883
873.819	7989
873.948	8138
874.077	8259
874.206	8328
874.335	8427
874.464	8682
874.593	8872
874.722	8918
874.851	9116
874.979	9294
875.108	9439
875.237	9405
875.365	9466
875.494	9633
875.623	9827
875.751	9770
875.88	10036
876.008	10204
876.136	10291
876.265	10485
876.393	10725
876.521	10729
876.65	10835
876.778	10904
876.906	11010
877.034	10927
877.162	11132
877.29	11201
877.418	11231
877.546	11334
877.674	11387
877.802	11558
877.93	11653
878.058	11478
878.185	11566
878.313	11718
878.441	11741
878.568	11688
878.696	11786
878.824	11859
878.951	11954
879.079	12053
879.206	12163
879.333	12072
879.461	12007
879.588	12053
879.715	12034
879.842	12285
879.97	12045
880.097	11859
880.224	11923
880.351	11882
880.478	11843
880.605	11836
880.732	11843
880.859	12030
880.986	11798
881.112	11882
881.239	11748
881.366	11703
881.493	11608
881.619	11581
881.746	11581
881.872	11532
881.999	11474
882.125	11505
882.252	11509
882.378	11505
882.505	11539
882.631	11433
882.757	11280
882.883	11406
883.01	11273
883.136	11216
883.262	11174
883.388	11010
883.514	11189
883.64	11132
883.766	11124
883.892	11029
884.018	11037
884.143	11048
884.269	11181
884.395	10831
884.52	10835
884.646	10755
884.772	10793
884.897	10714
885.023	10782
885.148	10736
885.274	10839
885.399	10706
885.524	10687
885.65	10565
885.775	10649
885.9	10512
886.025	10611
886.15	10687
886.275	10447
886.4	10424
886.525	10356
886.65	10398
886.775	10291
886.9	10447
887.025	10546
887.149	10306
887.274	10238
887.399	10204
887.523	10188
887.648	10158
887.773	10090
887.897	10204
888.021	10211
888.146	10162
888.27	10185
888.395	10207
888.519	10257
888.643	10223
888.767	10185
888.891	10166
889.015	10032
889.139	9956
889.263	10002
889.387	10082
889.511	10078
889.635	10166
889.759	9983
889.883	10044
890.006	10040
890.13	10090
890.254	9964
890.377	9941
890.501	9873
890.624	9850
890.748	9888
890.871	9797
890.995	9797
891.118	9751
891.241	9812
891.364	9701
891.488	9831
891.611	9701
891.734	9705
891.857	9755
891.98	9682
892.103	9800
892.226	9728
892.349	9717
892.471	9485
892.594	9561
892.717	9633
892.839	9564
892.962	9698
893.085	9755
893.207	9595
893.33	9523
893.452	9443
893.575	9648
893.697	9500
893.819	9660
893.941	9671
894.064	9610
894.186	9359
894.308	9397
894.43	9530
894.552	9595
894.674	9576
894.796	9424
894.918	9443
895.04	9416
895.161	9329
895.283	9336
895.405	9332
895.526	9268
895.648	9199
895.769	9233
895.891	9298
896.012	9310
896.134	9241
896.255	9169
896.376	9161
896.498	9081
896.619	9142
896.74	9123
896.861	9108
896.982	9279
897.103	9329
897.224	9146
897.345	9097
897.466	9028
897.587	9001
897.708	9180
897.828	9043
897.949	8925
898.07	8868
898.19	8883
898.311	9062
898.431	8849
898.552	8975
898.672	8941
898.792	8994
898.913	8921
899.033	8773
899.153	8724
899.273	8640
899.393	8746
899.513	8750
899.633	8750
899.753	8792
899.873	8663
899.993	8769
900.113	8674
900.232	8712
900.352	8712
900.472	8625
900.591	8587
900.711	8606
900.83	8549
900.95	8686
901.069	8670
901.189	8526
901.308	8507
901.427	8400
901.546	8404
901.665	8541
901.784	8571
901.904	8339
902.023	8332
902.141	8195
902.26	8214
902.379	8229
902.498	8279
902.617	8206
902.735	8336
902.854	8282
902.973	8225
903.091	8134
903.21	8123
903.328	8229
903.446	8164
903.565	8103
903.683	8103
903.801	7955
903.919	8119
904.038	8145
904.156	8069
904.274	8027
904.392	8054
904.51	8046
904.627	8103
904.745	8130
904.863	8119
904.981	7947
905.098	7852
905.216	7833
905.334	7879
905.451	7917
905.569	7826
905.686	7868
905.803	7890
905.921	7814
906.038	7909
906.155	7818
906.272	7731
906.389	7719
906.506	7704
906.623	7639
906.74	7628
906.857	7578
906.974	7643
907.091	7708
907.208	7700
907.324	7594
907.441	7639
907.557	7411
907.674	7464
907.79	7369
907.907	7430
908.023	7422
908.139	7464
908.256	7388
908.372	7487
908.488	7362
908.604	7308
908.72	7206
908.836	7251
908.952	7217
909.068	7259
909.184	7400
909.3	7225
909.415	7251
909.531	7255
909.647	7126
909.762	7141
909.878	7027
909.993	7179
910.108	7053
910.224	7084
910.339	7103
910.454	7061
910.57	7034
910.685	6905
910.8	7168
910.915	7118
911.03	7015
911.145	6962
911.259	6840
911.374	6901
911.489	6871
911.604	6837
911.718	6715
911.833	6760
911.947	6620
912.062	6635
912.176	6726
912.291	6745
912.405	6688
912.519	6798
912.633	6878
912.748	6741
912.862	6722
912.976	6597
913.09	6582
913.204	6623
913.318	6608
913.431	6642
913.545	6684
913.659	6734
913.772	6692
913.886	6525
914	6551
914.113	6616
914.226	6639
914.34	6589
914.453	6509
914.566	6582
914.68	6544
914.793	6502
914.906	6426
915.019	6407
915.132	6357
915.245	6376
915.358	6471
915.47	6483
915.583	6502
915.696	6498
915.809	6525
915.921	6566
916.034	6464
916.146	6452
916.259	6399
916.371	6490
916.483	6395
916.595	6357
916.708	6448
916.82	6403
916.932	6429
917.044	6437
917.156	6426
917.268	6311
917.38	6395
917.491	6327
917.603	6338
917.715	6403
917.826	6395
917.938	6304
918.049	6243
918.161	6300
918.272	6452
918.384	6403
918.495	6357
918.606	6182
918.717	6163
918.828	6281
918.939	6292
919.05	6239
919.161	6304
919.272	6163
919.383	6194
919.494	6266
919.604	6418
919.715	6331
919.826	6258
919.936	6300
920.047	6372
920.157	6289
920.267	6479
920.378	6315
920.488	6296
920.598	6467
920.708	6536
920.818	6490
920.928	6486
921.038	6627
921.148	6540
921.258	6350
921.368	6361
921.477	6254
921.587	6152
921.697	6106
921.806	6194
921.916	6072
922.025	5897
922.134	5973
922.244	5904
922.353	5984
922.462	5874
922.571	5844
922.68	5752
922.789	5691
922.898	5688
923.007	5649
923.116	5764
923.224	5657
923.333	5604
923.442	5608
923.55	5649
923.659	5562
923.767	5684
923.876	5532
923.984	5608
924.092	5482
924.201	5535
924.309	5532
924.417	5581
924.525	5478
924.633	5547
924.741	6273
924.849	5345
924.956	5501
925.064	5341
925.172	5288
925.279	5330
925.387	5372
925.494	5322
925.602	5429
925.709	5429
925.816	5288
925.924	5322
926.031	5379
926.138	5299
926.245	5334
926.352	5239
926.459	5307
926.566	5357
926.673	5166
926.779	5128
926.886	5140
926.993	5025
927.099	4961
927.206	4923
927.312	4961
927.419	5010
927.525	4980
927.631	5003
927.737	4938
927.843	4839
927.95	4778
928.056	4862
928.162	4816
928.267	4843
928.373	5322
928.479	4843
928.585	4714
928.69	4744
928.796	4717
928.901	4698
929.007	4599
929.112	4664
929.218	4634
929.323	4558
929.428	4558
929.533	4710
929.638	4535
929.743	4516
929.848	4565
929.953	4542
930.058	4447
930.163	4371
930.267	4375
930.372	4409
930.477	4322
930.581	4443
930.685	4363
930.79	4272
930.894	4344
930.998	4280
931.103	4337
931.207	4097
931.311	4040
931.415	4048
931.519	3953
931.623	3994
