Data from glass_V78500241_1176.txt Node
Date: Wed Sep 01 19:22:39 CST 2021
User: usil
Spectrometer: V785-0024
Trigger mode: 0
Integration Time (sec): 4.000000E-1
Scans to average: 1
Nonlinearity correction enabled: false
Boxcar width: 0
Storing dark spectrum: false
XAxis mode: Wavelengths
Number of Pixels in Spectrum: 1024
>>>>>Begin Spectral Data<<<<<
801.071	3732
801.214	3755
801.356	3705
801.499	3751
801.641	3728
801.783	3743
801.926	3854
802.068	3869
802.211	3827
802.353	3934
802.496	3842
802.638	3888
802.78	3964
802.923	3941
803.065	3835
803.208	3876
803.35	3873
803.492	3884
803.635	3937
803.777	3789
803.919	3896
804.061	4143
804.204	3972
804.346	3960
804.488	3915
804.63	4025
804.773	3991
804.915	4067
805.057	4169
805.199	4063
805.341	4093
805.483	4147
805.626	4169
805.768	4128
805.91	4173
806.052	4249
806.194	4215
806.336	4325
806.478	4242
806.62	4204
806.762	4162
806.904	4287
807.046	4341
807.188	4230
807.33	4185
807.472	4253
807.614	4257
807.756	4249
807.898	4192
808.04	4272
808.182	4284
808.324	4306
808.465	4413
808.607	4451
808.749	4462
808.891	4466
809.033	4531
809.174	4428
809.316	4249
809.458	4284
809.6	4139
809.741	4169
809.883	4147
810.025	4215
810.166	4230
810.308	4238
810.45	4234
810.591	4272
810.733	4291
810.875	4554
811.016	4816
811.158	5105
811.299	5254
811.441	5311
811.582	5098
811.724	4702
811.865	4481
812.007	4493
812.148	4436
812.29	4466
812.431	4371
812.573	4459
812.714	4379
812.855	4455
812.997	4485
813.138	4516
813.279	4428
813.421	4402
813.562	4310
813.703	4379
813.845	4314
813.986	4211
814.127	4234
814.268	4257
814.41	4291
814.551	4287
814.692	4295
814.833	4246
814.974	4360
815.115	4405
815.256	4261
815.397	4303
815.539	4223
815.68	4238
815.821	4223
815.962	4356
816.103	4272
816.244	4253
816.385	4265
816.526	4295
816.666	4227
816.807	4135
816.948	4162
817.089	4185
817.23	4147
817.371	4074
817.512	4086
817.653	4067
817.793	4040
817.934	4036
818.075	4067
818.216	4051
818.356	4139
818.497	3941
818.638	3873
818.778	3922
818.919	3846
819.06	3896
819.2	3941
819.341	3857
819.481	3869
819.622	3934
819.762	4010
819.903	3991
820.043	3869
820.184	3873
820.324	3850
820.465	3873
820.605	3842
820.746	3926
820.886	3827
821.026	3934
821.167	3968
821.307	3941
821.447	3972
821.588	3968
821.728	3930
821.868	3934
822.008	3888
822.149	3896
822.289	3915
822.429	3774
822.569	3781
822.709	3816
822.849	3732
822.99	3717
823.13	3774
823.27	3781
823.41	3736
823.55	3762
823.69	3713
823.83	3732
823.97	3724
824.11	3591
824.25	3576
824.389	3576
824.529	3625
824.669	3656
824.809	3724
824.949	3785
825.089	3751
825.228	3705
825.368	3576
825.508	3603
825.648	3557
825.787	3599
825.927	3667
826.067	3648
826.206	3686
826.346	3781
826.485	3835
826.625	3911
826.765	3945
826.904	3842
827.044	3648
827.183	3557
827.323	3443
827.462	3488
827.601	3420
827.741	3431
827.88	3450
828.02	3397
828.159	3454
828.298	3443
828.437	3526
828.577	3424
828.716	3614
828.855	3515
828.994	3378
829.134	3416
829.273	3389
829.412	3370
829.551	3336
829.69	3367
829.829	3450
829.968	3492
830.107	3450
830.246	3477
830.385	3374
830.524	3416
830.663	3283
830.802	3218
830.941	3199
831.08	3207
831.219	3275
831.357	3214
831.496	3435
831.635	3253
831.774	3226
831.913	3195
832.051	3165
832.19	3135
832.329	3222
832.467	3135
832.606	3070
832.744	3188
832.883	3169
833.022	3154
833.16	3264
833.299	3291
833.437	3321
833.576	3374
833.714	3389
833.852	3424
833.991	3477
834.129	3439
834.267	3439
834.406	3412
834.544	3401
834.682	3420
834.821	3405
834.959	3603
835.097	3431
835.235	3526
835.373	3477
835.511	3507
835.65	3511
835.788	3485
835.926	3405
836.064	3393
836.202	3382
836.34	3606
836.478	3606
836.615	3538
836.753	3614
836.891	3694
837.029	3660
837.167	3553
837.305	3584
837.443	3584
837.58	3473
837.718	3576
837.856	3564
837.993	3538
838.131	3599
838.269	3610
838.406	3584
838.544	3564
838.681	3500
838.819	3462
838.956	3378
839.094	3420
839.231	3424
839.369	3504
839.506	3743
839.643	3648
839.781	3485
839.918	3473
840.055	3500
840.193	3507
840.33	3580
840.467	3568
840.604	3603
840.742	3804
840.879	3523
841.016	3580
841.153	3591
841.29	3774
841.427	3690
841.564	3720
841.701	3762
841.838	3705
841.975	3690
842.112	3717
842.249	3652
842.385	3637
842.522	3797
842.659	3709
842.796	3667
842.933	3694
843.069	3705
843.206	3751
843.343	3778
843.479	3816
843.616	3789
843.752	3682
843.889	3717
844.025	3842
844.162	3762
844.298	3857
844.435	3774
844.571	3793
844.708	3907
844.844	3987
844.98	4017
845.117	4074
845.253	3953
845.389	3934
845.525	3968
845.661	3964
845.798	3918
845.934	4040
846.07	3937
846.206	4082
846.342	4120
846.478	4078
846.614	3930
846.75	3934
846.886	3934
847.022	4051
847.158	4002
847.294	4055
847.429	4036
847.565	4006
847.701	4173
847.837	3888
847.972	3918
848.108	3994
848.244	3949
848.379	3884
848.515	3819
848.65	3850
848.786	3865
848.921	3876
849.057	3930
849.192	3918
849.328	3907
849.463	3915
849.598	3876
849.734	3892
849.869	3857
850.004	3808
850.14	3846
850.275	3800
850.41	3732
850.545	3774
850.68	3804
850.815	3797
850.95	3808
851.085	3937
851.22	3888
851.355	3854
851.49	3823
851.625	3812
851.76	3808
851.895	3778
852.03	3713
852.165	3778
852.299	3884
852.434	3911
852.569	3896
852.703	3876
852.838	3934
852.973	3987
853.107	3998
853.242	3899
853.376	3888
853.511	3785
853.645	3804
853.78	3968
853.914	3892
854.048	3899
854.183	3888
854.317	3953
854.451	4071
854.585	3941
854.72	3991
854.854	4044
854.988	3941
855.122	4051
855.256	3922
855.39	4010
855.524	4093
855.658	4139
855.792	4139
855.926	4120
856.06	4169
856.194	4223
856.327	4105
856.461	4185
856.595	4185
856.729	4188
856.862	4272
856.996	4238
857.13	4303
857.263	4310
857.397	4352
857.53	4318
857.664	4375
857.797	4398
857.931	4440
858.064	4455
858.197	4421
858.331	4421
858.464	4371
858.597	4383
858.731	4474
858.864	4451
858.997	4432
859.13	4497
859.263	4561
859.396	4596
859.529	4535
859.662	4531
859.795	4550
859.928	4554
860.061	4698
860.194	4744
860.327	4634
860.46	4645
860.592	4782
860.725	4767
860.858	4774
860.99	4752
861.123	4706
861.256	4687
861.388	4828
861.521	5372
861.653	4736
861.786	4683
861.918	4733
862.05	4782
862.183	4866
862.315	4843
862.447	4934
862.58	4923
862.712	4786
862.844	4733
862.976	4835
863.108	4877
863.24	5185
863.372	4824
863.504	4877
863.636	4885
863.768	4980
863.9	4995
864.032	4915
864.164	4957
864.296	5014
864.428	5113
864.559	5105
864.691	5128
864.823	5162
864.954	5162
865.086	5185
865.217	5155
865.349	5071
865.48	5201
865.612	5227
865.743	5284
865.875	5223
866.006	5208
866.137	5235
866.269	5246
866.4	5269
866.531	5303
866.662	5227
866.793	5296
866.924	5303
867.055	5345
867.186	5288
867.317	5345
867.448	5334
867.579	5357
867.71	5299
867.841	5406
867.972	5436
868.103	5414
868.233	5493
868.364	5448
868.495	5558
868.625	5653
868.756	5805
868.886	5680
869.017	5722
869.147	5866
869.278	5893
869.408	5813
869.539	5855
869.669	5939
869.799	5942
869.929	5980
870.06	6015
870.19	6224
870.32	6197
870.45	6262
870.58	6372
870.71	6346
870.84	6490
870.97	6410
871.1	6456
871.23	6623
871.36	6673
871.489	6631
871.619	6734
871.749	6810
871.879	6837
872.008	7004
872.138	7000
872.267	7050
872.397	7034
872.526	7069
872.656	7080
872.785	7206
872.915	7331
873.044	7514
873.173	7544
873.303	7624
873.432	7780
873.561	7909
873.69	7959
873.819	7989
873.948	8161
874.077	8282
874.206	8336
874.335	8492
874.464	8693
874.593	8876
874.722	8952
874.851	9123
874.979	9199
875.108	9405
875.237	9454
875.365	9447
875.494	9652
875.623	9816
875.751	9808
875.88	9983
876.008	10093
876.136	10261
876.265	10424
876.393	10729
876.521	10714
876.65	10771
876.778	10946
876.906	10869
877.034	10972
877.162	11029
877.29	11136
877.418	11296
877.546	11414
877.674	11512
877.802	11566
877.93	11474
878.058	11604
878.185	11562
878.313	11657
878.441	11752
878.568	11710
878.696	11855
878.824	11836
878.951	11863
879.079	12011
879.206	12148
879.333	12106
879.461	12015
879.588	12049
879.715	12083
879.842	12228
879.97	12026
880.097	11988
880.224	11920
880.351	11965
880.478	11950
880.605	11920
880.732	11889
880.859	12026
880.986	11836
881.112	11855
881.239	11722
881.366	11688
881.493	11638
881.619	11570
881.746	11505
881.872	11512
881.999	11543
882.125	11497
882.252	11551
882.378	11604
882.505	11566
882.631	11391
882.757	11250
882.883	11292
883.01	11261
883.136	11250
883.262	11086
883.388	11143
883.514	11235
883.64	11235
883.766	11204
883.892	11113
884.018	11033
884.143	11052
884.269	11189
884.395	10896
884.52	10778
884.646	10767
884.772	10714
884.897	10649
885.023	10660
885.148	10748
885.274	10820
885.399	10717
885.524	10683
885.65	10634
885.775	10637
885.9	10538
886.025	10603
886.15	10485
886.275	10569
886.4	10382
886.525	10386
886.65	10413
886.775	10375
886.9	10462
887.025	10531
887.149	10390
887.274	10284
887.399	10238
887.523	10272
887.648	10158
887.773	10196
887.897	10295
888.021	10238
888.146	10147
888.27	10238
888.395	10192
888.519	10253
888.643	10120
888.767	10154
888.891	10090
889.015	9964
889.139	10101
889.263	9907
889.387	9994
889.511	10112
889.635	10086
889.759	10002
889.883	9941
890.006	10048
890.13	10188
890.254	10021
890.377	9941
890.501	9915
890.624	9918
890.748	9930
890.871	9831
890.995	9816
891.118	9781
891.241	9774
891.364	9656
891.488	9789
891.611	9720
891.734	9732
891.857	9800
891.98	9759
892.103	9808
892.226	9698
892.349	9648
892.471	9564
892.594	9587
892.717	9652
892.839	9625
892.962	9599
893.085	9667
893.207	9561
893.33	9538
893.452	9599
893.575	9538
893.697	9466
893.819	9656
893.941	9679
894.064	9644
894.186	9462
894.308	9332
894.43	9538
894.552	9599
894.674	9485
894.796	9408
894.918	9454
895.04	9386
895.161	9374
895.283	9389
895.405	9287
895.526	9214
895.648	9218
895.769	9260
895.891	9230
896.012	9298
896.134	9233
896.255	9241
896.376	9142
896.498	9142
896.619	9199
896.74	9081
896.861	9123
896.982	9294
897.103	9344
897.224	9165
897.345	9051
897.466	8990
897.587	8982
897.708	9066
897.828	8990
897.949	9017
898.07	8849
898.19	8948
898.311	9020
898.431	8952
898.552	8986
898.672	9001
898.792	8971
898.913	8941
899.033	8891
899.153	8708
899.273	8674
899.393	8705
899.513	8777
899.633	8750
899.753	8746
899.873	8750
899.993	8777
900.113	8716
900.232	8670
900.352	8686
900.472	8686
900.591	8587
900.711	8556
900.83	8571
900.95	8674
901.069	8663
901.189	8552
901.308	8446
901.427	8408
901.546	8434
901.665	8446
901.784	8518
901.904	8434
902.023	8347
902.141	8221
902.26	8256
902.379	8324
902.498	8275
902.617	8237
902.735	8336
902.854	8244
902.973	8240
903.091	8103
903.21	8153
903.328	8199
903.446	8119
903.565	8103
903.683	8100
903.801	8035
903.919	8119
904.038	8111
904.156	8069
904.274	8084
904.392	8043
904.51	8050
904.627	8077
904.745	8096
904.863	8077
904.981	7974
905.098	7852
905.216	7879
905.334	7959
905.451	7917
905.569	7871
905.686	7921
905.803	7921
905.921	7837
906.038	7852
906.155	7776
906.272	7727
906.389	7666
906.506	7601
906.623	7571
906.74	7605
906.857	7514
906.974	7616
907.091	7734
907.208	7765
907.324	7655
907.441	7533
907.557	7460
907.674	7540
907.79	7457
907.907	7365
908.023	7472
908.139	7529
908.256	7381
908.372	7362
908.488	7392
908.604	7255
908.72	7225
908.836	7297
908.952	7289
909.068	7255
909.184	7346
909.3	7297
909.415	7331
909.531	7305
909.647	7126
909.762	7084
909.878	7057
909.993	7103
910.108	7095
910.224	7038
910.339	7110
910.454	7038
910.57	7008
910.685	6962
910.8	7156
910.915	7057
911.03	7072
911.145	6901
911.259	6909
911.374	6924
911.489	6859
911.604	6867
911.718	6734
911.833	6700
911.947	6635
912.062	6601
912.176	6700
912.291	6719
912.405	6696
912.519	6791
912.633	6829
912.748	6795
912.862	6726
912.976	6631
913.09	6574
913.204	6620
913.318	6623
913.431	6700
913.545	6722
913.659	6719
913.772	6665
913.886	6536
914	6566
914.113	6623
914.226	6646
914.34	6601
914.453	6483
914.566	6623
914.68	6551
914.793	6536
914.906	6464
915.019	6410
915.132	6395
915.245	6422
915.358	6471
915.47	6437
915.583	6452
915.696	6479
915.809	6589
915.921	6582
916.034	6422
916.146	6426
916.259	6433
916.371	6494
916.483	6521
916.595	6380
916.708	6426
916.82	6429
916.932	6399
917.044	6422
917.156	6452
917.268	6308
917.38	6357
917.491	6372
917.603	6327
917.715	6433
917.826	6494
917.938	6334
918.049	6308
918.161	6376
918.272	6388
918.384	6429
918.495	6361
918.606	6285
918.717	6247
918.828	6315
918.939	6266
919.05	6171
919.161	6228
919.272	6163
919.383	6155
919.494	6304
919.604	6418
919.715	6266
919.826	6190
919.936	6334
920.047	6311
920.157	6296
920.267	6445
920.378	6380
920.488	6266
920.598	6486
920.708	6566
920.818	6445
920.928	6521
921.038	6604
921.148	6585
921.258	6376
921.368	6350
921.477	6232
921.587	6239
921.697	6064
921.806	6209
921.916	6064
922.025	5939
922.134	5897
922.244	5889
922.353	5950
922.462	5840
922.571	5809
922.68	5729
922.789	5646
922.898	5653
923.007	5668
923.116	5718
923.224	5695
923.333	5703
923.442	5623
923.55	5577
923.659	5596
923.767	5596
923.876	5558
923.984	5566
924.092	5482
924.201	5554
924.309	5558
924.417	5573
924.525	5474
924.633	5493
924.741	6300
924.849	5372
924.956	5448
925.064	5364
925.172	5360
925.279	5360
925.387	5360
925.494	5357
925.602	5395
925.709	5429
925.816	5296
925.924	5311
926.031	5391
926.138	5341
926.245	5311
926.352	5261
926.459	5284
926.566	5395
926.673	5208
926.779	5155
926.886	5109
926.993	5025
927.099	5018
927.206	4957
927.312	4987
927.419	5014
927.525	4991
927.631	5052
927.737	4908
927.843	4831
927.95	4793
928.056	4824
928.162	4824
928.267	4843
928.373	5334
928.479	4896
928.585	4725
928.69	4752
928.796	4820
928.901	4698
929.007	4618
929.112	4683
929.218	4664
929.323	4603
929.428	4573
929.533	4660
929.638	4558
929.743	4558
929.848	4580
929.953	4535
930.058	4424
930.163	4367
930.267	4348
930.372	4440
930.477	4325
930.581	4459
930.685	4371
930.79	4280
930.894	4306
930.998	4242
931.103	4417
931.207	4120
931.311	4093
931.415	4048
931.519	3972
931.623	3972
