Data from glass_V78500241_467.txt Node
Date: Wed Sep 01 19:17:44 CST 2021
User: usil
Spectrometer: V785-0024
Trigger mode: 0
Integration Time (sec): 4.000000E-1
Scans to average: 1
Nonlinearity correction enabled: false
Boxcar width: 0
Storing dark spectrum: false
XAxis mode: Wavelengths
Number of Pixels in Spectrum: 1024
>>>>>Begin Spectral Data<<<<<
801.071	3774
801.214	3770
801.356	3724
801.499	3732
801.641	3740
801.783	3785
801.926	3865
802.068	3800
802.211	3884
802.353	3934
802.496	3865
802.638	3922
802.78	3899
802.923	3953
803.065	3911
803.208	3823
803.35	3880
803.492	3918
803.635	3918
803.777	3854
803.919	3903
804.061	4154
804.204	3983
804.346	3960
804.488	3945
804.63	4059
804.773	3991
804.915	4032
805.057	4181
805.199	4044
805.341	4071
805.483	4124
805.626	4139
805.768	4143
805.91	4207
806.052	4249
806.194	4207
806.336	4360
806.478	4204
806.62	4188
806.762	4188
806.904	4310
807.046	4348
807.188	4215
807.33	4169
807.472	4223
807.614	4207
807.756	4291
807.898	4196
808.04	4234
808.182	4306
808.324	4371
808.465	4390
808.607	4459
808.749	4497
808.891	4481
809.033	4523
809.174	4451
809.316	4272
809.458	4265
809.6	4173
809.741	4143
809.883	4093
810.025	4211
810.166	4192
810.308	4223
810.45	4299
810.591	4287
810.733	4325
810.875	4508
811.016	4778
811.158	5109
811.299	5303
811.441	5246
811.582	5064
811.724	4721
811.865	4493
812.007	4462
812.148	4466
812.29	4363
812.431	4379
812.573	4432
812.714	4383
812.855	4470
812.997	4409
813.138	4489
813.279	4417
813.421	4409
813.562	4394
813.703	4325
813.845	4344
813.986	4295
814.127	4215
814.268	4265
814.41	4261
814.551	4272
814.692	4348
814.833	4310
814.974	4325
815.115	4314
815.256	4249
815.397	4265
815.539	4257
815.68	4223
815.821	4188
815.962	4299
816.103	4303
816.244	4272
816.385	4230
816.526	4284
816.666	4234
816.807	4124
816.948	4230
817.089	4173
817.23	4150
817.371	4063
817.512	4032
817.653	4063
817.793	4036
817.934	4021
818.075	4101
818.216	4112
818.356	4105
818.497	4032
818.638	3937
818.778	3884
818.919	3876
819.06	3892
819.2	3884
819.341	3865
819.481	3880
819.622	3922
819.762	4025
819.903	3956
820.043	3880
820.184	3869
820.324	3850
820.465	3888
820.605	3903
820.746	3857
820.886	3831
821.026	3979
821.167	3930
821.307	3994
821.447	4006
821.588	4013
821.728	3960
821.868	3911
822.008	3861
822.149	3941
822.289	3941
822.429	3774
822.569	3766
822.709	3770
822.849	3717
822.99	3759
823.13	3743
823.27	3808
823.41	3740
823.55	3743
823.69	3713
823.83	3766
823.97	3690
824.11	3618
824.25	3580
824.389	3606
824.529	3705
824.669	3618
824.809	3732
824.949	3728
825.089	3770
825.228	3713
825.368	3557
825.508	3542
825.648	3591
825.787	3606
825.927	3622
826.067	3633
826.206	3629
826.346	3774
826.485	3857
826.625	3873
826.765	3968
826.904	3869
827.044	3652
827.183	3542
827.323	3466
827.462	3496
827.601	3435
827.741	3466
827.88	3450
828.02	3382
828.159	3466
828.298	3507
828.437	3511
828.577	3488
828.716	3648
828.855	3519
828.994	3389
829.134	3382
829.273	3397
829.412	3389
829.551	3370
829.69	3382
829.829	3443
829.968	3542
830.107	3443
830.246	3485
830.385	3386
830.524	3367
830.663	3306
830.802	3275
830.941	3176
831.08	3249
831.219	3279
831.357	3283
831.496	3424
831.635	3211
831.774	3214
831.913	3203
832.051	3157
832.19	3138
832.329	3226
832.467	3112
832.606	3097
832.744	3169
832.883	3214
833.022	3233
833.16	3279
833.299	3298
833.437	3332
833.576	3359
833.714	3393
833.852	3443
833.991	3462
834.129	3481
834.267	3462
834.406	3439
834.544	3469
834.682	3435
834.821	3473
834.959	3576
835.097	3462
835.235	3530
835.373	3485
835.511	3519
835.65	3466
835.788	3549
835.926	3431
836.064	3401
836.202	3412
836.34	3591
836.478	3618
836.615	3568
836.753	3599
836.891	3644
837.029	3591
837.167	3595
837.305	3534
837.443	3580
837.58	3507
837.718	3629
837.856	3557
837.993	3545
838.131	3633
838.269	3614
838.406	3603
838.544	3595
838.681	3485
838.819	3488
838.956	3424
839.094	3405
839.231	3405
839.369	3538
839.506	3724
839.643	3656
839.781	3515
839.918	3477
840.055	3553
840.193	3534
840.33	3553
840.467	3595
840.604	3603
840.742	3838
840.879	3545
841.016	3599
841.153	3610
841.29	3755
841.427	3705
841.564	3736
841.701	3747
841.838	3682
841.975	3713
842.112	3709
842.249	3667
842.385	3637
842.522	3850
842.659	3686
842.796	3656
842.933	3751
843.069	3728
843.206	3667
843.343	3831
843.479	3762
843.616	3778
843.752	3698
843.889	3701
844.025	3846
844.162	3736
844.298	3888
844.435	3819
844.571	3838
844.708	3949
844.844	4013
844.98	4059
845.117	3994
845.253	3949
845.389	3918
845.525	4006
845.661	3994
845.798	3949
845.934	4044
846.07	3953
846.206	4040
846.342	4158
846.478	4071
846.614	3979
846.75	3941
846.886	3922
847.022	4036
847.158	4025
847.294	4017
847.429	4044
847.565	3983
847.701	4234
847.837	3930
847.972	3854
848.108	4002
848.244	3991
848.379	3865
848.515	3850
848.65	3808
848.786	3835
848.921	3918
849.057	3960
849.192	3915
849.328	3915
849.463	3960
849.598	3899
849.734	3892
849.869	3873
850.004	3793
850.14	3850
850.275	3781
850.41	3766
850.545	3751
850.68	3766
850.815	3835
850.95	3850
851.085	3956
851.22	3873
851.355	3842
851.49	3816
851.625	3857
851.76	3812
851.895	3770
852.03	3778
852.165	3819
852.299	3854
852.434	3880
852.569	3869
852.703	3850
852.838	3968
852.973	4032
853.107	4013
853.242	3930
853.376	3876
853.511	3812
853.645	3835
853.78	4021
853.914	3903
854.048	3876
854.183	3945
854.317	3945
854.451	4090
854.585	3979
854.72	3926
854.854	4044
854.988	3968
855.122	3983
855.256	3975
855.39	4025
855.524	4139
855.658	4128
855.792	4116
855.926	4200
856.06	4215
856.194	4215
856.327	4158
856.461	4139
856.595	4162
856.729	4154
856.862	4322
856.996	4291
857.13	4287
857.263	4333
857.397	4348
857.53	4272
857.664	4337
857.797	4390
857.931	4424
858.064	4398
858.197	4481
858.331	4409
858.464	4367
858.597	4314
858.731	4451
858.864	4474
858.997	4455
859.13	4569
859.263	4516
859.396	4599
859.529	4569
859.662	4538
859.795	4554
859.928	4588
860.061	4729
860.194	4763
860.327	4679
860.46	4668
860.592	4759
860.725	4786
860.858	4771
860.99	4687
861.123	4717
861.256	4706
861.388	4759
861.521	5493
861.653	4717
861.786	4694
861.918	4740
862.05	4812
862.183	4843
862.315	4881
862.447	4938
862.58	4923
862.712	4866
862.844	4759
862.976	4938
863.108	4881
863.24	5231
863.372	4870
863.504	4930
863.636	4892
863.768	5018
863.9	4946
864.032	4972
864.164	4991
864.296	5006
864.428	5117
864.559	5113
864.691	5128
864.823	5128
864.954	5105
865.086	5147
865.217	5121
865.349	5151
865.48	5155
865.612	5178
865.743	5315
865.875	5212
866.006	5181
866.137	5231
866.269	5299
866.4	5277
866.531	5250
866.662	5178
866.793	5284
866.924	5311
867.055	5322
867.186	5322
867.317	5318
867.448	5364
867.579	5410
867.71	5372
867.841	5417
867.972	5459
868.103	5497
868.233	5551
868.364	5467
868.495	5585
868.625	5661
868.756	5786
868.886	5718
869.017	5760
869.147	5836
869.278	5874
869.408	5836
869.539	5863
869.669	5946
869.799	5965
869.929	6030
870.06	6038
870.19	6224
870.32	6262
870.45	6213
870.58	6429
870.71	6513
870.84	6479
870.97	6452
871.1	6410
871.23	6662
871.36	6662
871.489	6665
871.619	6722
871.749	6821
871.879	6852
872.008	7046
872.138	6973
872.267	6981
872.397	7019
872.526	7069
872.656	7122
872.785	7168
872.915	7441
873.044	7548
873.173	7613
873.303	7647
873.432	7803
873.561	7909
873.69	7875
873.819	8065
873.948	8187
874.077	8229
874.206	8317
874.335	8476
874.464	8697
874.593	8872
874.722	8998
874.851	9138
874.979	9218
875.108	9393
875.237	9393
875.365	9469
875.494	9656
875.623	9850
875.751	9865
875.88	10059
876.008	10207
876.136	10363
876.265	10508
876.393	10702
876.521	10725
876.65	10778
876.778	10873
876.906	10854
877.034	11045
877.162	11140
877.29	11193
877.418	11353
877.546	11429
877.674	11440
877.802	11520
877.93	11474
878.058	11581
878.185	11611
878.313	11699
878.441	11741
878.568	11592
878.696	11828
878.824	11798
878.951	11904
879.079	11961
879.206	12121
879.333	12117
879.461	11973
879.588	12125
879.715	12053
879.842	12273
879.97	12057
880.097	11958
880.224	11908
880.351	11908
880.478	11843
880.605	11859
880.732	11786
880.859	11996
880.986	11805
881.112	11859
881.239	11802
881.366	11691
881.493	11589
881.619	11585
881.746	11627
881.872	11592
881.999	11551
882.125	11558
882.252	11463
882.378	11532
882.505	11570
882.631	11383
882.757	11288
882.883	11364
883.01	11170
883.136	11189
883.262	11064
883.388	11155
883.514	11136
883.64	11212
883.766	11098
883.892	11029
884.018	10968
884.143	11174
884.269	11037
884.395	10843
884.52	10767
884.646	10778
884.772	10759
884.897	10710
885.023	10729
885.148	10797
885.274	10812
885.399	10721
885.524	10599
885.65	10626
885.775	10554
885.9	10592
886.025	10592
886.15	10634
886.275	10462
886.4	10318
886.525	10428
886.65	10318
886.775	10421
886.9	10538
887.025	10519
887.149	10424
887.274	10234
887.399	10192
887.523	10166
887.648	10112
887.773	10131
887.897	10303
888.021	10227
888.146	10097
888.27	10234
888.395	10268
888.519	10242
888.643	10196
888.767	10200
888.891	10071
889.015	10013
889.139	10067
889.263	9972
889.387	10051
889.511	10090
889.635	10082
889.759	9972
889.883	10093
890.006	9987
890.13	10185
890.254	9934
890.377	9949
890.501	9861
890.624	9884
890.748	9781
890.871	9823
890.995	9720
891.118	9778
891.241	9785
891.364	9660
891.488	9819
891.611	9743
891.734	9747
891.857	9747
891.98	9770
892.103	9774
892.226	9701
892.349	9720
892.471	9584
892.594	9629
892.717	9675
892.839	9690
892.962	9576
893.085	9671
893.207	9568
893.33	9477
893.452	9530
893.575	9595
893.697	9557
893.819	9614
893.941	9603
894.064	9610
894.186	9481
894.308	9378
894.43	9511
894.552	9515
894.674	9519
894.796	9363
894.918	9348
895.04	9370
895.161	9283
895.283	9431
895.405	9253
895.526	9325
895.648	9188
895.769	9256
895.891	9283
896.012	9340
896.134	9222
896.255	9161
896.376	9119
896.498	9138
896.619	9230
896.74	9089
896.861	9112
896.982	9214
897.103	9294
897.224	9237
897.345	9112
897.466	9116
897.587	9024
897.708	9013
897.828	9024
897.949	8933
898.07	8902
898.19	8971
898.311	9032
898.431	8971
898.552	8910
898.672	8921
898.792	8986
898.913	8937
899.033	8830
899.153	8716
899.273	8651
899.393	8716
899.513	8773
899.633	8731
899.753	8678
899.873	8701
899.993	8743
900.113	8739
900.232	8686
900.352	8640
900.472	8579
900.591	8594
900.711	8625
900.83	8518
900.95	8705
901.069	8651
901.189	8598
901.308	8492
901.427	8355
901.546	8427
901.665	8457
901.784	8533
901.904	8427
902.023	8336
902.141	8282
902.26	8161
902.379	8271
902.498	8233
902.617	8309
902.735	8267
902.854	8298
902.973	8252
903.091	8103
903.21	8134
903.328	8126
903.446	8145
903.565	8065
903.683	8096
903.801	8107
903.919	8043
904.038	8153
904.156	7947
904.274	8069
904.392	8111
904.51	8073
904.627	8081
904.745	8138
904.863	8073
904.981	7921
905.098	7936
905.216	7795
905.334	7932
905.451	7879
905.569	7818
905.686	7909
905.803	7871
905.921	7822
906.038	7875
906.155	7799
906.272	7700
906.389	7734
906.506	7693
906.623	7655
906.74	7658
906.857	7567
906.974	7582
907.091	7708
907.208	7693
907.324	7662
907.441	7552
907.557	7434
907.674	7476
907.79	7438
907.907	7415
908.023	7540
908.139	7468
908.256	7362
908.372	7384
908.488	7346
908.604	7274
908.72	7274
908.836	7297
908.952	7285
909.068	7285
909.184	7358
909.3	7289
909.415	7358
909.531	7217
909.647	7114
909.762	7168
909.878	7114
909.993	7156
910.108	7110
910.224	7149
910.339	7114
910.454	7069
910.57	7008
910.685	6939
910.8	7187
910.915	7103
911.03	7038
911.145	6920
911.259	6779
911.374	6920
911.489	6878
911.604	6806
911.718	6696
911.833	6726
911.947	6654
912.062	6646
912.176	6703
912.291	6669
912.405	6764
912.519	6825
912.633	6829
912.748	6677
912.862	6730
912.976	6620
913.09	6551
913.204	6673
913.318	6635
913.431	6711
913.545	6719
913.659	6749
913.772	6665
913.886	6555
914	6585
914.113	6627
914.226	6642
914.34	6604
914.453	6452
914.566	6635
914.68	6502
914.793	6536
914.906	6414
915.019	6414
915.132	6414
915.245	6350
915.358	6448
915.47	6433
915.583	6471
915.696	6448
915.809	6509
915.921	6532
916.034	6433
916.146	6380
916.259	6380
916.371	6486
916.483	6483
916.595	6441
916.708	6407
916.82	6445
916.932	6395
917.044	6384
917.156	6448
917.268	6315
917.38	6376
917.491	6289
917.603	6403
917.715	6380
917.826	6464
917.938	6334
918.049	6281
918.161	6296
918.272	6437
918.384	6422
918.495	6391
918.606	6216
918.717	6232
918.828	6266
918.939	6266
919.05	6239
919.161	6338
919.272	6133
919.383	6201
919.494	6258
919.604	6403
919.715	6300
919.826	6266
919.936	6251
920.047	6369
920.157	6342
920.267	6456
920.378	6338
920.488	6239
920.598	6479
920.708	6563
920.818	6467
920.928	6467
921.038	6639
921.148	6593
921.258	6357
921.368	6262
921.477	6213
921.587	6197
921.697	6095
921.806	6182
921.916	6083
922.025	5984
922.134	5901
922.244	5927
922.353	5977
922.462	5882
922.571	5748
922.68	5684
922.789	5676
922.898	5676
923.007	5668
923.116	5710
923.224	5699
923.333	5676
923.442	5634
923.55	5585
923.659	5573
923.767	5634
923.876	5554
923.984	5630
924.092	5551
924.201	5512
924.309	5592
924.417	5600
924.525	5448
924.633	5528
924.741	6281
924.849	5372
924.956	5478
925.064	5372
925.172	5299
925.279	5334
925.387	5349
925.494	5315
925.602	5402
925.709	5433
925.816	5326
925.924	5318
926.031	5368
926.138	5322
926.245	5326
926.352	5269
926.459	5311
926.566	5326
926.673	5288
926.779	5155
926.886	5155
926.993	4984
927.099	5006
927.206	4999
927.312	4980
927.419	5022
927.525	5037
927.631	4968
927.737	4877
927.843	4892
927.95	4759
928.056	4828
928.162	4870
928.267	4892
928.373	5280
928.479	4831
928.585	4668
928.69	4835
928.796	4805
928.901	4736
929.007	4615
929.112	4687
929.218	4656
929.323	4649
929.428	4592
929.533	4698
929.638	4535
929.743	4561
929.848	4596
929.953	4519
930.058	4474
930.163	4383
930.267	4371
930.372	4459
930.477	4303
930.581	4474
930.685	4390
930.79	4219
930.894	4299
930.998	4284
931.103	4417
931.207	4181
931.311	4101
931.415	4029
931.519	3930
931.623	3960
