Data from glass_V78500241_724.txt Node
Date: Wed Sep 01 19:19:31 CST 2021
User: usil
Spectrometer: V785-0024
Trigger mode: 0
Integration Time (sec): 4.000000E-1
Scans to average: 1
Nonlinearity correction enabled: false
Boxcar width: 0
Storing dark spectrum: false
XAxis mode: Wavelengths
Number of Pixels in Spectrum: 1024
>>>>>Begin Spectral Data<<<<<
801.071	3774
801.214	3762
801.356	3755
801.499	3743
801.641	3747
801.783	3793
801.926	3892
802.068	3800
802.211	3896
802.353	3899
802.496	3854
802.638	3869
802.78	3930
802.923	3937
803.065	3918
803.208	3827
803.35	3880
803.492	3888
803.635	3941
803.777	3785
803.919	3903
804.061	4131
804.204	3975
804.346	3972
804.488	3949
804.63	4048
804.773	3956
804.915	4010
805.057	4154
805.199	4074
805.341	4131
805.483	4154
805.626	4124
805.768	4135
805.91	4192
806.052	4215
806.194	4173
806.336	4341
806.478	4261
806.62	4150
806.762	4143
806.904	4242
807.046	4291
807.188	4246
807.33	4204
807.472	4249
807.614	4192
807.756	4196
807.898	4268
808.04	4204
808.182	4325
808.324	4322
808.465	4390
808.607	4489
808.749	4493
808.891	4485
809.033	4531
809.174	4371
809.316	4272
809.458	4246
809.6	4177
809.741	4154
809.883	4131
810.025	4215
810.166	4249
810.308	4249
810.45	4234
810.591	4265
810.733	4265
810.875	4538
811.016	4870
811.158	5113
811.299	5280
811.441	5311
811.582	5121
811.724	4733
811.865	4455
812.007	4459
812.148	4447
812.29	4421
812.431	4417
812.573	4413
812.714	4417
812.855	4440
812.997	4436
813.138	4466
813.279	4405
813.421	4390
813.562	4341
813.703	4348
813.845	4333
813.986	4253
814.127	4215
814.268	4287
814.41	4265
814.551	4303
814.692	4352
814.833	4299
814.974	4303
815.115	4367
815.256	4272
815.397	4234
815.539	4299
815.68	4207
815.821	4223
815.962	4344
816.103	4352
816.244	4261
816.385	4227
816.526	4325
816.666	4211
816.807	4135
816.948	4219
817.089	4207
817.23	4105
817.371	4051
817.512	4063
817.653	4097
817.793	4032
817.934	4029
818.075	4051
818.216	4105
818.356	4051
818.497	3972
818.638	3941
818.778	3911
818.919	3876
819.06	3896
819.2	3896
819.341	3884
819.481	3865
819.622	3956
819.762	4055
819.903	3953
820.043	3884
820.184	3880
820.324	3835
820.465	3907
820.605	3873
820.746	3915
820.886	3842
821.026	3926
821.167	3934
821.307	3983
821.447	3987
821.588	3953
821.728	4021
821.868	3975
822.008	3888
822.149	3949
822.289	3930
822.429	3759
822.569	3781
822.709	3816
822.849	3717
822.99	3762
823.13	3759
823.27	3785
823.41	3694
823.55	3736
823.69	3743
823.83	3755
823.97	3743
824.11	3587
824.25	3595
824.389	3629
824.529	3663
824.669	3667
824.809	3682
824.949	3781
825.089	3720
825.228	3743
825.368	3553
825.508	3530
825.648	3595
825.787	3587
825.927	3629
826.067	3648
826.206	3713
826.346	3793
826.485	3880
826.625	3911
826.765	3941
826.904	3823
827.044	3641
827.183	3511
827.323	3450
827.462	3538
827.601	3447
827.741	3447
827.88	3447
828.02	3389
828.159	3485
828.298	3477
828.437	3511
828.577	3496
828.716	3591
828.855	3507
828.994	3386
829.134	3344
829.273	3416
829.412	3386
829.551	3336
829.69	3355
829.829	3439
829.968	3572
830.107	3473
830.246	3431
830.385	3370
830.524	3348
830.663	3355
830.802	3237
830.941	3203
831.08	3218
831.219	3287
831.357	3279
831.496	3412
831.635	3253
831.774	3222
831.913	3180
832.051	3116
832.19	3161
832.329	3192
832.467	3142
832.606	3161
832.744	3176
832.883	3161
833.022	3214
833.16	3298
833.299	3253
833.437	3329
833.576	3428
833.714	3401
833.852	3450
833.991	3488
834.129	3458
834.267	3401
834.406	3405
834.544	3405
834.682	3435
834.821	3439
834.959	3618
835.097	3428
835.235	3534
835.373	3504
835.511	3507
835.65	3447
835.788	3477
835.926	3405
836.064	3397
836.202	3397
836.34	3595
836.478	3572
836.615	3542
836.753	3584
836.891	3656
837.029	3625
837.167	3641
837.305	3591
837.443	3545
837.58	3534
837.718	3599
837.856	3519
837.993	3534
838.131	3568
838.269	3580
838.406	3591
838.544	3572
838.681	3515
838.819	3397
838.956	3428
839.094	3412
839.231	3454
839.369	3519
839.506	3740
839.643	3629
839.781	3538
839.918	3481
840.055	3534
840.193	3549
840.33	3549
840.467	3591
840.604	3625
840.742	3812
840.879	3576
841.016	3568
841.153	3591
841.29	3762
841.427	3736
841.564	3740
841.701	3766
841.838	3690
841.975	3698
842.112	3747
842.249	3656
842.385	3568
842.522	3819
842.659	3732
842.796	3679
842.933	3747
843.069	3728
843.206	3701
843.343	3854
843.479	3800
843.616	3869
843.752	3705
843.889	3698
844.025	3903
844.162	3724
844.298	3846
844.435	3789
844.571	3766
844.708	3915
844.844	4002
844.98	4048
845.117	3987
845.253	3937
845.389	3888
845.525	3983
845.661	3994
845.798	3983
845.934	4021
846.07	3964
846.206	4059
846.342	4150
846.478	4055
846.614	3987
846.75	3903
846.886	3918
847.022	4055
847.158	4013
847.294	4025
847.429	4017
847.565	3987
847.701	4238
847.837	3888
847.972	3884
848.108	4029
848.244	4002
848.379	3876
848.515	3812
848.65	3831
848.786	3838
848.921	3907
849.057	3934
849.192	3892
849.328	3922
849.463	3937
849.598	3922
849.734	3846
849.869	3838
850.004	3781
850.14	3827
850.275	3827
850.41	3759
850.545	3751
850.68	3766
850.815	3804
850.95	3797
851.085	3972
851.22	3854
851.355	3835
851.49	3823
851.625	3812
851.76	3770
851.895	3759
852.03	3732
852.165	3808
852.299	3865
852.434	3903
852.569	3842
852.703	3888
852.838	3937
852.973	4025
853.107	4044
853.242	3873
853.376	3854
853.511	3812
853.645	3804
853.78	3994
853.914	3888
854.048	3911
854.183	3915
854.317	3926
854.451	4078
854.585	3960
854.72	3964
854.854	4074
854.988	3945
855.122	3979
855.256	3937
855.39	4029
855.524	4147
855.658	4131
855.792	4109
855.926	4139
856.06	4173
856.194	4173
856.327	4135
856.461	4120
856.595	4143
856.729	4158
856.862	4249
856.996	4200
857.13	4303
857.263	4352
857.397	4383
857.53	4284
857.664	4383
857.797	4421
857.931	4436
858.064	4341
858.197	4462
858.331	4428
858.464	4390
858.597	4314
858.731	4413
858.864	4504
858.997	4497
859.13	4531
859.263	4546
859.396	4569
859.529	4584
859.662	4542
859.795	4523
859.928	4626
860.061	4736
860.194	4729
860.327	4626
860.46	4679
860.592	4748
860.725	4812
860.858	4786
860.99	4717
861.123	4733
861.256	4683
861.388	4744
861.521	5414
861.653	4729
861.786	4702
861.918	4782
862.05	4835
862.183	4938
862.315	4946
862.447	4915
862.58	4942
862.712	4839
862.844	4752
862.976	4839
863.108	4881
863.24	5280
863.372	4824
863.504	4892
863.636	4911
863.768	5010
863.9	5033
864.032	4976
864.164	4946
864.296	5060
864.428	5128
864.559	5117
864.691	5079
864.823	5155
864.954	5128
865.086	5185
865.217	5098
865.349	5124
865.48	5170
865.612	5166
865.743	5326
865.875	5235
866.006	5204
866.137	5254
866.269	5231
866.4	5284
866.531	5220
866.662	5239
866.793	5288
866.924	5223
867.055	5383
867.186	5337
867.317	5326
867.448	5284
867.579	5391
867.71	5410
867.841	5387
867.972	5471
868.103	5471
868.233	5482
868.364	5524
868.495	5611
868.625	5729
868.756	5779
868.886	5638
869.017	5684
869.147	5882
869.278	5863
869.408	5828
869.539	5805
869.669	5912
869.799	5908
869.929	6003
870.06	6057
870.19	6201
870.32	6175
870.45	6262
870.58	6350
870.71	6418
870.84	6464
870.97	6422
871.1	6502
871.23	6642
871.36	6745
871.489	6635
871.619	6715
871.749	6814
871.879	6905
872.008	7023
872.138	7019
872.267	7023
872.397	6993
872.526	7076
872.656	7065
872.785	7194
872.915	7403
873.044	7506
873.173	7556
873.303	7712
873.432	7753
873.561	7887
873.69	7879
873.819	8039
873.948	8191
874.077	8279
874.206	8370
874.335	8461
874.464	8682
874.593	8899
874.722	9005
874.851	9176
874.979	9287
875.108	9382
875.237	9439
875.365	9488
875.494	9656
875.623	9819
875.751	9804
875.88	10010
876.008	10185
876.136	10318
876.265	10474
876.393	10717
876.521	10702
876.65	10847
876.778	10881
876.906	10919
877.034	11006
877.162	11128
877.29	11151
877.418	11292
877.546	11334
877.674	11440
877.802	11524
877.93	11543
878.058	11638
878.185	11566
878.313	11570
878.441	11760
878.568	11684
878.696	11764
878.824	11813
878.951	12026
879.079	12045
879.206	12133
879.333	12064
879.461	11973
879.588	12091
879.715	12102
879.842	12209
879.97	12110
880.097	11912
880.224	11851
880.351	11824
880.478	11946
880.605	11786
880.732	11874
880.859	11980
880.986	11779
881.112	11794
881.239	11752
881.366	11707
881.493	11592
881.619	11570
881.746	11581
881.872	11558
881.999	11543
882.125	11467
882.252	11554
882.378	11532
882.505	11680
882.631	11410
882.757	11296
882.883	11379
883.01	11280
883.136	11220
883.262	11185
883.388	11079
883.514	11265
883.64	11235
883.766	11098
883.892	11029
884.018	11006
884.143	11071
884.269	11102
884.395	10801
884.52	10824
884.646	10847
884.772	10725
884.897	10679
885.023	10706
885.148	10759
885.274	10843
885.399	10672
885.524	10668
885.65	10645
885.775	10558
885.9	10516
886.025	10634
886.15	10630
886.275	10440
886.4	10432
886.525	10440
886.65	10413
886.775	10329
886.9	10455
887.025	10607
887.149	10466
887.274	10265
887.399	10238
887.523	10150
887.648	10207
887.773	10143
887.897	10188
888.021	10303
888.146	10162
888.27	10211
888.395	10242
888.519	10166
888.643	10185
888.767	10253
888.891	10128
889.015	10082
889.139	10051
889.263	10017
889.387	10093
889.511	10074
889.635	10101
889.759	9888
889.883	9987
890.006	10013
890.13	10105
890.254	9949
890.377	9926
890.501	9835
890.624	9895
890.748	9903
890.871	9785
890.995	9762
891.118	9720
891.241	9838
891.364	9759
891.488	9884
891.611	9686
891.734	9785
891.857	9762
891.98	9713
892.103	9804
892.226	9762
892.349	9671
892.471	9553
892.594	9610
892.717	9686
892.839	9580
892.962	9587
893.085	9610
893.207	9557
893.33	9458
893.452	9572
893.575	9572
893.697	9549
893.819	9564
893.941	9625
894.064	9675
894.186	9405
894.308	9416
894.43	9526
894.552	9580
894.674	9519
894.796	9431
894.918	9401
895.04	9325
895.161	9401
895.283	9359
895.405	9253
895.526	9165
895.648	9298
895.769	9279
895.891	9298
896.012	9298
896.134	9173
896.255	9097
896.376	9097
896.498	9100
896.619	9222
896.74	9093
896.861	9036
896.982	9165
897.103	9306
897.224	9146
897.345	9112
897.466	8979
897.587	9032
897.708	9112
897.828	9100
897.949	8929
898.07	8861
898.19	8990
898.311	8967
898.431	8883
898.552	8921
898.672	8975
898.792	8956
898.913	8918
899.033	8807
899.153	8769
899.273	8697
899.393	8716
899.513	8800
899.633	8743
899.753	8762
899.873	8739
899.993	8743
900.113	8701
900.232	8769
900.352	8651
900.472	8610
900.591	8545
900.711	8636
900.83	8545
900.95	8659
901.069	8720
901.189	8625
901.308	8400
901.427	8431
901.546	8427
901.665	8461
901.784	8492
901.904	8374
902.023	8374
902.141	8229
902.26	8210
902.379	8305
902.498	8195
902.617	8229
902.735	8320
902.854	8320
902.973	8271
903.091	8103
903.21	8214
903.328	8130
903.446	8134
903.565	8065
903.683	8111
903.801	8084
903.919	8103
904.038	8161
904.156	8054
904.274	8077
904.392	8012
904.51	8115
904.627	8062
904.745	8027
904.863	8119
904.981	7898
905.098	7868
905.216	7917
905.334	7864
905.451	7887
905.569	7913
905.686	7970
905.803	7944
905.921	7765
906.038	7860
906.155	7845
906.272	7746
906.389	7772
906.506	7620
906.623	7651
906.74	7628
906.857	7514
906.974	7578
907.091	7715
907.208	7689
907.324	7590
907.441	7613
907.557	7460
907.674	7453
907.79	7377
907.907	7392
908.023	7422
908.139	7411
908.256	7354
908.372	7320
908.488	7362
908.604	7247
908.72	7202
908.836	7301
908.952	7266
909.068	7266
909.184	7278
909.3	7270
909.415	7293
909.531	7213
909.647	7061
909.762	7122
909.878	7095
909.993	7194
910.108	7057
910.224	7110
910.339	7149
910.454	7069
910.57	7019
910.685	6996
910.8	7190
910.915	7152
911.03	7084
911.145	6848
911.259	6848
911.374	6844
911.489	6833
911.604	6863
911.718	6791
911.833	6738
911.947	6703
912.062	6635
912.176	6722
912.291	6703
912.405	6688
912.519	6848
912.633	6875
912.748	6730
912.862	6707
912.976	6612
913.09	6521
913.204	6631
913.318	6597
913.431	6703
913.545	6730
913.659	6696
913.772	6658
913.886	6620
914	6563
914.113	6650
914.226	6669
914.34	6654
914.453	6445
914.566	6555
914.68	6528
914.793	6589
914.906	6460
915.019	6422
915.132	6410
915.245	6452
915.358	6452
915.47	6475
915.583	6483
915.696	6563
915.809	6509
915.921	6601
916.034	6414
916.146	6426
916.259	6422
916.371	6494
916.483	6429
916.595	6380
916.708	6494
916.82	6403
916.932	6456
917.044	6399
917.156	6403
917.268	6327
917.38	6338
917.491	6353
917.603	6281
917.715	6384
917.826	6445
917.938	6319
918.049	6262
918.161	6391
918.272	6437
918.384	6437
918.495	6315
918.606	6327
918.717	6232
918.828	6292
918.939	6323
919.05	6216
919.161	6311
919.272	6133
919.383	6163
919.494	6315
919.604	6467
919.715	6338
919.826	6201
919.936	6311
920.047	6391
920.157	6232
920.267	6422
920.378	6342
920.488	6319
920.598	6490
920.708	6589
920.818	6528
920.928	6464
921.038	6608
921.148	6604
921.258	6353
921.368	6243
921.477	6178
921.587	6140
921.697	6129
921.806	6190
921.916	6152
922.025	5935
922.134	5904
922.244	5863
922.353	5965
922.462	5870
922.571	5840
922.68	5722
922.789	5684
922.898	5714
923.007	5634
923.116	5676
923.224	5676
923.333	5661
923.442	5596
923.55	5570
923.659	5585
923.767	5661
923.876	5524
923.984	5566
924.092	5509
924.201	5573
924.309	5539
924.417	5539
924.525	5520
924.633	5512
924.741	6144
924.849	5414
924.956	5417
925.064	5315
925.172	5277
925.279	5341
925.387	5330
925.494	5341
925.602	5425
925.709	5444
925.816	5318
925.924	5273
926.031	5376
926.138	5280
926.245	5307
926.352	5239
926.459	5303
926.566	5391
926.673	5227
926.779	5151
926.886	5102
926.993	5045
927.099	5010
927.206	4980
927.312	4972
927.419	5033
927.525	5014
927.631	5056
927.737	4900
927.843	4850
927.95	4843
928.056	4873
928.162	4862
928.267	4854
928.373	5292
928.479	4835
928.585	4679
928.69	4790
928.796	4778
928.901	4694
929.007	4592
929.112	4710
929.218	4637
929.323	4645
929.428	4577
929.533	4668
929.638	4538
929.743	4569
929.848	4538
929.953	4523
930.058	4478
930.163	4379
930.267	4356
930.372	4470
930.477	4318
930.581	4443
930.685	4417
930.79	4295
930.894	4303
930.998	4276
931.103	4386
931.207	4154
931.311	4078
931.415	4025
931.519	3922
931.623	3994
