Data from glass_V78500241_2600.txt Node
Date: Wed Sep 01 19:32:31 CST 2021
User: usil
Spectrometer: V785-0024
Trigger mode: 0
Integration Time (sec): 4.000000E-1
Scans to average: 1
Nonlinearity correction enabled: false
Boxcar width: 0
Storing dark spectrum: false
XAxis mode: Wavelengths
Number of Pixels in Spectrum: 1024
>>>>>Begin Spectral Data<<<<<
801.071	3724
801.214	3747
801.356	3679
801.499	3759
801.641	3728
801.783	3785
801.926	3827
802.068	3819
802.211	3831
802.353	3896
802.496	3827
802.638	3865
802.78	3876
802.923	3926
803.065	3850
803.208	3800
803.35	3838
803.492	3884
803.635	3892
803.777	3751
803.919	3835
804.061	4150
804.204	3930
804.346	3922
804.488	3949
804.63	4044
804.773	3983
804.915	4013
805.057	4116
805.199	4055
805.341	4055
805.483	4162
805.626	4124
805.768	4090
805.91	4173
806.052	4204
806.194	4169
806.336	4379
806.478	4215
806.62	4169
806.762	4150
806.904	4242
807.046	4344
807.188	4192
807.33	4128
807.472	4268
807.614	4177
807.756	4215
807.898	4185
808.04	4227
808.182	4276
808.324	4306
808.465	4337
808.607	4459
808.749	4443
808.891	4459
809.033	4508
809.174	4398
809.316	4291
809.458	4268
809.6	4135
809.741	4166
809.883	4086
810.025	4192
810.166	4227
810.308	4246
810.45	4246
810.591	4249
810.733	4284
810.875	4550
811.016	4820
811.158	5109
811.299	5254
811.441	5258
811.582	5052
811.724	4694
811.865	4459
812.007	4493
812.148	4383
812.29	4386
812.431	4424
812.573	4390
812.714	4367
812.855	4394
812.997	4394
813.138	4409
813.279	4436
813.421	4386
813.562	4371
813.703	4325
813.845	4306
813.986	4230
814.127	4204
814.268	4242
814.41	4238
814.551	4249
814.692	4314
814.833	4227
814.974	4295
815.115	4352
815.256	4207
815.397	4211
815.539	4234
815.68	4204
815.821	4223
815.962	4322
816.103	4306
816.244	4242
816.385	4204
816.526	4204
816.666	4223
816.807	4051
816.948	4162
817.089	4169
817.23	4097
817.371	4032
817.512	4055
817.653	4078
817.793	4025
817.934	3975
818.075	4051
818.216	4040
818.356	4063
818.497	4021
818.638	3876
818.778	3884
818.919	3876
819.06	3835
819.2	3949
819.341	3846
819.481	3827
819.622	3899
819.762	4029
819.903	3918
820.043	3831
820.184	3808
820.324	3819
820.465	3873
820.605	3896
820.746	3869
820.886	3751
821.026	3896
821.167	3865
821.307	3945
821.447	3987
821.588	3930
821.728	3930
821.868	3953
822.008	3873
822.149	3907
822.289	3873
822.429	3812
822.569	3766
822.709	3781
822.849	3709
822.99	3736
823.13	3743
823.27	3728
823.41	3740
823.55	3762
823.69	3690
823.83	3759
823.97	3690
824.11	3603
824.25	3572
824.389	3633
824.529	3690
824.669	3606
824.809	3679
824.949	3720
825.089	3694
825.228	3690
825.368	3603
825.508	3564
825.648	3557
825.787	3618
825.927	3599
826.067	3599
826.206	3629
826.346	3804
826.485	3831
826.625	3888
826.765	3922
826.904	3800
827.044	3629
827.183	3542
827.323	3389
827.462	3485
827.601	3397
827.741	3420
827.88	3447
828.02	3370
828.159	3431
828.298	3412
828.437	3507
828.577	3477
828.716	3633
828.855	3473
828.994	3359
829.134	3393
829.273	3401
829.412	3359
829.551	3313
829.69	3386
829.829	3382
829.968	3488
830.107	3439
830.246	3412
830.385	3340
830.524	3359
830.663	3287
830.802	3245
830.941	3173
831.08	3154
831.219	3218
831.357	3249
831.496	3374
831.635	3264
831.774	3180
831.913	3184
832.051	3135
832.19	3127
832.329	3176
832.467	3112
832.606	3097
832.744	3135
832.883	3176
833.022	3165
833.16	3249
833.299	3283
833.437	3336
833.576	3348
833.714	3374
833.852	3405
833.991	3397
834.129	3435
834.267	3428
834.406	3382
834.544	3405
834.682	3443
834.821	3378
834.959	3561
835.097	3420
835.235	3545
835.373	3469
835.511	3469
835.65	3428
835.788	3435
835.926	3336
836.064	3363
836.202	3389
836.34	3557
836.478	3580
836.615	3538
836.753	3622
836.891	3622
837.029	3637
837.167	3587
837.305	3561
837.443	3526
837.58	3469
837.718	3599
837.856	3500
837.993	3504
838.131	3587
838.269	3561
838.406	3576
838.544	3572
838.681	3462
838.819	3469
838.956	3397
839.094	3351
839.231	3416
839.369	3542
839.506	3732
839.643	3603
839.781	3481
839.918	3416
840.055	3496
840.193	3519
840.33	3534
840.467	3542
840.604	3576
840.742	3770
840.879	3549
841.016	3485
841.153	3599
841.29	3728
841.427	3717
841.564	3694
841.701	3728
841.838	3690
841.975	3694
842.112	3675
842.249	3599
842.385	3667
842.522	3838
842.659	3679
842.796	3663
842.933	3663
843.069	3686
843.206	3694
843.343	3804
843.479	3759
843.616	3781
843.752	3679
843.889	3690
844.025	3842
844.162	3751
844.298	3869
844.435	3797
844.571	3770
844.708	3869
844.844	3968
844.98	4040
845.117	4017
845.253	3911
845.389	3846
845.525	3968
845.661	3922
845.798	3953
845.934	3987
846.07	3930
846.206	4067
846.342	4074
846.478	4055
846.614	3975
846.75	3926
846.886	3892
847.022	3994
847.158	3941
847.294	3975
847.429	4032
847.565	4021
847.701	4227
847.837	3884
847.972	3869
848.108	3964
848.244	3968
848.379	3808
848.515	3812
848.65	3804
848.786	3819
848.921	3888
849.057	3911
849.192	3911
849.328	3861
849.463	3861
849.598	3842
849.734	3819
849.869	3827
850.004	3736
850.14	3812
850.275	3827
850.41	3720
850.545	3762
850.68	3751
850.815	3793
850.95	3759
851.085	3918
851.22	3827
851.355	3850
851.49	3800
851.625	3770
851.76	3793
851.895	3705
852.03	3720
852.165	3804
852.299	3854
852.434	3903
852.569	3838
852.703	3873
852.838	3926
852.973	3964
853.107	3991
853.242	3896
853.376	3896
853.511	3717
853.645	3812
853.78	3983
853.914	3865
854.048	3876
854.183	3918
854.317	3945
854.451	4006
854.585	3964
854.72	3934
854.854	4059
854.988	3956
855.122	3964
855.256	3911
855.39	3991
855.524	4120
855.658	4032
855.792	4120
855.926	4116
856.06	4131
856.194	4211
856.327	4124
856.461	4131
856.595	4116
856.729	4166
856.862	4272
856.996	4219
857.13	4272
857.263	4352
857.397	4367
857.53	4253
857.664	4356
857.797	4375
857.931	4352
858.064	4443
858.197	4432
858.331	4375
858.464	4398
858.597	4356
858.731	4405
858.864	4428
858.997	4489
859.13	4466
859.263	4565
859.396	4611
859.529	4470
859.662	4558
859.795	4538
859.928	4565
860.061	4660
860.194	4748
860.327	4622
860.46	4668
860.592	4763
860.725	4759
860.858	4733
860.99	4656
861.123	4626
861.256	4675
861.388	4782
861.521	5299
861.653	4694
861.786	4729
861.918	4687
862.05	4824
862.183	4801
862.315	4900
862.447	4984
862.58	4858
862.712	4736
862.844	4786
862.976	4850
863.108	4896
863.24	5140
863.372	4824
863.504	4938
863.636	4892
863.768	4911
863.9	4938
864.032	4904
864.164	4930
864.296	5048
864.428	5079
864.559	5090
864.691	5128
864.823	5121
864.954	5086
865.086	5102
865.217	5098
865.349	5102
865.48	5166
865.612	5201
865.743	5258
865.875	5174
866.006	5143
866.137	5254
866.269	5231
866.4	5220
866.531	5246
866.662	5223
866.793	5307
866.924	5254
867.055	5349
867.186	5330
867.317	5315
867.448	5318
867.579	5334
867.71	5318
867.841	5364
867.972	5455
868.103	5455
868.233	5490
868.364	5486
868.495	5524
868.625	5653
868.756	5805
868.886	5676
869.017	5665
869.147	5783
869.278	5752
869.408	5824
869.539	5817
869.669	5904
869.799	5935
869.929	5969
870.06	5958
870.19	6155
870.32	6175
870.45	6167
870.58	6369
870.71	6372
870.84	6410
870.97	6418
871.1	6471
871.23	6608
871.36	6677
871.489	6608
871.619	6802
871.749	6791
871.879	6848
872.008	6928
872.138	6958
872.267	6996
872.397	6989
872.526	6993
872.656	7080
872.785	7179
872.915	7354
873.044	7514
873.173	7483
873.303	7658
873.432	7666
873.561	7837
873.69	7906
873.819	7963
873.948	8191
874.077	8218
874.206	8408
874.335	8419
874.464	8651
874.593	8857
874.722	8906
874.851	9039
874.979	9161
875.108	9435
875.237	9359
875.365	9447
875.494	9549
875.623	9797
875.751	9892
875.88	10002
876.008	10090
876.136	10242
876.265	10561
876.393	10584
876.521	10710
876.65	10828
876.778	10801
876.906	10881
877.034	10908
877.162	11018
877.29	11136
877.418	11284
877.546	11387
877.674	11376
877.802	11463
877.93	11482
878.058	11547
878.185	11543
878.313	11695
878.441	11691
878.568	11630
878.696	11840
878.824	11927
878.951	11889
879.079	11980
879.206	12148
879.333	12026
879.461	12007
879.588	12076
879.715	12007
879.842	12266
879.97	12030
880.097	11889
880.224	11790
880.351	11863
880.478	11912
880.605	11805
880.732	11767
880.859	11961
880.986	11821
881.112	11767
881.239	11752
881.366	11653
881.493	11566
881.619	11505
881.746	11596
881.872	11539
881.999	11512
882.125	11501
882.252	11459
882.378	11596
882.505	11535
882.631	11318
882.757	11372
882.883	11296
883.01	11277
883.136	11147
883.262	11132
883.388	11155
883.514	11201
883.64	11124
883.766	11041
883.892	10949
884.018	10900
884.143	11056
884.269	11140
884.395	10877
884.52	10649
884.646	10771
884.772	10702
884.897	10672
885.023	10660
885.148	10759
885.274	10664
885.399	10710
885.524	10618
885.65	10554
885.775	10622
885.9	10569
886.025	10527
886.15	10519
886.275	10497
886.4	10432
886.525	10371
886.65	10322
886.775	10367
886.9	10409
887.025	10459
887.149	10295
887.274	10268
887.399	10188
887.523	10173
887.648	10131
887.773	10162
887.897	10200
888.021	10196
888.146	10109
888.27	10185
888.395	10147
888.519	10116
888.643	10192
888.767	10196
888.891	10013
889.015	10010
889.139	10139
889.263	10006
889.387	9991
889.511	10029
889.635	10112
889.759	9949
889.883	10040
890.006	10036
890.13	10071
890.254	9972
890.377	9972
890.501	9838
890.624	9861
890.748	9793
890.871	9720
890.995	9740
891.118	9671
891.241	9762
891.364	9686
891.488	9838
891.611	9709
891.734	9656
891.857	9766
891.98	9686
892.103	9709
892.226	9705
892.349	9686
892.471	9473
892.594	9519
892.717	9587
892.839	9652
892.962	9629
893.085	9599
893.207	9587
893.33	9488
893.452	9500
893.575	9557
893.697	9481
893.819	9679
893.941	9580
894.064	9549
894.186	9454
894.308	9389
894.43	9496
894.552	9504
894.674	9542
894.796	9412
894.918	9405
895.04	9378
895.161	9321
895.283	9302
895.405	9222
895.526	9268
895.648	9313
895.769	9211
895.891	9226
896.012	9321
896.134	9226
896.255	9165
896.376	9142
896.498	9097
896.619	9146
896.74	9009
896.861	9077
896.982	9241
897.103	9291
897.224	9226
897.345	8994
897.466	9047
897.587	9028
897.708	9081
897.828	8990
897.949	8944
898.07	8785
898.19	8899
898.311	8990
898.431	8918
898.552	8853
898.672	8929
898.792	8918
898.913	8864
899.033	8746
899.153	8739
899.273	8651
899.393	8617
899.513	8724
899.633	8670
899.753	8727
899.873	8663
899.993	8701
900.113	8693
900.232	8750
900.352	8590
900.472	8629
900.591	8514
900.711	8568
900.83	8533
900.95	8686
901.069	8693
901.189	8530
901.308	8412
901.427	8351
901.546	8362
901.665	8484
901.784	8526
901.904	8328
902.023	8317
902.141	8233
902.26	8115
902.379	8271
902.498	8180
902.617	8259
902.735	8263
902.854	8180
902.973	8275
903.091	8126
903.21	8119
903.328	8183
903.446	8111
903.565	8073
903.683	8084
903.801	8062
903.919	8077
904.038	8111
904.156	8046
904.274	8096
904.392	8069
904.51	7997
904.627	8084
904.745	8126
904.863	8046
904.981	7902
905.098	7890
905.216	7932
905.334	7868
905.451	7906
905.569	7883
905.686	7879
905.803	7913
905.921	7704
906.038	7883
906.155	7799
906.272	7708
906.389	7712
906.506	7647
906.623	7624
906.74	7552
906.857	7556
906.974	7567
907.091	7677
907.208	7700
907.324	7613
907.441	7571
907.557	7472
907.674	7430
907.79	7369
907.907	7426
908.023	7441
908.139	7381
908.256	7301
908.372	7381
908.488	7392
908.604	7274
908.72	7232
908.836	7308
908.952	7168
909.068	7206
909.184	7320
909.3	7221
909.415	7206
909.531	7285
909.647	7050
909.762	7152
909.878	7088
909.993	7137
910.108	7034
910.224	7080
910.339	7137
910.454	6985
910.57	7008
910.685	6966
910.8	7152
910.915	7072
911.03	6954
911.145	6844
911.259	6814
911.374	6909
911.489	6810
911.604	6798
911.718	6658
911.833	6711
911.947	6639
912.062	6684
912.176	6700
912.291	6646
912.405	6673
912.519	6844
912.633	6791
912.748	6734
912.862	6741
912.976	6608
913.09	6544
913.204	6616
913.318	6620
913.431	6669
913.545	6642
913.659	6684
913.772	6665
913.886	6616
914	6574
914.113	6589
914.226	6589
914.34	6566
914.453	6456
914.566	6635
914.68	6433
914.793	6547
914.906	6426
915.019	6410
915.132	6365
915.245	6384
915.358	6456
915.47	6426
915.583	6441
915.696	6456
915.809	6494
915.921	6525
916.034	6426
916.146	6384
916.259	6372
916.371	6475
916.483	6441
916.595	6422
916.708	6422
916.82	6391
916.932	6365
917.044	6399
917.156	6372
917.268	6353
917.38	6361
917.491	6281
917.603	6323
917.715	6426
917.826	6388
917.938	6292
918.049	6235
918.161	6357
918.272	6395
918.384	6399
918.495	6346
918.606	6213
918.717	6155
918.828	6285
918.939	6262
919.05	6171
919.161	6186
919.272	6121
919.383	6171
919.494	6327
919.604	6437
919.715	6243
919.826	6186
919.936	6243
920.047	6327
920.157	6270
920.267	6456
920.378	6304
920.488	6224
920.598	6429
920.708	6555
920.818	6467
920.928	6448
921.038	6570
921.148	6566
921.258	6323
921.368	6262
921.477	6186
921.587	6178
921.697	6076
921.806	6155
921.916	6053
922.025	5942
922.134	5889
922.244	5855
922.353	5942
922.462	5859
922.571	5798
922.68	5726
922.789	5726
922.898	5657
923.007	5668
923.116	5680
923.224	5722
923.333	5649
923.442	5570
923.55	5562
923.659	5638
923.767	5623
923.876	5490
923.984	5600
924.092	5505
924.201	5581
924.309	5592
924.417	5516
924.525	5497
924.633	5509
924.741	6289
924.849	5318
924.956	5493
925.064	5387
925.172	5318
925.279	5288
925.387	5326
925.494	5337
925.602	5463
925.709	5345
925.816	5261
925.924	5349
926.031	5318
926.138	5292
926.245	5337
926.352	5235
926.459	5322
926.566	5299
926.673	5258
926.779	5109
926.886	5109
926.993	5086
927.099	4976
927.206	4999
927.312	4934
927.419	5045
927.525	4980
927.631	4999
927.737	4870
927.843	4885
927.95	4752
928.056	4812
928.162	4805
928.267	4904
928.373	5250
928.479	4805
928.585	4668
928.69	4755
928.796	4714
928.901	4706
929.007	4565
929.112	4672
929.218	4626
929.323	4558
929.428	4535
929.533	4702
929.638	4558
929.743	4500
929.848	4535
929.953	4527
930.058	4459
930.163	4337
930.267	4333
930.372	4417
930.477	4219
930.581	4470
930.685	4390
930.79	4261
930.894	4284
930.998	4230
931.103	4344
931.207	4101
931.311	4090
931.415	4025
931.519	3975
931.623	3968
