Data from glass_V78500241_1313.txt Node
Date: Wed Sep 01 19:23:36 CST 2021
User: usil
Spectrometer: V785-0024
Trigger mode: 0
Integration Time (sec): 4.000000E-1
Scans to average: 1
Nonlinearity correction enabled: false
Boxcar width: 0
Storing dark spectrum: false
XAxis mode: Wavelengths
Number of Pixels in Spectrum: 1024
>>>>>Begin Spectral Data<<<<<
801.071	3751
801.214	3789
801.356	3762
801.499	3709
801.641	3736
801.783	3766
801.926	3850
802.068	3831
802.211	3876
802.353	3880
802.496	3800
802.638	3911
802.78	3949
802.923	3937
803.065	3915
803.208	3865
803.35	3846
803.492	3888
803.635	3979
803.777	3804
803.919	3876
804.061	4150
804.204	4010
804.346	3979
804.488	3937
804.63	4040
804.773	3949
804.915	4032
805.057	4154
805.199	4036
805.341	4048
805.483	4101
805.626	4093
805.768	4097
805.91	4223
806.052	4257
806.194	4150
806.336	4333
806.478	4177
806.62	4185
806.762	4173
806.904	4268
807.046	4363
807.188	4234
807.33	4169
807.472	4242
807.614	4227
807.756	4249
807.898	4204
808.04	4234
808.182	4272
808.324	4333
808.465	4379
808.607	4443
808.749	4421
808.891	4481
809.033	4519
809.174	4409
809.316	4200
809.458	4242
809.6	4188
809.741	4162
809.883	4120
810.025	4249
810.166	4207
810.308	4192
810.45	4280
810.591	4238
810.733	4284
810.875	4523
811.016	4812
811.158	5155
811.299	5292
811.441	5337
811.582	5124
811.724	4694
811.865	4474
812.007	4497
812.148	4459
812.29	4409
812.431	4428
812.573	4421
812.714	4455
812.855	4428
812.997	4405
813.138	4493
813.279	4413
813.421	4402
813.562	4398
813.703	4333
813.845	4348
813.986	4246
814.127	4200
814.268	4272
814.41	4287
814.551	4234
814.692	4318
814.833	4272
814.974	4322
815.115	4314
815.256	4261
815.397	4207
815.539	4268
815.68	4234
815.821	4227
815.962	4314
816.103	4280
816.244	4207
816.385	4249
816.526	4325
816.666	4185
816.807	4090
816.948	4219
817.089	4173
817.23	4086
817.371	4044
817.512	4082
817.653	4074
817.793	4067
817.934	4116
818.075	4078
818.216	4090
818.356	4124
818.497	3987
818.638	3865
818.778	3915
818.919	3865
819.06	3888
819.2	3907
819.341	3888
819.481	3880
819.622	3918
819.762	4017
819.903	3979
820.043	3873
820.184	3808
820.324	3846
820.465	3854
820.605	3865
820.746	3854
820.886	3819
821.026	3899
821.167	3896
821.307	3983
821.447	4013
821.588	3968
821.728	3918
821.868	3945
822.008	3850
822.149	3892
822.289	3907
822.429	3778
822.569	3762
822.709	3793
822.849	3705
822.99	3732
823.13	3785
823.27	3747
823.41	3701
823.55	3743
823.69	3724
823.83	3736
823.97	3698
824.11	3587
824.25	3591
824.389	3622
824.529	3694
824.669	3618
824.809	3705
824.949	3743
825.089	3728
825.228	3679
825.368	3584
825.508	3564
825.648	3599
825.787	3622
825.927	3663
826.067	3614
826.206	3667
826.346	3804
826.485	3850
826.625	3880
826.765	3953
826.904	3800
827.044	3614
827.183	3530
827.323	3439
827.462	3481
827.601	3443
827.741	3450
827.88	3485
828.02	3389
828.159	3477
828.298	3450
828.437	3545
828.577	3515
828.716	3610
828.855	3496
828.994	3370
829.134	3393
829.273	3386
829.412	3351
829.551	3370
829.69	3348
829.829	3393
829.968	3572
830.107	3485
830.246	3447
830.385	3428
830.524	3389
830.663	3359
830.802	3241
830.941	3207
831.08	3176
831.219	3287
831.357	3275
831.496	3405
831.635	3256
831.774	3188
831.913	3195
832.051	3154
832.19	3173
832.329	3230
832.467	3127
832.606	3108
832.744	3192
832.883	3157
833.022	3211
833.16	3253
833.299	3313
833.437	3325
833.576	3393
833.714	3428
833.852	3458
833.991	3443
834.129	3469
834.267	3428
834.406	3439
834.544	3401
834.682	3416
834.821	3401
834.959	3580
835.097	3397
835.235	3526
835.373	3469
835.511	3481
835.65	3439
835.788	3492
835.926	3416
836.064	3389
836.202	3412
836.34	3553
836.478	3599
836.615	3587
836.753	3622
836.891	3644
837.029	3633
837.167	3587
837.305	3572
837.443	3523
837.58	3526
837.718	3587
837.856	3564
837.993	3553
838.131	3568
838.269	3561
838.406	3610
838.544	3572
838.681	3469
838.819	3443
838.956	3359
839.094	3386
839.231	3462
839.369	3500
839.506	3709
839.643	3629
839.781	3526
839.918	3507
840.055	3511
840.193	3530
840.33	3526
840.467	3576
840.604	3606
840.742	3804
840.879	3557
841.016	3526
841.153	3599
841.29	3747
841.427	3724
841.564	3713
841.701	3747
841.838	3705
841.975	3656
842.112	3705
842.249	3701
842.385	3663
842.522	3808
842.659	3705
842.796	3660
842.933	3720
843.069	3709
843.206	3740
843.343	3808
843.479	3827
843.616	3804
843.752	3679
843.889	3705
844.025	3823
844.162	3740
844.298	3865
844.435	3800
844.571	3778
844.708	3930
844.844	3998
844.98	4006
845.117	3979
845.253	3937
845.389	3846
845.525	3941
845.661	3937
845.798	3934
845.934	4040
846.07	3930
846.206	4036
846.342	4158
846.478	4067
846.614	3998
846.75	3956
846.886	3865
847.022	4040
847.158	4013
847.294	4025
847.429	4067
847.565	3964
847.701	4287
847.837	3896
847.972	3884
848.108	3994
848.244	4013
848.379	3846
848.515	3854
848.65	3838
848.786	3808
848.921	3846
849.057	3899
849.192	3945
849.328	3915
849.463	3949
849.598	3911
849.734	3854
849.869	3850
850.004	3804
850.14	3816
850.275	3789
850.41	3762
850.545	3759
850.68	3793
850.815	3812
850.95	3800
851.085	3930
851.22	3873
851.355	3819
851.49	3785
851.625	3819
851.76	3785
851.895	3709
852.03	3759
852.165	3766
852.299	3865
852.434	3911
852.569	3865
852.703	3888
852.838	3896
852.973	3998
853.107	3991
853.242	3953
853.376	3857
853.511	3793
853.645	3827
853.78	3987
853.914	3926
854.048	3907
854.183	3930
854.317	3941
854.451	4048
854.585	3968
854.72	3915
854.854	4036
854.988	3934
855.122	4017
855.256	3918
855.39	4021
855.524	4131
855.658	4128
855.792	4112
855.926	4120
856.06	4120
856.194	4234
856.327	4173
856.461	4093
856.595	4135
856.729	4196
856.862	4238
856.996	4207
857.13	4280
857.263	4337
857.397	4322
857.53	4272
857.664	4333
857.797	4375
857.931	4394
858.064	4348
858.197	4485
858.331	4383
858.464	4386
858.597	4367
858.731	4447
858.864	4466
858.997	4451
859.13	4535
859.263	4569
859.396	4630
859.529	4500
859.662	4550
859.795	4550
859.928	4565
860.061	4755
860.194	4748
860.327	4691
860.46	4656
860.592	4721
860.725	4771
860.858	4744
860.99	4694
861.123	4698
861.256	4675
861.388	4729
861.521	5318
861.653	4774
861.786	4706
861.918	4759
862.05	4824
862.183	4850
862.315	4866
862.447	4972
862.58	4904
862.712	4793
862.844	4759
862.976	4885
863.108	4850
863.24	5216
863.372	4866
863.504	4908
863.636	4858
863.768	4942
863.9	4942
864.032	4919
864.164	4965
864.296	5041
864.428	5113
864.559	5075
864.691	5132
864.823	5166
864.954	5132
865.086	5136
865.217	5185
865.349	5094
865.48	5193
865.612	5250
865.743	5288
865.875	5231
866.006	5170
866.137	5258
866.269	5239
866.4	5318
866.531	5216
866.662	5250
866.793	5292
866.924	5269
867.055	5357
867.186	5372
867.317	5349
867.448	5254
867.579	5383
867.71	5379
867.841	5368
867.972	5459
868.103	5440
868.233	5478
868.364	5493
868.495	5493
868.625	5688
868.756	5805
868.886	5695
869.017	5771
869.147	5920
869.278	5878
869.408	5775
869.539	5817
869.669	5996
869.799	5939
869.929	5988
870.06	6053
870.19	6247
870.32	6266
870.45	6251
870.58	6319
870.71	6460
870.84	6498
870.97	6483
871.1	6456
871.23	6639
871.36	6757
871.489	6646
871.619	6764
871.749	6787
871.879	6863
872.008	6951
872.138	7027
872.267	7050
872.397	7004
872.526	7053
872.656	7107
872.785	7202
872.915	7426
873.044	7537
873.173	7499
873.303	7605
873.432	7776
873.561	7959
873.69	7879
873.819	7978
873.948	8180
874.077	8263
874.206	8377
874.335	8412
874.464	8670
874.593	8876
874.722	8998
874.851	9119
874.979	9218
875.108	9412
875.237	9401
875.365	9519
875.494	9656
875.623	9854
875.751	9861
875.88	10013
876.008	10131
876.136	10337
876.265	10569
876.393	10702
876.521	10778
876.65	10801
876.778	10869
876.906	11018
877.034	10896
877.162	11113
877.29	11124
877.418	11299
877.546	11280
877.674	11535
877.802	11532
877.93	11566
878.058	11566
878.185	11604
878.313	11642
878.441	11813
878.568	11733
878.696	11832
878.824	11851
878.951	11961
879.079	11999
879.206	12121
879.333	12053
879.461	11980
879.588	12045
879.715	12087
879.842	12175
879.97	12011
880.097	11824
880.224	11821
880.351	11901
880.478	11901
880.605	11878
880.732	11779
880.859	12041
880.986	11672
881.112	11931
881.239	11726
881.366	11615
881.493	11577
881.619	11592
881.746	11630
881.872	11516
881.999	11532
882.125	11497
882.252	11528
882.378	11482
882.505	11516
882.631	11353
882.757	11277
882.883	11337
883.01	11201
883.136	11227
883.262	11208
883.388	11067
883.514	11170
883.64	11136
883.766	11170
883.892	11025
884.018	11006
884.143	11056
884.269	11029
884.395	10831
884.52	10843
884.646	10820
884.772	10725
884.897	10687
885.023	10630
885.148	10736
885.274	10755
885.399	10660
885.524	10683
885.65	10603
885.775	10698
885.9	10538
886.025	10622
886.15	10622
886.275	10451
886.4	10413
886.525	10497
886.65	10375
886.775	10348
886.9	10531
887.025	10535
887.149	10379
887.274	10196
887.399	10211
887.523	10219
887.648	10124
887.773	10116
887.897	10227
888.021	10169
888.146	10154
888.27	10261
888.395	10188
888.519	10223
888.643	10257
888.767	10181
888.891	10120
889.015	10017
889.139	10112
889.263	9934
889.387	10074
889.511	10158
889.635	10063
889.759	10010
889.883	9907
890.006	9972
890.13	10162
890.254	9949
890.377	9979
890.501	9892
890.624	9949
890.748	9892
890.871	9759
890.995	9720
891.118	9770
891.241	9736
891.364	9690
891.488	9892
891.611	9804
891.734	9740
891.857	9762
891.98	9724
892.103	9781
892.226	9774
892.349	9728
892.471	9549
892.594	9553
892.717	9656
892.839	9515
892.962	9644
893.085	9656
893.207	9606
893.33	9496
893.452	9511
893.575	9576
893.697	9523
893.819	9705
893.941	9637
894.064	9629
894.186	9481
894.308	9424
894.43	9580
894.552	9618
894.674	9587
894.796	9389
894.918	9332
895.04	9340
895.161	9389
895.283	9382
895.405	9264
895.526	9351
895.648	9233
895.769	9207
895.891	9180
896.012	9291
896.134	9154
896.255	9081
896.376	9138
896.498	9150
896.619	9135
896.74	9093
896.861	9058
896.982	9306
897.103	9275
897.224	9135
897.345	9074
897.466	8971
897.587	8960
897.708	9051
897.828	9001
897.949	8994
898.07	8788
898.19	8891
898.311	8975
898.431	8899
898.552	8994
898.672	8994
898.792	8948
898.913	8891
899.033	8777
899.153	8792
899.273	8670
899.393	8686
899.513	8697
899.633	8689
899.753	8743
899.873	8678
899.993	8769
900.113	8758
900.232	8731
900.352	8697
900.472	8617
900.591	8537
900.711	8632
900.83	8518
900.95	8640
901.069	8727
901.189	8613
901.308	8419
901.427	8396
901.546	8419
901.665	8488
901.784	8469
901.904	8412
902.023	8343
902.141	8240
902.26	8191
902.379	8271
902.498	8210
902.617	8202
902.735	8240
902.854	8298
902.973	8328
903.091	8153
903.21	8172
903.328	8157
903.446	8149
903.565	8149
903.683	8081
903.801	7993
903.919	8149
904.038	8142
904.156	8050
904.274	8126
904.392	8092
904.51	8058
904.627	8035
904.745	8145
904.863	8115
904.981	7879
905.098	7913
905.216	7902
905.334	7925
905.451	7902
905.569	7890
905.686	7978
905.803	7959
905.921	7776
906.038	7898
906.155	7757
906.272	7696
906.389	7742
906.506	7658
906.623	7601
906.74	7616
906.857	7571
906.974	7594
907.091	7651
907.208	7761
907.324	7696
907.441	7556
907.557	7419
907.674	7411
907.79	7400
907.907	7426
908.023	7400
908.139	7388
908.256	7407
908.372	7392
908.488	7354
908.604	7213
908.72	7232
908.836	7266
908.952	7202
909.068	7316
909.184	7308
909.3	7232
909.415	7259
909.531	7320
909.647	7122
909.762	7118
909.878	7129
909.993	7160
910.108	7168
910.224	7069
910.339	7164
910.454	7015
910.57	7019
910.685	6951
910.8	7164
910.915	7152
911.03	7015
911.145	6962
911.259	6844
911.374	6894
911.489	6779
911.604	6821
911.718	6734
911.833	6688
911.947	6623
912.062	6597
912.176	6734
912.291	6764
912.405	6730
912.519	6829
912.633	6833
912.748	6738
912.862	6681
912.976	6616
913.09	6509
913.204	6597
913.318	6612
913.431	6703
913.545	6658
913.659	6715
913.772	6658
913.886	6578
914	6597
914.113	6631
914.226	6681
914.34	6620
914.453	6532
914.566	6593
914.68	6479
914.793	6525
914.906	6460
915.019	6414
915.132	6365
915.245	6483
915.358	6410
915.47	6418
915.583	6445
915.696	6456
915.809	6532
915.921	6570
916.034	6410
916.146	6445
916.259	6467
916.371	6551
916.483	6528
916.595	6388
916.708	6426
916.82	6426
916.932	6426
917.044	6414
917.156	6410
917.268	6334
917.38	6319
917.491	6300
917.603	6388
917.715	6448
917.826	6418
917.938	6319
918.049	6273
918.161	6331
918.272	6448
918.384	6445
918.495	6350
918.606	6247
918.717	6178
918.828	6319
918.939	6353
919.05	6224
919.161	6247
919.272	6129
919.383	6190
919.494	6346
919.604	6418
919.715	6251
919.826	6224
919.936	6266
920.047	6357
920.157	6266
920.267	6460
920.378	6296
920.488	6270
920.598	6426
920.708	6544
920.818	6433
920.928	6502
921.038	6639
921.148	6570
921.258	6403
921.368	6281
921.477	6190
921.587	6235
921.697	6095
921.806	6136
921.916	6079
922.025	5958
922.134	5908
922.244	5897
922.353	5939
922.462	5817
922.571	5817
922.68	5707
922.789	5752
922.898	5688
923.007	5680
923.116	5668
923.224	5619
923.333	5710
923.442	5570
923.55	5653
923.659	5596
923.767	5600
923.876	5570
923.984	5570
924.092	5532
924.201	5543
924.309	5535
924.417	5558
924.525	5448
924.633	5512
924.741	6266
924.849	5440
924.956	5490
925.064	5383
925.172	5299
925.279	5307
925.387	5391
925.494	5349
925.602	5425
925.709	5368
925.816	5334
925.924	5318
926.031	5364
926.138	5330
926.245	5337
926.352	5212
926.459	5368
926.566	5330
926.673	5181
926.779	5159
926.886	5147
926.993	5041
927.099	4995
927.206	5018
927.312	4972
927.419	5006
927.525	4999
927.631	5003
927.737	4942
927.843	4877
927.95	4797
928.056	4850
928.162	4820
928.267	4835
928.373	5315
928.479	4919
928.585	4706
928.69	4744
928.796	4839
928.901	4717
929.007	4577
929.112	4672
929.218	4641
929.323	4618
929.428	4573
929.533	4672
929.638	4504
929.743	4550
929.848	4508
929.953	4489
930.058	4455
930.163	4386
930.267	4379
930.372	4451
930.477	4280
930.581	4542
930.685	4352
930.79	4261
930.894	4284
930.998	4227
931.103	4436
931.207	4169
931.311	4074
931.415	4013
931.519	3922
931.623	3945
