Data from glass_V78500241_1205.txt Node
Date: Wed Sep 01 19:22:51 CST 2021
User: usil
Spectrometer: V785-0024
Trigger mode: 0
Integration Time (sec): 4.000000E-1
Scans to average: 1
Nonlinearity correction enabled: false
Boxcar width: 0
Storing dark spectrum: false
XAxis mode: Wavelengths
Number of Pixels in Spectrum: 1024
>>>>>Begin Spectral Data<<<<<
801.071	3701
801.214	3766
801.356	3720
801.499	3747
801.641	3724
801.783	3774
801.926	3854
802.068	3838
802.211	3842
802.353	3915
802.496	3857
802.638	3922
802.78	3930
802.923	3949
803.065	3884
803.208	3880
803.35	3865
803.492	3915
803.635	3949
803.777	3808
803.919	3934
804.061	4181
804.204	4006
804.346	3911
804.488	3899
804.63	4044
804.773	3930
804.915	4036
805.057	4116
805.199	4101
805.341	4071
805.483	4143
805.626	4147
805.768	4147
805.91	4204
806.052	4257
806.194	4238
806.336	4333
806.478	4207
806.62	4131
806.762	4238
806.904	4265
807.046	4375
807.188	4227
807.33	4200
807.472	4223
807.614	4181
807.756	4299
807.898	4207
808.04	4230
808.182	4337
808.324	4322
808.465	4413
808.607	4451
808.749	4462
808.891	4462
809.033	4481
809.174	4413
809.316	4287
809.458	4211
809.6	4215
809.741	4147
809.883	4147
810.025	4200
810.166	4196
810.308	4230
810.45	4291
810.591	4238
810.733	4284
810.875	4561
811.016	4816
811.158	5117
811.299	5239
811.441	5330
811.582	5056
811.724	4683
811.865	4443
812.007	4489
812.148	4443
812.29	4443
812.431	4432
812.573	4398
812.714	4379
812.855	4417
812.997	4413
813.138	4493
813.279	4489
813.421	4398
813.562	4402
813.703	4352
813.845	4333
813.986	4272
814.127	4181
814.268	4310
814.41	4299
814.551	4280
814.692	4314
814.833	4238
814.974	4280
815.115	4329
815.256	4257
815.397	4253
815.539	4219
815.68	4234
815.821	4257
815.962	4322
816.103	4306
816.244	4230
816.385	4268
816.526	4306
816.666	4177
816.807	4128
816.948	4200
817.089	4204
817.23	4128
817.371	4059
817.512	4067
817.653	4112
817.793	4063
817.934	4093
818.075	4082
818.216	4074
818.356	4074
818.497	4006
818.638	3911
818.778	3911
818.919	3880
819.06	3823
819.2	3899
819.341	3850
819.481	3869
819.622	3903
819.762	4048
819.903	3972
820.043	3876
820.184	3789
820.324	3888
820.465	3915
820.605	3899
820.746	3873
820.886	3804
821.026	3960
821.167	3945
821.307	3949
821.447	3964
821.588	3941
821.728	3983
821.868	3972
822.008	3835
822.149	3953
822.289	3953
822.429	3781
822.569	3785
822.709	3778
822.849	3713
822.99	3709
823.13	3770
823.27	3789
823.41	3724
823.55	3770
823.69	3743
823.83	3690
823.97	3705
824.11	3584
824.25	3576
824.389	3652
824.529	3667
824.669	3671
824.809	3736
824.949	3759
825.089	3682
825.228	3724
825.368	3629
825.508	3553
825.648	3549
825.787	3587
825.927	3686
826.067	3644
826.206	3663
826.346	3797
826.485	3812
826.625	3876
826.765	3972
826.904	3778
827.044	3561
827.183	3538
827.323	3492
827.462	3523
827.601	3447
827.741	3443
827.88	3450
828.02	3382
828.159	3447
828.298	3504
828.437	3504
828.577	3450
828.716	3622
828.855	3492
828.994	3401
829.134	3336
829.273	3405
829.412	3389
829.551	3355
829.69	3393
829.829	3443
829.968	3538
830.107	3405
830.246	3450
830.385	3367
830.524	3340
830.663	3310
830.802	3253
830.941	3237
831.08	3211
831.219	3272
831.357	3298
831.496	3378
831.635	3245
831.774	3207
831.913	3211
832.051	3154
832.19	3173
832.329	3207
832.467	3146
832.606	3127
832.744	3195
832.883	3203
833.022	3176
833.16	3268
833.299	3310
833.437	3370
833.576	3344
833.714	3443
833.852	3443
833.991	3431
834.129	3477
834.267	3443
834.406	3420
834.544	3439
834.682	3389
834.821	3447
834.959	3568
835.097	3424
835.235	3530
835.373	3473
835.511	3488
835.65	3488
835.788	3466
835.926	3382
836.064	3405
836.202	3401
836.34	3584
836.478	3572
836.615	3538
836.753	3595
836.891	3652
837.029	3633
837.167	3595
837.305	3572
837.443	3572
837.58	3523
837.718	3618
837.856	3561
837.993	3576
838.131	3629
838.269	3568
838.406	3561
838.544	3545
838.681	3462
838.819	3466
838.956	3401
839.094	3409
839.231	3450
839.369	3553
839.506	3740
839.643	3618
839.781	3492
839.918	3485
840.055	3530
840.193	3553
840.33	3553
840.467	3576
840.604	3599
840.742	3800
840.879	3530
841.016	3530
841.153	3606
841.29	3781
841.427	3728
841.564	3663
841.701	3755
841.838	3724
841.975	3690
842.112	3705
842.249	3625
842.385	3633
842.522	3842
842.659	3686
842.796	3686
842.933	3720
843.069	3709
843.206	3743
843.343	3816
843.479	3778
843.616	3808
843.752	3652
843.889	3720
844.025	3899
844.162	3743
844.298	3861
844.435	3812
844.571	3793
844.708	3991
844.844	3998
844.98	4048
845.117	4055
845.253	3907
845.389	3903
845.525	3964
845.661	3949
845.798	3956
845.934	3987
846.07	3930
846.206	4059
846.342	4120
846.478	4067
846.614	3991
846.75	3926
846.886	3949
847.022	4025
847.158	3960
847.294	4025
847.429	4002
847.565	3949
847.701	4257
847.837	3930
847.972	3857
848.108	3979
848.244	3998
848.379	3854
848.515	3797
848.65	3857
848.786	3819
848.921	3911
849.057	3975
849.192	3937
849.328	3899
849.463	3968
849.598	3907
849.734	3842
849.869	3827
850.004	3812
850.14	3842
850.275	3781
850.41	3717
850.545	3785
850.68	3778
850.815	3789
850.95	3812
851.085	3953
851.22	3835
851.355	3831
851.49	3770
851.625	3759
851.76	3781
851.895	3770
852.03	3740
852.165	3816
852.299	3854
852.434	3911
852.569	3861
852.703	3880
852.838	3934
852.973	4002
853.107	4032
853.242	3892
853.376	3869
853.511	3778
853.645	3842
853.78	3930
853.914	3896
854.048	3915
854.183	3899
854.317	3964
854.451	4078
854.585	3975
854.72	3903
854.854	4017
854.988	3934
855.122	4013
855.256	3899
855.39	4067
855.524	4143
855.658	4063
855.792	4097
855.926	4166
856.06	4150
856.194	4261
856.327	4158
856.461	4128
856.595	4211
856.729	4211
856.862	4284
856.996	4242
857.13	4337
857.263	4348
857.397	4424
857.53	4303
857.664	4337
857.797	4383
857.931	4409
858.064	4375
858.197	4493
858.331	4402
858.464	4390
858.597	4322
858.731	4409
858.864	4432
858.997	4436
859.13	4500
859.263	4546
859.396	4630
859.529	4542
859.662	4546
859.795	4523
859.928	4558
860.061	4710
860.194	4736
860.327	4656
860.46	4653
860.592	4714
860.725	4759
860.858	4831
860.99	4706
861.123	4679
861.256	4664
861.388	4771
861.521	5452
861.653	4729
861.786	4748
861.918	4740
862.05	4820
862.183	4839
862.315	4904
862.447	4934
862.58	4885
862.712	4858
862.844	4759
862.976	4900
863.108	4896
863.24	5174
863.372	4824
863.504	4881
863.636	4908
863.768	4911
863.9	4972
864.032	4942
864.164	4953
864.296	5056
864.428	5079
864.559	5128
864.691	5109
864.823	5140
864.954	5098
865.086	5162
865.217	5121
865.349	5143
865.48	5128
865.612	5208
865.743	5265
865.875	5220
866.006	5166
866.137	5242
866.269	5261
866.4	5265
866.531	5254
866.662	5265
866.793	5242
866.924	5315
867.055	5353
867.186	5357
867.317	5330
867.448	5337
867.579	5402
867.71	5406
867.841	5372
867.972	5505
868.103	5535
868.233	5478
868.364	5482
868.495	5585
868.625	5741
868.756	5802
868.886	5672
869.017	5790
869.147	5851
869.278	5855
869.408	5832
869.539	5847
869.669	5904
869.799	5935
869.929	5973
870.06	6015
870.19	6243
870.32	6197
870.45	6342
870.58	6315
870.71	6479
870.84	6448
870.97	6429
871.1	6494
871.23	6639
871.36	6741
871.489	6608
871.619	6764
871.749	6829
871.879	6897
872.008	6962
872.138	6958
872.267	6996
872.397	6996
872.526	7057
872.656	7168
872.785	7175
872.915	7415
873.044	7544
873.173	7556
873.303	7670
873.432	7765
873.561	7841
873.69	7947
873.819	8020
873.948	8183
874.077	8286
874.206	8279
874.335	8434
874.464	8640
874.593	8883
874.722	8914
874.851	9135
874.979	9272
875.108	9351
875.237	9408
875.365	9485
875.494	9682
875.623	9831
875.751	9842
875.88	9953
876.008	10112
876.136	10280
876.265	10561
876.393	10767
876.521	10725
876.65	10854
876.778	10847
876.906	10873
877.034	10984
877.162	11132
877.29	11185
877.418	11292
877.546	11364
877.674	11448
877.802	11398
877.93	11600
878.058	11516
878.185	11600
878.313	11665
878.441	11714
878.568	11729
878.696	11775
878.824	11885
878.951	11897
879.079	11977
879.206	12159
879.333	12057
879.461	12026
879.588	11996
879.715	12083
879.842	12292
879.97	12038
880.097	11977
880.224	11893
880.351	11992
880.478	11870
880.605	11828
880.732	11859
880.859	12011
880.986	11863
881.112	11942
881.239	11737
881.366	11737
881.493	11581
881.619	11501
881.746	11566
881.872	11577
881.999	11448
882.125	11459
882.252	11493
882.378	11528
882.505	11501
882.631	11509
882.757	11299
882.883	11334
883.01	11227
883.136	11208
883.262	11071
883.388	11193
883.514	11204
883.64	11201
883.766	11105
883.892	11056
884.018	10995
884.143	11022
884.269	11181
884.395	10862
884.52	10717
884.646	10714
884.772	10687
884.897	10649
885.023	10702
885.148	10748
885.274	10714
885.399	10714
885.524	10679
885.65	10577
885.775	10588
885.9	10531
886.025	10641
886.15	10584
886.275	10481
886.4	10447
886.525	10352
886.65	10348
886.775	10329
886.9	10474
887.025	10527
887.149	10367
887.274	10246
887.399	10158
887.523	10112
887.648	10169
887.773	10086
887.897	10280
888.021	10219
888.146	10166
888.27	10253
888.395	10333
888.519	10249
888.643	10139
888.767	10238
888.891	10086
889.015	9922
889.139	10158
889.263	9991
889.387	10074
889.511	10109
889.635	10067
889.759	9987
889.883	10036
890.006	10017
890.13	10044
890.254	9979
890.377	9972
890.501	9880
890.624	9857
890.748	9930
890.871	9819
890.995	9747
891.118	9751
891.241	9778
891.364	9747
891.488	9823
891.611	9755
891.734	9740
891.857	9747
891.98	9751
892.103	9755
892.226	9660
892.349	9690
892.471	9504
892.594	9564
892.717	9629
892.839	9584
892.962	9648
893.085	9686
893.207	9644
893.33	9485
893.452	9523
893.575	9625
893.697	9530
893.819	9633
893.941	9656
894.064	9507
894.186	9454
894.308	9416
894.43	9492
894.552	9564
894.674	9526
894.796	9447
894.918	9416
895.04	9393
895.161	9401
895.283	9412
895.405	9321
895.526	9226
895.648	9211
895.769	9230
895.891	9306
896.012	9344
896.134	9279
896.255	9173
896.376	9135
896.498	9233
896.619	9119
896.74	9112
896.861	9081
896.982	9253
897.103	9325
897.224	9207
897.345	9070
897.466	8967
897.587	9047
897.708	9047
897.828	9058
897.949	8937
898.07	8811
898.19	8872
898.311	9024
898.431	8975
898.552	8952
898.672	9005
898.792	8918
898.913	8918
899.033	8891
899.153	8762
899.273	8712
899.393	8739
899.513	8777
899.633	8735
899.753	8754
899.873	8697
899.993	8746
900.113	8766
900.232	8682
900.352	8651
900.472	8674
900.591	8522
900.711	8583
900.83	8522
900.95	8644
901.069	8746
901.189	8507
901.308	8442
901.427	8385
901.546	8434
901.665	8427
901.784	8503
901.904	8396
902.023	8301
902.141	8202
902.26	8199
902.379	8282
902.498	8256
902.617	8240
902.735	8275
902.854	8279
902.973	8305
903.091	8130
903.21	8157
903.328	8111
903.446	8225
903.565	8058
903.683	8103
903.801	8062
903.919	8107
904.038	8123
904.156	8039
904.274	8073
904.392	8039
904.51	7963
904.627	8005
904.745	8100
904.863	8119
904.981	7955
905.098	7811
905.216	7860
905.334	7883
905.451	7982
905.569	7936
905.686	7944
905.803	7921
905.921	7826
906.038	7887
906.155	7833
906.272	7750
906.389	7693
906.506	7601
906.623	7586
906.74	7624
906.857	7480
906.974	7571
907.091	7677
907.208	7746
907.324	7651
907.441	7582
907.557	7384
907.674	7487
907.79	7373
907.907	7449
908.023	7438
908.139	7457
908.256	7381
908.372	7358
908.488	7373
908.604	7263
908.72	7225
908.836	7289
908.952	7301
909.068	7251
909.184	7270
909.3	7240
909.415	7335
909.531	7259
909.647	7110
909.762	7133
909.878	7145
909.993	7141
910.108	7141
910.224	7038
910.339	7061
910.454	6970
910.57	6973
910.685	6939
910.8	7171
910.915	7118
911.03	6966
911.145	7008
911.259	6856
911.374	6909
911.489	6863
911.604	6787
911.718	6734
911.833	6768
911.947	6631
912.062	6658
912.176	6745
912.291	6711
912.405	6715
912.519	6818
912.633	6886
912.748	6753
912.862	6719
912.976	6597
913.09	6551
913.204	6612
913.318	6578
913.431	6719
913.545	6681
913.659	6795
913.772	6669
913.886	6574
914	6547
914.113	6662
914.226	6688
914.34	6662
914.453	6467
914.566	6601
914.68	6582
914.793	6509
914.906	6486
915.019	6365
915.132	6471
915.245	6467
915.358	6475
915.47	6479
915.583	6445
915.696	6437
915.809	6559
915.921	6620
916.034	6441
916.146	6372
916.259	6418
916.371	6429
916.483	6445
916.595	6395
916.708	6414
916.82	6376
916.932	6414
917.044	6384
917.156	6433
917.268	6308
917.38	6437
917.491	6304
917.603	6399
917.715	6300
917.826	6429
917.938	6346
918.049	6243
918.161	6365
918.272	6441
918.384	6441
918.495	6372
918.606	6216
918.717	6220
918.828	6292
918.939	6289
919.05	6243
919.161	6251
919.272	6121
919.383	6121
919.494	6270
919.604	6502
919.715	6251
919.826	6213
919.936	6251
920.047	6346
920.157	6266
920.267	6452
920.378	6323
920.488	6235
920.598	6471
920.708	6593
920.818	6448
920.928	6452
921.038	6544
921.148	6597
921.258	6361
921.368	6258
921.477	6220
921.587	6175
921.697	6072
921.806	6163
921.916	6083
922.025	5977
922.134	5977
922.244	5901
922.353	5973
922.462	5844
922.571	5767
922.68	5764
922.789	5653
922.898	5737
923.007	5672
923.116	5703
923.224	5646
923.333	5684
923.442	5600
923.55	5615
923.659	5615
923.767	5623
923.876	5501
923.984	5535
924.092	5524
924.201	5608
924.309	5573
924.417	5623
924.525	5524
924.633	5509
924.741	6251
924.849	5387
924.956	5520
925.064	5357
925.172	5330
925.279	5337
925.387	5364
925.494	5357
925.602	5440
925.709	5379
925.816	5273
925.924	5330
926.031	5357
926.138	5315
926.245	5322
926.352	5220
926.459	5334
926.566	5318
926.673	5189
926.779	5147
926.886	5105
926.993	5037
927.099	5022
927.206	5018
927.312	5014
927.419	5022
927.525	5010
927.631	4987
927.737	4900
927.843	4831
927.95	4801
928.056	4812
928.162	4824
928.267	4854
928.373	5334
928.479	4896
928.585	4672
928.69	4801
928.796	4778
928.901	4653
929.007	4626
929.112	4717
929.218	4607
929.323	4630
929.428	4596
929.533	4672
929.638	4535
929.743	4538
929.848	4561
929.953	4546
930.058	4462
930.163	4344
930.267	4325
930.372	4405
930.477	4322
930.581	4451
930.685	4386
930.79	4280
930.894	4238
930.998	4227
931.103	4379
931.207	4116
931.311	4051
931.415	4029
931.519	3979
931.623	3918
