Data from glass_V78500241_2672.txt Node
Date: Wed Sep 01 19:33:01 CST 2021
User: usil
Spectrometer: V785-0024
Trigger mode: 0
Integration Time (sec): 4.000000E-1
Scans to average: 1
Nonlinearity correction enabled: false
Boxcar width: 0
Storing dark spectrum: false
XAxis mode: Wavelengths
Number of Pixels in Spectrum: 1024
>>>>>Begin Spectral Data<<<<<
801.071	3679
801.214	3713
801.356	3743
801.499	3736
801.641	3743
801.783	3781
801.926	3800
802.068	3831
802.211	3842
802.353	3903
802.496	3823
802.638	3888
802.78	3884
802.923	3953
803.065	3892
803.208	3808
803.35	3884
803.492	3911
803.635	3922
803.777	3797
803.919	3892
804.061	4147
804.204	3934
804.346	3926
804.488	3911
804.63	4021
804.773	3968
804.915	4013
805.057	4158
805.199	4048
805.341	4078
805.483	4143
805.626	4071
805.768	4158
805.91	4230
806.052	4230
806.194	4200
806.336	4337
806.478	4246
806.62	4139
806.762	4147
806.904	4253
807.046	4318
807.188	4200
807.33	4192
807.472	4211
807.614	4177
807.756	4207
807.898	4219
808.04	4188
808.182	4257
808.324	4295
808.465	4318
808.607	4481
808.749	4440
808.891	4405
809.033	4478
809.174	4383
809.316	4280
809.458	4249
809.6	4147
809.741	4147
809.883	4116
810.025	4162
810.166	4177
810.308	4196
810.45	4234
810.591	4196
810.733	4242
810.875	4466
811.016	4774
811.158	5109
811.299	5223
811.441	5269
811.582	5025
811.724	4656
811.865	4440
812.007	4497
812.148	4394
812.29	4390
812.431	4390
812.573	4360
812.714	4344
812.855	4409
812.997	4417
813.138	4443
813.279	4375
813.421	4379
813.562	4333
813.703	4322
813.845	4265
813.986	4215
814.127	4219
814.268	4268
814.41	4261
814.551	4310
814.692	4291
814.833	4268
814.974	4299
815.115	4344
815.256	4257
815.397	4192
815.539	4223
815.68	4162
815.821	4181
815.962	4322
816.103	4246
816.244	4234
816.385	4227
816.526	4272
816.666	4211
816.807	4071
816.948	4166
817.089	4192
817.23	4112
817.371	4013
817.512	4082
817.653	4055
817.793	4082
817.934	4040
818.075	4090
818.216	4082
818.356	4097
818.497	3953
818.638	3922
818.778	3930
818.919	3911
819.06	3846
819.2	3884
819.341	3873
819.481	3850
819.622	3861
819.762	3960
819.903	3956
820.043	3823
820.184	3823
820.324	3823
820.465	3850
820.605	3812
820.746	3812
820.886	3770
821.026	3934
821.167	3903
821.307	3994
821.447	3915
821.588	3941
821.728	3937
821.868	3975
822.008	3846
822.149	3896
822.289	3857
822.429	3747
822.569	3759
822.709	3762
822.849	3641
822.99	3690
823.13	3747
823.27	3778
823.41	3686
823.55	3686
823.69	3698
823.83	3743
823.97	3682
824.11	3603
824.25	3587
824.389	3618
824.529	3652
824.669	3633
824.809	3694
824.949	3793
825.089	3717
825.228	3660
825.368	3584
825.508	3576
825.648	3553
825.787	3580
825.927	3610
826.067	3599
826.206	3660
826.346	3781
826.485	3812
826.625	3831
826.765	3937
826.904	3838
827.044	3618
827.183	3507
827.323	3424
827.462	3485
827.601	3412
827.741	3409
827.88	3458
828.02	3363
828.159	3450
828.298	3469
828.437	3549
828.577	3439
828.716	3564
828.855	3454
828.994	3409
829.134	3363
829.273	3363
829.412	3359
829.551	3329
829.69	3325
829.829	3386
829.968	3485
830.107	3443
830.246	3416
830.385	3367
830.524	3317
830.663	3298
830.802	3249
830.941	3203
831.08	3184
831.219	3264
831.357	3241
831.496	3359
831.635	3237
831.774	3207
831.913	3195
832.051	3112
832.19	3131
832.329	3165
832.467	3119
832.606	3085
832.744	3146
832.883	3146
833.022	3203
833.16	3268
833.299	3310
833.437	3321
833.576	3367
833.714	3405
833.852	3397
833.991	3439
834.129	3458
834.267	3428
834.406	3435
834.544	3386
834.682	3382
834.821	3401
834.959	3564
835.097	3405
835.235	3530
835.373	3439
835.511	3507
835.65	3424
835.788	3450
835.926	3370
836.064	3370
836.202	3397
836.34	3568
836.478	3572
836.615	3519
836.753	3542
836.891	3652
837.029	3599
837.167	3519
837.305	3572
837.443	3496
837.58	3458
837.718	3606
837.856	3530
837.993	3515
838.131	3561
838.269	3572
838.406	3576
838.544	3591
838.681	3469
838.819	3424
838.956	3359
839.094	3397
839.231	3409
839.369	3511
839.506	3720
839.643	3595
839.781	3462
839.918	3435
840.055	3530
840.193	3504
840.33	3492
840.467	3507
840.604	3572
840.742	3808
840.879	3534
841.016	3572
841.153	3564
841.29	3743
841.427	3690
841.564	3717
841.701	3717
841.838	3705
841.975	3648
842.112	3682
842.249	3629
842.385	3595
842.522	3823
842.659	3652
842.796	3629
842.933	3667
843.069	3656
843.206	3690
843.343	3759
843.479	3751
843.616	3800
843.752	3641
843.889	3625
844.025	3831
844.162	3663
844.298	3827
844.435	3800
844.571	3781
844.708	3926
844.844	3953
844.98	3975
845.117	4002
845.253	3911
845.389	3850
845.525	3964
845.661	3937
845.798	3918
845.934	3956
846.07	3926
846.206	4051
846.342	4116
846.478	4029
846.614	3934
846.75	3903
846.886	3888
847.022	4025
847.158	3983
847.294	4010
847.429	4010
847.565	3972
847.701	4211
847.837	3907
847.972	3804
848.108	3934
848.244	3926
848.379	3835
848.515	3747
848.65	3789
848.786	3785
848.921	3831
849.057	3903
849.192	3907
849.328	3865
849.463	3922
849.598	3884
849.734	3835
849.869	3800
850.004	3728
850.14	3804
850.275	3740
850.41	3728
850.545	3743
850.68	3762
850.815	3766
850.95	3766
851.085	3926
851.22	3850
851.355	3838
851.49	3789
851.625	3781
851.76	3759
851.895	3728
852.03	3705
852.165	3747
852.299	3831
852.434	3899
852.569	3816
852.703	3861
852.838	3892
852.973	3926
853.107	3956
853.242	3789
853.376	3827
853.511	3774
853.645	3831
853.78	3968
853.914	3857
854.048	3907
854.183	3869
854.317	3926
854.451	4063
854.585	3956
854.72	3880
854.854	4025
854.988	3918
855.122	4017
855.256	3899
855.39	4017
855.524	4124
855.658	4063
855.792	4074
855.926	4093
856.06	4135
856.194	4192
856.327	4124
856.461	4128
856.595	4086
856.729	4147
856.862	4310
856.996	4181
857.13	4268
857.263	4306
857.397	4363
857.53	4257
857.664	4284
857.797	4371
857.931	4443
858.064	4375
858.197	4398
858.331	4325
858.464	4363
858.597	4356
858.731	4436
858.864	4409
858.997	4428
859.13	4497
859.263	4542
859.396	4558
859.529	4523
859.662	4508
859.795	4516
859.928	4577
860.061	4733
860.194	4698
860.327	4691
860.46	4634
860.592	4683
860.725	4767
860.858	4771
860.99	4679
861.123	4687
861.256	4664
861.388	4774
861.521	5292
861.653	4763
861.786	4698
861.918	4752
862.05	4809
862.183	4828
862.315	4923
862.447	4900
862.58	4877
862.712	4805
862.844	4721
862.976	4885
863.108	4820
863.24	5223
863.372	4835
863.504	4892
863.636	4908
863.768	4972
863.9	4942
864.032	4889
864.164	4957
864.296	5014
864.428	5029
864.559	5105
864.691	5079
864.823	5075
864.954	5056
865.086	5109
865.217	5098
865.349	5083
865.48	5136
865.612	5185
865.743	5242
865.875	5189
866.006	5151
866.137	5239
866.269	5242
866.4	5189
866.531	5254
866.662	5277
866.793	5284
866.924	5261
867.055	5341
867.186	5337
867.317	5273
867.448	5258
867.579	5379
867.71	5372
867.841	5330
867.972	5421
868.103	5440
868.233	5448
868.364	5493
868.495	5520
868.625	5657
868.756	5805
868.886	5695
869.017	5695
869.147	5836
869.278	5844
869.408	5767
869.539	5828
869.669	5882
869.799	5897
869.929	5961
870.06	5984
870.19	6140
870.32	6197
870.45	6277
870.58	6311
870.71	6437
870.84	6391
870.97	6323
871.1	6380
871.23	6570
871.36	6730
871.489	6639
871.619	6779
871.749	6745
871.879	6821
872.008	6973
872.138	6905
872.267	7008
872.397	6993
872.526	7008
872.656	7061
872.785	7209
872.915	7301
873.044	7445
873.173	7540
873.303	7628
873.432	7704
873.561	7902
873.69	7955
873.819	8069
873.948	8088
874.077	8218
874.206	8229
874.335	8461
874.464	8621
874.593	8876
874.722	8804
874.851	9104
874.979	9150
875.108	9351
875.237	9386
875.365	9439
875.494	9679
875.623	9857
875.751	9842
875.88	9975
876.008	10158
876.136	10268
876.265	10470
876.393	10660
876.521	10744
876.65	10790
876.778	10816
876.906	10877
877.034	11018
877.162	11109
877.29	11132
877.418	11250
877.546	11296
877.674	11395
877.802	11444
877.93	11528
878.058	11547
878.185	11554
878.313	11604
878.441	11691
878.568	11611
878.696	11821
878.824	11904
878.951	11954
879.079	11977
879.206	12117
879.333	12026
879.461	11942
879.588	12076
879.715	11996
879.842	12239
879.97	11980
880.097	11870
880.224	11863
880.351	11863
880.478	11821
880.605	11885
880.732	11775
880.859	11946
880.986	11745
881.112	11942
881.239	11737
881.366	11615
881.493	11615
881.619	11471
881.746	11596
881.872	11554
881.999	11490
882.125	11501
882.252	11558
882.378	11501
882.505	11509
882.631	11383
882.757	11181
882.883	11307
883.01	11235
883.136	11231
883.262	11105
883.388	11052
883.514	11181
883.64	11075
883.766	11029
883.892	10972
884.018	10953
884.143	11075
884.269	11067
884.395	10835
884.52	10786
884.646	10790
884.772	10668
884.897	10691
885.023	10573
885.148	10687
885.274	10835
885.399	10683
885.524	10679
885.65	10588
885.775	10577
885.9	10512
886.025	10630
886.15	10531
886.275	10440
886.4	10341
886.525	10432
886.65	10337
886.775	10344
886.9	10451
887.025	10459
887.149	10306
887.274	10257
887.399	10188
887.523	10158
887.648	10090
887.773	10116
887.897	10318
888.021	10215
888.146	10078
888.27	10188
888.395	10185
888.519	10238
888.643	10131
888.767	10139
888.891	9964
889.015	10036
889.139	10097
889.263	9983
889.387	10067
889.511	10135
889.635	10101
889.759	10036
889.883	9941
890.006	9994
890.13	10044
890.254	9911
890.377	9937
890.501	9861
890.624	9895
890.748	9869
890.871	9717
890.995	9743
891.118	9690
891.241	9804
891.364	9774
891.488	9793
891.611	9713
891.734	9759
891.857	9709
891.98	9698
892.103	9808
892.226	9686
892.349	9682
892.471	9530
892.594	9572
892.717	9603
892.839	9526
892.962	9564
893.085	9675
893.207	9549
893.33	9496
893.452	9568
893.575	9519
893.697	9519
893.819	9660
893.941	9561
894.064	9557
894.186	9439
894.308	9401
894.43	9538
894.552	9538
894.674	9511
894.796	9355
894.918	9374
895.04	9325
895.161	9408
895.283	9329
895.405	9192
895.526	9310
895.648	9195
895.769	9165
895.891	9256
896.012	9230
896.134	9184
896.255	9165
896.376	9070
896.498	9142
896.619	9100
896.74	9062
896.861	9104
896.982	9214
897.103	9233
897.224	9157
897.345	9142
897.466	8975
897.587	9009
897.708	9058
897.828	8967
897.949	8948
898.07	8853
898.19	8891
898.311	9047
898.431	8910
898.552	8834
898.672	9001
898.792	8918
898.913	8838
899.033	8777
899.153	8750
899.273	8602
899.393	8667
899.513	8708
899.633	8754
899.753	8644
899.873	8640
899.993	8640
900.113	8617
900.232	8663
900.352	8625
900.472	8598
900.591	8514
900.711	8610
900.83	8537
900.95	8644
901.069	8655
901.189	8602
901.308	8457
901.427	8351
901.546	8404
901.665	8465
901.784	8476
901.904	8332
902.023	8279
902.141	8279
902.26	8183
902.379	8244
902.498	8218
902.617	8111
902.735	8256
902.854	8286
902.973	8237
903.091	8123
903.21	8084
903.328	8218
903.446	8073
903.565	8043
903.683	8058
903.801	8016
903.919	8123
904.038	8092
904.156	7982
904.274	8096
904.392	7993
904.51	7986
904.627	8031
904.745	8043
904.863	7997
904.981	7906
905.098	7860
905.216	7898
905.334	7986
905.451	7894
905.569	7845
905.686	7906
905.803	7890
905.921	7750
906.038	7841
906.155	7761
906.272	7712
906.389	7681
906.506	7712
906.623	7590
906.74	7586
906.857	7567
906.974	7563
907.091	7651
907.208	7700
907.324	7609
907.441	7578
907.557	7381
907.674	7422
907.79	7369
907.907	7384
908.023	7430
908.139	7415
908.256	7320
908.372	7396
908.488	7358
908.604	7263
908.72	7263
908.836	7232
908.952	7202
909.068	7209
909.184	7251
909.3	7225
909.415	7251
909.531	7293
909.647	7141
909.762	7031
909.878	7046
909.993	7129
910.108	7126
910.224	7080
910.339	7099
910.454	7027
910.57	6939
910.685	6913
910.8	7122
910.915	7129
911.03	7038
911.145	6878
911.259	6882
911.374	6856
911.489	6818
911.604	6753
911.718	6738
911.833	6684
911.947	6620
912.062	6608
912.176	6669
912.291	6662
912.405	6749
912.519	6787
912.633	6779
912.748	6730
912.862	6681
912.976	6578
913.09	6544
913.204	6566
913.318	6547
913.431	6623
913.545	6684
913.659	6642
913.772	6673
913.886	6532
914	6559
914.113	6532
914.226	6669
914.34	6532
914.453	6486
914.566	6589
914.68	6528
914.793	6551
914.906	6403
915.019	6414
915.132	6357
915.245	6380
915.358	6445
915.47	6410
915.583	6414
915.696	6494
915.809	6578
915.921	6528
916.034	6388
916.146	6422
916.259	6365
916.371	6437
916.483	6407
916.595	6391
916.708	6388
916.82	6414
916.932	6388
917.044	6403
917.156	6414
917.268	6346
917.38	6277
917.491	6289
917.603	6315
917.715	6365
917.826	6395
917.938	6327
918.049	6224
918.161	6315
918.272	6429
918.384	6388
918.495	6361
918.606	6232
918.717	6186
918.828	6247
918.939	6205
919.05	6186
919.161	6167
919.272	6102
919.383	6152
919.494	6281
919.604	6426
919.715	6285
919.826	6182
919.936	6281
920.047	6391
920.157	6258
920.267	6448
920.378	6357
920.488	6266
920.598	6445
920.708	6536
920.818	6433
920.928	6418
921.038	6525
921.148	6589
921.258	6346
921.368	6273
921.477	6228
921.587	6209
921.697	6022
921.806	6129
921.916	6041
922.025	5920
922.134	5901
922.244	5851
922.353	5950
922.462	5885
922.571	5832
922.68	5714
922.789	5676
922.898	5665
923.007	5642
923.116	5691
923.224	5623
923.333	5600
923.442	5596
923.55	5528
923.659	5581
923.767	5649
923.876	5524
923.984	5596
924.092	5482
924.201	5528
924.309	5547
924.417	5535
924.525	5459
924.633	5486
924.741	6239
924.849	5360
924.956	5482
925.064	5315
925.172	5250
925.279	5334
925.387	5315
925.494	5277
925.602	5429
925.709	5315
925.816	5223
925.924	5318
926.031	5337
926.138	5296
926.245	5318
926.352	5162
926.459	5235
926.566	5318
926.673	5170
926.779	5132
926.886	5102
926.993	5033
927.099	4942
927.206	4911
927.312	4949
927.419	5033
927.525	4995
927.631	4972
927.737	4900
927.843	4873
927.95	4778
928.056	4809
928.162	4820
928.267	4885
928.373	5254
928.479	4870
928.585	4664
928.69	4736
928.796	4763
928.901	4626
929.007	4607
929.112	4679
929.218	4618
929.323	4596
929.428	4573
929.533	4660
929.638	4508
929.743	4535
929.848	4546
929.953	4497
930.058	4405
930.163	4268
930.267	4314
930.372	4459
930.477	4303
930.581	4451
930.685	4329
930.79	4230
930.894	4268
930.998	4261
931.103	4424
931.207	4105
931.311	4120
931.415	4029
931.519	3899
931.623	3918
