Data from glass_V78500241_2745.txt Node
Date: Wed Sep 01 19:33:31 CST 2021
User: usil
Spectrometer: V785-0024
Trigger mode: 0
Integration Time (sec): 4.000000E-1
Scans to average: 1
Nonlinearity correction enabled: false
Boxcar width: 0
Storing dark spectrum: false
XAxis mode: Wavelengths
Number of Pixels in Spectrum: 1024
>>>>>Begin Spectral Data<<<<<
801.071	3751
801.214	3736
801.356	3747
801.499	3698
801.641	3682
801.783	3762
801.926	3835
802.068	3781
802.211	3808
802.353	3903
802.496	3831
802.638	3884
802.78	3922
802.923	3926
803.065	3876
803.208	3846
803.35	3846
803.492	3907
803.635	3888
803.777	3804
803.919	3888
804.061	4120
804.204	3926
804.346	3941
804.488	3880
804.63	4032
804.773	3968
804.915	4013
805.057	4169
805.199	4048
805.341	4059
805.483	4154
805.626	4128
805.768	4097
805.91	4215
806.052	4204
806.194	4207
806.336	4337
806.478	4188
806.62	4143
806.762	4204
806.904	4257
807.046	4322
807.188	4204
807.33	4109
807.472	4257
807.614	4204
807.756	4284
807.898	4188
808.04	4223
808.182	4265
808.324	4306
808.465	4352
808.607	4466
808.749	4421
808.891	4443
809.033	4523
809.174	4390
809.316	4211
809.458	4204
809.6	4158
809.741	4131
809.883	4192
810.025	4185
810.166	4192
810.308	4204
810.45	4177
810.591	4169
810.733	4253
810.875	4519
811.016	4816
811.158	5159
811.299	5280
811.441	5254
811.582	5056
811.724	4668
811.865	4459
812.007	4474
812.148	4417
812.29	4394
812.431	4390
812.573	4371
812.714	4379
812.855	4352
812.997	4398
813.138	4398
813.279	4421
813.421	4360
813.562	4367
813.703	4306
813.845	4322
813.986	4257
814.127	4211
814.268	4257
814.41	4287
814.551	4257
814.692	4303
814.833	4196
814.974	4268
815.115	4284
815.256	4242
815.397	4230
815.539	4291
815.68	4188
815.821	4211
815.962	4325
816.103	4246
816.244	4200
816.385	4223
816.526	4265
816.666	4234
816.807	4105
816.948	4139
817.089	4204
817.23	4147
817.371	4025
817.512	4017
817.653	4051
817.793	4006
817.934	4021
818.075	4090
818.216	4055
818.356	4112
818.497	4002
818.638	3907
818.778	3892
818.919	3911
819.06	3861
819.2	3934
819.341	3857
819.481	3823
819.622	3926
819.762	4002
819.903	3922
820.043	3857
820.184	3797
820.324	3823
820.465	3846
820.605	3823
820.746	3888
820.886	3797
821.026	3941
821.167	3899
821.307	3922
821.447	3953
821.588	3911
821.728	3941
821.868	3907
822.008	3808
822.149	3907
822.289	3907
822.429	3747
822.569	3770
822.709	3808
822.849	3720
822.99	3705
823.13	3755
823.27	3778
823.41	3671
823.55	3732
823.69	3713
823.83	3766
823.97	3641
824.11	3568
824.25	3584
824.389	3591
824.529	3663
824.669	3603
824.809	3698
824.949	3728
825.089	3732
825.228	3663
825.368	3557
825.508	3572
825.648	3564
825.787	3629
825.927	3599
826.067	3629
826.206	3641
826.346	3762
826.485	3857
826.625	3819
826.765	3926
826.904	3819
827.044	3614
827.183	3538
827.323	3389
827.462	3485
827.601	3397
827.741	3428
827.88	3443
828.02	3329
828.159	3447
828.298	3458
828.437	3515
828.577	3469
828.716	3584
828.855	3469
828.994	3374
829.134	3374
829.273	3397
829.412	3367
829.551	3325
829.69	3367
829.829	3439
829.968	3481
830.107	3431
830.246	3447
830.385	3374
830.524	3340
830.663	3287
830.802	3241
830.941	3192
831.08	3146
831.219	3264
831.357	3260
831.496	3409
831.635	3218
831.774	3195
831.913	3154
832.051	3131
832.19	3157
832.329	3195
832.467	3112
832.606	3138
832.744	3161
832.883	3135
833.022	3214
833.16	3233
833.299	3332
833.437	3306
833.576	3355
833.714	3370
833.852	3401
833.991	3450
834.129	3443
834.267	3431
834.406	3359
834.544	3431
834.682	3405
834.821	3412
834.959	3538
835.097	3367
835.235	3488
835.373	3462
835.511	3477
835.65	3447
835.788	3450
835.926	3378
836.064	3378
836.202	3386
836.34	3587
836.478	3622
836.615	3523
836.753	3553
836.891	3591
837.029	3618
837.167	3564
837.305	3549
837.443	3504
837.58	3481
837.718	3644
837.856	3500
837.993	3542
838.131	3587
838.269	3599
838.406	3618
838.544	3587
838.681	3447
838.819	3439
838.956	3374
839.094	3397
839.231	3431
839.369	3504
839.506	3705
839.643	3591
839.781	3450
839.918	3439
840.055	3496
840.193	3492
840.33	3504
840.467	3523
840.604	3606
840.742	3804
840.879	3500
841.016	3572
841.153	3580
841.29	3701
841.427	3720
841.564	3698
841.701	3785
841.838	3686
841.975	3652
842.112	3709
842.249	3618
842.385	3614
842.522	3804
842.659	3637
842.796	3660
842.933	3671
843.069	3694
843.206	3728
843.343	3827
843.479	3755
843.616	3789
843.752	3694
843.889	3682
844.025	3793
844.162	3724
844.298	3793
844.435	3766
844.571	3732
844.708	3854
844.844	3972
844.98	3994
845.117	3979
845.253	3941
845.389	3854
845.525	3873
845.661	3945
845.798	3915
845.934	3964
846.07	3941
846.206	4029
846.342	4074
846.478	4048
846.614	3987
846.75	3911
846.886	3896
847.022	3991
847.158	3945
847.294	3998
847.429	3991
847.565	3975
847.701	4188
847.837	3873
847.972	3838
848.108	3983
848.244	3953
848.379	3835
848.515	3770
848.65	3789
848.786	3873
848.921	3850
849.057	3888
849.192	3941
849.328	3880
849.463	3888
849.598	3857
849.734	3869
849.869	3835
850.004	3812
850.14	3781
850.275	3797
850.41	3720
850.545	3762
850.68	3797
850.815	3770
850.95	3762
851.085	3899
851.22	3857
851.355	3793
851.49	3724
851.625	3762
851.76	3766
851.895	3705
852.03	3732
852.165	3789
852.299	3854
852.434	3880
852.569	3888
852.703	3838
852.838	3899
852.973	3972
853.107	3941
853.242	3861
853.376	3823
853.511	3789
853.645	3827
853.78	3968
853.914	3865
854.048	3861
854.183	3850
854.317	3903
854.451	4048
854.585	3934
854.72	3941
854.854	4013
854.988	3918
855.122	4006
855.256	3930
855.39	4025
855.524	4093
855.658	4071
855.792	4090
855.926	4090
856.06	4112
856.194	4207
856.327	4112
856.461	4124
856.595	4116
856.729	4196
856.862	4200
856.996	4253
857.13	4249
857.263	4341
857.397	4314
857.53	4249
857.664	4322
857.797	4348
857.931	4421
858.064	4394
858.197	4470
858.331	4367
858.464	4375
858.597	4299
858.731	4447
858.864	4470
858.997	4470
859.13	4516
859.263	4527
859.396	4538
859.529	4478
859.662	4527
859.795	4500
859.928	4538
860.061	4687
860.194	4691
860.327	4615
860.46	4611
860.592	4668
860.725	4694
860.858	4736
860.99	4698
861.123	4645
861.256	4645
861.388	4797
861.521	5326
861.653	4729
861.786	4698
861.918	4725
862.05	4763
862.183	4839
862.315	4904
862.447	4949
862.58	4911
862.712	4774
862.844	4725
862.976	4892
863.108	4900
863.24	5246
863.372	4835
863.504	4892
863.636	4850
863.768	4976
863.9	4908
864.032	4915
864.164	4968
864.296	5018
864.428	5117
864.559	5105
864.691	5083
864.823	5098
864.954	5162
865.086	5090
865.217	5121
865.349	5022
865.48	5136
865.612	5181
865.743	5288
865.875	5174
866.006	5181
866.137	5250
866.269	5223
866.4	5246
866.531	5178
866.662	5204
866.793	5261
866.924	5311
867.055	5318
867.186	5326
867.317	5288
867.448	5288
867.579	5387
867.71	5387
867.841	5376
867.972	5448
868.103	5414
868.233	5505
868.364	5482
868.495	5512
868.625	5676
868.756	5752
868.886	5623
869.017	5699
869.147	5828
869.278	5828
869.408	5779
869.539	5809
869.669	5916
869.799	5912
869.929	5954
870.06	6041
870.19	6167
870.32	6140
870.45	6254
870.58	6262
870.71	6361
870.84	6517
870.97	6422
871.1	6380
871.23	6585
871.36	6692
871.489	6604
871.619	6715
871.749	6722
871.879	6829
872.008	6943
872.138	6943
872.267	6970
872.397	6954
872.526	7080
872.656	7076
872.785	7198
872.915	7346
873.044	7563
873.173	7601
873.303	7624
873.432	7677
873.561	7871
873.69	7955
873.819	8020
873.948	8195
874.077	8240
874.206	8328
874.335	8431
874.464	8632
874.593	8861
874.722	8925
874.851	9138
874.979	9214
875.108	9317
875.237	9443
875.365	9420
875.494	9633
875.623	9861
875.751	9785
875.88	9960
876.008	10177
876.136	10223
876.265	10474
876.393	10675
876.521	10694
876.65	10809
876.778	10881
876.906	10908
877.034	10949
877.162	11132
877.29	11140
877.418	11315
877.546	11368
877.674	11452
877.802	11360
877.93	11448
878.058	11516
878.185	11558
878.313	11649
878.441	11798
878.568	11619
878.696	11733
878.824	11874
878.951	11923
879.079	11969
879.206	12041
879.333	12068
879.461	12007
879.588	12076
879.715	12159
879.842	12194
879.97	12007
880.097	11855
880.224	11779
880.351	11889
880.478	11752
880.605	11908
880.732	11813
880.859	12049
880.986	11783
881.112	11851
881.239	11672
881.366	11604
881.493	11581
881.619	11562
881.746	11577
881.872	11482
881.999	11471
882.125	11471
882.252	11535
882.378	11505
882.505	11493
882.631	11311
882.757	11216
882.883	11292
883.01	11197
883.136	11284
883.262	11109
883.388	11056
883.514	11162
883.64	11094
883.766	11105
883.892	11010
884.018	11022
884.143	11056
884.269	11109
884.395	10824
884.52	10740
884.646	10771
884.772	10752
884.897	10645
885.023	10626
885.148	10748
885.274	10740
885.399	10694
885.524	10618
885.65	10565
885.775	10588
885.9	10554
886.025	10630
886.15	10497
886.275	10428
886.4	10375
886.525	10356
886.65	10360
886.775	10356
886.9	10481
887.025	10497
887.149	10341
887.274	10162
887.399	10200
887.523	10101
887.648	10105
887.773	10086
887.897	10162
888.021	10196
888.146	10154
888.27	10192
888.395	10154
888.519	10150
888.643	10204
888.767	10223
888.891	10048
889.015	10025
889.139	10051
889.263	10032
889.387	10116
889.511	10078
889.635	10036
889.759	9922
889.883	9960
890.006	9884
890.13	10101
890.254	9979
890.377	9918
890.501	9774
890.624	9869
890.748	9888
890.871	9793
890.995	9740
891.118	9732
891.241	9751
891.364	9701
891.488	9781
891.611	9701
891.734	9728
891.857	9751
891.98	9675
892.103	9717
892.226	9713
892.349	9652
892.471	9564
892.594	9584
892.717	9557
892.839	9545
892.962	9561
893.085	9587
893.207	9542
893.33	9519
893.452	9538
893.575	9625
893.697	9481
893.819	9641
893.941	9603
894.064	9526
894.186	9351
894.308	9367
894.43	9477
894.552	9614
894.674	9469
894.796	9279
894.918	9443
895.04	9336
895.161	9359
895.283	9393
895.405	9222
895.526	9283
895.648	9272
895.769	9165
895.891	9275
896.012	9249
896.134	9237
896.255	9214
896.376	9116
896.498	9142
896.619	9077
896.74	9077
896.861	9116
896.982	9176
897.103	9329
897.224	9169
897.345	9028
897.466	9013
897.587	9005
897.708	9119
897.828	8982
897.949	8925
898.07	8861
898.19	8895
898.311	8998
898.431	8880
898.552	8944
898.672	8933
898.792	8948
898.913	8914
899.033	8769
899.153	8724
899.273	8602
899.393	8697
899.513	8716
899.633	8701
899.753	8701
899.873	8651
899.993	8750
900.113	8636
900.232	8655
900.352	8587
900.472	8560
900.591	8632
900.711	8537
900.83	8495
900.95	8689
901.069	8594
901.189	8545
901.308	8450
901.427	8385
901.546	8469
901.665	8461
901.784	8492
901.904	8400
902.023	8290
902.141	8202
902.26	8168
902.379	8267
902.498	8218
902.617	8252
902.735	8313
902.854	8244
902.973	8225
903.091	8008
903.21	8100
903.328	8161
903.446	8130
903.565	8043
903.683	8107
903.801	8012
903.919	8115
904.038	8180
904.156	7982
904.274	8119
904.392	7967
904.51	8065
904.627	7989
904.745	8088
904.863	8069
904.981	7902
905.098	7864
905.216	7845
905.334	7947
905.451	7883
905.569	7849
905.686	7909
905.803	7814
905.921	7795
906.038	7887
906.155	7772
906.272	7693
906.389	7738
906.506	7620
906.623	7586
906.74	7563
906.857	7552
906.974	7537
907.091	7666
907.208	7681
907.324	7616
907.441	7529
907.557	7441
907.674	7426
907.79	7403
907.907	7362
908.023	7422
908.139	7411
908.256	7415
908.372	7373
908.488	7350
908.604	7236
908.72	7225
908.836	7282
908.952	7232
909.068	7270
909.184	7343
909.3	7263
909.415	7217
909.531	7312
909.647	7149
909.762	7133
909.878	7053
909.993	7110
910.108	7076
910.224	7118
910.339	7023
910.454	7031
910.57	7042
910.685	6913
910.8	7137
910.915	7076
911.03	7008
911.145	6833
911.259	6837
911.374	6886
911.489	6829
911.604	6833
911.718	6700
911.833	6715
911.947	6650
912.062	6597
912.176	6688
912.291	6703
912.405	6662
912.519	6814
912.633	6798
912.748	6749
912.862	6681
912.976	6532
913.09	6471
913.204	6563
913.318	6589
913.431	6612
913.545	6639
913.659	6741
913.772	6650
913.886	6604
914	6528
914.113	6604
914.226	6616
914.34	6597
914.453	6475
914.566	6616
914.68	6574
914.793	6555
914.906	6395
915.019	6410
915.132	6391
915.245	6448
915.358	6536
915.47	6407
915.583	6456
915.696	6460
915.809	6559
915.921	6502
916.034	6448
916.146	6369
916.259	6388
916.371	6426
916.483	6433
916.595	6384
916.708	6452
916.82	6422
916.932	6388
917.044	6422
917.156	6338
917.268	6285
917.38	6323
917.491	6338
917.603	6369
917.715	6361
917.826	6486
917.938	6285
918.049	6247
918.161	6311
918.272	6384
918.384	6437
918.495	6365
918.606	6220
918.717	6121
918.828	6289
918.939	6232
919.05	6060
919.161	6251
919.272	6091
919.383	6136
919.494	6251
919.604	6395
919.715	6209
919.826	6220
919.936	6235
920.047	6273
920.157	6213
920.267	6441
920.378	6285
920.488	6247
920.598	6403
920.708	6475
920.818	6502
920.928	6460
921.038	6551
921.148	6486
921.258	6292
921.368	6327
921.477	6190
921.587	6194
921.697	6064
921.806	6114
921.916	6060
922.025	5878
922.134	5939
922.244	5855
922.353	5866
922.462	5790
922.571	5783
922.68	5695
922.789	5703
922.898	5676
923.007	5611
923.116	5707
923.224	5691
923.333	5630
923.442	5627
923.55	5547
923.659	5558
923.767	5577
923.876	5486
923.984	5551
924.092	5493
924.201	5570
924.309	5528
924.417	5516
924.525	5452
924.633	5471
924.741	6243
924.849	5406
924.956	5474
925.064	5391
925.172	5277
925.279	5307
925.387	5406
925.494	5322
925.602	5436
925.709	5357
925.816	5246
925.924	5307
926.031	5322
926.138	5239
926.245	5296
926.352	5185
926.459	5311
926.566	5296
926.673	5185
926.779	5090
926.886	5128
926.993	5025
927.099	4995
927.206	4953
927.312	4934
927.419	4995
927.525	5006
927.631	5041
927.737	4877
927.843	4904
927.95	4771
928.056	4820
928.162	4858
928.267	4835
928.373	5296
928.479	4873
928.585	4698
928.69	4786
928.796	4790
928.901	4672
929.007	4596
929.112	4714
929.218	4618
929.323	4561
929.428	4580
929.533	4630
929.638	4504
929.743	4527
929.848	4516
929.953	4512
930.058	4421
930.163	4303
930.267	4314
930.372	4436
930.477	4310
930.581	4466
930.685	4333
930.79	4257
930.894	4253
930.998	4223
931.103	4325
931.207	4105
931.311	4048
931.415	4067
931.519	3907
931.623	3949
