Data from glass_V78500241_1663.txt Node
Date: Wed Sep 01 19:26:01 CST 2021
User: usil
Spectrometer: V785-0024
Trigger mode: 0
Integration Time (sec): 4.000000E-1
Scans to average: 1
Nonlinearity correction enabled: false
Boxcar width: 0
Storing dark spectrum: false
XAxis mode: Wavelengths
Number of Pixels in Spectrum: 1024
>>>>>Begin Spectral Data<<<<<
801.071	3701
801.214	3755
801.356	3724
801.499	3740
801.641	3770
801.783	3759
801.926	3838
802.068	3789
802.211	3876
802.353	3915
802.496	3797
802.638	3850
802.78	3903
802.923	3979
803.065	3896
803.208	3876
803.35	3888
803.492	3896
803.635	3918
803.777	3827
803.919	3937
804.061	4131
804.204	3949
804.346	3918
804.488	3953
804.63	4048
804.773	3972
804.915	4013
805.057	4185
805.199	4036
805.341	4036
805.483	4124
805.626	4131
805.768	4158
805.91	4192
806.052	4249
806.194	4200
806.336	4337
806.478	4196
806.62	4143
806.762	4200
806.904	4287
807.046	4337
807.188	4227
807.33	4162
807.472	4246
807.614	4166
807.756	4280
807.898	4215
808.04	4230
808.182	4272
808.324	4276
808.465	4371
808.607	4470
808.749	4443
808.891	4489
809.033	4489
809.174	4386
809.316	4291
809.458	4242
809.6	4150
809.741	4207
809.883	4128
810.025	4192
810.166	4185
810.308	4207
810.45	4265
810.591	4211
810.733	4246
810.875	4546
811.016	4763
811.158	5174
811.299	5258
811.441	5265
811.582	5048
811.724	4717
811.865	4512
812.007	4462
812.148	4447
812.29	4405
812.431	4348
812.573	4405
812.714	4413
812.855	4421
812.997	4402
813.138	4500
813.279	4371
813.421	4363
813.562	4348
813.703	4272
813.845	4333
813.986	4234
814.127	4257
814.268	4314
814.41	4276
814.551	4230
814.692	4291
814.833	4265
814.974	4314
815.115	4322
815.256	4253
815.397	4227
815.539	4261
815.68	4219
815.821	4185
815.962	4329
816.103	4284
816.244	4268
816.385	4238
816.526	4306
816.666	4211
816.807	4063
816.948	4166
817.089	4196
817.23	4150
817.371	4078
817.512	4048
817.653	4112
817.793	4017
817.934	4032
818.075	4090
818.216	4086
818.356	4086
818.497	4002
818.638	3945
818.778	3922
818.919	3915
819.06	3888
819.2	3968
819.341	3865
819.481	3857
819.622	3949
819.762	4010
819.903	3930
820.043	3842
820.184	3781
820.324	3816
820.465	3861
820.605	3857
820.746	3884
820.886	3770
821.026	3953
821.167	3903
821.307	3949
821.447	4006
821.588	3972
821.728	3953
821.868	3949
822.008	3869
822.149	3922
822.289	3896
822.429	3789
822.569	3774
822.709	3800
822.849	3698
822.99	3732
823.13	3724
823.27	3770
823.41	3743
823.55	3778
823.69	3671
823.83	3759
823.97	3663
824.11	3610
824.25	3618
824.389	3637
824.529	3629
824.669	3610
824.809	3713
824.949	3797
825.089	3778
825.228	3701
825.368	3580
825.508	3549
825.648	3507
825.787	3637
825.927	3633
826.067	3629
826.206	3682
826.346	3816
826.485	3854
826.625	3850
826.765	3979
826.904	3869
827.044	3568
827.183	3542
827.323	3443
827.462	3507
827.601	3424
827.741	3397
827.88	3488
828.02	3363
828.159	3454
828.298	3519
828.437	3507
828.577	3492
828.716	3622
828.855	3450
828.994	3401
829.134	3420
829.273	3351
829.412	3370
829.551	3378
829.69	3370
829.829	3420
829.968	3545
830.107	3416
830.246	3443
830.385	3382
830.524	3302
830.663	3310
830.802	3249
830.941	3192
831.08	3195
831.219	3272
831.357	3287
831.496	3431
831.635	3199
831.774	3207
831.913	3214
832.051	3165
832.19	3173
832.329	3195
832.467	3116
832.606	3138
832.744	3195
832.883	3192
833.022	3188
833.16	3241
833.299	3268
833.437	3317
833.576	3393
833.714	3378
833.852	3409
833.991	3443
834.129	3428
834.267	3420
834.406	3409
834.544	3382
834.682	3450
834.821	3420
834.959	3606
835.097	3416
835.235	3523
835.373	3511
835.511	3492
835.65	3466
835.788	3477
835.926	3386
836.064	3367
836.202	3416
836.34	3587
836.478	3614
836.615	3504
836.753	3561
836.891	3679
837.029	3603
837.167	3637
837.305	3523
837.443	3549
837.58	3477
837.718	3595
837.856	3526
837.993	3561
838.131	3629
838.269	3622
838.406	3610
838.544	3606
838.681	3462
838.819	3500
838.956	3389
839.094	3389
839.231	3477
839.369	3519
839.506	3709
839.643	3652
839.781	3511
839.918	3450
840.055	3538
840.193	3538
840.33	3515
840.467	3545
840.604	3603
840.742	3835
840.879	3549
841.016	3538
841.153	3603
841.29	3774
841.427	3766
841.564	3724
841.701	3762
841.838	3717
841.975	3660
842.112	3736
842.249	3663
842.385	3641
842.522	3850
842.659	3656
842.796	3713
842.933	3698
843.069	3667
843.206	3766
843.343	3838
843.479	3781
843.616	3827
843.752	3671
843.889	3675
844.025	3842
844.162	3736
844.298	3869
844.435	3785
844.571	3781
844.708	3903
844.844	3991
844.98	4048
845.117	4006
845.253	3922
845.389	3907
845.525	3941
845.661	3956
845.798	3945
845.934	3968
846.07	3949
846.206	4055
846.342	4124
846.478	4082
846.614	3937
846.75	3945
846.886	3911
847.022	4048
847.158	3994
847.294	3979
847.429	3991
847.565	4036
847.701	4234
847.837	3888
847.972	3873
848.108	4010
848.244	3998
848.379	3869
848.515	3812
848.65	3819
848.786	3838
848.921	3850
849.057	3892
849.192	3956
849.328	3922
849.463	3918
849.598	3899
849.734	3854
849.869	3812
850.004	3785
850.14	3808
850.275	3808
850.41	3743
850.545	3766
850.68	3778
850.815	3778
850.95	3778
851.085	3975
851.22	3819
851.355	3816
851.49	3778
851.625	3854
851.76	3781
851.895	3751
852.03	3713
852.165	3755
852.299	3850
852.434	3880
852.569	3873
852.703	3888
852.838	3941
852.973	4013
853.107	3937
853.242	3873
853.376	3850
853.511	3793
853.645	3812
853.78	3994
853.914	3888
854.048	3842
854.183	3896
854.317	3987
854.451	4036
854.585	3972
854.72	3941
854.854	4044
854.988	3922
855.122	4006
855.256	3930
855.39	4006
855.524	4078
855.658	4074
855.792	4086
855.926	4112
856.06	4173
856.194	4181
856.327	4124
856.461	4124
856.595	4101
856.729	4173
856.862	4246
856.996	4257
857.13	4322
857.263	4348
857.397	4383
857.53	4303
857.664	4325
857.797	4379
857.931	4394
858.064	4443
858.197	4383
858.331	4409
858.464	4386
858.597	4333
858.731	4436
858.864	4459
858.997	4424
859.13	4516
859.263	4516
859.396	4561
859.529	4500
859.662	4538
859.795	4500
859.928	4630
860.061	4656
860.194	4755
860.327	4687
860.46	4577
860.592	4805
860.725	4778
860.858	4767
860.99	4672
861.123	4637
861.256	4725
861.388	4820
861.521	5383
861.653	4710
861.786	4660
861.918	4702
862.05	4763
862.183	4835
862.315	4923
862.447	4957
862.58	4850
862.712	4812
862.844	4744
862.976	4854
863.108	4858
863.24	5250
863.372	4854
863.504	4873
863.636	4957
863.768	4995
863.9	4927
864.032	4911
864.164	4980
864.296	5041
864.428	5025
864.559	5105
864.691	5075
864.823	5178
864.954	5102
865.086	5136
865.217	5170
865.349	5121
865.48	5128
865.612	5162
865.743	5337
865.875	5201
866.006	5242
866.137	5254
866.269	5242
866.4	5216
866.531	5220
866.662	5265
866.793	5258
866.924	5269
867.055	5311
867.186	5315
867.317	5334
867.448	5341
867.579	5398
867.71	5376
867.841	5379
867.972	5490
868.103	5452
868.233	5471
868.364	5463
868.495	5497
868.625	5688
868.756	5805
868.886	5634
869.017	5745
869.147	5828
869.278	5859
869.408	5798
869.539	5863
869.669	5904
869.799	5942
869.929	5866
870.06	5969
870.19	6114
870.32	6205
870.45	6277
870.58	6342
870.71	6471
870.84	6445
870.97	6399
871.1	6448
871.23	6608
871.36	6654
871.489	6662
871.619	6776
871.749	6833
871.879	6913
872.008	6939
872.138	7004
872.267	6993
872.397	6954
872.526	6996
872.656	7076
872.785	7198
872.915	7384
873.044	7548
873.173	7559
873.303	7632
873.432	7788
873.561	7894
873.69	7925
873.819	7986
873.948	8176
874.077	8195
874.206	8256
874.335	8377
874.464	8640
874.593	8910
874.722	8982
874.851	9176
874.979	9214
875.108	9389
875.237	9443
875.365	9504
875.494	9667
875.623	9819
875.751	9857
875.88	10006
876.008	10185
876.136	10265
876.265	10554
876.393	10736
876.521	10706
876.65	10820
876.778	10873
876.906	10915
877.034	11010
877.162	11140
877.29	11136
877.418	11356
877.546	11322
877.674	11452
877.802	11444
877.93	11444
878.058	11493
878.185	11596
878.313	11672
878.441	11764
878.568	11630
878.696	11824
878.824	11908
878.951	11908
879.079	11935
879.206	12121
879.333	12148
879.461	11992
879.588	12072
879.715	12026
879.842	12171
879.97	12003
880.097	11904
880.224	11882
880.351	11901
880.478	11954
880.605	11817
880.732	11828
880.859	11988
880.986	11836
881.112	11821
881.239	11684
881.366	11649
881.493	11596
881.619	11623
881.746	11646
881.872	11547
881.999	11516
882.125	11490
882.252	11535
882.378	11516
882.505	11562
882.631	11463
882.757	11265
882.883	11277
883.01	11303
883.136	11246
883.262	11098
883.388	11029
883.514	11189
883.64	11155
883.766	11079
883.892	10995
884.018	11037
884.143	11045
884.269	11048
884.395	10843
884.52	10710
884.646	10786
884.772	10733
884.897	10664
885.023	10763
885.148	10664
885.274	10752
885.399	10809
885.524	10630
885.65	10626
885.775	10656
885.9	10554
886.025	10615
886.15	10569
886.275	10459
886.4	10356
886.525	10470
886.65	10303
886.775	10382
886.9	10485
887.025	10508
887.149	10371
887.274	10215
887.399	10284
887.523	10120
887.648	10192
887.773	10105
887.897	10211
888.021	10306
888.146	10120
888.27	10276
888.395	10192
888.519	10185
888.643	10196
888.767	10173
888.891	10055
889.015	10032
889.139	10013
889.263	9975
889.387	10055
889.511	10090
889.635	10071
889.759	10006
889.883	9895
890.006	9934
890.13	10063
890.254	9941
890.377	9972
890.501	9922
890.624	9819
890.748	9899
890.871	9835
890.995	9740
891.118	9694
891.241	9789
891.364	9709
891.488	9751
891.611	9770
891.734	9732
891.857	9838
891.98	9759
892.103	9766
892.226	9701
892.349	9663
892.471	9614
892.594	9641
892.717	9675
892.839	9610
892.962	9507
893.085	9682
893.207	9591
893.33	9534
893.452	9553
893.575	9675
893.697	9530
893.819	9637
893.941	9568
894.064	9622
894.186	9454
894.308	9447
894.43	9576
894.552	9599
894.674	9526
894.796	9393
894.918	9386
895.04	9348
895.161	9374
895.283	9344
895.405	9332
895.526	9253
895.648	9256
895.769	9249
895.891	9165
896.012	9249
896.134	9203
896.255	9192
896.376	9081
896.498	9146
896.619	9131
896.74	9043
896.861	9161
896.982	9241
897.103	9351
897.224	9188
897.345	9017
897.466	8956
897.587	9009
897.708	9104
897.828	9039
897.949	8937
898.07	8952
898.19	8918
898.311	8998
898.431	8883
898.552	8952
898.672	8941
898.792	9005
898.913	8857
899.033	8796
899.153	8754
899.273	8606
899.393	8754
899.513	8746
899.633	8689
899.753	8731
899.873	8644
899.993	8727
900.113	8625
900.232	8739
900.352	8617
900.472	8640
900.591	8514
900.711	8587
900.83	8541
900.95	8659
901.069	8651
901.189	8590
901.308	8404
901.427	8438
901.546	8427
901.665	8415
901.784	8484
901.904	8454
902.023	8328
902.141	8259
902.26	8214
902.379	8309
902.498	8164
902.617	8168
902.735	8317
902.854	8332
902.973	8199
903.091	8138
903.21	8115
903.328	8218
903.446	8069
903.565	8008
903.683	8081
903.801	8092
903.919	8058
904.038	8164
904.156	8065
904.274	8142
904.392	7959
904.51	8016
904.627	8035
904.745	8073
904.863	8115
904.981	7864
905.098	7830
905.216	7826
905.334	7871
905.451	7925
905.569	7856
905.686	7959
905.803	7917
905.921	7799
906.038	7883
906.155	7738
906.272	7704
906.389	7727
906.506	7632
906.623	7609
906.74	7632
906.857	7548
906.974	7529
907.091	7632
907.208	7700
907.324	7636
907.441	7563
907.557	7449
907.674	7400
907.79	7362
907.907	7441
908.023	7445
908.139	7407
908.256	7377
908.372	7369
908.488	7289
908.604	7194
908.72	7225
908.836	7316
908.952	7236
909.068	7289
909.184	7350
909.3	7221
909.415	7263
909.531	7270
909.647	7156
909.762	7145
909.878	7012
909.993	7107
910.108	7091
910.224	7015
910.339	7107
910.454	7042
910.57	7076
910.685	6973
910.8	7129
910.915	7114
911.03	7038
911.145	6878
911.259	6886
911.374	6890
911.489	6833
911.604	6791
911.718	6692
911.833	6738
911.947	6700
912.062	6578
912.176	6677
912.291	6692
912.405	6734
912.519	6844
912.633	6722
912.748	6665
912.862	6684
912.976	6574
913.09	6544
913.204	6597
913.318	6616
913.431	6692
913.545	6696
913.659	6642
913.772	6650
913.886	6593
914	6566
914.113	6681
914.226	6616
914.34	6639
914.453	6414
914.566	6608
914.68	6494
914.793	6506
914.906	6395
915.019	6452
915.132	6391
915.245	6418
915.358	6433
915.47	6467
915.583	6422
915.696	6475
915.809	6486
915.921	6608
916.034	6456
916.146	6407
916.259	6369
916.371	6448
916.483	6448
916.595	6350
916.708	6353
916.82	6452
916.932	6361
917.044	6350
917.156	6441
917.268	6319
917.38	6331
917.491	6277
917.603	6346
917.715	6391
917.826	6384
917.938	6319
918.049	6292
918.161	6266
918.272	6460
918.384	6414
918.495	6350
918.606	6228
918.717	6194
918.828	6254
918.939	6270
919.05	6194
919.161	6243
919.272	6106
919.383	6197
919.494	6273
919.604	6494
919.715	6224
919.826	6186
919.936	6205
920.047	6331
920.157	6258
920.267	6395
920.378	6270
920.488	6300
920.598	6410
920.708	6547
920.818	6467
920.928	6486
921.038	6620
921.148	6555
921.258	6300
921.368	6304
921.477	6197
921.587	6129
921.697	6121
921.806	6201
921.916	6095
922.025	5980
922.134	5923
922.244	5882
922.353	5958
922.462	5904
922.571	5866
922.68	5710
922.789	5699
922.898	5733
923.007	5611
923.116	5627
923.224	5707
923.333	5592
923.442	5638
923.55	5566
923.659	5585
923.767	5634
923.876	5547
923.984	5627
924.092	5524
924.201	5547
924.309	5532
924.417	5520
924.525	5486
924.633	5452
924.741	6281
924.849	5349
924.956	5455
925.064	5368
925.172	5337
925.279	5345
925.387	5349
925.494	5353
925.602	5410
925.709	5387
925.816	5277
925.924	5318
926.031	5353
926.138	5318
926.245	5318
926.352	5265
926.459	5296
926.566	5345
926.673	5197
926.779	5132
926.886	5124
926.993	5018
927.099	5041
927.206	4995
927.312	4984
927.419	5003
927.525	4995
927.631	4987
927.737	4908
927.843	4812
927.95	4774
928.056	4816
928.162	4847
928.267	4881
928.373	5364
928.479	4847
928.585	4675
928.69	4790
928.796	4816
928.901	4656
929.007	4573
929.112	4679
929.218	4637
929.323	4611
929.428	4569
929.533	4618
929.638	4535
929.743	4523
929.848	4558
929.953	4462
930.058	4386
930.163	4360
930.267	4352
930.372	4470
930.477	4295
930.581	4462
930.685	4371
930.79	4265
930.894	4325
930.998	4185
931.103	4398
931.207	4135
931.311	4078
931.415	4074
931.519	3956
931.623	3945
