Data from glass_V78500241_2387.txt Node
Date: Wed Sep 01 19:31:02 CST 2021
User: usil
Spectrometer: V785-0024
Trigger mode: 0
Integration Time (sec): 4.000000E-1
Scans to average: 1
Nonlinearity correction enabled: false
Boxcar width: 0
Storing dark spectrum: false
XAxis mode: Wavelengths
Number of Pixels in Spectrum: 1024
>>>>>Begin Spectral Data<<<<<
801.071	3740
801.214	3740
801.356	3717
801.499	3759
801.641	3724
801.783	3736
801.926	3869
802.068	3819
802.211	3865
802.353	3899
802.496	3823
802.638	3873
802.78	3892
802.923	3930
803.065	3888
803.208	3865
803.35	3850
803.492	3903
803.635	3907
803.777	3793
803.919	3918
804.061	4147
804.204	3953
804.346	3968
804.488	3911
804.63	4055
804.773	3964
804.915	3991
805.057	4124
805.199	3983
805.341	4071
805.483	4128
805.626	4135
805.768	4101
805.91	4192
806.052	4211
806.194	4196
806.336	4268
806.478	4246
806.62	4139
806.762	4143
806.904	4227
807.046	4306
807.188	4196
807.33	4162
807.472	4200
807.614	4204
807.756	4299
807.898	4211
808.04	4192
808.182	4257
808.324	4291
808.465	4360
808.607	4443
808.749	4409
808.891	4462
809.033	4519
809.174	4421
809.316	4284
809.458	4257
809.6	4097
809.741	4139
809.883	4143
810.025	4173
810.166	4207
810.308	4150
810.45	4219
810.591	4238
810.733	4261
810.875	4519
811.016	4790
811.158	5128
811.299	5265
811.441	5299
811.582	5025
811.724	4698
811.865	4489
812.007	4459
812.148	4440
812.29	4375
812.431	4398
812.573	4424
812.714	4356
812.855	4375
812.997	4371
813.138	4432
813.279	4413
813.421	4402
813.562	4337
813.703	4360
813.845	4295
813.986	4249
814.127	4246
814.268	4242
814.41	4272
814.551	4242
814.692	4303
814.833	4306
814.974	4287
815.115	4322
815.256	4306
815.397	4246
815.539	4249
815.68	4192
815.821	4234
815.962	4318
816.103	4265
816.244	4238
816.385	4242
816.526	4284
816.666	4200
816.807	4135
816.948	4181
817.089	4169
817.23	4112
817.371	4048
817.512	4032
817.653	3994
817.793	4021
817.934	4006
818.075	4112
818.216	4063
818.356	4074
818.497	3983
818.638	3907
818.778	3911
818.919	3873
819.06	3827
819.2	3907
819.341	3838
819.481	3861
819.622	3907
819.762	4006
819.903	3922
820.043	3876
820.184	3781
820.324	3755
820.465	3915
820.605	3861
820.746	3865
820.886	3774
821.026	3956
821.167	3876
821.307	3941
821.447	3956
821.588	3956
821.728	3941
821.868	3945
822.008	3854
822.149	3835
822.289	3903
822.429	3774
822.569	3759
822.709	3770
822.849	3663
822.99	3766
823.13	3766
823.27	3751
823.41	3705
823.55	3701
823.69	3713
823.83	3728
823.97	3641
824.11	3606
824.25	3576
824.389	3637
824.529	3694
824.669	3637
824.809	3698
824.949	3720
825.089	3724
825.228	3728
825.368	3542
825.508	3606
825.648	3526
825.787	3595
825.927	3625
826.067	3629
826.206	3652
826.346	3751
826.485	3835
826.625	3842
826.765	3941
826.904	3812
827.044	3622
827.183	3542
827.323	3405
827.462	3523
827.601	3466
827.741	3393
827.88	3374
828.02	3386
828.159	3424
828.298	3473
828.437	3530
828.577	3466
828.716	3618
828.855	3496
828.994	3355
829.134	3382
829.273	3382
829.412	3370
829.551	3348
829.69	3370
829.829	3397
829.968	3545
830.107	3416
830.246	3431
830.385	3378
830.524	3332
830.663	3298
830.802	3256
830.941	3214
831.08	3188
831.219	3226
831.357	3249
831.496	3382
831.635	3249
831.774	3150
831.913	3195
832.051	3081
832.19	3119
832.329	3184
832.467	3165
832.606	3112
832.744	3157
832.883	3165
833.022	3214
833.16	3260
833.299	3245
833.437	3317
833.576	3378
833.714	3378
833.852	3378
833.991	3454
834.129	3496
834.267	3488
834.406	3401
834.544	3359
834.682	3412
834.821	3389
834.959	3538
835.097	3428
835.235	3542
835.373	3469
835.511	3507
835.65	3466
835.788	3485
835.926	3378
836.064	3340
836.202	3431
836.34	3557
836.478	3599
836.615	3530
836.753	3587
836.891	3614
837.029	3644
837.167	3523
837.305	3561
837.443	3523
837.58	3496
837.718	3637
837.856	3584
837.993	3515
838.131	3584
838.269	3580
838.406	3542
838.544	3557
838.681	3469
838.819	3412
838.956	3389
839.094	3367
839.231	3397
839.369	3530
839.506	3690
839.643	3603
839.781	3519
839.918	3439
840.055	3488
840.193	3523
840.33	3477
840.467	3538
840.604	3614
840.742	3797
840.879	3572
841.016	3599
841.153	3622
841.29	3755
841.427	3701
841.564	3724
841.701	3717
841.838	3690
841.975	3641
842.112	3667
842.249	3629
842.385	3606
842.522	3816
842.659	3701
842.796	3698
842.933	3694
843.069	3686
843.206	3656
843.343	3816
843.479	3785
843.616	3808
843.752	3682
843.889	3717
844.025	3861
844.162	3679
844.298	3827
844.435	3789
844.571	3838
844.708	3869
844.844	3994
844.98	3994
845.117	3991
845.253	3918
845.389	3918
845.525	3953
845.661	3994
845.798	3911
845.934	3991
846.07	3922
846.206	4017
846.342	4124
846.478	4032
846.614	3949
846.75	3945
846.886	3892
847.022	4044
847.158	3975
847.294	3991
847.429	4006
847.565	3953
847.701	4211
847.837	3854
847.972	3846
848.108	3987
848.244	3930
848.379	3857
848.515	3804
848.65	3789
848.786	3850
848.921	3831
849.057	3934
849.192	3922
849.328	3899
849.463	3926
849.598	3873
849.734	3896
849.869	3831
850.004	3759
850.14	3797
850.275	3785
850.41	3713
850.545	3732
850.68	3759
850.815	3800
850.95	3736
851.085	3945
851.22	3835
851.355	3793
851.49	3743
851.625	3774
851.76	3804
851.895	3717
852.03	3686
852.165	3812
852.299	3850
852.434	3907
852.569	3842
852.703	3873
852.838	3972
852.973	3956
853.107	3964
853.242	3850
853.376	3907
853.511	3766
853.645	3835
853.78	3937
853.914	3876
854.048	3857
854.183	3854
854.317	3934
854.451	4017
854.585	3934
854.72	3941
854.854	4063
854.988	3949
855.122	3972
855.256	3911
855.39	3975
855.524	4109
855.658	4051
855.792	4112
855.926	4112
856.06	4086
856.194	4223
856.327	4120
856.461	4044
856.595	4154
856.729	4211
856.862	4242
856.996	4223
857.13	4333
857.263	4325
857.397	4341
857.53	4291
857.664	4371
857.797	4390
857.931	4405
858.064	4440
858.197	4428
858.331	4379
858.464	4390
858.597	4333
858.731	4462
858.864	4443
858.997	4462
859.13	4481
859.263	4516
859.396	4596
859.529	4504
859.662	4531
859.795	4538
859.928	4596
860.061	4729
860.194	4752
860.327	4664
860.46	4660
860.592	4698
860.725	4752
860.858	4748
860.99	4702
861.123	4645
861.256	4710
861.388	4797
861.521	5478
861.653	4706
861.786	4691
861.918	4664
862.05	4885
862.183	4763
862.315	4904
862.447	4908
862.58	4812
862.712	4774
862.844	4744
862.976	4873
863.108	4847
863.24	5242
863.372	4885
863.504	4885
863.636	4930
863.768	4980
863.9	4968
864.032	4915
864.164	4953
864.296	5010
864.428	5071
864.559	5083
864.691	5086
864.823	5105
864.954	5075
865.086	5109
865.217	5128
865.349	5086
865.48	5140
865.612	5143
865.743	5315
865.875	5208
866.006	5204
866.137	5212
866.269	5220
866.4	5201
866.531	5220
866.662	5223
866.793	5246
866.924	5265
867.055	5326
867.186	5299
867.317	5292
867.448	5277
867.579	5364
867.71	5368
867.841	5379
867.972	5471
868.103	5463
868.233	5440
868.364	5490
868.495	5516
868.625	5688
868.756	5752
868.886	5699
869.017	5691
869.147	5824
869.278	5844
869.408	5809
869.539	5851
869.669	5889
869.799	5912
869.929	5965
870.06	5980
870.19	6232
870.32	6220
870.45	6247
870.58	6315
870.71	6407
870.84	6391
870.97	6357
871.1	6479
871.23	6642
871.36	6711
871.489	6604
871.619	6734
871.749	6818
871.879	6875
872.008	6954
872.138	6954
872.267	6977
872.397	6981
872.526	6973
872.656	7084
872.785	7255
872.915	7396
873.044	7521
873.173	7586
873.303	7586
873.432	7814
873.561	7799
873.69	7909
873.819	8054
873.948	8168
874.077	8248
874.206	8290
874.335	8400
874.464	8670
874.593	8921
874.722	8944
874.851	9116
874.979	9222
875.108	9397
875.237	9393
875.365	9515
875.494	9694
875.623	9804
875.751	9850
875.88	10006
876.008	10166
876.136	10242
876.265	10596
876.393	10729
876.521	10725
876.65	10828
876.778	10889
876.906	10987
877.034	10976
877.162	11140
877.29	11098
877.418	11277
877.546	11379
877.674	11486
877.802	11398
877.93	11581
878.058	11551
878.185	11566
878.313	11627
878.441	11783
878.568	11611
878.696	11843
878.824	11809
878.951	11813
879.079	11988
879.206	12152
879.333	12007
879.461	12022
879.588	12064
879.715	12026
879.842	12197
879.97	12091
880.097	11878
880.224	11817
880.351	11897
880.478	11897
880.605	11942
880.732	11802
880.859	12057
880.986	11840
881.112	11927
881.239	11665
881.366	11710
881.493	11604
881.619	11551
881.746	11516
881.872	11573
881.999	11505
882.125	11463
882.252	11547
882.378	11520
882.505	11490
882.631	11402
882.757	11292
882.883	11318
883.01	11181
883.136	11189
883.262	11083
883.388	11121
883.514	11189
883.64	11090
883.766	11041
883.892	11010
884.018	10957
884.143	10984
884.269	11052
884.395	10866
884.52	10790
884.646	10778
884.772	10752
884.897	10679
885.023	10725
885.148	10729
885.274	10801
885.399	10698
885.524	10706
885.65	10615
885.775	10588
885.9	10485
886.025	10573
886.15	10535
886.275	10424
886.4	10413
886.525	10367
886.65	10455
886.775	10257
886.9	10451
887.025	10512
887.149	10447
887.274	10227
887.399	10227
887.523	10135
887.648	10105
887.773	10074
887.897	10287
888.021	10227
888.146	10128
888.27	10242
888.395	10154
888.519	10169
888.643	10192
888.767	10166
888.891	10067
889.015	10063
889.139	9987
889.263	9972
889.387	10059
889.511	10071
889.635	10036
889.759	9960
889.883	10002
890.006	10013
890.13	10109
890.254	9994
890.377	9911
890.501	9846
890.624	9884
890.748	9850
890.871	9770
890.995	9781
891.118	9656
891.241	9812
891.364	9652
891.488	9793
891.611	9743
891.734	9720
891.857	9747
891.98	9732
892.103	9713
892.226	9724
892.349	9675
892.471	9591
892.594	9644
892.717	9622
892.839	9549
892.962	9595
893.085	9618
893.207	9542
893.33	9473
893.452	9534
893.575	9603
893.697	9435
893.819	9629
893.941	9587
894.064	9564
894.186	9378
894.308	9374
894.43	9568
894.552	9572
894.674	9496
894.796	9321
894.918	9408
895.04	9291
895.161	9332
895.283	9275
895.405	9256
895.526	9253
895.648	9214
895.769	9211
895.891	9233
896.012	9317
896.134	9157
896.255	9169
896.376	9165
896.498	9135
896.619	9070
896.74	9081
896.861	9028
896.982	9279
897.103	9363
897.224	9138
897.345	9017
897.466	9032
897.587	9020
897.708	9093
897.828	9062
897.949	9020
898.07	8853
898.19	8975
898.311	8956
898.431	8887
898.552	8895
898.672	8929
898.792	8948
898.913	8880
899.033	8750
899.153	8769
899.273	8659
899.393	8651
899.513	8720
899.633	8720
899.753	8716
899.873	8693
899.993	8701
900.113	8731
900.232	8708
900.352	8636
900.472	8636
900.591	8530
900.711	8621
900.83	8571
900.95	8651
901.069	8727
901.189	8461
901.308	8484
901.427	8358
901.546	8450
901.665	8454
901.784	8499
901.904	8351
902.023	8362
902.141	8248
902.26	8244
902.379	8225
902.498	8153
902.617	8191
902.735	8259
902.854	8225
902.973	8290
903.091	8107
903.21	8138
903.328	8149
903.446	8077
903.565	8035
903.683	8142
903.801	8035
903.919	8153
904.038	8145
904.156	8054
904.274	8031
904.392	8058
904.51	8016
904.627	8065
904.745	8069
904.863	8058
904.981	7917
905.098	7868
905.216	7879
905.334	7883
905.451	7898
905.569	7871
905.686	7947
905.803	7879
905.921	7830
906.038	7883
906.155	7772
906.272	7696
906.389	7731
906.506	7681
906.623	7575
906.74	7533
906.857	7502
906.974	7529
907.091	7620
907.208	7780
907.324	7628
907.441	7510
907.557	7476
907.674	7396
907.79	7449
907.907	7396
908.023	7449
908.139	7468
908.256	7403
908.372	7362
908.488	7327
908.604	7270
908.72	7263
908.836	7251
908.952	7209
909.068	7236
909.184	7335
909.3	7240
909.415	7240
909.531	7263
909.647	7179
909.762	7114
909.878	7145
909.993	7122
910.108	7057
910.224	7088
910.339	7118
910.454	6985
910.57	6977
910.685	6981
910.8	7187
910.915	7088
911.03	7012
911.145	6871
911.259	6913
911.374	6878
911.489	6844
911.604	6772
911.718	6741
911.833	6776
911.947	6604
912.062	6646
912.176	6688
912.291	6700
912.405	6684
912.519	6840
912.633	6844
912.748	6798
912.862	6681
912.976	6604
913.09	6544
913.204	6604
913.318	6536
913.431	6654
913.545	6597
913.659	6650
913.772	6654
913.886	6559
914	6479
914.113	6566
914.226	6665
914.34	6627
914.453	6525
914.566	6574
914.68	6509
914.793	6441
914.906	6369
915.019	6376
915.132	6353
915.245	6426
915.358	6464
915.47	6471
915.583	6388
915.696	6460
915.809	6547
915.921	6563
916.034	6429
916.146	6369
916.259	6395
916.371	6407
916.483	6426
916.595	6331
916.708	6418
916.82	6395
916.932	6334
917.044	6388
917.156	6388
917.268	6270
917.38	6391
917.491	6281
917.603	6380
917.715	6391
917.826	6410
917.938	6311
918.049	6281
918.161	6315
918.272	6422
918.384	6418
918.495	6323
918.606	6270
918.717	6148
918.828	6232
918.939	6273
919.05	6171
919.161	6228
919.272	6106
919.383	6102
919.494	6262
919.604	6414
919.715	6285
919.826	6182
919.936	6213
920.047	6327
920.157	6216
920.267	6471
920.378	6308
920.488	6277
920.598	6490
920.708	6532
920.818	6479
920.928	6475
921.038	6551
921.148	6593
921.258	6350
921.368	6308
921.477	6201
921.587	6148
921.697	6140
921.806	6175
921.916	6034
922.025	5965
922.134	5866
922.244	5817
922.353	5958
922.462	5828
922.571	5786
922.68	5699
922.789	5642
922.898	5668
923.007	5596
923.116	5668
923.224	5676
923.333	5653
923.442	5585
923.55	5630
923.659	5581
923.767	5581
923.876	5539
923.984	5554
924.092	5543
924.201	5539
924.309	5558
924.417	5532
924.525	5452
924.633	5482
924.741	6285
924.849	5410
924.956	5467
925.064	5326
925.172	5265
925.279	5318
925.387	5349
925.494	5330
925.602	5360
925.709	5379
925.816	5242
925.924	5326
926.031	5277
926.138	5303
926.245	5360
926.352	5193
926.459	5265
926.566	5318
926.673	5197
926.779	5109
926.886	5083
926.993	5060
927.099	4976
927.206	4972
927.312	4938
927.419	5006
927.525	4968
927.631	4961
927.737	4866
927.843	4839
927.95	4755
928.056	4812
928.162	4847
928.267	4839
928.373	5277
928.479	4858
928.585	4687
928.69	4755
928.796	4752
928.901	4683
929.007	4607
929.112	4668
929.218	4645
929.323	4630
929.428	4565
929.533	4660
929.638	4527
929.743	4523
929.848	4546
929.953	4523
930.058	4405
930.163	4318
930.267	4310
930.372	4383
930.477	4257
930.581	4459
930.685	4348
930.79	4219
930.894	4284
930.998	4280
931.103	4383
931.207	4101
931.311	4059
931.415	4044
931.519	3896
931.623	3915
