Data from glass_V78500241_1316.txt Node
Date: Wed Sep 01 19:23:37 CST 2021
User: usil
Spectrometer: V785-0024
Trigger mode: 0
Integration Time (sec): 4.000000E-1
Scans to average: 1
Nonlinearity correction enabled: false
Boxcar width: 0
Storing dark spectrum: false
XAxis mode: Wavelengths
Number of Pixels in Spectrum: 1024
>>>>>Begin Spectral Data<<<<<
801.071	3751
801.214	3732
801.356	3652
801.499	3751
801.641	3701
801.783	3812
801.926	3857
802.068	3808
802.211	3888
802.353	3915
802.496	3835
802.638	3911
802.78	3884
802.923	3922
803.065	3903
803.208	3873
803.35	3869
803.492	3930
803.635	3949
803.777	3857
803.919	3892
804.061	4158
804.204	3953
804.346	3994
804.488	3865
804.63	4044
804.773	3937
804.915	4097
805.057	4158
805.199	4059
805.341	4093
805.483	4147
805.626	4116
805.768	4093
805.91	4265
806.052	4234
806.194	4234
806.336	4379
806.478	4253
806.62	4200
806.762	4173
806.904	4295
807.046	4352
807.188	4200
807.33	4177
807.472	4215
807.614	4188
807.756	4215
807.898	4207
808.04	4227
808.182	4246
808.324	4322
808.465	4383
808.607	4432
808.749	4466
808.891	4440
809.033	4470
809.174	4432
809.316	4280
809.458	4284
809.6	4139
809.741	4181
809.883	4173
810.025	4200
810.166	4200
810.308	4219
810.45	4242
810.591	4246
810.733	4287
810.875	4573
811.016	4809
811.158	5155
811.299	5235
811.441	5269
811.582	5052
811.724	4675
811.865	4527
812.007	4478
812.148	4481
812.29	4409
812.431	4413
812.573	4371
812.714	4363
812.855	4402
812.997	4390
813.138	4470
813.279	4367
813.421	4421
813.562	4390
813.703	4287
813.845	4375
813.986	4268
814.127	4211
814.268	4272
814.41	4314
814.551	4257
814.692	4344
814.833	4227
814.974	4291
815.115	4394
815.256	4268
815.397	4238
815.539	4230
815.68	4177
815.821	4234
815.962	4352
816.103	4295
816.244	4253
816.385	4207
816.526	4325
816.666	4215
816.807	4071
816.948	4162
817.089	4158
817.23	4135
817.371	4055
817.512	4071
817.653	4055
817.793	4044
817.934	4044
818.075	4074
818.216	4101
818.356	4093
818.497	3994
818.638	3926
818.778	3918
818.919	3850
819.06	3869
819.2	3922
819.341	3865
819.481	3819
819.622	3941
819.762	4044
819.903	3915
820.043	3888
820.184	3865
820.324	3827
820.465	3953
820.605	3896
820.746	3854
820.886	3804
821.026	3945
821.167	3911
821.307	3964
821.447	3972
821.588	3956
821.728	3972
821.868	3922
822.008	3903
822.149	3907
822.289	3915
822.429	3781
822.569	3766
822.709	3793
822.849	3694
822.99	3709
823.13	3728
823.27	3774
823.41	3728
823.55	3732
823.69	3740
823.83	3701
823.97	3671
824.11	3606
824.25	3599
824.389	3656
824.529	3679
824.669	3625
824.809	3717
824.949	3762
825.089	3717
825.228	3759
825.368	3622
825.508	3606
825.648	3584
825.787	3599
825.927	3698
826.067	3614
826.206	3637
826.346	3808
826.485	3880
826.625	3907
826.765	3949
826.904	3838
827.044	3618
827.183	3526
827.323	3424
827.462	3481
827.601	3416
827.741	3466
827.88	3447
828.02	3351
828.159	3439
828.298	3500
828.437	3515
828.577	3458
828.716	3618
828.855	3504
828.994	3405
829.134	3409
829.273	3355
829.412	3389
829.551	3351
829.69	3344
829.829	3431
829.968	3545
830.107	3420
830.246	3454
830.385	3397
830.524	3397
830.663	3283
830.802	3233
830.941	3188
831.08	3218
831.219	3237
831.357	3241
831.496	3409
831.635	3260
831.774	3207
831.913	3195
832.051	3135
832.19	3146
832.329	3180
832.467	3138
832.606	3131
832.744	3131
832.883	3199
833.022	3237
833.16	3253
833.299	3340
833.437	3348
833.576	3378
833.714	3393
833.852	3450
833.991	3431
834.129	3488
834.267	3473
834.406	3401
834.544	3420
834.682	3420
834.821	3420
834.959	3561
835.097	3424
835.235	3545
835.373	3454
835.511	3424
835.65	3481
835.788	3481
835.926	3386
836.064	3382
836.202	3428
836.34	3591
836.478	3603
836.615	3542
836.753	3610
836.891	3629
837.029	3614
837.167	3561
837.305	3553
837.443	3580
837.58	3511
837.718	3580
837.856	3580
837.993	3568
838.131	3587
838.269	3572
838.406	3580
838.544	3584
838.681	3473
838.819	3481
838.956	3393
839.094	3401
839.231	3466
839.369	3542
839.506	3789
839.643	3667
839.781	3530
839.918	3454
840.055	3496
840.193	3564
840.33	3538
840.467	3595
840.604	3591
840.742	3831
840.879	3504
841.016	3572
841.153	3625
841.29	3747
841.427	3736
841.564	3743
841.701	3751
841.838	3701
841.975	3698
842.112	3774
842.249	3629
842.385	3644
842.522	3846
842.659	3694
842.796	3663
842.933	3720
843.069	3690
843.206	3713
843.343	3835
843.479	3781
843.616	3827
843.752	3690
843.889	3671
844.025	3861
844.162	3694
844.298	3846
844.435	3793
844.571	3781
844.708	3911
844.844	3956
844.98	4051
845.117	3987
845.253	3930
845.389	3869
845.525	3975
845.661	3979
845.798	3987
845.934	4002
846.07	3983
846.206	4055
846.342	4109
846.478	4040
846.614	3907
846.75	3953
846.886	3896
847.022	4025
847.158	3975
847.294	3991
847.429	4002
847.565	4010
847.701	4238
847.837	3869
847.972	3888
848.108	3983
848.244	3934
848.379	3857
848.515	3823
848.65	3827
848.786	3838
848.921	3838
849.057	3907
849.192	3960
849.328	3926
849.463	3922
849.598	3892
849.734	3899
849.869	3838
850.004	3842
850.14	3808
850.275	3800
850.41	3720
850.545	3747
850.68	3785
850.815	3797
850.95	3797
851.085	3953
851.22	3949
851.355	3827
851.49	3778
851.625	3774
851.76	3816
851.895	3751
852.03	3717
852.165	3819
852.299	3857
852.434	3884
852.569	3861
852.703	3884
852.838	3926
852.973	3991
853.107	4010
853.242	3888
853.376	3816
853.511	3736
853.645	3861
853.78	3964
853.914	3903
854.048	3934
854.183	3915
854.317	3945
854.451	4086
854.585	3975
854.72	3934
854.854	4051
854.988	3983
855.122	4025
855.256	3918
855.39	4017
855.524	4143
855.658	4067
855.792	4131
855.926	4158
856.06	4166
856.194	4261
856.327	4128
856.461	4101
856.595	4166
856.729	4207
856.862	4329
856.996	4257
857.13	4325
857.263	4314
857.397	4360
857.53	4337
857.664	4344
857.797	4379
857.931	4386
858.064	4371
858.197	4447
858.331	4390
858.464	4409
858.597	4360
858.731	4459
858.864	4470
858.997	4447
859.13	4542
859.263	4554
859.396	4596
859.529	4531
859.662	4596
859.795	4523
859.928	4573
860.061	4725
860.194	4740
860.327	4729
860.46	4683
860.592	4706
860.725	4759
860.858	4759
860.99	4714
861.123	4660
861.256	4649
861.388	4809
861.521	5429
861.653	4729
861.786	4687
861.918	4774
862.05	4843
862.183	4835
862.315	4873
862.447	4938
862.58	4919
862.712	4790
862.844	4797
862.976	4858
863.108	4873
863.24	5220
863.372	4847
863.504	4908
863.636	4915
863.768	4953
863.9	4972
864.032	4938
864.164	4972
864.296	4999
864.428	5098
864.559	5071
864.691	5117
864.823	5185
864.954	5121
865.086	5140
865.217	5109
865.349	5117
865.48	5159
865.612	5193
865.743	5277
865.875	5212
866.006	5140
866.137	5265
866.269	5250
866.4	5315
866.531	5239
866.662	5197
866.793	5265
866.924	5292
867.055	5364
867.186	5311
867.317	5292
867.448	5315
867.579	5387
867.71	5372
867.841	5376
867.972	5471
868.103	5467
868.233	5490
868.364	5543
868.495	5581
868.625	5695
868.756	5775
868.886	5703
869.017	5745
869.147	5840
869.278	5866
869.408	5844
869.539	5779
869.669	5901
869.799	5904
869.929	6041
870.06	5999
870.19	6220
870.32	6205
870.45	6311
870.58	6315
870.71	6429
870.84	6426
870.97	6506
871.1	6441
871.23	6654
871.36	6673
871.489	6650
871.619	6791
871.749	6753
871.879	6875
872.008	6989
872.138	7046
872.267	7031
872.397	7027
872.526	7004
872.656	7053
872.785	7152
872.915	7384
873.044	7521
873.173	7575
873.303	7719
873.432	7799
873.561	7837
873.69	7898
873.819	8100
873.948	8172
874.077	8202
874.206	8313
874.335	8511
874.464	8678
874.593	8880
874.722	8925
874.851	9161
874.979	9226
875.108	9405
875.237	9393
875.365	9458
875.494	9629
875.623	9835
875.751	9804
875.88	10002
876.008	10135
876.136	10238
876.265	10455
876.393	10679
876.521	10812
876.65	10790
876.778	10904
876.906	10980
877.034	10957
877.162	11010
877.29	11201
877.418	11311
877.546	11360
877.674	11467
877.802	11528
877.93	11539
878.058	11566
878.185	11581
878.313	11684
878.441	11737
878.568	11585
878.696	11779
878.824	11874
878.951	11882
879.079	12083
879.206	12232
879.333	12140
879.461	12003
879.588	12072
879.715	12098
879.842	12258
879.97	12064
880.097	11908
880.224	11927
880.351	11931
880.478	11988
880.605	11882
880.732	11817
880.859	11996
880.986	11790
881.112	11805
881.239	11726
881.366	11745
881.493	11611
881.619	11623
881.746	11592
881.872	11490
881.999	11573
882.125	11410
882.252	11535
882.378	11482
882.505	11562
882.631	11440
882.757	11353
882.883	11330
883.01	11280
883.136	11189
883.262	11075
883.388	11102
883.514	11242
883.64	11159
883.766	11193
883.892	10987
884.018	10980
884.143	11132
884.269	11079
884.395	10850
884.52	10740
884.646	10831
884.772	10714
884.897	10675
885.023	10649
885.148	10786
885.274	10812
885.399	10653
885.524	10607
885.65	10538
885.775	10653
885.9	10607
886.025	10611
886.15	10588
886.275	10455
886.4	10367
886.525	10436
886.65	10348
886.775	10318
886.9	10481
887.025	10565
887.149	10379
887.274	10276
887.399	10261
887.523	10173
887.648	10139
887.773	10139
887.897	10246
888.021	10169
888.146	10063
888.27	10268
888.395	10211
888.519	10223
888.643	10196
888.767	10257
888.891	10055
889.015	9975
889.139	10101
889.263	10013
889.387	10135
889.511	10051
889.635	10131
889.759	9972
889.883	9979
890.006	9911
890.13	10124
890.254	9903
890.377	9892
890.501	9880
890.624	9869
890.748	9930
890.871	9892
890.995	9793
891.118	9778
891.241	9766
891.364	9774
891.488	9831
891.611	9724
891.734	9717
891.857	9778
891.98	9728
892.103	9785
892.226	9766
892.349	9686
892.471	9553
892.594	9641
892.717	9584
892.839	9576
892.962	9580
893.085	9671
893.207	9652
893.33	9553
893.452	9504
893.575	9587
893.697	9458
893.819	9679
893.941	9595
894.064	9568
894.186	9443
894.308	9420
894.43	9606
894.552	9603
894.674	9523
894.796	9428
894.918	9447
895.04	9325
895.161	9370
895.283	9310
895.405	9291
895.526	9211
895.648	9211
895.769	9294
895.891	9275
896.012	9249
896.134	9260
896.255	9218
896.376	9253
896.498	9142
896.619	9032
896.74	9043
896.861	9188
896.982	9249
897.103	9359
897.224	9127
897.345	9043
897.466	8971
897.587	9017
897.708	9138
897.828	8998
897.949	8906
898.07	8887
898.19	8842
898.311	9097
898.431	8933
898.552	8956
898.672	8971
898.792	9017
898.913	8921
899.033	8876
899.153	8674
899.273	8606
899.393	8712
899.513	8804
899.633	8712
899.753	8655
899.873	8640
899.993	8766
900.113	8678
900.232	8731
900.352	8766
900.472	8644
900.591	8549
900.711	8590
900.83	8514
900.95	8644
901.069	8682
901.189	8556
901.308	8419
901.427	8434
901.546	8381
901.665	8461
901.784	8495
901.904	8396
902.023	8328
902.141	8221
902.26	8206
902.379	8298
902.498	8244
902.617	8161
902.735	8313
902.854	8351
902.973	8256
903.091	8119
903.21	8195
903.328	8134
903.446	8191
903.565	8039
903.683	8077
903.801	8039
903.919	8145
904.038	8145
904.156	8024
904.274	8172
904.392	7951
904.51	8058
904.627	8103
904.745	8161
904.863	8138
904.981	7921
905.098	7849
905.216	7917
905.334	7864
905.451	7818
905.569	7856
905.686	7974
905.803	7871
905.921	7784
906.038	7887
906.155	7833
906.272	7723
906.389	7734
906.506	7616
906.623	7693
906.74	7624
906.857	7571
906.974	7567
907.091	7674
907.208	7761
907.324	7613
907.441	7525
907.557	7415
907.674	7502
907.79	7415
907.907	7491
908.023	7480
908.139	7438
908.256	7327
908.372	7430
908.488	7358
908.604	7266
908.72	7236
908.836	7228
908.952	7285
909.068	7255
909.184	7331
909.3	7285
909.415	7312
909.531	7278
909.647	7088
909.762	7133
909.878	7149
909.993	7171
910.108	7095
910.224	7107
910.339	7091
910.454	7027
910.57	6958
910.685	7015
910.8	7149
910.915	7122
911.03	7110
911.145	6935
911.259	6848
911.374	6935
911.489	6852
911.604	6802
911.718	6730
911.833	6734
911.947	6604
912.062	6635
912.176	6707
912.291	6677
912.405	6673
912.519	6795
912.633	6810
912.748	6757
912.862	6677
912.976	6658
913.09	6551
913.204	6597
913.318	6665
913.431	6684
913.545	6612
913.659	6779
913.772	6658
913.886	6631
914	6547
914.113	6635
914.226	6684
914.34	6589
914.453	6479
914.566	6601
914.68	6532
914.793	6608
914.906	6490
915.019	6437
915.132	6361
915.245	6433
915.358	6475
915.47	6452
915.583	6452
915.696	6513
915.809	6517
915.921	6574
916.034	6448
916.146	6399
916.259	6403
916.371	6525
916.483	6506
916.595	6388
916.708	6376
916.82	6445
916.932	6369
917.044	6376
917.156	6407
917.268	6311
917.38	6391
917.491	6342
917.603	6338
917.715	6452
917.826	6414
917.938	6300
918.049	6296
918.161	6422
918.272	6391
918.384	6452
918.495	6338
918.606	6281
918.717	6216
918.828	6281
918.939	6254
919.05	6209
919.161	6243
919.272	6148
919.383	6167
919.494	6289
919.604	6395
919.715	6365
919.826	6239
919.936	6243
920.047	6334
920.157	6372
920.267	6490
920.378	6296
920.488	6319
920.598	6422
920.708	6525
920.818	6441
920.928	6448
921.038	6578
921.148	6608
921.258	6319
921.368	6319
921.477	6220
921.587	6152
921.697	6079
921.806	6182
921.916	6076
922.025	5942
922.134	5904
922.244	5882
922.353	5946
922.462	5824
922.571	5802
922.68	5745
922.789	5707
922.898	5699
923.007	5627
923.116	5733
923.224	5638
923.333	5676
923.442	5646
923.55	5532
923.659	5592
923.767	5668
923.876	5509
923.984	5592
924.092	5474
924.201	5592
924.309	5474
924.417	5539
924.525	5478
924.633	5520
924.741	6296
924.849	5368
924.956	5528
925.064	5368
925.172	5334
925.279	5334
925.387	5341
925.494	5337
925.602	5425
925.709	5402
925.816	5353
925.924	5322
926.031	5372
926.138	5311
926.245	5368
926.352	5242
926.459	5402
926.566	5284
926.673	5220
926.779	5143
926.886	5143
926.993	5048
927.099	5033
927.206	5033
927.312	5018
927.419	5006
927.525	4995
927.631	4968
927.737	4934
927.843	4881
927.95	4797
928.056	4839
928.162	4831
928.267	4850
928.373	5318
928.479	4866
928.585	4668
928.69	4778
928.796	4759
928.901	4675
929.007	4622
929.112	4687
929.218	4687
929.323	4588
929.428	4542
929.533	4672
929.638	4516
929.743	4531
929.848	4554
929.953	4470
930.058	4394
930.163	4329
930.267	4341
930.372	4405
930.477	4265
930.581	4409
930.685	4318
930.79	4329
930.894	4238
930.998	4204
931.103	4398
931.207	4109
931.311	4040
931.415	4067
931.519	3945
931.623	3968
