Data from glass_V78500241_1430.txt Node
Date: Wed Sep 01 19:24:24 CST 2021
User: usil
Spectrometer: V785-0024
Trigger mode: 0
Integration Time (sec): 4.000000E-1
Scans to average: 1
Nonlinearity correction enabled: false
Boxcar width: 0
Storing dark spectrum: false
XAxis mode: Wavelengths
Number of Pixels in Spectrum: 1024
>>>>>Begin Spectral Data<<<<<
801.071	3732
801.214	3778
801.356	3732
801.499	3713
801.641	3732
801.783	3774
801.926	3865
802.068	3835
802.211	3869
802.353	3899
802.496	3846
802.638	3903
802.78	3876
802.923	3911
803.065	3907
803.208	3812
803.35	3857
803.492	3911
803.635	3911
803.777	3785
803.919	3880
804.061	4154
804.204	3975
804.346	3941
804.488	3926
804.63	4074
804.773	3953
804.915	4010
805.057	4185
805.199	4063
805.341	4048
805.483	4147
805.626	4128
805.768	4150
805.91	4234
806.052	4200
806.194	4200
806.336	4325
806.478	4192
806.62	4147
806.762	4200
806.904	4299
807.046	4329
807.188	4223
807.33	4177
807.472	4234
807.614	4192
807.756	4227
807.898	4227
808.04	4249
808.182	4322
808.324	4341
808.465	4341
808.607	4485
808.749	4474
808.891	4478
809.033	4504
809.174	4409
809.316	4268
809.458	4238
809.6	4173
809.741	4173
809.883	4135
810.025	4173
810.166	4246
810.308	4227
810.45	4207
810.591	4242
810.733	4295
810.875	4493
811.016	4839
811.158	5113
811.299	5307
811.441	5269
811.582	5064
811.724	4740
811.865	4516
812.007	4478
812.148	4462
812.29	4394
812.431	4386
812.573	4405
812.714	4337
812.855	4432
812.997	4432
813.138	4500
813.279	4405
813.421	4402
813.562	4386
813.703	4318
813.845	4337
813.986	4234
814.127	4200
814.268	4322
814.41	4253
814.551	4276
814.692	4310
814.833	4268
814.974	4303
815.115	4314
815.256	4246
815.397	4242
815.539	4268
815.68	4227
815.821	4238
815.962	4306
816.103	4223
816.244	4215
816.385	4257
816.526	4280
816.666	4204
816.807	4101
816.948	4150
817.089	4150
817.23	4090
817.371	4067
817.512	4063
817.653	4112
817.793	4025
817.934	4032
818.075	4090
818.216	4078
818.356	4071
818.497	3983
818.638	3937
818.778	3911
818.919	3903
819.06	3873
819.2	3876
819.341	3850
819.481	3823
819.622	3915
819.762	4021
819.903	3915
820.043	3899
820.184	3865
820.324	3793
820.465	3888
820.605	3884
820.746	3922
820.886	3797
821.026	3915
821.167	3972
821.307	3987
821.447	3953
821.588	3960
821.728	3934
821.868	3991
822.008	3903
822.149	3930
822.289	3926
822.429	3793
822.569	3785
822.709	3831
822.849	3713
822.99	3679
823.13	3740
823.27	3774
823.41	3713
823.55	3747
823.69	3724
823.83	3728
823.97	3671
824.11	3625
824.25	3641
824.389	3603
824.529	3694
824.669	3648
824.809	3724
824.949	3751
825.089	3720
825.228	3713
825.368	3568
825.508	3561
825.648	3614
825.787	3633
825.927	3610
826.067	3637
826.206	3675
826.346	3781
826.485	3854
826.625	3850
826.765	4017
826.904	3869
827.044	3606
827.183	3534
827.323	3424
827.462	3530
827.601	3454
827.741	3428
827.88	3443
828.02	3397
828.159	3462
828.298	3511
828.437	3530
828.577	3485
828.716	3618
828.855	3488
828.994	3378
829.134	3374
829.273	3412
829.412	3367
829.551	3329
829.69	3389
829.829	3431
829.968	3488
830.107	3401
830.246	3466
830.385	3378
830.524	3351
830.663	3332
830.802	3283
830.941	3173
831.08	3195
831.219	3260
831.357	3260
831.496	3386
831.635	3272
831.774	3214
831.913	3142
832.051	3150
832.19	3127
832.329	3233
832.467	3173
832.606	3119
832.744	3192
832.883	3199
833.022	3180
833.16	3283
833.299	3310
833.437	3321
833.576	3355
833.714	3382
833.852	3443
833.991	3466
834.129	3469
834.267	3447
834.406	3397
834.544	3416
834.682	3454
834.821	3431
834.959	3591
835.097	3466
835.235	3534
835.373	3481
835.511	3515
835.65	3428
835.788	3477
835.926	3405
836.064	3386
836.202	3443
836.34	3568
836.478	3584
836.615	3553
836.753	3614
836.891	3614
837.029	3671
837.167	3610
837.305	3610
837.443	3523
837.58	3473
837.718	3606
837.856	3549
837.993	3500
838.131	3603
838.269	3576
838.406	3606
838.544	3614
838.681	3424
838.819	3435
838.956	3389
839.094	3393
839.231	3428
839.369	3534
839.506	3709
839.643	3614
839.781	3496
839.918	3458
840.055	3534
840.193	3530
840.33	3519
840.467	3564
840.604	3644
840.742	3781
840.879	3564
841.016	3606
841.153	3561
841.29	3728
841.427	3690
841.564	3743
841.701	3743
841.838	3728
841.975	3694
842.112	3694
842.249	3641
842.385	3648
842.522	3800
842.659	3679
842.796	3709
842.933	3770
843.069	3682
843.206	3724
843.343	3804
843.479	3778
843.616	3808
843.752	3671
843.889	3671
844.025	3880
844.162	3728
844.298	3808
844.435	3812
844.571	3793
844.708	3918
844.844	3987
844.98	3987
845.117	3983
845.253	3926
845.389	3907
845.525	3960
845.661	3994
845.798	3922
845.934	4021
846.07	3983
846.206	4040
846.342	4097
846.478	4063
846.614	3964
846.75	3903
846.886	3918
847.022	4063
847.158	3983
847.294	3994
847.429	4021
847.565	4044
847.701	4242
847.837	3869
847.972	3880
848.108	3972
848.244	3983
848.379	3865
848.515	3797
848.65	3819
848.786	3865
848.921	3873
849.057	3949
849.192	3960
849.328	3922
849.463	3949
849.598	3876
849.734	3888
849.869	3831
850.004	3831
850.14	3831
850.275	3819
850.41	3747
850.545	3743
850.68	3812
850.815	3800
850.95	3816
851.085	3953
851.22	3899
851.355	3793
851.49	3778
851.625	3774
851.76	3804
851.895	3781
852.03	3728
852.165	3835
852.299	3888
852.434	3892
852.569	3850
852.703	3812
852.838	3930
852.973	3960
853.107	3983
853.242	3850
853.376	3831
853.511	3808
853.645	3797
853.78	3945
853.914	3884
854.048	3915
854.183	3903
854.317	3953
854.451	4036
854.585	3994
854.72	3934
854.854	4051
854.988	3903
855.122	3994
855.256	3934
855.39	4032
855.524	4078
855.658	4120
855.792	4067
855.926	4166
856.06	4166
856.194	4188
856.327	4128
856.461	4135
856.595	4158
856.729	4207
856.862	4257
856.996	4261
857.13	4333
857.263	4341
857.397	4341
857.53	4234
857.664	4333
857.797	4409
857.931	4462
858.064	4417
858.197	4436
858.331	4421
858.464	4383
858.597	4360
858.731	4470
858.864	4489
858.997	4470
859.13	4516
859.263	4554
859.396	4592
859.529	4558
859.662	4504
859.795	4519
859.928	4592
860.061	4691
860.194	4744
860.327	4698
860.46	4687
860.592	4725
860.725	4744
860.858	4793
860.99	4710
861.123	4717
861.256	4710
861.388	4763
861.521	5292
861.653	4653
861.786	4729
861.918	4752
862.05	4812
862.183	4797
862.315	4866
862.447	4942
862.58	4968
862.712	4824
862.844	4767
862.976	4900
863.108	4858
863.24	5166
863.372	4862
863.504	4930
863.636	4870
863.768	4968
863.9	4968
864.032	4934
864.164	4991
864.296	5029
864.428	5048
864.559	5143
864.691	5147
864.823	5121
864.954	5121
865.086	5151
865.217	5102
865.349	5124
865.48	5193
865.612	5166
865.743	5242
865.875	5136
866.006	5174
866.137	5242
866.269	5250
866.4	5265
866.531	5174
866.662	5250
866.793	5288
866.924	5311
867.055	5341
867.186	5391
867.317	5341
867.448	5322
867.579	5349
867.71	5337
867.841	5368
867.972	5478
868.103	5429
868.233	5429
868.364	5570
868.495	5562
868.625	5695
868.756	5783
868.886	5661
869.017	5699
869.147	5866
869.278	5828
869.408	5764
869.539	5809
869.669	5973
869.799	5950
869.929	5999
870.06	5988
870.19	6205
870.32	6205
870.45	6243
870.58	6262
870.71	6540
870.84	6471
870.97	6448
871.1	6410
871.23	6608
871.36	6734
871.489	6681
871.619	6757
871.749	6795
871.879	6871
872.008	6958
872.138	6951
872.267	7023
872.397	7046
872.526	7053
872.656	7137
872.785	7160
872.915	7354
873.044	7480
873.173	7518
873.303	7643
873.432	7727
873.561	7909
873.69	7894
873.819	8016
873.948	8157
874.077	8233
874.206	8374
874.335	8495
874.464	8617
874.593	8807
874.722	8842
874.851	9104
874.979	9249
875.108	9313
875.237	9397
875.365	9492
875.494	9622
875.623	9819
875.751	9911
875.88	9922
876.008	10131
876.136	10234
876.265	10542
876.393	10763
876.521	10733
876.65	10767
876.778	10904
876.906	10881
877.034	11006
877.162	11159
877.29	11113
877.418	11337
877.546	11315
877.674	11337
877.802	11509
877.93	11539
878.058	11532
878.185	11554
878.313	11646
878.441	11752
878.568	11684
878.696	11855
878.824	11882
878.951	11969
879.079	12076
879.206	12140
879.333	12030
879.461	11942
879.588	12163
879.715	12106
879.842	12216
879.97	12060
880.097	11870
880.224	11939
880.351	11843
880.478	11920
880.605	11798
880.732	11840
880.859	12106
880.986	11790
881.112	11748
881.239	11794
881.366	11661
881.493	11608
881.619	11600
881.746	11532
881.872	11539
881.999	11520
882.125	11505
882.252	11520
882.378	11497
882.505	11562
882.631	11364
882.757	11235
882.883	11303
883.01	11189
883.136	11147
883.262	11178
883.388	11033
883.514	11220
883.64	11136
883.766	11178
883.892	10968
884.018	11003
884.143	11006
884.269	11045
884.395	10892
884.52	10854
884.646	10869
884.772	10687
884.897	10634
885.023	10721
885.148	10725
885.274	10759
885.399	10694
885.524	10611
885.65	10580
885.775	10660
885.9	10618
886.025	10615
886.15	10538
886.275	10531
886.4	10459
886.525	10375
886.65	10386
886.775	10287
886.9	10440
887.025	10523
887.149	10310
887.274	10291
887.399	10215
887.523	10211
887.648	10135
887.773	10124
887.897	10158
888.021	10246
888.146	10169
888.27	10261
888.395	10177
888.519	10242
888.643	10169
888.767	10200
888.891	10029
889.015	10051
889.139	10044
889.263	10044
889.387	10086
889.511	10120
889.635	10082
889.759	9983
889.883	9964
890.006	10048
890.13	10139
890.254	9918
890.377	9968
890.501	9918
890.624	9915
890.748	9869
890.871	9816
890.995	9770
891.118	9641
891.241	9755
891.364	9713
891.488	9831
891.611	9675
891.734	9751
891.857	9698
891.98	9701
892.103	9717
892.226	9762
892.349	9622
892.471	9492
892.594	9584
892.717	9564
892.839	9614
892.962	9538
893.085	9720
893.207	9625
893.33	9477
893.452	9557
893.575	9614
893.697	9507
893.819	9568
893.941	9610
894.064	9652
894.186	9408
894.308	9412
894.43	9557
894.552	9511
894.674	9530
894.796	9401
894.918	9405
895.04	9359
895.161	9397
895.283	9351
895.405	9260
895.526	9344
895.648	9211
895.769	9222
895.891	9230
896.012	9275
896.134	9222
896.255	9268
896.376	9085
896.498	9123
896.619	9180
896.74	9108
896.861	9074
896.982	9188
897.103	9283
897.224	9173
897.345	9051
897.466	8998
897.587	8963
897.708	9112
897.828	9036
897.949	8902
898.07	8857
898.19	8990
898.311	9051
898.431	9001
898.552	8891
898.672	8975
898.792	8929
898.913	8887
899.033	8823
899.153	8807
899.273	8712
899.393	8777
899.513	8804
899.633	8701
899.753	8785
899.873	8686
899.993	8735
900.113	8720
900.232	8754
900.352	8689
900.472	8587
900.591	8613
900.711	8514
900.83	8507
900.95	8697
901.069	8754
901.189	8533
901.308	8412
901.427	8393
901.546	8484
901.665	8412
901.784	8613
901.904	8374
902.023	8286
902.141	8279
902.26	8210
902.379	8305
902.498	8286
902.617	8195
902.735	8305
902.854	8263
902.973	8252
903.091	8084
903.21	8161
903.328	8172
903.446	8153
903.565	8012
903.683	8191
903.801	8031
903.919	8149
904.038	8081
904.156	8062
904.274	8119
904.392	8046
904.51	8005
904.627	8039
904.745	8164
904.863	8073
904.981	7917
905.098	7909
905.216	7883
905.334	7986
905.451	7955
905.569	7868
905.686	7845
905.803	7967
905.921	7795
906.038	7879
906.155	7769
906.272	7757
906.389	7708
906.506	7567
906.623	7681
906.74	7719
906.857	7510
906.974	7552
907.091	7685
907.208	7715
907.324	7601
907.441	7556
907.557	7457
907.674	7407
907.79	7346
907.907	7453
908.023	7445
908.139	7403
908.256	7358
908.372	7453
908.488	7373
908.604	7270
908.72	7225
908.836	7305
908.952	7221
909.068	7255
909.184	7343
909.3	7308
909.415	7259
909.531	7209
909.647	7103
909.762	7076
909.878	7050
909.993	7149
910.108	7103
910.224	7046
910.339	7122
910.454	7031
910.57	7004
910.685	6970
910.8	7183
910.915	7072
911.03	7012
911.145	6947
911.259	6924
911.374	6890
911.489	6829
911.604	6821
911.718	6722
911.833	6795
911.947	6631
912.062	6608
912.176	6696
912.291	6684
912.405	6658
912.519	6852
912.633	6829
912.748	6711
912.862	6681
912.976	6601
913.09	6525
913.204	6620
913.318	6627
913.431	6700
913.545	6700
913.659	6760
913.772	6597
913.886	6566
914	6566
914.113	6635
914.226	6642
914.34	6623
914.453	6467
914.566	6601
914.68	6544
914.793	6517
914.906	6433
915.019	6388
915.132	6380
915.245	6429
915.358	6456
915.47	6483
915.583	6414
915.696	6471
915.809	6532
915.921	6502
916.034	6365
916.146	6369
916.259	6388
916.371	6494
916.483	6464
916.595	6388
916.708	6422
916.82	6410
916.932	6350
917.044	6388
917.156	6418
917.268	6334
917.38	6372
917.491	6331
917.603	6266
917.715	6414
917.826	6471
917.938	6388
918.049	6289
918.161	6353
918.272	6418
918.384	6437
918.495	6338
918.606	6254
918.717	6277
918.828	6262
918.939	6323
919.05	6167
919.161	6262
919.272	6026
919.383	6251
919.494	6319
919.604	6391
919.715	6243
919.826	6171
919.936	6243
920.047	6331
920.157	6213
920.267	6486
920.378	6323
920.488	6277
920.598	6414
920.708	6547
920.818	6452
920.928	6429
921.038	6570
921.148	6604
921.258	6380
921.368	6308
921.477	6190
921.587	6190
921.697	6087
921.806	6205
921.916	6110
922.025	5897
922.134	5882
922.244	5904
922.353	5946
922.462	5840
922.571	5798
922.68	5714
922.789	5684
922.898	5726
923.007	5646
923.116	5703
923.224	5672
923.333	5623
923.442	5589
923.55	5554
923.659	5604
923.767	5630
923.876	5516
923.984	5608
924.092	5471
924.201	5516
924.309	5577
924.417	5570
924.525	5467
924.633	5520
924.741	6144
924.849	5391
924.956	5463
925.064	5379
925.172	5280
925.279	5284
925.387	5444
925.494	5330
925.602	5425
925.709	5379
925.816	5292
925.924	5307
926.031	5349
926.138	5326
926.245	5330
926.352	5208
926.459	5265
926.566	5318
926.673	5235
926.779	5155
926.886	5086
926.993	5094
927.099	5037
927.206	4995
927.312	4999
927.419	5041
927.525	4984
927.631	5018
927.737	4911
927.843	4862
927.95	4771
928.056	4835
928.162	4797
928.267	4824
928.373	5239
928.479	4854
928.585	4721
928.69	4778
928.796	4763
928.901	4653
929.007	4611
929.112	4653
929.218	4645
929.323	4668
929.428	4554
929.533	4653
929.638	4542
929.743	4577
929.848	4573
929.953	4550
930.058	4432
930.163	4329
930.267	4284
930.372	4451
930.477	4265
930.581	4447
930.685	4356
930.79	4287
930.894	4280
930.998	4249
931.103	4379
931.207	4181
931.311	4074
931.415	4051
931.519	3937
931.623	3953
