Data from glass_V78500241_279.txt Node
Date: Wed Sep 01 19:16:26 CST 2021
User: usil
Spectrometer: V785-0024
Trigger mode: 0
Integration Time (sec): 4.000000E-1
Scans to average: 1
Nonlinearity correction enabled: false
Boxcar width: 0
Storing dark spectrum: false
XAxis mode: Wavelengths
Number of Pixels in Spectrum: 1024
>>>>>Begin Spectral Data<<<<<
801.071	3766
801.214	3793
801.356	3694
801.499	3717
801.641	3759
801.783	3781
801.926	3861
802.068	3819
802.211	3888
802.353	3857
802.496	3869
802.638	3865
802.78	3892
802.923	3941
803.065	3896
803.208	3861
803.35	3918
803.492	3918
803.635	3975
803.777	3816
803.919	3934
804.061	4173
804.204	3991
804.346	3964
804.488	3918
804.63	4067
804.773	3964
804.915	4063
805.057	4200
805.199	4051
805.341	4097
805.483	4177
805.626	4139
805.768	4131
805.91	4230
806.052	4238
806.194	4253
806.336	4394
806.478	4238
806.62	4162
806.762	4204
806.904	4306
807.046	4428
807.188	4188
807.33	4181
807.472	4284
807.614	4211
807.756	4261
807.898	4227
808.04	4253
808.182	4310
808.324	4379
808.465	4386
808.607	4485
808.749	4436
808.891	4478
809.033	4512
809.174	4421
809.316	4303
809.458	4287
809.6	4169
809.741	4131
809.883	4124
810.025	4242
810.166	4204
810.308	4253
810.45	4261
810.591	4234
810.733	4310
810.875	4535
811.016	4831
811.158	5193
811.299	5277
811.441	5303
811.582	5105
811.724	4717
811.865	4447
812.007	4516
812.148	4371
812.29	4424
812.431	4455
812.573	4474
812.714	4402
812.855	4409
812.997	4424
813.138	4489
813.279	4424
813.421	4432
813.562	4386
813.703	4360
813.845	4329
813.986	4303
814.127	4261
814.268	4287
814.41	4299
814.551	4299
814.692	4337
814.833	4291
814.974	4318
815.115	4379
815.256	4249
815.397	4280
815.539	4253
815.68	4215
815.821	4200
815.962	4337
816.103	4268
816.244	4234
816.385	4249
816.526	4295
816.666	4227
816.807	4112
816.948	4242
817.089	4173
817.23	4120
817.371	4059
817.512	4093
817.653	4093
817.793	4051
817.934	4032
818.075	4131
818.216	4086
818.356	4112
818.497	3983
818.638	3941
818.778	3930
818.919	3922
819.06	3880
819.2	3892
819.341	3854
819.481	3930
819.622	3911
819.762	4040
819.903	3956
820.043	3892
820.184	3869
820.324	3819
820.465	3865
820.605	3907
820.746	3876
820.886	3835
821.026	3937
821.167	3945
821.307	4036
821.447	3998
821.588	3968
821.728	3956
821.868	3975
822.008	3907
822.149	3953
822.289	3930
822.429	3789
822.569	3812
822.709	3827
822.849	3720
822.99	3759
823.13	3781
823.27	3835
823.41	3724
823.55	3732
823.69	3747
823.83	3800
823.97	3717
824.11	3595
824.25	3591
824.389	3644
824.529	3694
824.669	3614
824.809	3717
824.949	3755
825.089	3774
825.228	3728
825.368	3599
825.508	3599
825.648	3576
825.787	3599
825.927	3652
826.067	3637
826.206	3671
826.346	3880
826.485	3842
826.625	3869
826.765	3926
826.904	3850
827.044	3660
827.183	3526
827.323	3447
827.462	3507
827.601	3458
827.741	3454
827.88	3473
828.02	3355
828.159	3439
828.298	3515
828.437	3523
828.577	3485
828.716	3618
828.855	3481
828.994	3424
829.134	3435
829.273	3386
829.412	3351
829.551	3367
829.69	3363
829.829	3477
829.968	3553
830.107	3466
830.246	3439
830.385	3382
830.524	3389
830.663	3355
830.802	3256
830.941	3241
831.08	3203
831.219	3275
831.357	3283
831.496	3393
831.635	3249
831.774	3199
831.913	3245
832.051	3154
832.19	3161
832.329	3275
832.467	3169
832.606	3116
832.744	3165
832.883	3203
833.022	3222
833.16	3268
833.299	3325
833.437	3386
833.576	3386
833.714	3363
833.852	3466
833.991	3458
834.129	3488
834.267	3439
834.406	3401
834.544	3431
834.682	3428
834.821	3424
834.959	3595
835.097	3477
835.235	3526
835.373	3511
835.511	3519
835.65	3458
835.788	3542
835.926	3412
836.064	3420
836.202	3443
836.34	3568
836.478	3629
836.615	3572
836.753	3584
836.891	3671
837.029	3629
837.167	3606
837.305	3591
837.443	3572
837.58	3526
837.718	3580
837.856	3606
837.993	3557
838.131	3618
838.269	3595
838.406	3599
838.544	3545
838.681	3450
838.819	3454
838.956	3382
839.094	3435
839.231	3454
839.369	3561
839.506	3778
839.643	3656
839.781	3500
839.918	3523
840.055	3568
840.193	3553
840.33	3545
840.467	3595
840.604	3599
840.742	3876
840.879	3561
841.016	3576
841.153	3618
841.29	3755
841.427	3785
841.564	3755
841.701	3774
841.838	3717
841.975	3686
842.112	3724
842.249	3644
842.385	3618
842.522	3819
842.659	3698
842.796	3720
842.933	3751
843.069	3736
843.206	3732
843.343	3846
843.479	3793
843.616	3857
843.752	3656
843.889	3641
844.025	3846
844.162	3732
844.298	3831
844.435	3789
844.571	3797
844.708	3922
844.844	3998
844.98	4040
845.117	4021
845.253	3956
845.389	3911
845.525	4002
845.661	3994
845.798	3945
845.934	4048
846.07	3972
846.206	4086
846.342	4105
846.478	4059
846.614	4021
846.75	4002
846.886	3903
847.022	4017
847.158	4017
847.294	4044
847.429	4101
847.565	4036
847.701	4219
847.837	3907
847.972	3857
848.108	3998
848.244	4048
848.379	3869
848.515	3808
848.65	3793
848.786	3846
848.921	3876
849.057	3960
849.192	3972
849.328	3892
849.463	3949
849.598	3892
849.734	3896
849.869	3854
850.004	3808
850.14	3831
850.275	3850
850.41	3747
850.545	3755
850.68	3781
850.815	3808
850.95	3774
851.085	3930
851.22	3831
851.355	3819
851.49	3743
851.625	3789
851.76	3888
851.895	3766
852.03	3747
852.165	3827
852.299	3831
852.434	3922
852.569	3831
852.703	3899
852.838	3911
852.973	3998
853.107	4017
853.242	3915
853.376	3835
853.511	3774
853.645	3831
853.78	3972
853.914	3896
854.048	3899
854.183	3865
854.317	3975
854.451	4112
854.585	3972
854.72	4013
854.854	4086
854.988	3956
855.122	4002
855.256	3930
855.39	4017
855.524	4139
855.658	4101
855.792	4063
855.926	4124
856.06	4147
856.194	4192
856.327	4124
856.461	4147
856.595	4204
856.729	4169
856.862	4299
856.996	4291
857.13	4322
857.263	4325
857.397	4337
857.53	4318
857.664	4386
857.797	4402
857.931	4440
858.064	4409
858.197	4493
858.331	4390
858.464	4428
858.597	4360
858.731	4474
858.864	4432
858.997	4462
859.13	4588
859.263	4546
859.396	4588
859.529	4527
859.662	4531
859.795	4512
859.928	4641
860.061	4668
860.194	4687
860.327	4660
860.46	4634
860.592	4755
860.725	4805
860.858	4820
860.99	4752
861.123	4675
861.256	4729
861.388	4774
861.521	5296
861.653	4733
861.786	4752
861.918	4767
862.05	4767
862.183	4843
862.315	4858
862.447	4930
862.58	4915
862.712	4774
862.844	4801
862.976	4873
863.108	4854
863.24	5246
863.372	4850
863.504	4927
863.636	4957
863.768	4915
863.9	5045
864.032	4946
864.164	4976
864.296	5029
864.428	5140
864.559	5147
864.691	5098
864.823	5090
864.954	5102
865.086	5162
865.217	5067
865.349	5197
865.48	5185
865.612	5220
865.743	5334
865.875	5185
866.006	5151
866.137	5250
866.269	5265
866.4	5288
866.531	5223
866.662	5220
866.793	5265
866.924	5303
867.055	5383
867.186	5421
867.317	5326
867.448	5307
867.579	5379
867.71	5406
867.841	5387
867.972	5490
868.103	5440
868.233	5478
868.364	5516
868.495	5592
868.625	5615
868.756	5790
868.886	5646
869.017	5745
869.147	5866
869.278	5908
869.408	5847
869.539	5844
869.669	5946
869.799	5942
869.929	5977
870.06	6038
870.19	6209
870.32	6194
870.45	6235
870.58	6346
870.71	6395
870.84	6433
870.97	6448
871.1	6471
871.23	6700
871.36	6703
871.489	6639
871.619	6719
871.749	6837
871.879	6882
872.008	6977
872.138	7015
872.267	7034
872.397	7000
872.526	7031
872.656	7103
872.785	7198
872.915	7392
873.044	7521
873.173	7597
873.303	7696
873.432	7750
873.561	7902
873.69	7917
873.819	8069
873.948	8199
874.077	8252
874.206	8279
874.335	8465
874.464	8667
874.593	8956
874.722	8960
874.851	9203
874.979	9268
875.108	9439
875.237	9389
875.365	9492
875.494	9618
875.623	9835
875.751	9850
875.88	10017
876.008	10162
876.136	10249
876.265	10443
876.393	10687
876.521	10687
876.65	10843
876.778	10824
876.906	11010
877.034	10976
877.162	11086
877.29	11216
877.418	11353
877.546	11288
877.674	11558
877.802	11474
877.93	11551
878.058	11566
878.185	11539
878.313	11676
878.441	11748
878.568	11684
878.696	11855
878.824	11855
878.951	11950
879.079	12034
879.206	12079
879.333	12079
879.461	11999
879.588	12102
879.715	12083
879.842	12277
879.97	12034
880.097	11916
880.224	11874
880.351	11866
880.478	11897
880.605	11859
880.732	11741
880.859	12049
880.986	11748
881.112	11840
881.239	11691
881.366	11668
881.493	11688
881.619	11623
881.746	11539
881.872	11619
881.999	11604
882.125	11482
882.252	11581
882.378	11448
882.505	11524
882.631	11391
882.757	11303
882.883	11356
883.01	11216
883.136	11239
883.262	11094
883.388	11102
883.514	11178
883.64	11193
883.766	11090
883.892	11033
884.018	11033
884.143	11086
884.269	11052
884.395	10790
884.52	10824
884.646	10858
884.772	10649
884.897	10660
885.023	10679
885.148	10847
885.274	10763
885.399	10740
885.524	10634
885.65	10653
885.775	10645
885.9	10523
886.025	10649
886.15	10531
886.275	10485
886.4	10402
886.525	10470
886.65	10413
886.775	10325
886.9	10462
887.025	10466
887.149	10234
887.274	10303
887.399	10242
887.523	10166
887.648	10105
887.773	10139
887.897	10253
888.021	10276
888.146	10154
888.27	10230
888.395	10276
888.519	10227
888.643	10185
888.767	10268
888.891	10097
889.015	10032
889.139	10025
889.263	9949
889.387	10032
889.511	10166
889.635	10048
889.759	9926
889.883	10021
890.006	10063
890.13	10082
890.254	9930
890.377	9892
890.501	9835
890.624	9899
890.748	9964
890.871	9831
890.995	9694
891.118	9732
891.241	9869
891.364	9827
891.488	9846
891.611	9747
891.734	9759
891.857	9755
891.98	9694
892.103	9831
892.226	9740
892.349	9648
892.471	9542
892.594	9648
892.717	9675
892.839	9633
892.962	9584
893.085	9701
893.207	9618
893.33	9530
893.452	9587
893.575	9652
893.697	9492
893.819	9614
893.941	9690
894.064	9629
894.186	9435
894.308	9408
894.43	9530
894.552	9633
894.674	9580
894.796	9363
894.918	9408
895.04	9348
895.161	9378
895.283	9363
895.405	9226
895.526	9287
895.648	9211
895.769	9325
895.891	9272
896.012	9294
896.134	9245
896.255	9199
896.376	9100
896.498	9173
896.619	9135
896.74	9127
896.861	9100
896.982	9253
897.103	9283
897.224	9199
897.345	9081
897.466	8986
897.587	9077
897.708	9085
897.828	9085
897.949	8971
898.07	8895
898.19	8941
898.311	9047
898.431	8956
898.552	8982
898.672	9036
898.792	8990
898.913	8891
899.033	8792
899.153	8762
899.273	8720
899.393	8727
899.513	8701
899.633	8785
899.753	8701
899.873	8705
899.993	8712
900.113	8720
900.232	8758
900.352	8678
900.472	8693
900.591	8587
900.711	8655
900.83	8552
900.95	8663
901.069	8689
901.189	8590
901.308	8446
901.427	8434
901.546	8522
901.665	8499
901.784	8450
901.904	8381
902.023	8301
902.141	8305
902.26	8210
902.379	8206
902.498	8252
902.617	8275
902.735	8400
902.854	8305
902.973	8301
903.091	8062
903.21	8115
903.328	8191
903.446	8221
903.565	8081
903.683	8081
903.801	8046
903.919	8069
904.038	8058
904.156	8050
904.274	8096
904.392	8081
904.51	8058
904.627	8119
904.745	8024
904.863	8123
904.981	7936
905.098	7887
905.216	7833
905.334	7925
905.451	7845
905.569	7822
905.686	7932
905.803	7883
905.921	7837
906.038	7883
906.155	7807
906.272	7765
906.389	7700
906.506	7719
906.623	7666
906.74	7601
906.857	7544
906.974	7643
907.091	7685
907.208	7727
907.324	7643
907.441	7628
907.557	7464
907.674	7457
907.79	7422
907.907	7449
908.023	7422
908.139	7426
908.256	7415
908.372	7339
908.488	7381
908.604	7316
908.72	7240
908.836	7339
908.952	7240
909.068	7232
909.184	7369
909.3	7289
909.415	7289
909.531	7301
909.647	7187
909.762	7129
909.878	7156
909.993	7141
910.108	7099
910.224	7099
910.339	7069
910.454	7065
910.57	6993
910.685	6920
910.8	7190
910.915	7110
911.03	7000
911.145	6924
911.259	6920
911.374	6867
911.489	6825
911.604	6829
911.718	6768
911.833	6681
911.947	6650
912.062	6639
912.176	6749
912.291	6753
912.405	6688
912.519	6825
912.633	6837
912.748	6734
912.862	6692
912.976	6642
913.09	6563
913.204	6658
913.318	6597
913.431	6726
913.545	6662
913.659	6715
913.772	6642
913.886	6658
914	6547
914.113	6639
914.226	6711
914.34	6623
914.453	6502
914.566	6582
914.68	6589
914.793	6540
914.906	6437
915.019	6407
915.132	6365
915.245	6445
915.358	6490
915.47	6429
915.583	6517
915.696	6563
915.809	6631
915.921	6559
916.034	6399
916.146	6399
916.259	6395
916.371	6437
916.483	6502
916.595	6486
916.708	6426
916.82	6422
916.932	6384
917.044	6429
917.156	6391
917.268	6300
917.38	6380
917.491	6346
917.603	6403
917.715	6391
917.826	6429
917.938	6300
918.049	6243
918.161	6361
918.272	6429
918.384	6486
918.495	6380
918.606	6277
918.717	6182
918.828	6304
918.939	6281
919.05	6213
919.161	6281
919.272	6220
919.383	6155
919.494	6292
919.604	6437
919.715	6308
919.826	6247
919.936	6247
920.047	6334
920.157	6311
920.267	6506
920.378	6319
920.488	6296
920.598	6502
920.708	6566
920.818	6566
920.928	6502
921.038	6662
921.148	6601
921.258	6422
921.368	6327
921.477	6239
921.587	6163
921.697	6117
921.806	6254
921.916	6125
922.025	5958
922.134	5912
922.244	5874
922.353	5965
922.462	5809
922.571	5760
922.68	5703
922.789	5714
922.898	5691
923.007	5619
923.116	5764
923.224	5668
923.333	5638
923.442	5623
923.55	5611
923.659	5581
923.767	5657
923.876	5551
923.984	5611
924.092	5509
924.201	5524
924.309	5596
924.417	5532
924.525	5501
924.633	5501
924.741	6277
924.849	5368
924.956	5486
925.064	5360
925.172	5357
925.279	5315
925.387	5402
925.494	5372
925.602	5452
925.709	5395
925.816	5326
925.924	5349
926.031	5326
926.138	5372
926.245	5341
926.352	5250
926.459	5303
926.566	5299
926.673	5231
926.779	5105
926.886	5105
926.993	5083
927.099	5014
927.206	5010
927.312	4987
927.419	5045
927.525	4999
927.631	4965
927.737	4900
927.843	4885
927.95	4797
928.056	4843
928.162	4835
928.267	4900
928.373	5223
928.479	4889
928.585	4721
928.69	4759
928.796	4790
928.901	4698
929.007	4611
929.112	4698
929.218	4672
929.323	4615
929.428	4584
929.533	4687
929.638	4516
929.743	4523
929.848	4573
929.953	4538
930.058	4447
930.163	4348
930.267	4318
930.372	4489
930.477	4390
930.581	4470
930.685	4348
930.79	4280
930.894	4268
930.998	4352
931.103	4394
931.207	4124
931.311	4067
931.415	4055
931.519	3930
931.623	3994
