Data from glass_V78500241_632.txt Node
Date: Wed Sep 01 19:18:52 CST 2021
User: usil
Spectrometer: V785-0024
Trigger mode: 0
Integration Time (sec): 4.000000E-1
Scans to average: 1
Nonlinearity correction enabled: false
Boxcar width: 0
Storing dark spectrum: false
XAxis mode: Wavelengths
Number of Pixels in Spectrum: 1024
>>>>>Begin Spectral Data<<<<<
801.071	3705
801.214	3789
801.356	3667
801.499	3778
801.641	3717
801.783	3797
801.926	3869
802.068	3823
802.211	3926
802.353	3888
802.496	3892
802.638	3838
802.78	3869
802.923	3915
803.065	3888
803.208	3804
803.35	3876
803.492	3918
803.635	3915
803.777	3781
803.919	3899
804.061	4169
804.204	3998
804.346	3972
804.488	3953
804.63	4036
804.773	4013
804.915	4071
805.057	4131
805.199	4063
805.341	4082
805.483	4124
805.626	4116
805.768	4112
805.91	4230
806.052	4246
806.194	4253
806.336	4417
806.478	4230
806.62	4188
806.762	4204
806.904	4253
807.046	4409
807.188	4200
807.33	4177
807.472	4276
807.614	4223
807.756	4272
807.898	4223
808.04	4211
808.182	4291
808.324	4348
808.465	4310
808.607	4519
808.749	4512
808.891	4493
809.033	4489
809.174	4424
809.316	4272
809.458	4249
809.6	4131
809.741	4154
809.883	4101
810.025	4261
810.166	4207
810.308	4223
810.45	4257
810.591	4238
810.733	4303
810.875	4573
811.016	4843
811.158	5174
811.299	5334
811.441	5265
811.582	5056
811.724	4710
811.865	4527
812.007	4428
812.148	4421
812.29	4424
812.431	4436
812.573	4424
812.714	4383
812.855	4436
812.997	4428
813.138	4474
813.279	4455
813.421	4409
813.562	4367
813.703	4325
813.845	4344
813.986	4219
814.127	4227
814.268	4238
814.41	4246
814.551	4257
814.692	4360
814.833	4280
814.974	4360
815.115	4383
815.256	4284
815.397	4246
815.539	4295
815.68	4196
815.821	4192
815.962	4287
816.103	4234
816.244	4310
816.385	4265
816.526	4295
816.666	4215
816.807	4109
816.948	4173
817.089	4196
817.23	4150
817.371	4051
817.512	4086
817.653	4105
817.793	4055
817.934	4071
818.075	4120
818.216	4074
818.356	4086
818.497	4101
818.638	3911
818.778	3949
818.919	3899
819.06	3892
819.2	3918
819.341	3861
819.481	3869
819.622	3949
819.762	4067
819.903	3994
820.043	3842
820.184	3911
820.324	3850
820.465	3918
820.605	3876
820.746	3888
820.886	3812
821.026	3964
821.167	3915
821.307	4025
821.447	3991
821.588	3998
821.728	3964
821.868	3941
822.008	3850
822.149	3888
822.289	3945
822.429	3770
822.569	3793
822.709	3797
822.849	3701
822.99	3736
823.13	3789
823.27	3838
823.41	3743
823.55	3732
823.69	3728
823.83	3743
823.97	3682
824.11	3633
824.25	3641
824.389	3633
824.529	3701
824.669	3671
824.809	3686
824.949	3781
825.089	3728
825.228	3717
825.368	3610
825.508	3553
825.648	3580
825.787	3614
825.927	3663
826.067	3660
826.206	3724
826.346	3804
826.485	3838
826.625	3873
826.765	3972
826.904	3835
827.044	3637
827.183	3553
827.323	3458
827.462	3500
827.601	3409
827.741	3473
827.88	3435
828.02	3348
828.159	3424
828.298	3496
828.437	3549
828.577	3450
828.716	3580
828.855	3549
828.994	3405
829.134	3370
829.273	3393
829.412	3378
829.551	3348
829.69	3359
829.829	3466
829.968	3515
830.107	3393
830.246	3424
830.385	3401
830.524	3367
830.663	3336
830.802	3264
830.941	3176
831.08	3214
831.219	3291
831.357	3272
831.496	3401
831.635	3268
831.774	3180
831.913	3195
832.051	3138
832.19	3154
832.329	3199
832.467	3157
832.606	3138
832.744	3165
832.883	3211
833.022	3214
833.16	3279
833.299	3317
833.437	3401
833.576	3363
833.714	3412
833.852	3412
833.991	3443
834.129	3485
834.267	3439
834.406	3435
834.544	3450
834.682	3443
834.821	3416
834.959	3591
835.097	3439
835.235	3538
835.373	3542
835.511	3504
835.65	3428
835.788	3504
835.926	3420
836.064	3420
836.202	3401
836.34	3572
836.478	3652
836.615	3523
836.753	3622
836.891	3671
837.029	3587
837.167	3644
837.305	3591
837.443	3564
837.58	3507
837.718	3644
837.856	3549
837.993	3523
838.131	3614
838.269	3610
838.406	3572
838.544	3618
838.681	3462
838.819	3450
838.956	3420
839.094	3477
839.231	3477
839.369	3488
839.506	3740
839.643	3652
839.781	3500
839.918	3534
840.055	3538
840.193	3557
840.33	3523
840.467	3553
840.604	3625
840.742	3778
840.879	3553
841.016	3549
841.153	3584
841.29	3770
841.427	3717
841.564	3736
841.701	3766
841.838	3717
841.975	3698
842.112	3728
842.249	3652
842.385	3667
842.522	3846
842.659	3728
842.796	3663
842.933	3724
843.069	3713
843.206	3751
843.343	3816
843.479	3808
843.616	3842
843.752	3660
843.889	3686
844.025	3869
844.162	3709
844.298	3850
844.435	3797
844.571	3797
844.708	3899
844.844	3987
844.98	4051
845.117	4021
845.253	3937
845.389	3930
845.525	3979
845.661	3968
845.798	3930
845.934	3972
846.07	3953
846.206	4059
846.342	4131
846.478	4071
846.614	3949
846.75	3945
846.886	3956
847.022	4021
847.158	3994
847.294	3953
847.429	4044
847.565	3983
847.701	4280
847.837	3880
847.972	3941
848.108	3987
848.244	3972
848.379	3861
848.515	3831
848.65	3827
848.786	3854
848.921	3854
849.057	3956
849.192	3949
849.328	3922
849.463	3884
849.598	3888
849.734	3903
849.869	3812
850.004	3789
850.14	3831
850.275	3770
850.41	3774
850.545	3774
850.68	3797
850.815	3842
850.95	3789
851.085	3953
851.22	3892
851.355	3873
851.49	3816
851.625	3827
851.76	3797
851.895	3770
852.03	3724
852.165	3838
852.299	3873
852.434	3964
852.569	3896
852.703	3911
852.838	3934
852.973	4025
853.107	3968
853.242	3903
853.376	3873
853.511	3785
853.645	3816
853.78	4006
853.914	3899
854.048	3918
854.183	3960
854.317	3964
854.451	4055
854.585	4002
854.72	3991
854.854	4036
854.988	3915
855.122	3983
855.256	3930
855.39	4006
855.524	4154
855.658	4093
855.792	4112
855.926	4154
856.06	4181
856.194	4192
856.327	4192
856.461	4120
856.595	4131
856.729	4166
856.862	4253
856.996	4238
857.13	4306
857.263	4371
857.397	4360
857.53	4333
857.664	4390
857.797	4462
857.931	4432
858.064	4379
858.197	4474
858.331	4417
858.464	4443
858.597	4356
858.731	4428
858.864	4424
858.997	4466
859.13	4542
859.263	4558
859.396	4622
859.529	4489
859.662	4519
859.795	4512
859.928	4630
860.061	4675
860.194	4805
860.327	4675
860.46	4679
860.592	4729
860.725	4755
860.858	4733
860.99	4714
861.123	4694
861.256	4675
861.388	4774
861.521	5284
861.653	4759
861.786	4733
861.918	4733
862.05	4801
862.183	4835
862.315	4896
862.447	4972
862.58	4900
862.712	4839
862.844	4740
862.976	4866
863.108	4858
863.24	5197
863.372	4824
863.504	4885
863.636	4911
863.768	4976
863.9	4961
864.032	4987
864.164	4995
864.296	4987
864.428	5109
864.559	5090
864.691	5124
864.823	5086
864.954	5105
865.086	5151
865.217	5117
865.349	5109
865.48	5170
865.612	5204
865.743	5288
865.875	5174
866.006	5227
866.137	5242
866.269	5242
866.4	5269
866.531	5250
866.662	5250
866.793	5292
866.924	5296
867.055	5353
867.186	5330
867.317	5303
867.448	5330
867.579	5360
867.71	5360
867.841	5398
867.972	5444
868.103	5509
868.233	5532
868.364	5478
868.495	5581
868.625	5684
868.756	5779
868.886	5672
869.017	5756
869.147	5866
869.278	5904
869.408	5832
869.539	5851
869.669	5904
869.799	5923
869.929	6011
870.06	6041
870.19	6205
870.32	6216
870.45	6251
870.58	6388
870.71	6399
870.84	6490
870.97	6441
871.1	6467
871.23	6646
871.36	6681
871.489	6601
871.619	6772
871.749	6818
871.879	6916
872.008	6981
872.138	7053
872.267	7023
872.397	7019
872.526	7091
872.656	7061
872.785	7301
872.915	7407
873.044	7476
873.173	7582
873.303	7651
873.432	7830
873.561	7864
873.69	7963
873.819	7944
873.948	8164
874.077	8271
874.206	8343
874.335	8473
874.464	8644
874.593	8868
874.722	8952
874.851	9150
874.979	9260
875.108	9389
875.237	9367
875.365	9553
875.494	9576
875.623	9846
875.751	9774
875.88	10036
876.008	10207
876.136	10322
876.265	10538
876.393	10672
876.521	10755
876.65	10843
876.778	10847
876.906	10904
877.034	10942
877.162	11109
877.29	11166
877.418	11349
877.546	11425
877.674	11414
877.802	11471
877.93	11482
878.058	11554
878.185	11573
878.313	11668
878.441	11783
878.568	11665
878.696	11745
878.824	11901
878.951	11950
879.079	12034
879.206	12117
879.333	12019
879.461	12011
879.588	12106
879.715	12083
879.842	12270
879.97	12144
880.097	11908
880.224	11946
880.351	11840
880.478	11935
880.605	11874
880.732	11870
880.859	11939
880.986	11843
881.112	11859
881.239	11729
881.366	11554
881.493	11604
881.619	11600
881.746	11554
881.872	11509
881.999	11406
882.125	11372
882.252	11573
882.378	11482
882.505	11623
882.631	11414
882.757	11223
882.883	11349
883.01	11315
883.136	11121
883.262	11094
883.388	11121
883.514	11242
883.64	11132
883.766	11102
883.892	10957
884.018	11014
884.143	11086
884.269	11166
884.395	10869
884.52	10778
884.646	10877
884.772	10736
884.897	10706
885.023	10634
885.148	10740
885.274	10733
885.399	10733
885.524	10622
885.65	10630
885.775	10588
885.9	10698
886.025	10660
886.15	10531
886.275	10432
886.4	10413
886.525	10386
886.65	10367
886.775	10325
886.9	10516
887.025	10561
887.149	10363
887.274	10295
887.399	10215
887.523	10265
887.648	10120
887.773	10177
887.897	10234
888.021	10253
888.146	10131
888.27	10257
888.395	10299
888.519	10196
888.643	10143
888.767	10211
888.891	10109
889.015	9979
889.139	10029
889.263	10040
889.387	10139
889.511	10120
889.635	10067
889.759	10013
889.883	9934
890.006	9991
890.13	10188
890.254	9983
890.377	9994
890.501	9846
890.624	9922
890.748	9835
890.871	9850
890.995	9789
891.118	9766
891.241	9732
891.364	9800
891.488	9884
891.611	9751
891.734	9766
891.857	9778
891.98	9743
892.103	9793
892.226	9698
892.349	9679
892.471	9572
892.594	9625
892.717	9682
892.839	9637
892.962	9599
893.085	9580
893.207	9625
893.33	9526
893.452	9523
893.575	9568
893.697	9492
893.819	9648
893.941	9648
894.064	9549
894.186	9450
894.308	9389
894.43	9561
894.552	9549
894.674	9504
894.796	9367
894.918	9389
895.04	9367
895.161	9466
895.283	9382
895.405	9302
895.526	9237
895.648	9245
895.769	9184
895.891	9279
896.012	9355
896.134	9214
896.255	9253
896.376	9146
896.498	9077
896.619	9192
896.74	9169
896.861	9077
896.982	9298
897.103	9374
897.224	9188
897.345	9043
897.466	9047
897.587	9009
897.708	9036
897.828	9058
897.949	8929
898.07	8853
898.19	8880
898.311	9077
898.431	8899
898.552	8929
898.672	8979
898.792	9020
898.913	8925
899.033	8826
899.153	8804
899.273	8716
899.393	8731
899.513	8762
899.633	8655
899.753	8724
899.873	8682
899.993	8762
900.113	8686
900.232	8724
900.352	8610
900.472	8640
900.591	8583
900.711	8621
900.83	8606
900.95	8693
901.069	8655
901.189	8606
901.308	8389
901.427	8404
901.546	8423
901.665	8465
901.784	8495
901.904	8381
902.023	8355
902.141	8240
902.26	8240
902.379	8279
902.498	8199
902.617	8202
902.735	8301
902.854	8290
902.973	8275
903.091	8172
903.21	8134
903.328	8138
903.446	8115
903.565	8130
903.683	8111
903.801	8043
903.919	8168
904.038	8134
904.156	8077
904.274	8069
904.392	8001
904.51	8012
904.627	8081
904.745	8149
904.863	8134
904.981	7986
905.098	7913
905.216	7837
905.334	7928
905.451	7921
905.569	7906
905.686	7944
905.803	7951
905.921	7734
906.038	7917
906.155	7837
906.272	7746
906.389	7681
906.506	7601
906.623	7582
906.74	7571
906.857	7616
906.974	7590
907.091	7670
907.208	7799
907.324	7601
907.441	7548
907.557	7445
907.674	7441
907.79	7392
907.907	7415
908.023	7457
908.139	7483
908.256	7422
908.372	7415
908.488	7396
908.604	7324
908.72	7285
908.836	7305
908.952	7285
909.068	7206
909.184	7331
909.3	7324
909.415	7259
909.531	7335
909.647	7080
909.762	7137
909.878	7076
909.993	7213
910.108	7072
910.224	7053
910.339	7103
910.454	7137
910.57	7053
910.685	6890
910.8	7171
910.915	7095
911.03	7065
911.145	6973
911.259	6856
911.374	6920
911.489	6848
911.604	6844
911.718	6722
911.833	6757
911.947	6684
912.062	6631
912.176	6741
912.291	6734
912.405	6688
912.519	6840
912.633	6833
912.748	6730
912.862	6711
912.976	6650
913.09	6532
913.204	6593
913.318	6650
913.431	6612
913.545	6677
913.659	6722
913.772	6608
913.886	6585
914	6635
914.113	6593
914.226	6662
914.34	6654
914.453	6506
914.566	6612
914.68	6502
914.793	6574
914.906	6437
915.019	6445
915.132	6422
915.245	6433
915.358	6456
915.47	6380
915.583	6460
915.696	6426
915.809	6544
915.921	6559
916.034	6486
916.146	6407
916.259	6357
916.371	6521
916.483	6456
916.595	6410
916.708	6471
916.82	6414
916.932	6433
917.044	6395
917.156	6388
917.268	6319
917.38	6342
917.491	6277
917.603	6292
917.715	6372
917.826	6441
917.938	6353
918.049	6285
918.161	6327
918.272	6483
918.384	6441
918.495	6296
918.606	6277
918.717	6251
918.828	6292
918.939	6285
919.05	6194
919.161	6281
919.272	6167
919.383	6136
919.494	6266
919.604	6498
919.715	6292
919.826	6262
919.936	6277
920.047	6369
920.157	6197
920.267	6464
920.378	6361
920.488	6281
920.598	6483
920.708	6578
920.818	6498
920.928	6418
921.038	6639
921.148	6578
921.258	6403
921.368	6281
921.477	6194
921.587	6235
921.697	6136
921.806	6152
921.916	6083
922.025	6038
922.134	5961
922.244	5942
922.353	5961
922.462	5855
922.571	5775
922.68	5707
922.789	5691
922.898	5703
923.007	5668
923.116	5745
923.224	5695
923.333	5619
923.442	5630
923.55	5649
923.659	5589
923.767	5657
923.876	5592
923.984	5592
924.092	5551
924.201	5589
924.309	5589
924.417	5562
924.525	5535
924.633	5467
924.741	6300
924.849	5349
924.956	5512
925.064	5364
925.172	5353
925.279	5303
925.387	5326
925.494	5391
925.602	5406
925.709	5391
925.816	5227
925.924	5341
926.031	5402
926.138	5269
926.245	5330
926.352	5246
926.459	5330
926.566	5288
926.673	5239
926.779	5136
926.886	5117
926.993	5033
927.099	5041
927.206	5003
927.312	4953
927.419	4995
927.525	5014
927.631	4927
927.737	4873
927.843	4839
927.95	4828
928.056	4782
928.162	4831
928.267	4911
928.373	5227
928.479	4919
928.585	4675
928.69	4812
928.796	4801
928.901	4672
929.007	4630
929.112	4675
929.218	4664
929.323	4626
929.428	4626
929.533	4694
929.638	4512
929.743	4542
929.848	4538
929.953	4489
930.058	4459
930.163	4379
930.267	4337
930.372	4440
930.477	4333
930.581	4466
930.685	4436
930.79	4276
930.894	4257
930.998	4268
931.103	4386
931.207	4154
931.311	4116
931.415	4055
931.519	3899
931.623	3903
