Data from glass_V78500241_980.txt Node
Date: Wed Sep 01 19:21:17 CST 2021
User: usil
Spectrometer: V785-0024
Trigger mode: 0
Integration Time (sec): 4.000000E-1
Scans to average: 1
Nonlinearity correction enabled: false
Boxcar width: 0
Storing dark spectrum: false
XAxis mode: Wavelengths
Number of Pixels in Spectrum: 1024
>>>>>Begin Spectral Data<<<<<
801.071	3759
801.214	3778
801.356	3720
801.499	3740
801.641	3774
801.783	3770
801.926	3896
802.068	3899
802.211	3869
802.353	3937
802.496	3846
802.638	3854
802.78	3915
802.923	3983
803.065	3941
803.208	3857
803.35	3880
803.492	3922
803.635	3911
803.777	3797
803.919	3918
804.061	4139
804.204	3922
804.346	3945
804.488	3922
804.63	4032
804.773	3987
804.915	4044
805.057	4162
805.199	4040
805.341	4158
805.483	4150
805.626	4143
805.768	4097
805.91	4200
806.052	4265
806.194	4227
806.336	4363
806.478	4257
806.62	4234
806.762	4204
806.904	4272
807.046	4333
807.188	4211
807.33	4173
807.472	4238
807.614	4204
807.756	4291
807.898	4200
808.04	4223
808.182	4306
808.324	4318
808.465	4348
808.607	4443
808.749	4451
808.891	4508
809.033	4504
809.174	4432
809.316	4257
809.458	4238
809.6	4135
809.741	4177
809.883	4143
810.025	4211
810.166	4211
810.308	4276
810.45	4287
810.591	4242
810.733	4303
810.875	4531
811.016	4812
811.158	5124
811.299	5261
811.441	5258
811.582	5102
811.724	4733
811.865	4535
812.007	4466
812.148	4367
812.29	4394
812.431	4455
812.573	4417
812.714	4371
812.855	4371
812.997	4440
813.138	4478
813.279	4443
813.421	4390
813.562	4409
813.703	4348
813.845	4337
813.986	4246
814.127	4219
814.268	4227
814.41	4314
814.551	4280
814.692	4375
814.833	4291
814.974	4356
815.115	4367
815.256	4314
815.397	4246
815.539	4333
815.68	4200
815.821	4253
815.962	4310
816.103	4306
816.244	4268
816.385	4242
816.526	4325
816.666	4238
816.807	4147
816.948	4162
817.089	4200
817.23	4166
817.371	4086
817.512	4074
817.653	4063
817.793	4051
817.934	4059
818.075	4097
818.216	4105
818.356	4097
818.497	3968
818.638	3907
818.778	3915
818.919	3896
819.06	3880
819.2	3937
819.341	3945
819.481	3861
819.622	3903
819.762	4002
819.903	3930
820.043	3865
820.184	3823
820.324	3812
820.465	3907
820.605	3911
820.746	3869
820.886	3831
821.026	3926
821.167	3930
821.307	3991
821.447	3998
821.588	3983
821.728	3956
821.868	3899
822.008	3876
822.149	3888
822.289	3907
822.429	3774
822.569	3819
822.709	3762
822.849	3728
822.99	3747
823.13	3778
823.27	3842
823.41	3762
823.55	3759
823.69	3728
823.83	3747
823.97	3736
824.11	3591
824.25	3568
824.389	3618
824.529	3679
824.669	3656
824.809	3759
824.949	3759
825.089	3743
825.228	3759
825.368	3610
825.508	3564
825.648	3584
825.787	3564
825.927	3644
826.067	3675
826.206	3694
826.346	3823
826.485	3823
826.625	3922
826.765	3983
826.904	3838
827.044	3629
827.183	3542
827.323	3397
827.462	3469
827.601	3447
827.741	3405
827.88	3462
828.02	3378
828.159	3466
828.298	3473
828.437	3519
828.577	3447
828.716	3637
828.855	3500
828.994	3378
829.134	3420
829.273	3401
829.412	3344
829.551	3321
829.69	3378
829.829	3447
829.968	3496
830.107	3450
830.246	3526
830.385	3386
830.524	3344
830.663	3306
830.802	3260
830.941	3218
831.08	3199
831.219	3272
831.357	3283
831.496	3466
831.635	3230
831.774	3214
831.913	3188
832.051	3142
832.19	3131
832.329	3226
832.467	3180
832.606	3119
832.744	3161
832.883	3180
833.022	3214
833.16	3241
833.299	3283
833.437	3321
833.576	3374
833.714	3412
833.852	3389
833.991	3469
834.129	3473
834.267	3447
834.406	3409
834.544	3420
834.682	3393
834.821	3420
834.959	3606
835.097	3450
835.235	3511
835.373	3530
835.511	3519
835.65	3443
835.788	3500
835.926	3359
836.064	3412
836.202	3409
836.34	3572
836.478	3599
836.615	3561
836.753	3584
836.891	3675
837.029	3644
837.167	3587
837.305	3587
837.443	3580
837.58	3507
837.718	3595
837.856	3572
837.993	3523
838.131	3622
838.269	3584
838.406	3595
838.544	3648
838.681	3466
838.819	3450
838.956	3416
839.094	3405
839.231	3500
839.369	3519
839.506	3736
839.643	3629
839.781	3515
839.918	3447
840.055	3542
840.193	3515
840.33	3523
840.467	3549
840.604	3614
840.742	3816
840.879	3564
841.016	3603
841.153	3625
841.29	3728
841.427	3724
841.564	3736
841.701	3766
841.838	3682
841.975	3663
842.112	3747
842.249	3675
842.385	3652
842.522	3865
842.659	3701
842.796	3652
842.933	3720
843.069	3728
843.206	3713
843.343	3850
843.479	3797
843.616	3838
843.752	3701
843.889	3686
844.025	3838
844.162	3762
844.298	3876
844.435	3793
844.571	3785
844.708	3922
844.844	3975
844.98	4029
845.117	3972
845.253	3979
845.389	3975
845.525	3949
845.661	3987
845.798	3953
845.934	4002
846.07	3968
846.206	4051
846.342	4116
846.478	4086
846.614	3994
846.75	3960
846.886	3941
847.022	4078
847.158	3960
847.294	4013
847.429	4029
847.565	4010
847.701	4211
847.837	3926
847.972	3899
848.108	3979
848.244	3987
848.379	3899
848.515	3774
848.65	3812
848.786	3819
848.921	3846
849.057	3903
849.192	3911
849.328	3922
849.463	3941
849.598	3873
849.734	3903
849.869	3861
850.004	3827
850.14	3819
850.275	3781
850.41	3755
850.545	3778
850.68	3831
850.815	3838
850.95	3835
851.085	3987
851.22	3899
851.355	3865
851.49	3812
851.625	3797
851.76	3835
851.895	3770
852.03	3751
852.165	3835
852.299	3880
852.434	3911
852.569	3850
852.703	3896
852.838	3884
852.973	4017
853.107	4002
853.242	3884
853.376	3827
853.511	3797
853.645	3869
853.78	4021
853.914	3896
854.048	3918
854.183	3911
854.317	3968
854.451	4105
854.585	3960
854.72	3972
854.854	4059
854.988	3949
855.122	4067
855.256	3854
855.39	4010
855.524	4131
855.658	4124
855.792	4124
855.926	4131
856.06	4207
856.194	4238
856.327	4147
856.461	4090
856.595	4154
856.729	4169
856.862	4291
856.996	4295
857.13	4333
857.263	4310
857.397	4352
857.53	4276
857.664	4379
857.797	4390
857.931	4504
858.064	4417
858.197	4440
858.331	4356
858.464	4402
858.597	4363
858.731	4447
858.864	4485
858.997	4424
859.13	4535
859.263	4500
859.396	4596
859.529	4527
859.662	4538
859.795	4535
859.928	4558
860.061	4736
860.194	4771
860.327	4672
860.46	4637
860.592	4740
860.725	4767
860.858	4774
860.99	4752
861.123	4664
861.256	4733
861.388	4790
861.521	5455
861.653	4748
861.786	4660
861.918	4725
862.05	4767
862.183	4843
862.315	4873
862.447	4991
862.58	4870
862.712	4793
862.844	4793
862.976	4862
863.108	4828
863.24	5292
863.372	4820
863.504	4896
863.636	4927
863.768	4957
863.9	4934
864.032	4938
864.164	4957
864.296	5052
864.428	5098
864.559	5086
864.691	5071
864.823	5178
864.954	5094
865.086	5079
865.217	5143
865.349	5052
865.48	5147
865.612	5235
865.743	5288
865.875	5201
866.006	5181
866.137	5193
866.269	5227
866.4	5265
866.531	5254
866.662	5216
866.793	5265
866.924	5299
867.055	5360
867.186	5353
867.317	5334
867.448	5337
867.579	5402
867.71	5364
867.841	5402
867.972	5478
868.103	5543
868.233	5516
868.364	5535
868.495	5596
868.625	5722
868.756	5779
868.886	5680
869.017	5779
869.147	5855
869.278	5920
869.408	5844
869.539	5844
869.669	5950
869.799	5946
869.929	5992
870.06	6079
870.19	6201
870.32	6197
870.45	6334
870.58	6403
870.71	6380
870.84	6525
870.97	6429
871.1	6418
871.23	6654
871.36	6677
871.489	6650
871.619	6825
871.749	6818
871.879	6878
872.008	6996
872.138	6958
872.267	7034
872.397	6962
872.526	7050
872.656	7099
872.785	7221
872.915	7392
873.044	7540
873.173	7563
873.303	7693
873.432	7670
873.561	7845
873.69	7909
873.819	8039
873.948	8218
874.077	8282
874.206	8370
874.335	8408
874.464	8644
874.593	8868
874.722	8967
874.851	9146
874.979	9233
875.108	9374
875.237	9447
875.365	9454
875.494	9599
875.623	9873
875.751	9835
875.88	9994
876.008	10188
876.136	10219
876.265	10558
876.393	10755
876.521	10721
876.65	10816
876.778	10854
876.906	10896
877.034	10991
877.162	11109
877.29	11155
877.418	11307
877.546	11425
877.674	11433
877.802	11433
877.93	11478
878.058	11551
878.185	11592
878.313	11615
878.441	11745
878.568	11665
878.696	11779
878.824	11866
878.951	11977
879.079	12072
879.206	12060
879.333	11996
879.461	12034
879.588	12041
879.715	12110
879.842	12194
879.97	12076
880.097	11935
880.224	11923
880.351	11939
880.478	11946
880.605	11927
880.732	11889
880.859	12060
880.986	11828
881.112	11874
881.239	11684
881.366	11653
881.493	11703
881.619	11543
881.746	11551
881.872	11528
881.999	11391
882.125	11455
882.252	11581
882.378	11452
882.505	11566
882.631	11364
882.757	11341
882.883	11330
883.01	11303
883.136	11201
883.262	11117
883.388	11045
883.514	11261
883.64	11208
883.766	11109
883.892	11003
884.018	10999
884.143	11086
884.269	11117
884.395	10854
884.52	10790
884.646	10801
884.772	10797
884.897	10573
885.023	10603
885.148	10793
885.274	10790
885.399	10778
885.524	10679
885.65	10622
885.775	10599
885.9	10656
886.025	10603
886.15	10554
886.275	10436
886.4	10436
886.525	10466
886.65	10421
886.775	10325
886.9	10497
887.025	10554
887.149	10314
887.274	10211
887.399	10249
887.523	10227
887.648	10147
887.773	10173
887.897	10223
888.021	10215
888.146	10086
888.27	10207
888.395	10268
888.519	10185
888.643	10154
888.767	10192
888.891	10109
889.015	10017
889.139	10169
889.263	10010
889.387	10074
889.511	10074
889.635	10109
889.759	9979
889.883	9918
890.006	10006
890.13	10128
890.254	9937
890.377	9979
890.501	9861
890.624	9903
890.748	9854
890.871	9812
890.995	9740
891.118	9736
891.241	9770
891.364	9698
891.488	9903
891.611	9736
891.734	9789
891.857	9827
891.98	9827
892.103	9793
892.226	9793
892.349	9724
892.471	9580
892.594	9625
892.717	9663
892.839	9603
892.962	9644
893.085	9682
893.207	9496
893.33	9500
893.452	9447
893.575	9603
893.697	9530
893.819	9652
893.941	9610
894.064	9587
894.186	9443
894.308	9435
894.43	9511
894.552	9629
894.674	9507
894.796	9412
894.918	9416
895.04	9378
895.161	9393
895.283	9340
895.405	9214
895.526	9325
895.648	9268
895.769	9268
895.891	9192
896.012	9344
896.134	9249
896.255	9142
896.376	9173
896.498	9214
896.619	9142
896.74	9123
896.861	9127
896.982	9214
897.103	9355
897.224	9203
897.345	9100
897.466	8990
897.587	9036
897.708	9112
897.828	9043
897.949	9043
898.07	8834
898.19	8910
898.311	9036
898.431	8948
898.552	8929
898.672	9001
898.792	9039
898.913	8921
899.033	8861
899.153	8739
899.273	8625
899.393	8727
899.513	8686
899.633	8693
899.753	8712
899.873	8670
899.993	8712
900.113	8762
900.232	8712
900.352	8640
900.472	8659
900.591	8594
900.711	8564
900.83	8469
900.95	8621
901.069	8686
901.189	8590
901.308	8412
901.427	8381
901.546	8450
901.665	8469
901.784	8484
901.904	8442
902.023	8301
902.141	8229
902.26	8172
902.379	8317
902.498	8301
902.617	8180
902.735	8263
902.854	8336
902.973	8347
903.091	8130
903.21	8123
903.328	8161
903.446	8065
903.565	8084
903.683	8062
903.801	8111
903.919	8100
904.038	8100
904.156	8020
904.274	8134
904.392	8062
904.51	8081
904.627	8035
904.745	8123
904.863	8084
904.981	7932
905.098	7902
905.216	7864
905.334	7917
905.451	7833
905.569	7890
905.686	7967
905.803	7894
905.921	7814
906.038	7887
906.155	7795
906.272	7727
906.389	7666
906.506	7632
906.623	7715
906.74	7594
906.857	7567
906.974	7613
907.091	7704
907.208	7780
907.324	7582
907.441	7616
907.557	7472
907.674	7499
907.79	7369
907.907	7441
908.023	7472
908.139	7407
908.256	7438
908.372	7384
908.488	7362
908.604	7297
908.72	7255
908.836	7282
908.952	7209
909.068	7228
909.184	7346
909.3	7274
909.415	7282
909.531	7255
909.647	7137
909.762	7137
909.878	7133
909.993	7122
910.108	7126
910.224	7122
910.339	7091
910.454	7042
910.57	7000
910.685	7004
910.8	7190
910.915	7084
911.03	7015
911.145	6909
911.259	6867
911.374	6939
911.489	6856
911.604	6798
911.718	6757
911.833	6764
911.947	6662
912.062	6684
912.176	6662
912.291	6692
912.405	6738
912.519	6863
912.633	6875
912.748	6760
912.862	6688
912.976	6658
913.09	6513
913.204	6608
913.318	6597
913.431	6665
913.545	6688
913.659	6711
913.772	6642
913.886	6563
914	6563
914.113	6623
914.226	6635
914.34	6658
914.453	6502
914.566	6570
914.68	6479
914.793	6528
914.906	6418
915.019	6407
915.132	6395
915.245	6391
915.358	6395
915.47	6467
915.583	6467
915.696	6540
915.809	6525
915.921	6601
916.034	6441
916.146	6410
916.259	6429
916.371	6479
916.483	6471
916.595	6319
916.708	6445
916.82	6391
916.932	6467
917.044	6452
917.156	6376
917.268	6281
917.38	6323
917.491	6331
917.603	6346
917.715	6372
917.826	6479
917.938	6338
918.049	6254
918.161	6365
918.272	6418
918.384	6445
918.495	6353
918.606	6239
918.717	6209
918.828	6266
918.939	6247
919.05	6213
919.161	6266
919.272	6125
919.383	6163
919.494	6281
919.604	6429
919.715	6247
919.826	6258
919.936	6273
920.047	6384
920.157	6266
920.267	6506
920.378	6334
920.488	6334
920.598	6521
920.708	6574
920.818	6517
920.928	6486
921.038	6654
921.148	6525
921.258	6410
921.368	6296
921.477	6224
921.587	6175
921.697	6098
921.806	6197
921.916	6102
922.025	5973
922.134	5916
922.244	5916
922.353	5942
922.462	5855
922.571	5832
922.68	5680
922.789	5668
922.898	5714
923.007	5619
923.116	5745
923.224	5699
923.333	5672
923.442	5634
923.55	5554
923.659	5592
923.767	5665
923.876	5551
923.984	5596
924.092	5471
924.201	5573
924.309	5562
924.417	5562
924.525	5452
924.633	5558
924.741	6148
924.849	5337
924.956	5566
925.064	5391
925.172	5273
925.279	5307
925.387	5337
925.494	5322
925.602	5429
925.709	5417
925.816	5296
925.924	5311
926.031	5349
926.138	5307
926.245	5345
926.352	5250
926.459	5334
926.566	5349
926.673	5277
926.779	5124
926.886	5117
926.993	5056
927.099	5003
927.206	5022
927.312	4972
927.419	5014
927.525	5029
927.631	5037
927.737	4908
927.843	4858
927.95	4774
928.056	4812
928.162	4858
928.267	4839
928.373	5345
928.479	4828
928.585	4744
928.69	4805
928.796	4752
928.901	4683
929.007	4660
929.112	4702
929.218	4687
929.323	4622
929.428	4599
929.533	4660
929.638	4523
929.743	4519
929.848	4577
929.953	4531
930.058	4474
930.163	4333
930.267	4344
930.372	4470
930.477	4341
930.581	4508
930.685	4398
930.79	4284
930.894	4310
930.998	4238
931.103	4390
931.207	4143
931.311	4055
931.415	4040
931.519	3903
931.623	3937
