Data from glass_V78500241_1289.txt Node
Date: Wed Sep 01 19:23:26 CST 2021
User: usil
Spectrometer: V785-0024
Trigger mode: 0
Integration Time (sec): 4.000000E-1
Scans to average: 1
Nonlinearity correction enabled: false
Boxcar width: 0
Storing dark spectrum: false
XAxis mode: Wavelengths
Number of Pixels in Spectrum: 1024
>>>>>Begin Spectral Data<<<<<
801.071	3736
801.214	3778
801.356	3690
801.499	3751
801.641	3732
801.783	3774
801.926	3888
802.068	3816
802.211	3865
802.353	3922
802.496	3793
802.638	3865
802.78	3899
802.923	3945
803.065	3918
803.208	3873
803.35	3911
803.492	3926
803.635	3922
803.777	3804
803.919	3899
804.061	4177
804.204	3994
804.346	3991
804.488	3964
804.63	4044
804.773	3953
804.915	4055
805.057	4177
805.199	4048
805.341	4109
805.483	4116
805.626	4086
805.768	4143
805.91	4261
806.052	4253
806.194	4234
806.336	4363
806.478	4207
806.62	4177
806.762	4192
806.904	4249
807.046	4299
807.188	4219
807.33	4192
807.472	4249
807.614	4223
807.756	4291
807.898	4249
808.04	4219
808.182	4280
808.324	4306
808.465	4379
808.607	4523
808.749	4474
808.891	4466
809.033	4497
809.174	4417
809.316	4295
809.458	4276
809.6	4200
809.741	4158
809.883	4173
810.025	4211
810.166	4192
810.308	4238
810.45	4253
810.591	4276
810.733	4318
810.875	4535
811.016	4820
811.158	5174
811.299	5261
811.441	5284
811.582	5029
811.724	4683
811.865	4466
812.007	4474
812.148	4413
812.29	4352
812.431	4447
812.573	4413
812.714	4367
812.855	4466
812.997	4436
813.138	4447
813.279	4424
813.421	4360
813.562	4379
813.703	4375
813.845	4337
813.986	4268
814.127	4257
814.268	4291
814.41	4299
814.551	4272
814.692	4325
814.833	4272
814.974	4352
815.115	4367
815.256	4284
815.397	4249
815.539	4253
815.68	4169
815.821	4185
815.962	4299
816.103	4287
816.244	4223
816.385	4211
816.526	4238
816.666	4249
816.807	4112
816.948	4169
817.089	4143
817.23	4063
817.371	4143
817.512	4013
817.653	4063
817.793	4055
817.934	4013
818.075	4116
818.216	4074
818.356	4036
818.497	4017
818.638	3937
818.778	3880
818.919	3934
819.06	3903
819.2	3918
819.341	3876
819.481	3861
819.622	3907
819.762	4025
819.903	3956
820.043	3873
820.184	3873
820.324	3831
820.465	3842
820.605	3876
820.746	3835
820.886	3781
821.026	3953
821.167	3896
821.307	3960
821.447	3960
821.588	3987
821.728	3941
821.868	3922
822.008	3884
822.149	3968
822.289	3964
822.429	3785
822.569	3781
822.709	3819
822.849	3755
822.99	3732
823.13	3770
823.27	3755
823.41	3690
823.55	3755
823.69	3755
823.83	3709
823.97	3671
824.11	3629
824.25	3599
824.389	3637
824.529	3641
824.669	3675
824.809	3690
824.949	3751
825.089	3705
825.228	3728
825.368	3610
825.508	3553
825.648	3606
825.787	3625
825.927	3644
826.067	3648
826.206	3682
826.346	3819
826.485	3812
826.625	3846
826.765	3926
826.904	3842
827.044	3587
827.183	3557
827.323	3431
827.462	3500
827.601	3466
827.741	3466
827.88	3443
828.02	3397
828.159	3420
828.298	3488
828.437	3507
828.577	3462
828.716	3606
828.855	3507
828.994	3382
829.134	3363
829.273	3393
829.412	3363
829.551	3393
829.69	3378
829.829	3439
829.968	3504
830.107	3458
830.246	3462
830.385	3397
830.524	3359
830.663	3325
830.802	3283
830.941	3214
831.08	3211
831.219	3268
831.357	3264
831.496	3424
831.635	3245
831.774	3222
831.913	3214
832.051	3093
832.19	3135
832.329	3207
832.467	3157
832.606	3116
832.744	3135
832.883	3195
833.022	3188
833.16	3260
833.299	3321
833.437	3370
833.576	3412
833.714	3420
833.852	3424
833.991	3488
834.129	3439
834.267	3458
834.406	3424
834.544	3428
834.682	3443
834.821	3416
834.959	3553
835.097	3409
835.235	3507
835.373	3526
835.511	3496
835.65	3485
835.788	3504
835.926	3405
836.064	3386
836.202	3397
836.34	3629
836.478	3606
836.615	3568
836.753	3584
836.891	3641
837.029	3641
837.167	3595
837.305	3561
837.443	3542
837.58	3488
837.718	3599
837.856	3591
837.993	3534
838.131	3637
838.269	3633
838.406	3572
838.544	3587
838.681	3462
838.819	3466
838.956	3374
839.094	3370
839.231	3447
839.369	3553
839.506	3778
839.643	3641
839.781	3492
839.918	3462
840.055	3542
840.193	3500
840.33	3572
840.467	3576
840.604	3622
840.742	3800
840.879	3545
841.016	3591
841.153	3591
841.29	3785
841.427	3720
841.564	3713
841.701	3766
841.838	3694
841.975	3637
842.112	3728
842.249	3652
842.385	3660
842.522	3838
842.659	3637
842.796	3705
842.933	3720
843.069	3709
843.206	3671
843.343	3812
843.479	3770
843.616	3838
843.752	3717
843.889	3709
844.025	3880
844.162	3698
844.298	3812
844.435	3808
844.571	3838
844.708	3911
844.844	3998
844.98	4040
845.117	4029
845.253	3915
845.389	3896
845.525	3945
845.661	3960
845.798	3907
845.934	4006
846.07	3922
846.206	4071
846.342	4097
846.478	4078
846.614	3998
846.75	3937
846.886	3922
847.022	4048
847.158	4029
847.294	3994
847.429	4013
847.565	4006
847.701	4265
847.837	3892
847.972	3884
848.108	3960
848.244	3949
848.379	3888
848.515	3865
848.65	3797
848.786	3816
848.921	3876
849.057	3983
849.192	3968
849.328	3896
849.463	3945
849.598	3888
849.734	3827
849.869	3808
850.004	3804
850.14	3854
850.275	3827
850.41	3717
850.545	3747
850.68	3755
850.815	3797
850.95	3785
851.085	3968
851.22	3842
851.355	3785
851.49	3789
851.625	3800
851.76	3819
851.895	3720
852.03	3747
852.165	3831
852.299	3827
852.434	3896
852.569	3846
852.703	3876
852.838	3956
852.973	4044
853.107	4010
853.242	3934
853.376	3842
853.511	3793
853.645	3823
853.78	3960
853.914	3918
854.048	3896
854.183	3918
854.317	4002
854.451	4044
854.585	3934
854.72	3964
854.854	4071
854.988	3949
855.122	3998
855.256	3937
855.39	3979
855.524	4082
855.658	4082
855.792	4116
855.926	4093
856.06	4154
856.194	4265
856.327	4124
856.461	4112
856.595	4097
856.729	4192
856.862	4246
856.996	4246
857.13	4310
857.263	4360
857.397	4363
857.53	4291
857.664	4367
857.797	4398
857.931	4417
858.064	4371
858.197	4432
858.331	4421
858.464	4375
858.597	4390
858.731	4383
858.864	4466
858.997	4470
859.13	4516
859.263	4569
859.396	4592
859.529	4523
859.662	4565
859.795	4527
859.928	4611
860.061	4710
860.194	4744
860.327	4649
860.46	4683
860.592	4771
860.725	4809
860.858	4748
860.99	4725
861.123	4679
861.256	4698
861.388	4755
861.521	5357
861.653	4729
861.786	4714
861.918	4714
862.05	4816
862.183	4812
862.315	4896
862.447	4915
862.58	4877
862.712	4828
862.844	4771
862.976	4881
863.108	4862
863.24	5204
863.372	4824
863.504	4934
863.636	4900
863.768	4915
863.9	4930
864.032	4896
864.164	4938
864.296	5014
864.428	5075
864.559	5113
864.691	5121
864.823	5193
864.954	5140
865.086	5181
865.217	5121
865.349	5113
865.48	5174
865.612	5155
865.743	5326
865.875	5235
866.006	5181
866.137	5235
866.269	5242
866.4	5242
866.531	5307
866.662	5223
866.793	5246
866.924	5299
867.055	5322
867.186	5337
867.317	5311
867.448	5345
867.579	5414
867.71	5368
867.841	5414
867.972	5490
868.103	5471
868.233	5467
868.364	5512
868.495	5558
868.625	5604
868.756	5798
868.886	5646
869.017	5767
869.147	5832
869.278	5893
869.408	5802
869.539	5870
869.669	5988
869.799	5889
869.929	6003
870.06	6030
870.19	6152
870.32	6194
870.45	6319
870.58	6357
870.71	6441
870.84	6509
870.97	6372
871.1	6433
871.23	6684
871.36	6711
871.489	6665
871.619	6802
871.749	6878
871.879	6852
872.008	6989
872.138	7019
872.267	7038
872.397	7008
872.526	7015
872.656	7038
872.785	7183
872.915	7331
873.044	7514
873.173	7559
873.303	7636
873.432	7734
873.561	7909
873.69	7925
873.819	7963
873.948	8176
874.077	8233
874.206	8301
874.335	8457
874.464	8682
874.593	8849
874.722	8925
874.851	9150
874.979	9245
875.108	9359
875.237	9367
875.365	9466
875.494	9660
875.623	9915
875.751	9854
875.88	9987
876.008	10120
876.136	10284
876.265	10573
876.393	10740
876.521	10691
876.65	10869
876.778	10816
876.906	10911
877.034	10991
877.162	11181
877.29	11181
877.418	11277
877.546	11417
877.674	11414
877.802	11383
877.93	11528
878.058	11562
878.185	11497
878.313	11600
878.441	11733
878.568	11707
878.696	11767
878.824	11897
878.951	11916
879.079	12034
879.206	12110
879.333	12041
879.461	12041
879.588	12068
879.715	12053
879.842	12194
879.97	12098
880.097	11885
880.224	11885
880.351	11824
880.478	11904
880.605	11893
880.732	11843
880.859	12022
880.986	11832
881.112	11874
881.239	11783
881.366	11646
881.493	11646
881.619	11551
881.746	11570
881.872	11543
881.999	11551
882.125	11516
882.252	11512
882.378	11516
882.505	11570
882.631	11440
882.757	11258
882.883	11406
883.01	11341
883.136	11250
883.262	11136
883.388	11071
883.514	11216
883.64	11235
883.766	11121
883.892	10972
884.018	11041
884.143	11105
884.269	11105
884.395	10930
884.52	10786
884.646	10793
884.772	10752
884.897	10630
885.023	10752
885.148	10710
885.274	10771
885.399	10714
885.524	10637
885.65	10653
885.775	10645
885.9	10634
886.025	10630
886.15	10615
886.275	10413
886.4	10371
886.525	10440
886.65	10398
886.775	10500
886.9	10436
887.025	10542
887.149	10375
887.274	10242
887.399	10234
887.523	10158
887.648	10097
887.773	10131
887.897	10272
888.021	10291
888.146	10090
888.27	10257
888.395	10154
888.519	10162
888.643	10196
888.767	10238
888.891	10093
889.015	10036
889.139	10120
889.263	9979
889.387	10074
889.511	10021
889.635	10059
889.759	10074
889.883	10006
890.006	10086
890.13	10131
890.254	9911
890.377	9934
890.501	9873
890.624	9884
890.748	9888
890.871	9842
890.995	9755
891.118	9694
891.241	9709
891.364	9797
891.488	9884
891.611	9732
891.734	9736
891.857	9701
891.98	9667
892.103	9736
892.226	9698
892.349	9724
892.471	9534
892.594	9610
892.717	9599
892.839	9606
892.962	9641
893.085	9709
893.207	9538
893.33	9580
893.452	9504
893.575	9622
893.697	9477
893.819	9576
893.941	9610
894.064	9599
894.186	9496
894.308	9500
894.43	9572
894.552	9591
894.674	9568
894.796	9393
894.918	9397
895.04	9370
895.161	9332
895.283	9389
895.405	9218
895.526	9256
895.648	9287
895.769	9291
895.891	9272
896.012	9313
896.134	9237
896.255	9256
896.376	9127
896.498	9218
896.619	9127
896.74	9020
896.861	9081
896.982	9253
897.103	9340
897.224	9214
897.345	9062
897.466	9024
897.587	9005
897.708	9097
897.828	9013
897.949	9001
898.07	8914
898.19	8910
898.311	9032
898.431	8910
898.552	8895
898.672	8982
898.792	8960
898.913	9024
899.033	8758
899.153	8739
899.273	8739
899.393	8686
899.513	8731
899.633	8750
899.753	8807
899.873	8701
899.993	8788
900.113	8712
900.232	8773
900.352	8636
900.472	8606
900.591	8598
900.711	8629
900.83	8541
900.95	8655
901.069	8682
901.189	8484
901.308	8446
901.427	8393
901.546	8347
901.665	8450
901.784	8495
901.904	8404
902.023	8355
902.141	8195
902.26	8282
902.379	8244
902.498	8195
902.617	8320
902.735	8252
902.854	8358
902.973	8271
903.091	8183
903.21	8183
903.328	8153
903.446	8119
903.565	8027
903.683	8206
903.801	8058
903.919	8168
904.038	8126
904.156	8107
904.274	8092
904.392	8035
904.51	8020
904.627	8046
904.745	8062
904.863	8069
904.981	7993
905.098	7879
905.216	7860
905.334	7841
905.451	7921
905.569	7906
905.686	7932
905.803	7909
905.921	7784
906.038	7928
906.155	7753
906.272	7696
906.389	7723
906.506	7689
906.623	7601
906.74	7575
906.857	7590
906.974	7491
907.091	7731
907.208	7746
907.324	7639
907.441	7567
907.557	7445
907.674	7426
907.79	7381
907.907	7468
908.023	7422
908.139	7434
908.256	7350
908.372	7403
908.488	7324
908.604	7259
908.72	7289
908.836	7282
908.952	7247
909.068	7232
909.184	7327
909.3	7270
909.415	7278
909.531	7259
909.647	7149
909.762	7221
909.878	7031
909.993	7149
910.108	7126
910.224	7110
910.339	7152
910.454	7141
910.57	6977
910.685	7023
910.8	7187
910.915	7072
911.03	7027
911.145	6859
911.259	6863
911.374	6913
911.489	6875
911.604	6818
911.718	6726
911.833	6749
911.947	6639
912.062	6566
912.176	6779
912.291	6722
912.405	6715
912.519	6802
912.633	6810
912.748	6779
912.862	6707
912.976	6597
913.09	6532
913.204	6547
913.318	6616
913.431	6635
913.545	6650
913.659	6707
913.772	6658
913.886	6563
914	6589
914.113	6631
914.226	6700
914.34	6597
914.453	6521
914.566	6646
914.68	6494
914.793	6498
914.906	6407
915.019	6426
915.132	6395
915.245	6437
915.358	6448
915.47	6464
915.583	6528
915.696	6426
915.809	6540
915.921	6547
916.034	6414
916.146	6407
916.259	6376
916.371	6540
916.483	6460
916.595	6395
916.708	6342
916.82	6418
916.932	6357
917.044	6429
917.156	6391
917.268	6296
917.38	6353
917.491	6361
917.603	6388
917.715	6384
917.826	6422
917.938	6232
918.049	6254
918.161	6334
918.272	6418
918.384	6407
918.495	6384
918.606	6251
918.717	6213
918.828	6258
918.939	6289
919.05	6190
919.161	6235
919.272	6102
919.383	6159
919.494	6353
919.604	6391
919.715	6277
919.826	6228
919.936	6235
920.047	6319
920.157	6289
920.267	6467
920.378	6334
920.488	6315
920.598	6445
920.708	6563
920.818	6551
920.928	6498
921.038	6658
921.148	6551
921.258	6369
921.368	6289
921.477	6220
921.587	6190
921.697	6091
921.806	6224
921.916	6091
922.025	5935
922.134	5908
922.244	5912
922.353	5904
922.462	5927
922.571	5805
922.68	5710
922.789	5680
922.898	5764
923.007	5634
923.116	5752
923.224	5676
923.333	5680
923.442	5619
923.55	5566
923.659	5623
923.767	5649
923.876	5585
923.984	5589
924.092	5505
924.201	5554
924.309	5573
924.417	5558
924.525	5524
924.633	5478
924.741	6266
924.849	5368
924.956	5497
925.064	5360
925.172	5288
925.279	5322
925.387	5318
925.494	5337
925.602	5452
925.709	5364
925.816	5277
925.924	5337
926.031	5368
926.138	5353
926.245	5296
926.352	5220
926.459	5277
926.566	5349
926.673	5231
926.779	5166
926.886	5140
926.993	5067
927.099	5022
927.206	5033
927.312	4946
927.419	4984
927.525	4965
927.631	5071
927.737	4908
927.843	4870
927.95	4797
928.056	4831
928.162	4866
928.267	4866
928.373	5334
928.479	4858
928.585	4691
928.69	4778
928.796	4786
928.901	4675
929.007	4622
929.112	4691
929.218	4675
929.323	4626
929.428	4546
929.533	4687
929.638	4508
929.743	4538
929.848	4535
929.953	4538
930.058	4504
930.163	4318
930.267	4367
930.372	4417
930.477	4341
930.581	4459
930.685	4375
930.79	4265
930.894	4291
930.998	4257
931.103	4371
931.207	4101
931.311	4093
931.415	4048
931.519	3964
931.623	4021
