Data from glass_V78500241_1194.txt Node
Date: Wed Sep 01 19:22:46 CST 2021
User: usil
Spectrometer: V785-0024
Trigger mode: 0
Integration Time (sec): 4.000000E-1
Scans to average: 1
Nonlinearity correction enabled: false
Boxcar width: 0
Storing dark spectrum: false
XAxis mode: Wavelengths
Number of Pixels in Spectrum: 1024
>>>>>Begin Spectral Data<<<<<
801.071	3736
801.214	3793
801.356	3724
801.499	3717
801.641	3701
801.783	3759
801.926	3876
802.068	3781
802.211	3838
802.353	3865
802.496	3873
802.638	3880
802.78	3892
802.923	3926
803.065	3922
803.208	3857
803.35	3831
803.492	3918
803.635	3922
803.777	3842
803.919	3945
804.061	4188
804.204	3937
804.346	3975
804.488	3926
804.63	4029
804.773	3983
804.915	4032
805.057	4139
805.199	4059
805.341	4105
805.483	4162
805.626	4150
805.768	4097
805.91	4238
806.052	4246
806.194	4185
806.336	4325
806.478	4211
806.62	4219
806.762	4200
806.904	4280
807.046	4337
807.188	4242
807.33	4181
807.472	4249
807.614	4200
807.756	4295
807.898	4261
808.04	4249
808.182	4291
808.324	4310
808.465	4352
808.607	4466
808.749	4432
808.891	4443
809.033	4500
809.174	4421
809.316	4219
809.458	4215
809.6	4147
809.741	4112
809.883	4154
810.025	4238
810.166	4207
810.308	4284
810.45	4295
810.591	4207
810.733	4306
810.875	4500
811.016	4843
811.158	5147
811.299	5284
811.441	5303
811.582	5048
811.724	4698
811.865	4451
812.007	4478
812.148	4474
812.29	4459
812.431	4390
812.573	4455
812.714	4413
812.855	4417
812.997	4405
813.138	4478
813.279	4424
813.421	4379
813.562	4360
813.703	4322
813.845	4337
813.986	4287
814.127	4207
814.268	4265
814.41	4299
814.551	4276
814.692	4333
814.833	4276
814.974	4280
815.115	4325
815.256	4295
815.397	4238
815.539	4268
815.68	4230
815.821	4246
815.962	4329
816.103	4291
816.244	4238
816.385	4227
816.526	4314
816.666	4185
816.807	4086
816.948	4173
817.089	4166
817.23	4150
817.371	4067
817.512	4063
817.653	4128
817.793	4048
817.934	4063
818.075	4105
818.216	4093
818.356	4086
818.497	4021
818.638	3930
818.778	3911
818.919	3896
819.06	3903
819.2	3911
819.341	3865
819.481	3865
819.622	3899
819.762	3975
819.903	3983
820.043	3899
820.184	3827
820.324	3781
820.465	3861
820.605	3831
820.746	3876
820.886	3781
821.026	3949
821.167	3972
821.307	3983
821.447	3956
821.588	3960
821.728	3979
821.868	3930
822.008	3876
822.149	3934
822.289	3945
822.429	3808
822.569	3770
822.709	3823
822.849	3759
822.99	3705
823.13	3778
823.27	3785
823.41	3728
823.55	3789
823.69	3701
823.83	3736
823.97	3675
824.11	3599
824.25	3584
824.389	3595
824.529	3667
824.669	3622
824.809	3713
824.949	3743
825.089	3743
825.228	3690
825.368	3587
825.508	3584
825.648	3599
825.787	3633
825.927	3622
826.067	3648
826.206	3720
826.346	3819
826.485	3869
826.625	3827
826.765	3994
826.904	3804
827.044	3633
827.183	3553
827.323	3473
827.462	3515
827.601	3458
827.741	3424
827.88	3473
828.02	3374
828.159	3485
828.298	3488
828.437	3545
828.577	3515
828.716	3610
828.855	3504
828.994	3393
829.134	3355
829.273	3393
829.412	3374
829.551	3321
829.69	3351
829.829	3466
829.968	3477
830.107	3454
830.246	3401
830.385	3405
830.524	3325
830.663	3272
830.802	3230
830.941	3214
831.08	3214
831.219	3268
831.357	3291
831.496	3386
831.635	3253
831.774	3195
831.913	3211
832.051	3123
832.19	3180
832.329	3195
832.467	3119
832.606	3070
832.744	3207
832.883	3195
833.022	3222
833.16	3256
833.299	3321
833.437	3363
833.576	3393
833.714	3443
833.852	3405
833.991	3443
834.129	3492
834.267	3466
834.406	3428
834.544	3443
834.682	3428
834.821	3435
834.959	3595
835.097	3443
835.235	3542
835.373	3507
835.511	3545
835.65	3473
835.788	3481
835.926	3405
836.064	3355
836.202	3428
836.34	3584
836.478	3622
836.615	3549
836.753	3587
836.891	3625
837.029	3629
837.167	3572
837.305	3549
837.443	3523
837.58	3481
837.718	3576
837.856	3572
837.993	3561
838.131	3625
838.269	3564
838.406	3587
838.544	3549
838.681	3466
838.819	3462
838.956	3416
839.094	3428
839.231	3496
839.369	3507
839.506	3800
839.643	3599
839.781	3492
839.918	3462
840.055	3561
840.193	3534
840.33	3561
840.467	3553
840.604	3603
840.742	3812
840.879	3553
841.016	3572
841.153	3587
841.29	3724
841.427	3709
841.564	3720
841.701	3736
841.838	3698
841.975	3667
842.112	3698
842.249	3644
842.385	3663
842.522	3854
842.659	3675
842.796	3637
842.933	3724
843.069	3705
843.206	3671
843.343	3827
843.479	3793
843.616	3800
843.752	3686
843.889	3732
844.025	3854
844.162	3770
844.298	3835
844.435	3827
844.571	3759
844.708	3918
844.844	3964
844.98	4044
845.117	4040
845.253	3926
845.389	3945
845.525	3934
845.661	3945
845.798	3926
845.934	3987
846.07	3941
846.206	4063
846.342	4139
846.478	4074
846.614	3964
846.75	3953
846.886	3934
847.022	4025
847.158	3975
847.294	4040
847.429	4063
847.565	3956
847.701	4238
847.837	3918
847.972	3850
848.108	3998
848.244	3972
848.379	3884
848.515	3838
848.65	3812
848.786	3876
848.921	3876
849.057	3926
849.192	3930
849.328	3892
849.463	3956
849.598	3892
849.734	3880
849.869	3838
850.004	3827
850.14	3823
850.275	3835
850.41	3770
850.545	3759
850.68	3812
850.815	3861
850.95	3816
851.085	3907
851.22	3892
851.355	3861
851.49	3846
851.625	3793
851.76	3823
851.895	3720
852.03	3724
852.165	3804
852.299	3857
852.434	3915
852.569	3842
852.703	3892
852.838	3934
852.973	3949
853.107	3975
853.242	3888
853.376	3857
853.511	3781
853.645	3835
853.78	3960
853.914	3930
854.048	3907
854.183	3888
854.317	3926
854.451	4116
854.585	3994
854.72	3949
854.854	4055
854.988	3972
855.122	4048
855.256	3956
855.39	4082
855.524	4120
855.658	4093
855.792	4093
855.926	4173
856.06	4166
856.194	4173
856.327	4150
856.461	4112
856.595	4166
856.729	4196
856.862	4268
856.996	4238
857.13	4287
857.263	4360
857.397	4325
857.53	4329
857.664	4329
857.797	4440
857.931	4436
858.064	4436
858.197	4428
858.331	4405
858.464	4367
858.597	4318
858.731	4428
858.864	4523
858.997	4443
859.13	4523
859.263	4580
859.396	4626
859.529	4573
859.662	4523
859.795	4550
859.928	4550
860.061	4717
860.194	4736
860.327	4664
860.46	4675
860.592	4710
860.725	4691
860.858	4812
860.99	4717
861.123	4706
861.256	4733
861.388	4748
861.521	5414
861.653	4698
861.786	4710
861.918	4729
862.05	4824
862.183	4896
862.315	4911
862.447	4911
862.58	4896
862.712	4767
862.844	4809
862.976	4847
863.108	4847
863.24	5223
863.372	4877
863.504	4915
863.636	4953
863.768	4995
863.9	5003
864.032	4946
864.164	4980
864.296	5033
864.428	5079
864.559	5105
864.691	5162
864.823	5136
864.954	5098
865.086	5201
865.217	5098
865.349	5159
865.48	5181
865.612	5193
865.743	5273
865.875	5201
866.006	5159
866.137	5250
866.269	5242
866.4	5261
866.531	5258
866.662	5227
866.793	5288
866.924	5299
867.055	5288
867.186	5341
867.317	5322
867.448	5322
867.579	5398
867.71	5429
867.841	5376
867.972	5474
868.103	5497
868.233	5448
868.364	5509
868.495	5585
868.625	5649
868.756	5764
868.886	5691
869.017	5737
869.147	5863
869.278	5893
869.408	5882
869.539	5809
869.669	5908
869.799	5946
869.929	5965
870.06	6026
870.19	6152
870.32	6167
870.45	6266
870.58	6323
870.71	6452
870.84	6513
870.97	6433
871.1	6441
871.23	6650
871.36	6726
871.489	6650
871.619	6764
871.749	6829
871.879	6856
872.008	6947
872.138	6905
872.267	7012
872.397	6935
872.526	6977
872.656	7209
872.785	7149
872.915	7388
873.044	7563
873.173	7578
873.303	7636
873.432	7696
873.561	7868
873.69	7868
873.819	8008
873.948	8077
874.077	8248
874.206	8339
874.335	8549
874.464	8663
874.593	8861
874.722	8899
874.851	9123
874.979	9199
875.108	9389
875.237	9374
875.365	9526
875.494	9717
875.623	9816
875.751	9816
875.88	9975
876.008	10112
876.136	10261
876.265	10519
876.393	10759
876.521	10748
876.65	10835
876.778	10923
876.906	10847
877.034	11006
877.162	11075
877.29	11197
877.418	11299
877.546	11368
877.674	11474
877.802	11516
877.93	11535
878.058	11577
878.185	11547
878.313	11688
878.441	11718
878.568	11767
878.696	11718
878.824	11882
878.951	11965
879.079	11973
879.206	12209
879.333	11992
879.461	12026
879.588	12133
879.715	12129
879.842	12243
879.97	12007
880.097	11863
880.224	11897
880.351	11882
880.478	11843
880.605	11828
880.732	11817
880.859	12175
880.986	11790
881.112	11828
881.239	11680
881.366	11722
881.493	11608
881.619	11608
881.746	11604
881.872	11482
881.999	11497
882.125	11512
882.252	11535
882.378	11455
882.505	11627
882.631	11322
882.757	11318
882.883	11326
883.01	11311
883.136	11220
883.262	11147
883.388	11105
883.514	11193
883.64	11159
883.766	11143
883.892	10995
884.018	11029
884.143	11037
884.269	11109
884.395	10843
884.52	10786
884.646	10809
884.772	10698
884.897	10679
885.023	10702
885.148	10729
885.274	10740
885.399	10660
885.524	10584
885.65	10569
885.775	10565
885.9	10500
886.025	10573
886.15	10508
886.275	10516
886.4	10436
886.525	10405
886.65	10459
886.775	10322
886.9	10470
887.025	10565
887.149	10363
887.274	10207
887.399	10166
887.523	10219
887.648	10154
887.773	10147
887.897	10287
888.021	10261
888.146	10116
888.27	10284
888.395	10234
888.519	10234
888.643	10211
888.767	10204
888.891	10139
889.015	10059
889.139	10029
889.263	9960
889.387	10074
889.511	10090
889.635	10048
889.759	9994
889.883	9998
890.006	9998
890.13	10116
890.254	10032
890.377	9968
890.501	9865
890.624	9918
890.748	9915
890.871	9865
890.995	9762
891.118	9713
891.241	9736
891.364	9774
891.488	9873
891.611	9728
891.734	9751
891.857	9804
891.98	9629
892.103	9732
892.226	9778
892.349	9667
892.471	9542
892.594	9580
892.717	9637
892.839	9606
892.962	9637
893.085	9622
893.207	9637
893.33	9500
893.452	9545
893.575	9595
893.697	9523
893.819	9622
893.941	9660
894.064	9614
894.186	9492
894.308	9428
894.43	9534
894.552	9515
894.674	9507
894.796	9408
894.918	9386
895.04	9332
895.161	9393
895.283	9344
895.405	9264
895.526	9268
895.648	9241
895.769	9260
895.891	9211
896.012	9325
896.134	9195
896.255	9150
896.376	9135
896.498	9142
896.619	9203
896.74	9055
896.861	9135
896.982	9245
897.103	9302
897.224	9230
897.345	9089
897.466	9028
897.587	8967
897.708	9047
897.828	9055
897.949	8944
898.07	8902
898.19	8906
898.311	9077
898.431	8921
898.552	8979
898.672	8998
898.792	8990
898.913	8979
899.033	8815
899.153	8746
899.273	8590
899.393	8785
899.513	8731
899.633	8804
899.753	8750
899.873	8693
899.993	8629
900.113	8674
900.232	8708
900.352	8659
900.472	8594
900.591	8583
900.711	8590
900.83	8533
900.95	8655
901.069	8670
901.189	8492
901.308	8461
901.427	8396
901.546	8408
901.665	8454
901.784	8530
901.904	8446
902.023	8336
902.141	8221
902.26	8191
902.379	8309
902.498	8183
902.617	8214
902.735	8301
902.854	8294
902.973	8298
903.091	8134
903.21	8134
903.328	8134
903.446	8115
903.565	8096
903.683	8142
903.801	8039
903.919	8161
904.038	8134
904.156	8046
904.274	8035
904.392	8024
904.51	8020
904.627	8084
904.745	8039
904.863	8123
904.981	7951
905.098	7909
905.216	7826
905.334	7871
905.451	7879
905.569	7868
905.686	7902
905.803	7913
905.921	7795
906.038	7883
906.155	7852
906.272	7750
906.389	7693
906.506	7624
906.623	7639
906.74	7597
906.857	7628
906.974	7556
907.091	7647
907.208	7715
907.324	7655
907.441	7582
907.557	7449
907.674	7518
907.79	7400
907.907	7430
908.023	7480
908.139	7441
908.256	7350
908.372	7419
908.488	7365
908.604	7244
908.72	7244
908.836	7297
908.952	7289
909.068	7240
909.184	7301
909.3	7270
909.415	7301
909.531	7320
909.647	7149
909.762	7122
909.878	7038
909.993	7126
910.108	7069
910.224	7053
910.339	7126
910.454	7038
910.57	6996
910.685	7000
910.8	7133
910.915	7126
911.03	7019
911.145	6939
911.259	6840
911.374	6901
911.489	6814
911.604	6810
911.718	6787
911.833	6734
911.947	6730
912.062	6642
912.176	6707
912.291	6715
912.405	6635
912.519	6837
912.633	6894
912.748	6734
912.862	6707
912.976	6646
913.09	6525
913.204	6642
913.318	6623
913.431	6627
913.545	6635
913.659	6700
913.772	6658
913.886	6555
914	6544
914.113	6620
914.226	6612
914.34	6650
914.453	6490
914.566	6601
914.68	6536
914.793	6490
914.906	6391
915.019	6418
915.132	6384
915.245	6399
915.358	6452
915.47	6410
915.583	6483
915.696	6490
915.809	6517
915.921	6570
916.034	6460
916.146	6376
916.259	6353
916.371	6437
916.483	6506
916.595	6372
916.708	6399
916.82	6391
916.932	6361
917.044	6361
917.156	6403
917.268	6262
917.38	6315
917.491	6277
917.603	6300
917.715	6410
917.826	6414
917.938	6308
918.049	6224
918.161	6338
918.272	6353
918.384	6441
918.495	6384
918.606	6251
918.717	6201
918.828	6304
918.939	6308
919.05	6235
919.161	6334
919.272	6114
919.383	6216
919.494	6273
919.604	6391
919.715	6319
919.826	6266
919.936	6331
920.047	6346
920.157	6262
920.267	6452
920.378	6323
920.488	6304
920.598	6475
920.708	6536
920.818	6486
920.928	6475
921.038	6654
921.148	6620
921.258	6391
921.368	6315
921.477	6190
921.587	6144
921.697	6098
921.806	6190
921.916	6106
922.025	5958
922.134	5946
922.244	5870
922.353	5965
922.462	5870
922.571	5779
922.68	5665
922.789	5733
922.898	5794
923.007	5672
923.116	5756
923.224	5653
923.333	5646
923.442	5623
923.55	5566
923.659	5577
923.767	5585
923.876	5505
923.984	5653
924.092	5497
924.201	5596
924.309	5589
924.417	5623
924.525	5505
924.633	5528
924.741	6331
924.849	5395
924.956	5463
925.064	5368
925.172	5326
925.279	5318
925.387	5402
925.494	5421
925.602	5402
925.709	5417
925.816	5265
925.924	5345
926.031	5379
926.138	5349
926.245	5349
926.352	5292
926.459	5345
926.566	5299
926.673	5227
926.779	5162
926.886	5143
926.993	5029
927.099	5014
927.206	4957
927.312	4995
927.419	5052
927.525	5006
927.631	5041
927.737	4900
927.843	4854
927.95	4755
928.056	4824
928.162	4771
928.267	4862
928.373	5315
928.479	4824
928.585	4710
928.69	4774
928.796	4835
928.901	4733
929.007	4554
929.112	4691
929.218	4653
929.323	4618
929.428	4550
929.533	4653
929.638	4493
929.743	4519
929.848	4577
929.953	4512
930.058	4421
930.163	4325
930.267	4390
930.372	4459
930.477	4303
930.581	4470
930.685	4303
930.79	4268
930.894	4276
930.998	4242
931.103	4409
931.207	4158
931.311	4074
931.415	4101
931.519	3941
931.623	3934
