Data from glass_V78500241_2015.txt Node
Date: Wed Sep 01 19:28:28 CST 2021
User: usil
Spectrometer: V785-0024
Trigger mode: 0
Integration Time (sec): 4.000000E-1
Scans to average: 1
Nonlinearity correction enabled: false
Boxcar width: 0
Storing dark spectrum: false
XAxis mode: Wavelengths
Number of Pixels in Spectrum: 1024
>>>>>Begin Spectral Data<<<<<
801.071	3724
801.214	3728
801.356	3690
801.499	3717
801.641	3724
801.783	3747
801.926	3857
802.068	3804
802.211	3869
802.353	3922
802.496	3865
802.638	3857
802.78	3876
802.923	3922
803.065	3884
803.208	3861
803.35	3869
803.492	3876
803.635	3926
803.777	3816
803.919	3838
804.061	4120
804.204	3979
804.346	3937
804.488	3918
804.63	3983
804.773	3949
804.915	4040
805.057	4135
805.199	4044
805.341	4051
805.483	4128
805.626	4105
805.768	4093
805.91	4238
806.052	4242
806.194	4169
806.336	4341
806.478	4150
806.62	4200
806.762	4207
806.904	4257
807.046	4360
807.188	4227
807.33	4135
807.472	4227
807.614	4162
807.756	4219
807.898	4219
808.04	4223
808.182	4265
808.324	4314
808.465	4386
808.607	4440
808.749	4432
808.891	4424
809.033	4497
809.174	4383
809.316	4276
809.458	4234
809.6	4154
809.741	4147
809.883	4112
810.025	4192
810.166	4196
810.308	4211
810.45	4246
810.591	4246
810.733	4261
810.875	4519
811.016	4805
811.158	5117
811.299	5239
811.441	5261
811.582	5052
811.724	4702
811.865	4489
812.007	4421
812.148	4409
812.29	4398
812.431	4409
812.573	4428
812.714	4371
812.855	4386
812.997	4386
813.138	4466
813.279	4421
813.421	4390
813.562	4409
813.703	4341
813.845	4303
813.986	4310
814.127	4227
814.268	4272
814.41	4276
814.551	4291
814.692	4348
814.833	4257
814.974	4276
815.115	4306
815.256	4230
815.397	4207
815.539	4200
815.68	4192
815.821	4196
815.962	4295
816.103	4280
816.244	4238
816.385	4204
816.526	4257
816.666	4188
816.807	4135
816.948	4242
817.089	4166
817.23	4128
817.371	4090
817.512	4044
817.653	4116
817.793	4010
817.934	4055
818.075	4143
818.216	4112
818.356	4078
818.497	4036
818.638	3896
818.778	3911
818.919	3884
819.06	3850
819.2	3945
819.341	3850
819.481	3827
819.622	3880
819.762	4021
819.903	3968
820.043	3842
820.184	3835
820.324	3842
820.465	3892
820.605	3838
820.746	3884
820.886	3774
821.026	3926
821.167	3911
821.307	3987
821.447	4002
821.588	3911
821.728	3968
821.868	3941
822.008	3850
822.149	3945
822.289	3888
822.429	3774
822.569	3793
822.709	3812
822.849	3652
822.99	3698
823.13	3774
823.27	3747
823.41	3755
823.55	3743
823.69	3774
823.83	3736
823.97	3625
824.11	3587
824.25	3553
824.389	3637
824.529	3686
824.669	3591
824.809	3728
824.949	3728
825.089	3740
825.228	3724
825.368	3584
825.508	3564
825.648	3580
825.787	3595
825.927	3599
826.067	3614
826.206	3679
826.346	3793
826.485	3793
826.625	3842
826.765	3949
826.904	3816
827.044	3576
827.183	3530
827.323	3428
827.462	3515
827.601	3428
827.741	3435
827.88	3409
828.02	3374
828.159	3412
828.298	3439
828.437	3538
828.577	3523
828.716	3584
828.855	3515
828.994	3378
829.134	3363
829.273	3378
829.412	3386
829.551	3348
829.69	3340
829.829	3428
829.968	3481
830.107	3428
830.246	3439
830.385	3359
830.524	3382
830.663	3310
830.802	3275
830.941	3173
831.08	3184
831.219	3256
831.357	3287
831.496	3412
831.635	3233
831.774	3173
831.913	3218
832.051	3123
832.19	3112
832.329	3199
832.467	3123
832.606	3116
832.744	3173
832.883	3218
833.022	3192
833.16	3249
833.299	3272
833.437	3317
833.576	3351
833.714	3359
833.852	3431
833.991	3435
834.129	3473
834.267	3431
834.406	3351
834.544	3412
834.682	3416
834.821	3416
834.959	3576
835.097	3435
835.235	3542
835.373	3511
835.511	3485
835.65	3435
835.788	3473
835.926	3367
836.064	3313
836.202	3374
836.34	3568
836.478	3606
836.615	3564
836.753	3584
836.891	3622
837.029	3564
837.167	3564
837.305	3584
837.443	3511
837.58	3492
837.718	3606
837.856	3492
837.993	3519
838.131	3553
838.269	3603
838.406	3576
838.544	3561
838.681	3439
838.819	3431
838.956	3363
839.094	3420
839.231	3447
839.369	3526
839.506	3720
839.643	3622
839.781	3515
839.918	3477
840.055	3534
840.193	3526
840.33	3481
840.467	3515
840.604	3561
840.742	3785
840.879	3553
841.016	3553
841.153	3584
841.29	3743
841.427	3671
841.564	3701
841.701	3759
841.838	3720
841.975	3663
842.112	3724
842.249	3679
842.385	3603
842.522	3800
842.659	3690
842.796	3675
842.933	3690
843.069	3690
843.206	3698
843.343	3785
843.479	3774
843.616	3797
843.752	3698
843.889	3656
844.025	3854
844.162	3717
844.298	3819
844.435	3770
844.571	3770
844.708	3896
844.844	3979
844.98	4032
845.117	3972
845.253	3888
845.389	3896
845.525	3956
845.661	3979
845.798	3865
845.934	3994
846.07	3964
846.206	4032
846.342	4139
846.478	4063
846.614	3953
846.75	3922
846.886	3884
847.022	4002
847.158	3949
847.294	4021
847.429	4006
847.565	3949
847.701	4207
847.837	3861
847.972	3873
848.108	4048
848.244	3964
848.379	3846
848.515	3789
848.65	3823
848.786	3812
848.921	3876
849.057	3911
849.192	3941
849.328	3903
849.463	3926
849.598	3896
849.734	3854
849.869	3789
850.004	3804
850.14	3812
850.275	3785
850.41	3728
850.545	3755
850.68	3759
850.815	3762
850.95	3797
851.085	3926
851.22	3835
851.355	3808
851.49	3789
851.625	3793
851.76	3804
851.895	3740
852.03	3736
852.165	3751
852.299	3835
852.434	3899
852.569	3854
852.703	3922
852.838	3926
852.973	4006
853.107	3983
853.242	3846
853.376	3869
853.511	3789
853.645	3850
853.78	3949
853.914	3907
854.048	3808
854.183	3888
854.317	3945
854.451	4010
854.585	3926
854.72	3953
854.854	4051
854.988	3918
855.122	4010
855.256	3907
855.39	4021
855.524	4078
855.658	4105
855.792	4101
855.926	4135
856.06	4128
856.194	4204
856.327	4124
856.461	4120
856.595	4158
856.729	4227
856.862	4295
856.996	4204
857.13	4291
857.263	4299
857.397	4348
857.53	4261
857.664	4325
857.797	4409
857.931	4390
858.064	4341
858.197	4409
858.331	4417
858.464	4344
858.597	4367
858.731	4459
858.864	4481
858.997	4443
859.13	4504
859.263	4542
859.396	4599
859.529	4497
859.662	4527
859.795	4500
859.928	4599
860.061	4698
860.194	4736
860.327	4641
860.46	4637
860.592	4748
860.725	4714
860.858	4774
860.99	4706
861.123	4664
861.256	4653
861.388	4740
861.521	5395
861.653	4683
861.786	4710
861.918	4729
862.05	4744
862.183	4782
862.315	4835
862.447	4877
862.58	4900
862.712	4782
862.844	4771
862.976	4812
863.108	4828
863.24	5185
863.372	4839
863.504	4877
863.636	4831
863.768	4976
863.9	4953
864.032	4892
864.164	4984
864.296	4984
864.428	5067
864.559	5045
864.691	5086
864.823	5109
864.954	5067
865.086	5181
865.217	5151
865.349	5121
865.48	5166
865.612	5208
865.743	5261
865.875	5185
866.006	5166
866.137	5204
866.269	5254
866.4	5242
866.531	5178
866.662	5231
866.793	5227
866.924	5318
867.055	5322
867.186	5372
867.317	5353
867.448	5353
867.579	5414
867.71	5421
867.841	5364
867.972	5414
868.103	5455
868.233	5474
868.364	5459
868.495	5524
868.625	5665
868.756	5756
868.886	5649
869.017	5703
869.147	5832
869.278	5874
869.408	5771
869.539	5840
869.669	5946
869.799	5863
869.929	5999
870.06	6034
870.19	6194
870.32	6201
870.45	6254
870.58	6376
870.71	6422
870.84	6483
870.97	6437
871.1	6369
871.23	6593
871.36	6738
871.489	6601
871.619	6719
871.749	6829
871.879	6848
872.008	6981
872.138	6977
872.267	6985
872.397	6981
872.526	7069
872.656	7103
872.785	7206
872.915	7373
873.044	7567
873.173	7529
873.303	7624
873.432	7753
873.561	7902
873.69	7868
873.819	7944
873.948	8115
874.077	8210
874.206	8320
874.335	8404
874.464	8697
874.593	8807
874.722	8914
874.851	9100
874.979	9199
875.108	9291
875.237	9332
875.365	9507
875.494	9625
875.623	9850
875.751	9846
875.88	10032
876.008	10192
876.136	10238
876.265	10584
876.393	10683
876.521	10698
876.65	10778
876.778	10873
876.906	10900
877.034	10980
877.162	11064
877.29	11090
877.418	11212
877.546	11303
877.674	11417
877.802	11509
877.93	11512
878.058	11516
878.185	11554
878.313	11661
878.441	11767
878.568	11657
878.696	11836
878.824	11870
878.951	11996
879.079	11958
879.206	12144
879.333	12003
879.461	12026
879.588	12110
879.715	12136
879.842	12243
879.97	12091
880.097	11859
880.224	11866
880.351	11866
880.478	11897
880.605	11889
880.732	11863
880.859	11988
880.986	11866
881.112	11946
881.239	11718
881.366	11646
881.493	11604
881.619	11543
881.746	11611
881.872	11474
881.999	11592
882.125	11482
882.252	11585
882.378	11486
882.505	11585
882.631	11326
882.757	11261
882.883	11318
883.01	11193
883.136	11239
883.262	11102
883.388	11140
883.514	11239
883.64	11246
883.766	11204
883.892	11037
884.018	10923
884.143	11102
884.269	11140
884.395	10774
884.52	10736
884.646	10755
884.772	10649
884.897	10668
885.023	10653
885.148	10675
885.274	10801
885.399	10668
885.524	10615
885.65	10580
885.775	10561
885.9	10592
886.025	10607
886.15	10546
886.275	10474
886.4	10402
886.525	10409
886.65	10390
886.775	10299
886.9	10462
887.025	10527
887.149	10314
887.274	10284
887.399	10200
887.523	10109
887.648	10044
887.773	10139
887.897	10166
888.021	10200
888.146	10249
888.27	10246
888.395	10238
888.519	10227
888.643	10139
888.767	10181
888.891	10097
889.015	10063
889.139	10044
889.263	9941
889.387	10029
889.511	10059
889.635	9953
889.759	9960
889.883	10017
890.006	10017
890.13	10105
890.254	9926
890.377	9979
890.501	9846
890.624	9865
890.748	9850
890.871	9793
890.995	9751
891.118	9774
891.241	9724
891.364	9766
891.488	9827
891.611	9770
891.734	9774
891.857	9751
891.98	9728
892.103	9838
892.226	9724
892.349	9641
892.471	9526
892.594	9500
892.717	9667
892.839	9648
892.962	9610
893.085	9564
893.207	9557
893.33	9431
893.452	9542
893.575	9553
893.697	9507
893.819	9656
893.941	9538
894.064	9511
894.186	9416
894.308	9458
894.43	9473
894.552	9618
894.674	9469
894.796	9359
894.918	9389
895.04	9393
895.161	9408
895.283	9302
895.405	9241
895.526	9348
895.648	9264
895.769	9169
895.891	9226
896.012	9329
896.134	9222
896.255	9176
896.376	9104
896.498	9188
896.619	9093
896.74	9116
896.861	9077
896.982	9207
897.103	9344
897.224	9138
897.345	9089
897.466	9032
897.587	9005
897.708	9028
897.828	8937
897.949	8918
898.07	8883
898.19	8906
898.311	8937
898.431	8963
898.552	8929
898.672	8986
898.792	8948
898.913	8925
899.033	8826
899.153	8758
899.273	8674
899.393	8659
899.513	8705
899.633	8739
899.753	8746
899.873	8629
899.993	8766
900.113	8678
900.232	8655
900.352	8712
900.472	8689
900.591	8571
900.711	8503
900.83	8537
900.95	8720
901.069	8610
901.189	8598
901.308	8419
901.427	8389
901.546	8438
901.665	8438
901.784	8492
901.904	8427
902.023	8328
902.141	8248
902.26	8210
902.379	8259
902.498	8157
902.617	8275
902.735	8332
902.854	8202
902.973	8271
903.091	8145
903.21	8157
903.328	8202
903.446	8134
903.565	8119
903.683	8123
903.801	8107
903.919	8088
904.038	8142
904.156	7940
904.274	8081
904.392	8020
904.51	8081
904.627	8054
904.745	8130
904.863	8134
904.981	7970
905.098	7902
905.216	7875
905.334	7898
905.451	7871
905.569	7879
905.686	7902
905.803	7925
905.921	7734
906.038	7845
906.155	7803
906.272	7715
906.389	7696
906.506	7556
906.623	7647
906.74	7616
906.857	7597
906.974	7613
907.091	7636
907.208	7662
907.324	7605
907.441	7582
907.557	7472
907.674	7392
907.79	7430
907.907	7377
908.023	7373
908.139	7400
908.256	7324
908.372	7346
908.488	7316
908.604	7369
908.72	7289
908.836	7263
908.952	7255
909.068	7190
909.184	7362
909.3	7232
909.415	7225
909.531	7259
909.647	7126
909.762	7103
909.878	7053
909.993	7103
910.108	7110
910.224	7107
910.339	7133
910.454	7046
910.57	6970
910.685	6966
910.8	7217
910.915	7072
911.03	7027
911.145	6871
911.259	6848
911.374	6932
911.489	6871
911.604	6837
911.718	6662
911.833	6745
911.947	6692
912.062	6551
912.176	6696
912.291	6700
912.405	6635
912.519	6825
912.633	6810
912.748	6692
912.862	6707
912.976	6658
913.09	6559
913.204	6544
913.318	6620
913.431	6715
913.545	6665
913.659	6684
913.772	6639
913.886	6566
914	6536
914.113	6681
914.226	6582
914.34	6593
914.453	6429
914.566	6616
914.68	6528
914.793	6502
914.906	6464
915.019	6407
915.132	6376
915.245	6391
915.358	6471
915.47	6460
915.583	6418
915.696	6467
915.809	6509
915.921	6631
916.034	6448
916.146	6380
916.259	6346
916.371	6452
916.483	6380
916.595	6369
916.708	6429
916.82	6346
916.932	6403
917.044	6384
917.156	6437
917.268	6285
917.38	6376
917.491	6300
917.603	6334
917.715	6388
917.826	6403
917.938	6327
918.049	6235
918.161	6327
918.272	6456
918.384	6418
918.495	6327
918.606	6262
918.717	6243
918.828	6254
918.939	6254
919.05	6209
919.161	6308
919.272	6133
919.383	6186
919.494	6289
919.604	6429
919.715	6216
919.826	6182
919.936	6251
920.047	6300
920.157	6258
920.267	6395
920.378	6319
920.488	6281
920.598	6509
920.708	6574
920.818	6429
920.928	6502
921.038	6597
921.148	6536
921.258	6384
921.368	6254
921.477	6270
921.587	6197
921.697	6057
921.806	6102
921.916	6057
922.025	5920
922.134	5946
922.244	5931
922.353	5931
922.462	5779
922.571	5783
922.68	5699
922.789	5653
922.898	5684
923.007	5642
923.116	5707
923.224	5646
923.333	5630
923.442	5596
923.55	5604
923.659	5554
923.767	5600
923.876	5535
923.984	5627
924.092	5471
924.201	5566
924.309	5535
924.417	5528
924.525	5463
924.633	5528
924.741	6220
924.849	5436
924.956	5467
925.064	5315
925.172	5349
925.279	5326
925.387	5345
925.494	5368
925.602	5452
925.709	5395
925.816	5269
925.924	5322
926.031	5368
926.138	5273
926.245	5353
926.352	5254
926.459	5303
926.566	5311
926.673	5204
926.779	5132
926.886	5113
926.993	5025
927.099	5006
927.206	4953
927.312	4984
927.419	5014
927.525	4968
927.631	5048
927.737	4843
927.843	4847
927.95	4793
928.056	4843
928.162	4793
928.267	4831
928.373	5250
928.479	4824
928.585	4679
928.69	4790
928.796	4729
928.901	4649
929.007	4580
929.112	4660
929.218	4626
929.323	4538
929.428	4588
929.533	4672
929.638	4516
929.743	4527
929.848	4558
929.953	4504
930.058	4417
930.163	4314
930.267	4341
930.372	4428
930.477	4325
930.581	4455
930.685	4367
930.79	4249
930.894	4268
930.998	4246
931.103	4314
931.207	4147
931.311	4086
931.415	4059
931.519	3949
931.623	3937
