Data from glass_V78500241_1982.txt Node
Date: Wed Sep 01 19:28:14 CST 2021
User: usil
Spectrometer: V785-0024
Trigger mode: 0
Integration Time (sec): 4.000000E-1
Scans to average: 1
Nonlinearity correction enabled: false
Boxcar width: 0
Storing dark spectrum: false
XAxis mode: Wavelengths
Number of Pixels in Spectrum: 1024
>>>>>Begin Spectral Data<<<<<
801.071	3736
801.214	3747
801.356	3701
801.499	3747
801.641	3717
801.783	3797
801.926	3884
802.068	3835
802.211	3850
802.353	3869
802.496	3857
802.638	3838
802.78	3892
802.923	3937
803.065	3869
803.208	3861
803.35	3861
803.492	3949
803.635	3926
803.777	3816
803.919	3911
804.061	4143
804.204	3994
804.346	3903
804.488	3854
804.63	4010
804.773	3953
804.915	4036
805.057	4128
805.199	4048
805.341	4078
805.483	4147
805.626	4112
805.768	4112
805.91	4181
806.052	4238
806.194	4223
806.336	4360
806.478	4200
806.62	4200
806.762	4162
806.904	4280
807.046	4325
807.188	4253
807.33	4227
807.472	4242
807.614	4181
807.756	4234
807.898	4215
808.04	4162
808.182	4272
808.324	4310
808.465	4322
808.607	4428
808.749	4489
808.891	4466
809.033	4497
809.174	4390
809.316	4265
809.458	4234
809.6	4158
809.741	4188
809.883	4124
810.025	4230
810.166	4192
810.308	4215
810.45	4223
810.591	4234
810.733	4306
810.875	4485
811.016	4835
811.158	5140
811.299	5288
811.441	5235
811.582	5052
811.724	4698
811.865	4405
812.007	4504
812.148	4409
812.29	4413
812.431	4398
812.573	4371
812.714	4367
812.855	4405
812.997	4417
813.138	4451
813.279	4455
813.421	4367
813.562	4352
813.703	4337
813.845	4287
813.986	4257
814.127	4196
814.268	4284
814.41	4272
814.551	4280
814.692	4314
814.833	4287
814.974	4268
815.115	4337
815.256	4253
815.397	4230
815.539	4257
815.68	4196
815.821	4211
815.962	4363
816.103	4303
816.244	4207
816.385	4246
816.526	4291
816.666	4234
816.807	4071
816.948	4143
817.089	4177
817.23	4109
817.371	4074
817.512	4067
817.653	4093
817.793	4032
817.934	4017
818.075	4105
818.216	4067
818.356	4082
818.497	3968
818.638	3869
818.778	3930
818.919	3888
819.06	3873
819.2	3915
819.341	3846
819.481	3838
819.622	3865
819.762	4029
819.903	3941
820.043	3838
820.184	3850
820.324	3797
820.465	3857
820.605	3854
820.746	3876
820.886	3819
821.026	3922
821.167	3892
821.307	3994
821.447	3934
821.588	3960
821.728	3960
821.868	3915
822.008	3888
822.149	3899
822.289	3865
822.429	3812
822.569	3785
822.709	3751
822.849	3682
822.99	3759
823.13	3747
823.27	3759
823.41	3644
823.55	3728
823.69	3724
823.83	3732
823.97	3682
824.11	3606
824.25	3564
824.389	3606
824.529	3690
824.669	3610
824.809	3717
824.949	3766
825.089	3728
825.228	3682
825.368	3580
825.508	3523
825.648	3519
825.787	3591
825.927	3610
826.067	3614
826.206	3660
826.346	3797
826.485	3819
826.625	3842
826.765	3922
826.904	3827
827.044	3549
827.183	3492
827.323	3431
827.462	3492
827.601	3420
827.741	3454
827.88	3439
828.02	3344
828.159	3481
828.298	3473
828.437	3576
828.577	3473
828.716	3633
828.855	3481
828.994	3386
829.134	3363
829.273	3367
829.412	3359
829.551	3306
829.69	3367
829.829	3412
829.968	3523
830.107	3435
830.246	3443
830.385	3378
830.524	3332
830.663	3272
830.802	3264
830.941	3157
831.08	3218
831.219	3264
831.357	3237
831.496	3378
831.635	3214
831.774	3180
831.913	3222
832.051	3104
832.19	3131
832.329	3233
832.467	3100
832.606	3104
832.744	3161
832.883	3142
833.022	3173
833.16	3249
833.299	3287
833.437	3313
833.576	3397
833.714	3386
833.852	3439
833.991	3469
834.129	3458
834.267	3462
834.406	3393
834.544	3447
834.682	3412
834.821	3409
834.959	3603
835.097	3386
835.235	3545
835.373	3447
835.511	3481
835.65	3431
835.788	3469
835.926	3397
836.064	3382
836.202	3412
836.34	3561
836.478	3606
836.615	3561
836.753	3591
836.891	3660
837.029	3564
837.167	3553
837.305	3549
837.443	3576
837.58	3526
837.718	3599
837.856	3576
837.993	3523
838.131	3595
838.269	3538
838.406	3599
838.544	3580
838.681	3450
838.819	3439
838.956	3374
839.094	3405
839.231	3450
839.369	3561
839.506	3755
839.643	3671
839.781	3515
839.918	3443
840.055	3534
840.193	3481
840.33	3481
840.467	3530
840.604	3595
840.742	3770
840.879	3564
841.016	3584
841.153	3641
841.29	3747
841.427	3701
841.564	3717
841.701	3743
841.838	3694
841.975	3679
842.112	3701
842.249	3629
842.385	3656
842.522	3800
842.659	3682
842.796	3648
842.933	3713
843.069	3694
843.206	3690
843.343	3812
843.479	3781
843.616	3835
843.752	3629
843.889	3713
844.025	3865
844.162	3694
844.298	3865
844.435	3774
844.571	3774
844.708	3876
844.844	4032
844.98	3998
845.117	3991
845.253	3907
845.389	3918
845.525	3979
845.661	3945
845.798	3884
845.934	3972
846.07	3972
846.206	4013
846.342	4059
846.478	4055
846.614	3991
846.75	3930
846.886	3930
847.022	4032
847.158	3983
847.294	3975
847.429	4032
847.565	3975
847.701	4257
847.837	3884
847.972	3892
848.108	3949
848.244	3983
848.379	3865
848.515	3808
848.65	3797
848.786	3861
848.921	3827
849.057	3911
849.192	3953
849.328	3861
849.463	3884
849.598	3850
849.734	3876
849.869	3819
850.004	3740
850.14	3808
850.275	3781
850.41	3736
850.545	3770
850.68	3781
850.815	3770
850.95	3793
851.085	3960
851.22	3854
851.355	3831
851.49	3835
851.625	3823
851.76	3759
851.895	3679
852.03	3701
852.165	3789
852.299	3907
852.434	3899
852.569	3884
852.703	3869
852.838	3956
852.973	3972
853.107	3964
853.242	3842
853.376	3861
853.511	3808
853.645	3812
853.78	3953
853.914	3876
854.048	3918
854.183	3880
854.317	3964
854.451	4101
854.585	3949
854.72	3922
854.854	4021
854.988	3930
855.122	3972
855.256	3949
855.39	3998
855.524	4067
855.658	4105
855.792	4093
855.926	4124
856.06	4150
856.194	4246
856.327	4112
856.461	4105
856.595	4128
856.729	4181
856.862	4276
856.996	4314
857.13	4280
857.263	4352
857.397	4314
857.53	4238
857.664	4344
857.797	4413
857.931	4402
858.064	4367
858.197	4485
858.331	4428
858.464	4322
858.597	4291
858.731	4428
858.864	4413
858.997	4417
859.13	4512
859.263	4531
859.396	4596
859.529	4523
859.662	4512
859.795	4550
859.928	4565
860.061	4672
860.194	4714
860.327	4645
860.46	4645
860.592	4698
860.725	4771
860.858	4744
860.99	4694
861.123	4672
861.256	4714
861.388	4706
861.521	5364
861.653	4778
861.786	4660
861.918	4736
862.05	4790
862.183	4858
862.315	4850
862.447	4927
862.58	4946
862.712	4809
862.844	4778
862.976	4862
863.108	4858
863.24	5147
863.372	4790
863.504	4927
863.636	4873
863.768	4991
863.9	4938
864.032	4927
864.164	4949
864.296	5006
864.428	5048
864.559	5147
864.691	5140
864.823	5075
864.954	5113
865.086	5083
865.217	5117
865.349	5124
865.48	5147
865.612	5143
865.743	5235
865.875	5223
866.006	5162
866.137	5193
866.269	5280
866.4	5212
866.531	5227
866.662	5258
866.793	5277
866.924	5242
867.055	5330
867.186	5353
867.317	5368
867.448	5303
867.579	5391
867.71	5421
867.841	5421
867.972	5505
868.103	5448
868.233	5444
868.364	5558
868.495	5539
868.625	5661
868.756	5752
868.886	5627
869.017	5710
869.147	5851
869.278	5897
869.408	5809
869.539	5783
869.669	5946
869.799	5882
869.929	5977
870.06	6068
870.19	6247
870.32	6171
870.45	6232
870.58	6304
870.71	6422
870.84	6395
870.97	6460
871.1	6441
871.23	6650
871.36	6658
871.489	6677
871.619	6707
871.749	6745
871.879	6875
872.008	6932
872.138	6989
872.267	6973
872.397	6920
872.526	7057
872.656	7080
872.785	7247
872.915	7350
873.044	7556
873.173	7487
873.303	7556
873.432	7719
873.561	7814
873.69	7860
873.819	8027
873.948	8161
874.077	8279
874.206	8332
874.335	8446
874.464	8621
874.593	8864
874.722	8880
874.851	9173
874.979	9249
875.108	9351
875.237	9386
875.365	9549
875.494	9648
875.623	9800
875.751	9827
875.88	10032
876.008	10177
876.136	10211
876.265	10440
876.393	10584
876.521	10702
876.65	10786
876.778	10900
876.906	10949
877.034	10938
877.162	11113
877.29	11147
877.418	11353
877.546	11360
877.674	11497
877.802	11490
877.93	11478
878.058	11539
878.185	11490
878.313	11630
878.441	11779
878.568	11691
878.696	11805
878.824	11859
878.951	11958
879.079	12045
879.206	12068
879.333	12007
879.461	11988
879.588	12148
879.715	12095
879.842	12254
879.97	12041
880.097	11912
880.224	11882
880.351	11901
880.478	11836
880.605	11851
880.732	11855
880.859	11920
880.986	11748
881.112	11809
881.239	11718
881.366	11649
881.493	11638
881.619	11516
881.746	11596
881.872	11547
881.999	11535
882.125	11467
882.252	11532
882.378	11490
882.505	11547
882.631	11414
882.757	11250
882.883	11322
883.01	11269
883.136	11136
883.262	11147
883.388	11094
883.514	11166
883.64	11113
883.766	11094
883.892	10957
884.018	11033
884.143	11086
884.269	11140
884.395	10885
884.52	10816
884.646	10847
884.772	10649
884.897	10675
885.023	10767
885.148	10710
885.274	10675
885.399	10679
885.524	10645
885.65	10634
885.775	10592
885.9	10531
886.025	10637
886.15	10603
886.275	10382
886.4	10348
886.525	10489
886.65	10398
886.775	10371
886.9	10462
887.025	10542
887.149	10394
887.274	10242
887.399	10227
887.523	10173
887.648	10120
887.773	10082
887.897	10234
888.021	10185
888.146	10128
888.27	10272
888.395	10215
888.519	10204
888.643	10128
888.767	10246
888.891	9987
889.015	10010
889.139	10059
889.263	9941
889.387	10002
889.511	10090
889.635	10032
889.759	9979
889.883	9937
890.006	10055
890.13	10055
890.254	9956
890.377	9895
890.501	9850
890.624	9850
890.748	9869
890.871	9732
890.995	9743
891.118	9736
891.241	9732
891.364	9679
891.488	9888
891.611	9667
891.734	9675
891.857	9778
891.98	9713
892.103	9797
892.226	9717
892.349	9667
892.471	9515
892.594	9549
892.717	9599
892.839	9553
892.962	9625
893.085	9671
893.207	9587
893.33	9515
893.452	9488
893.575	9568
893.697	9515
893.819	9595
893.941	9618
894.064	9557
894.186	9458
894.308	9405
894.43	9545
894.552	9545
894.674	9549
894.796	9386
894.918	9370
895.04	9275
895.161	9389
895.283	9313
895.405	9268
895.526	9230
895.648	9214
895.769	9222
895.891	9287
896.012	9291
896.134	9233
896.255	9119
896.376	9131
896.498	9195
896.619	9081
896.74	8994
896.861	9085
896.982	9291
897.103	9317
897.224	9207
897.345	9036
897.466	8921
897.587	9043
897.708	9127
897.828	9020
897.949	8975
898.07	8823
898.19	8826
898.311	9032
898.431	8842
898.552	8864
898.672	8948
898.792	8967
898.913	8895
899.033	8785
899.153	8769
899.273	8712
899.393	8731
899.513	8762
899.633	8773
899.753	8746
899.873	8773
899.993	8724
900.113	8659
900.232	8659
900.352	8667
900.472	8621
900.591	8541
900.711	8606
900.83	8526
900.95	8625
901.069	8712
901.189	8530
901.308	8423
901.427	8381
901.546	8385
901.665	8507
901.784	8541
901.904	8339
902.023	8336
902.141	8183
902.26	8218
902.379	8218
902.498	8240
902.617	8157
902.735	8317
902.854	8214
902.973	8286
903.091	8111
903.21	8157
903.328	8161
903.446	8035
903.565	8035
903.683	8096
903.801	8084
903.919	8119
904.038	8088
904.156	7928
904.274	8069
904.392	7921
904.51	8062
904.627	8123
904.745	8020
904.863	8096
904.981	7940
905.098	7883
905.216	7925
905.334	7890
905.451	7856
905.569	7864
905.686	7868
905.803	7982
905.921	7700
906.038	7898
906.155	7788
906.272	7765
906.389	7727
906.506	7594
906.623	7605
906.74	7601
906.857	7499
906.974	7575
907.091	7651
907.208	7693
907.324	7620
907.441	7559
907.557	7411
907.674	7468
907.79	7365
907.907	7377
908.023	7491
908.139	7460
908.256	7381
908.372	7400
908.488	7327
908.604	7232
908.72	7266
908.836	7247
908.952	7285
909.068	7259
909.184	7320
909.3	7209
909.415	7308
909.531	7247
909.647	7118
909.762	7107
909.878	7023
909.993	7137
910.108	7080
910.224	7034
910.339	7103
910.454	7046
910.57	6970
910.685	6973
910.8	7103
910.915	7091
911.03	6962
911.145	6916
911.259	6806
911.374	6890
911.489	6901
911.604	6779
911.718	6722
911.833	6783
911.947	6608
912.062	6536
912.176	6757
912.291	6673
912.405	6715
912.519	6810
912.633	6913
912.748	6700
912.862	6681
912.976	6623
913.09	6540
913.204	6601
913.318	6620
913.431	6688
913.545	6700
913.659	6650
913.772	6620
913.886	6540
914	6559
914.113	6642
914.226	6639
914.34	6578
914.453	6494
914.566	6646
914.68	6525
914.793	6513
914.906	6418
915.019	6350
915.132	6334
915.245	6429
915.358	6384
915.47	6407
915.583	6448
915.696	6460
915.809	6540
915.921	6555
916.034	6460
916.146	6441
916.259	6456
916.371	6521
916.483	6441
916.595	6380
916.708	6361
916.82	6410
916.932	6353
917.044	6369
917.156	6403
917.268	6331
917.38	6365
917.491	6319
917.603	6300
917.715	6418
917.826	6384
917.938	6331
918.049	6254
918.161	6300
918.272	6414
918.384	6456
918.495	6232
918.606	6273
918.717	6205
918.828	6205
918.939	6228
919.05	6247
919.161	6247
919.272	6102
919.383	6167
919.494	6277
919.604	6376
919.715	6315
919.826	6205
919.936	6171
920.047	6331
920.157	6289
920.267	6433
920.378	6365
920.488	6251
920.598	6429
920.708	6525
920.818	6433
920.928	6410
921.038	6612
921.148	6563
921.258	6334
921.368	6357
921.477	6148
921.587	6182
921.697	6079
921.806	6167
921.916	6125
922.025	5992
922.134	5889
922.244	5885
922.353	5927
922.462	5859
922.571	5775
922.68	5745
922.789	5691
922.898	5703
923.007	5665
923.116	5680
923.224	5691
923.333	5642
923.442	5619
923.55	5524
923.659	5592
923.767	5661
923.876	5463
923.984	5532
924.092	5512
924.201	5486
924.309	5520
924.417	5520
924.525	5509
924.633	5448
924.741	6273
924.849	5406
924.956	5471
925.064	5376
925.172	5311
925.279	5303
925.387	5379
925.494	5288
925.602	5425
925.709	5406
925.816	5322
925.924	5299
926.031	5360
926.138	5273
926.245	5318
926.352	5235
926.459	5296
926.566	5299
926.673	5174
926.779	5124
926.886	5128
926.993	5041
927.099	5022
927.206	4984
927.312	4968
927.419	4991
927.525	4949
927.631	4946
927.737	4900
927.843	4854
927.95	4786
928.056	4816
928.162	4782
928.267	4835
928.373	5372
928.479	4828
928.585	4664
928.69	4771
928.796	4771
928.901	4645
929.007	4565
929.112	4603
929.218	4634
929.323	4569
929.428	4577
929.533	4634
929.638	4519
929.743	4542
929.848	4558
929.953	4516
930.058	4428
930.163	4329
930.267	4386
930.372	4440
930.477	4337
930.581	4462
930.685	4356
930.79	4207
930.894	4276
930.998	4249
931.103	4383
931.207	4078
931.311	4105
931.415	4029
931.519	3915
931.623	3960
