Data from glass_V78500241_1319.txt Node
Date: Wed Sep 01 19:23:38 CST 2021
User: usil
Spectrometer: V785-0024
Trigger mode: 0
Integration Time (sec): 4.000000E-1
Scans to average: 1
Nonlinearity correction enabled: false
Boxcar width: 0
Storing dark spectrum: false
XAxis mode: Wavelengths
Number of Pixels in Spectrum: 1024
>>>>>Begin Spectral Data<<<<<
801.071	3743
801.214	3747
801.356	3671
801.499	3709
801.641	3755
801.783	3797
801.926	3842
802.068	3804
802.211	3835
802.353	3899
802.496	3857
802.638	3854
802.78	3892
802.923	3922
803.065	3884
803.208	3846
803.35	3854
803.492	3941
803.635	3918
803.777	3804
803.919	3899
804.061	4173
804.204	3949
804.346	3983
804.488	3937
804.63	4067
804.773	3987
804.915	4040
805.057	4173
805.199	4071
805.341	4097
805.483	4166
805.626	4116
805.768	4135
805.91	4211
806.052	4242
806.194	4227
806.336	4329
806.478	4261
806.62	4196
806.762	4162
806.904	4265
807.046	4367
807.188	4192
807.33	4185
807.472	4223
807.614	4181
807.756	4238
807.898	4242
808.04	4223
808.182	4265
808.324	4325
808.465	4348
808.607	4424
808.749	4459
808.891	4478
809.033	4519
809.174	4398
809.316	4303
809.458	4265
809.6	4162
809.741	4158
809.883	4166
810.025	4219
810.166	4234
810.308	4272
810.45	4234
810.591	4257
810.733	4287
810.875	4535
811.016	4847
811.158	5124
811.299	5261
811.441	5296
811.582	5014
811.724	4694
811.865	4462
812.007	4455
812.148	4436
812.29	4455
812.431	4447
812.573	4421
812.714	4405
812.855	4432
812.997	4421
813.138	4519
813.279	4474
813.421	4432
813.562	4337
813.703	4314
813.845	4318
813.986	4291
814.127	4223
814.268	4246
814.41	4295
814.551	4276
814.692	4329
814.833	4280
814.974	4325
815.115	4398
815.256	4230
815.397	4238
815.539	4276
815.68	4211
815.821	4242
815.962	4318
816.103	4280
816.244	4227
816.385	4261
816.526	4265
816.666	4215
816.807	4112
816.948	4188
817.089	4181
817.23	4150
817.371	4063
817.512	4048
817.653	4116
817.793	4002
817.934	4090
818.075	4090
818.216	4097
818.356	4101
818.497	3983
818.638	3930
818.778	3941
818.919	3896
819.06	3838
819.2	3934
819.341	3888
819.481	3831
819.622	3907
819.762	4036
819.903	3926
820.043	3896
820.184	3865
820.324	3854
820.465	3888
820.605	3861
820.746	3854
820.886	3808
821.026	3949
821.167	3934
821.307	3994
821.447	3979
821.588	3991
821.728	3953
821.868	3960
822.008	3831
822.149	3918
822.289	3983
822.429	3793
822.569	3762
822.709	3812
822.849	3698
822.99	3720
823.13	3759
823.27	3747
823.41	3698
823.55	3728
823.69	3717
823.83	3740
823.97	3648
824.11	3591
824.25	3576
824.389	3644
824.529	3671
824.669	3625
824.809	3675
824.949	3759
825.089	3728
825.228	3682
825.368	3553
825.508	3561
825.648	3561
825.787	3644
825.927	3679
826.067	3610
826.206	3671
826.346	3812
826.485	3903
826.625	3861
826.765	3979
826.904	3835
827.044	3648
827.183	3481
827.323	3466
827.462	3496
827.601	3454
827.741	3428
827.88	3450
828.02	3386
828.159	3454
828.298	3466
828.437	3530
828.577	3530
828.716	3610
828.855	3530
828.994	3382
829.134	3355
829.273	3401
829.412	3382
829.551	3332
829.69	3401
829.829	3412
829.968	3469
830.107	3428
830.246	3439
830.385	3355
830.524	3367
830.663	3310
830.802	3241
830.941	3199
831.08	3188
831.219	3253
831.357	3279
831.496	3428
831.635	3287
831.774	3230
831.913	3241
832.051	3135
832.19	3150
832.329	3195
832.467	3154
832.606	3123
832.744	3127
832.883	3199
833.022	3222
833.16	3230
833.299	3340
833.437	3355
833.576	3336
833.714	3386
833.852	3420
833.991	3435
834.129	3435
834.267	3431
834.406	3420
834.544	3458
834.682	3420
834.821	3393
834.959	3572
835.097	3424
835.235	3538
835.373	3500
835.511	3515
835.65	3481
835.788	3492
835.926	3393
836.064	3363
836.202	3458
836.34	3591
836.478	3629
836.615	3496
836.753	3587
836.891	3648
837.029	3610
837.167	3580
837.305	3572
837.443	3542
837.58	3538
837.718	3576
837.856	3576
837.993	3511
838.131	3584
838.269	3591
838.406	3576
838.544	3587
838.681	3492
838.819	3466
838.956	3393
839.094	3424
839.231	3431
839.369	3511
839.506	3717
839.643	3625
839.781	3473
839.918	3469
840.055	3553
840.193	3542
840.33	3542
840.467	3580
840.604	3618
840.742	3797
840.879	3530
841.016	3591
841.153	3595
841.29	3789
841.427	3781
841.564	3728
841.701	3762
841.838	3701
841.975	3679
842.112	3728
842.249	3641
842.385	3633
842.522	3816
842.659	3694
842.796	3675
842.933	3694
843.069	3743
843.206	3698
843.343	3819
843.479	3793
843.616	3842
843.752	3648
843.889	3682
844.025	3838
844.162	3686
844.298	3873
844.435	3800
844.571	3797
844.708	3899
844.844	3983
844.98	4059
845.117	4040
845.253	3972
845.389	3911
845.525	3975
845.661	3945
845.798	3937
845.934	3991
846.07	3945
846.206	4093
846.342	4185
846.478	4074
846.614	3949
846.75	3949
846.886	3949
847.022	4044
847.158	3975
847.294	3998
847.429	4017
847.565	3972
847.701	4242
847.837	3876
847.972	3876
848.108	3991
848.244	4002
848.379	3823
848.515	3846
848.65	3819
848.786	3846
848.921	3873
849.057	3930
849.192	3960
849.328	3945
849.463	3873
849.598	3915
849.734	3884
849.869	3835
850.004	3793
850.14	3766
850.275	3785
850.41	3797
850.545	3770
850.68	3781
850.815	3778
850.95	3808
851.085	3953
851.22	3884
851.355	3842
851.49	3800
851.625	3797
851.76	3812
851.895	3751
852.03	3736
852.165	3816
852.299	3876
852.434	3911
852.569	3873
852.703	3873
852.838	3915
852.973	4002
853.107	4013
853.242	3903
853.376	3835
853.511	3774
853.645	3838
853.78	3968
853.914	3907
854.048	3911
854.183	3854
854.317	3968
854.451	4071
854.585	3975
854.72	3968
854.854	4048
854.988	3926
855.122	3983
855.256	3956
855.39	4013
855.524	4109
855.658	4078
855.792	4109
855.926	4147
856.06	4147
856.194	4181
856.327	4185
856.461	4116
856.595	4147
856.729	4204
856.862	4299
856.996	4265
857.13	4238
857.263	4295
857.397	4352
857.53	4333
857.664	4390
857.797	4413
857.931	4451
858.064	4402
858.197	4443
858.331	4375
858.464	4428
858.597	4344
858.731	4459
858.864	4462
858.997	4470
859.13	4527
859.263	4573
859.396	4611
859.529	4478
859.662	4546
859.795	4558
859.928	4603
860.061	4721
860.194	4790
860.327	4668
860.46	4649
860.592	4740
860.725	4774
860.858	4820
860.99	4740
861.123	4694
861.256	4725
861.388	4763
861.521	5383
861.653	4717
861.786	4717
861.918	4790
862.05	4771
862.183	4835
862.315	4923
862.447	4942
862.58	4957
862.712	4763
862.844	4759
862.976	4850
863.108	4900
863.24	5162
863.372	4820
863.504	4911
863.636	4850
863.768	4934
863.9	4953
864.032	4953
864.164	4984
864.296	5140
864.428	5052
864.559	5083
864.691	5075
864.823	5143
864.954	5162
865.086	5086
865.217	5132
865.349	5094
865.48	5193
865.612	5197
865.743	5265
865.875	5193
866.006	5189
866.137	5265
866.269	5273
866.4	5292
866.531	5258
866.662	5204
866.793	5307
866.924	5250
867.055	5299
867.186	5376
867.317	5360
867.448	5353
867.579	5429
867.71	5398
867.841	5337
867.972	5478
868.103	5490
868.233	5478
868.364	5490
868.495	5581
868.625	5665
868.756	5805
868.886	5703
869.017	5729
869.147	5882
869.278	5836
869.408	5798
869.539	5851
869.669	5958
869.799	5901
869.929	6038
870.06	6030
870.19	6224
870.32	6190
870.45	6254
870.58	6372
870.71	6426
870.84	6475
870.97	6460
871.1	6388
871.23	6673
871.36	6696
871.489	6684
871.619	6669
871.749	6798
871.879	6856
872.008	7008
872.138	7034
872.267	6996
872.397	7023
872.526	7015
872.656	7110
872.785	7236
872.915	7324
873.044	7518
873.173	7575
873.303	7677
873.432	7788
873.561	7921
873.69	7947
873.819	7974
873.948	8096
874.077	8244
874.206	8351
874.335	8381
874.464	8701
874.593	8880
874.722	8880
874.851	9093
874.979	9146
875.108	9351
875.237	9416
875.365	9523
875.494	9690
875.623	9819
875.751	9869
875.88	10055
876.008	10162
876.136	10272
876.265	10569
876.393	10691
876.521	10740
876.65	10881
876.778	10915
876.906	10927
877.034	11014
877.162	11094
877.29	11143
877.418	11261
877.546	11353
877.674	11490
877.802	11478
877.93	11505
878.058	11551
878.185	11638
878.313	11596
878.441	11805
878.568	11691
878.696	11729
878.824	11893
878.951	12038
879.079	12053
879.206	12064
879.333	12079
879.461	12064
879.588	12083
879.715	12049
879.842	12201
879.97	12114
880.097	11802
880.224	11908
880.351	11870
880.478	11893
880.605	11866
880.732	11832
880.859	12011
880.986	11882
881.112	11805
881.239	11718
881.366	11657
881.493	11672
881.619	11585
881.746	11539
881.872	11532
881.999	11448
882.125	11452
882.252	11478
882.378	11493
882.505	11577
882.631	11337
882.757	11307
882.883	11322
883.01	11307
883.136	11258
883.262	11208
883.388	11086
883.514	11223
883.64	11254
883.766	11136
883.892	10965
884.018	11083
884.143	11098
884.269	11083
884.395	10930
884.52	10824
884.646	10824
884.772	10721
884.897	10660
885.023	10721
885.148	10752
885.274	10698
885.399	10706
885.524	10660
885.65	10618
885.775	10615
885.9	10489
886.025	10618
886.15	10455
886.275	10447
886.4	10398
886.525	10516
886.65	10371
886.775	10386
886.9	10508
887.025	10584
887.149	10348
887.274	10249
887.399	10211
887.523	10188
887.648	10055
887.773	10097
887.897	10207
888.021	10253
888.146	10101
888.27	10169
888.395	10291
888.519	10223
888.643	10215
888.767	10207
888.891	10044
889.015	10036
889.139	10013
889.263	9915
889.387	10112
889.511	10128
889.635	10017
889.759	9934
889.883	10048
890.006	9998
890.13	10029
890.254	9934
890.377	10067
890.501	9804
890.624	9873
890.748	9941
890.871	9759
890.995	9705
891.118	9701
891.241	9857
891.364	9724
891.488	9903
891.611	9740
891.734	9720
891.857	9709
891.98	9637
892.103	9770
892.226	9717
892.349	9690
892.471	9591
892.594	9637
892.717	9584
892.839	9618
892.962	9682
893.085	9641
893.207	9660
893.33	9477
893.452	9492
893.575	9584
893.697	9469
893.819	9591
893.941	9610
894.064	9610
894.186	9450
894.308	9431
894.43	9504
894.552	9606
894.674	9572
894.796	9378
894.918	9378
895.04	9325
895.161	9462
895.283	9325
895.405	9245
895.526	9287
895.648	9253
895.769	9275
895.891	9256
896.012	9218
896.134	9317
896.255	9199
896.376	9131
896.498	9142
896.619	9169
896.74	9157
896.861	9138
896.982	9264
897.103	9325
897.224	9135
897.345	9100
897.466	9055
897.587	9005
897.708	9116
897.828	9097
897.949	8910
898.07	8861
898.19	8902
898.311	8998
898.431	8933
898.552	8902
898.672	8967
898.792	8971
898.913	8929
899.033	8788
899.153	8746
899.273	8674
899.393	8651
899.513	8701
899.633	8815
899.753	8739
899.873	8655
899.993	8804
900.113	8731
900.232	8739
900.352	8667
900.472	8636
900.591	8590
900.711	8560
900.83	8590
900.95	8708
901.069	8708
901.189	8590
901.308	8400
901.427	8366
901.546	8415
901.665	8484
901.784	8484
901.904	8370
902.023	8358
902.141	8225
902.26	8233
902.379	8309
902.498	8271
902.617	8244
902.735	8347
902.854	8206
902.973	8195
903.091	8103
903.21	8100
903.328	8180
903.446	8111
903.565	8077
903.683	8100
903.801	8084
903.919	8153
904.038	8115
904.156	8027
904.274	8107
904.392	8077
904.51	8092
904.627	8020
904.745	8103
904.863	8161
904.981	7947
905.098	7841
905.216	7906
905.334	7913
905.451	7925
905.569	7917
905.686	7868
905.803	7940
905.921	7788
906.038	7902
906.155	7792
906.272	7765
906.389	7746
906.506	7715
906.623	7655
906.74	7647
906.857	7548
906.974	7620
907.091	7708
907.208	7727
907.324	7639
907.441	7552
907.557	7499
907.674	7499
907.79	7396
907.907	7419
908.023	7430
908.139	7403
908.256	7472
908.372	7381
908.488	7354
908.604	7335
908.72	7236
908.836	7240
908.952	7240
909.068	7270
909.184	7316
909.3	7293
909.415	7316
909.531	7293
909.647	7122
909.762	7084
909.878	7061
909.993	7084
910.108	7072
910.224	7061
910.339	7095
910.454	7107
910.57	7015
910.685	6951
910.8	7114
910.915	7160
911.03	7091
911.145	6894
911.259	6856
911.374	6920
911.489	6894
911.604	6829
911.718	6745
911.833	6776
911.947	6646
912.062	6604
912.176	6707
912.291	6715
912.405	6715
912.519	6787
912.633	6818
912.748	6764
912.862	6745
912.976	6593
913.09	6506
913.204	6597
913.318	6601
913.431	6692
913.545	6681
913.659	6673
913.772	6658
913.886	6601
914	6547
914.113	6604
914.226	6646
914.34	6623
914.453	6486
914.566	6639
914.68	6513
914.793	6490
914.906	6410
915.019	6350
915.132	6350
915.245	6456
915.358	6441
915.47	6460
915.583	6452
915.696	6445
915.809	6486
915.921	6620
916.034	6422
916.146	6422
916.259	6353
916.371	6528
916.483	6418
916.595	6384
916.708	6414
916.82	6338
916.932	6403
917.044	6399
917.156	6384
917.268	6319
917.38	6319
917.491	6361
917.603	6319
917.715	6380
917.826	6399
917.938	6308
918.049	6285
918.161	6391
918.272	6460
918.384	6437
918.495	6369
918.606	6243
918.717	6247
918.828	6319
918.939	6273
919.05	6213
919.161	6228
919.272	6129
919.383	6182
919.494	6334
919.604	6426
919.715	6327
919.826	6262
919.936	6258
920.047	6380
920.157	6319
920.267	6460
920.378	6342
920.488	6308
920.598	6475
920.708	6585
920.818	6475
920.928	6464
921.038	6582
921.148	6623
921.258	6323
921.368	6292
921.477	6232
921.587	6186
921.697	6133
921.806	6178
921.916	6068
922.025	5923
922.134	5923
922.244	5889
922.353	5950
922.462	5790
922.571	5821
922.68	5695
922.789	5726
922.898	5688
923.007	5680
923.116	5710
923.224	5668
923.333	5699
923.442	5558
923.55	5581
923.659	5592
923.767	5630
923.876	5558
923.984	5676
924.092	5558
924.201	5493
924.309	5554
924.417	5611
924.525	5551
924.633	5512
924.741	6315
924.849	5391
924.956	5497
925.064	5376
925.172	5341
925.279	5296
925.387	5334
925.494	5330
925.602	5406
925.709	5364
925.816	5223
925.924	5341
926.031	5372
926.138	5288
926.245	5322
926.352	5201
926.459	5353
926.566	5364
926.673	5235
926.779	5094
926.886	5098
926.993	5079
927.099	5037
927.206	4999
927.312	4984
927.419	5041
927.525	5003
927.631	5025
927.737	4934
927.843	4900
927.95	4748
928.056	4843
928.162	4793
928.267	4870
928.373	5307
928.479	4812
928.585	4725
928.69	4725
928.796	4824
928.901	4672
929.007	4550
929.112	4702
929.218	4634
929.323	4630
929.428	4561
929.533	4649
929.638	4531
929.743	4565
929.848	4550
929.953	4538
930.058	4459
930.163	4272
930.267	4367
930.372	4421
930.477	4337
930.581	4455
930.685	4402
930.79	4322
930.894	4310
930.998	4249
931.103	4402
931.207	4128
931.311	4044
931.415	4074
931.519	3972
931.623	3926
