Data from glass_V78500241_1890.txt Node
Date: Wed Sep 01 19:27:36 CST 2021
User: usil
Spectrometer: V785-0024
Trigger mode: 0
Integration Time (sec): 4.000000E-1
Scans to average: 1
Nonlinearity correction enabled: false
Boxcar width: 0
Storing dark spectrum: false
XAxis mode: Wavelengths
Number of Pixels in Spectrum: 1024
>>>>>Begin Spectral Data<<<<<
801.071	3709
801.214	3747
801.356	3736
801.499	3728
801.641	3709
801.783	3789
801.926	3854
802.068	3812
802.211	3857
802.353	3857
802.496	3838
802.638	3922
802.78	3880
802.923	3979
803.065	3888
803.208	3876
803.35	3899
803.492	3896
803.635	3926
803.777	3816
803.919	3926
804.061	4169
804.204	3960
804.346	3975
804.488	3930
804.63	4036
804.773	3998
804.915	3983
805.057	4177
805.199	4021
805.341	4109
805.483	4139
805.626	4124
805.768	4116
805.91	4185
806.052	4211
806.194	4215
806.336	4333
806.478	4215
806.62	4162
806.762	4227
806.904	4257
807.046	4303
807.188	4196
807.33	4173
807.472	4261
807.614	4173
807.756	4287
807.898	4150
808.04	4219
808.182	4295
808.324	4352
808.465	4383
808.607	4363
808.749	4409
808.891	4481
809.033	4481
809.174	4405
809.316	4230
809.458	4204
809.6	4173
809.741	4150
809.883	4166
810.025	4219
810.166	4287
810.308	4230
810.45	4215
810.591	4211
810.733	4287
810.875	4527
811.016	4812
811.158	5121
811.299	5254
811.441	5250
811.582	4987
811.724	4721
811.865	4428
812.007	4470
812.148	4417
812.29	4363
812.431	4451
812.573	4405
812.714	4314
812.855	4394
812.997	4432
813.138	4440
813.279	4390
813.421	4360
813.562	4375
813.703	4337
813.845	4314
813.986	4272
814.127	4211
814.268	4287
814.41	4322
814.551	4272
814.692	4306
814.833	4280
814.974	4272
815.115	4306
815.256	4227
815.397	4227
815.539	4268
815.68	4177
815.821	4238
815.962	4295
816.103	4303
816.244	4230
816.385	4268
816.526	4341
816.666	4215
816.807	4158
816.948	4177
817.089	4188
817.23	4101
817.371	4078
817.512	4055
817.653	4078
817.793	4032
817.934	4017
818.075	4097
818.216	4143
818.356	4109
818.497	3979
818.638	3903
818.778	3896
818.919	3884
819.06	3838
819.2	3899
819.341	3888
819.481	3876
819.622	3922
819.762	4044
819.903	3968
820.043	3869
820.184	3892
820.324	3808
820.465	3876
820.605	3842
820.746	3876
820.886	3762
821.026	3899
821.167	3903
821.307	3998
821.447	3941
821.588	3934
821.728	3964
821.868	3903
822.008	3842
822.149	3926
822.289	3854
822.429	3759
822.569	3770
822.709	3785
822.849	3660
822.99	3724
823.13	3732
823.27	3789
823.41	3728
823.55	3759
823.69	3740
823.83	3740
823.97	3694
824.11	3587
824.25	3606
824.389	3667
824.529	3652
824.669	3671
824.809	3717
824.949	3747
825.089	3724
825.228	3701
825.368	3561
825.508	3564
825.648	3542
825.787	3564
825.927	3587
826.067	3587
826.206	3656
826.346	3785
826.485	3857
826.625	3823
826.765	3945
826.904	3861
827.044	3595
827.183	3515
827.323	3416
827.462	3504
827.601	3431
827.741	3405
827.88	3450
828.02	3355
828.159	3401
828.298	3496
828.437	3545
828.577	3458
828.716	3603
828.855	3477
828.994	3374
829.134	3321
829.273	3382
829.412	3393
829.551	3344
829.69	3336
829.829	3462
829.968	3507
830.107	3431
830.246	3454
830.385	3367
830.524	3348
830.663	3272
830.802	3283
830.941	3157
831.08	3184
831.219	3298
831.357	3310
831.496	3393
831.635	3233
831.774	3184
831.913	3188
832.051	3150
832.19	3127
832.329	3173
832.467	3161
832.606	3119
832.744	3138
832.883	3169
833.022	3203
833.16	3237
833.299	3287
833.437	3340
833.576	3351
833.714	3367
833.852	3412
833.991	3469
834.129	3500
834.267	3450
834.406	3382
834.544	3393
834.682	3428
834.821	3458
834.959	3557
835.097	3412
835.235	3500
835.373	3500
835.511	3466
835.65	3473
835.788	3473
835.926	3393
836.064	3393
836.202	3431
836.34	3568
836.478	3599
836.615	3534
836.753	3568
836.891	3629
837.029	3618
837.167	3587
837.305	3534
837.443	3504
837.58	3496
837.718	3591
837.856	3572
837.993	3549
838.131	3591
838.269	3507
838.406	3584
838.544	3538
838.681	3488
838.819	3469
838.956	3405
839.094	3378
839.231	3443
839.369	3515
839.506	3717
839.643	3603
839.781	3481
839.918	3439
840.055	3488
840.193	3580
840.33	3572
840.467	3519
840.604	3622
840.742	3755
840.879	3538
841.016	3576
841.153	3603
841.29	3781
841.427	3720
841.564	3709
841.701	3732
841.838	3717
841.975	3656
842.112	3728
842.249	3622
842.385	3641
842.522	3819
842.659	3679
842.796	3694
842.933	3732
843.069	3698
843.206	3705
843.343	3778
843.479	3762
843.616	3838
843.752	3663
843.889	3682
844.025	3846
844.162	3724
844.298	3827
844.435	3774
844.571	3793
844.708	3945
844.844	4025
844.98	4010
845.117	3972
845.253	3915
845.389	3869
845.525	3979
845.661	3964
845.798	3907
845.934	4017
846.07	3930
846.206	4025
846.342	4097
846.478	4055
846.614	3941
846.75	3941
846.886	3926
847.022	3987
847.158	4017
847.294	3964
847.429	4013
847.565	4006
847.701	4207
847.837	3896
847.972	3808
848.108	3949
848.244	3953
848.379	3865
848.515	3827
848.65	3838
848.786	3884
848.921	3869
849.057	3926
849.192	3911
849.328	3899
849.463	3922
849.598	3899
849.734	3838
849.869	3804
850.004	3781
850.14	3808
850.275	3743
850.41	3762
850.545	3774
850.68	3747
850.815	3838
850.95	3804
851.085	3934
851.22	3873
851.355	3831
851.49	3804
851.625	3816
851.76	3781
851.895	3770
852.03	3694
852.165	3808
852.299	3823
852.434	3857
852.569	3873
852.703	3880
852.838	3941
852.973	3975
853.107	4017
853.242	3865
853.376	3857
853.511	3759
853.645	3831
853.78	3937
853.914	3918
854.048	3918
854.183	3850
854.317	3896
854.451	4078
854.585	3968
854.72	3941
854.854	4048
854.988	3922
855.122	3987
855.256	3945
855.39	3975
855.524	4093
855.658	4078
855.792	4112
855.926	4124
856.06	4169
856.194	4162
856.327	4185
856.461	4116
856.595	4120
856.729	4173
856.862	4249
856.996	4249
857.13	4280
857.263	4329
857.397	4348
857.53	4238
857.664	4356
857.797	4409
857.931	4466
858.064	4360
858.197	4428
858.331	4402
858.464	4367
858.597	4360
858.731	4417
858.864	4447
858.997	4462
859.13	4519
859.263	4527
859.396	4580
859.529	4531
859.662	4542
859.795	4485
859.928	4634
860.061	4702
860.194	4717
860.327	4622
860.46	4626
860.592	4748
860.725	4782
860.858	4801
860.99	4702
861.123	4656
861.256	4740
861.388	4786
861.521	5376
861.653	4714
861.786	4702
861.918	4748
862.05	4790
862.183	4847
862.315	4873
862.447	4919
862.58	4847
862.712	4774
862.844	4816
862.976	4828
863.108	4896
863.24	5155
863.372	4820
863.504	4934
863.636	4847
863.768	4957
863.9	4968
864.032	4866
864.164	4927
864.296	5025
864.428	5083
864.559	5098
864.691	5071
864.823	5140
864.954	5094
865.086	5102
865.217	5132
865.349	5094
865.48	5166
865.612	5162
865.743	5258
865.875	5155
866.006	5220
866.137	5212
866.269	5239
866.4	5231
866.531	5242
866.662	5269
866.793	5227
866.924	5246
867.055	5334
867.186	5337
867.317	5368
867.448	5322
867.579	5364
867.71	5395
867.841	5353
867.972	5452
868.103	5402
868.233	5448
868.364	5512
868.495	5581
868.625	5695
868.756	5840
868.886	5649
869.017	5672
869.147	5828
869.278	5844
869.408	5828
869.539	5805
869.669	5912
869.799	5935
869.929	6003
870.06	6019
870.19	6171
870.32	6205
870.45	6205
870.58	6353
870.71	6452
870.84	6467
870.97	6407
871.1	6422
871.23	6582
871.36	6688
871.489	6650
871.619	6818
871.749	6837
871.879	6856
872.008	6973
872.138	6947
872.267	7023
872.397	6970
872.526	7065
872.656	7129
872.785	7259
872.915	7343
873.044	7460
873.173	7567
873.303	7670
873.432	7784
873.561	7841
873.69	7856
873.819	8043
873.948	8168
874.077	8256
874.206	8320
874.335	8457
874.464	8651
874.593	8830
874.722	8986
874.851	9112
874.979	9214
875.108	9408
875.237	9393
875.365	9397
875.494	9644
875.623	9857
875.751	9838
875.88	10029
876.008	10188
876.136	10284
876.265	10470
876.393	10656
876.521	10725
876.65	10812
876.778	10881
876.906	10877
877.034	10965
877.162	11079
877.29	11090
877.418	11326
877.546	11356
877.674	11497
877.802	11474
877.93	11543
878.058	11627
878.185	11520
878.313	11653
878.441	11733
878.568	11699
878.696	11813
878.824	11863
878.951	11942
879.079	11996
879.206	12117
879.333	12068
879.461	11950
879.588	12072
879.715	12041
879.842	12266
879.97	12072
880.097	11885
880.224	11901
880.351	11897
880.478	11946
880.605	11821
880.732	11828
880.859	11984
880.986	11870
881.112	11847
881.239	11745
881.366	11748
881.493	11615
881.619	11516
881.746	11581
881.872	11486
881.999	11482
882.125	11520
882.252	11532
882.378	11482
882.505	11600
882.631	11387
882.757	11292
882.883	11349
883.01	11284
883.136	11166
883.262	11090
883.388	11064
883.514	11246
883.64	11197
883.766	11052
883.892	10957
884.018	11037
884.143	11033
884.269	11105
884.395	10968
884.52	10729
884.646	10771
884.772	10801
884.897	10588
885.023	10729
885.148	10687
885.274	10721
885.399	10714
885.524	10577
885.65	10519
885.775	10675
885.9	10527
886.025	10577
886.15	10569
886.275	10455
886.4	10443
886.525	10379
886.65	10394
886.775	10341
886.9	10443
887.025	10573
887.149	10394
887.274	10284
887.399	10223
887.523	10284
887.648	10135
887.773	10006
887.897	10230
888.021	10207
888.146	10101
888.27	10215
888.395	10143
888.519	10147
888.643	10219
888.767	10188
888.891	10078
889.015	10010
889.139	10017
889.263	9930
889.387	10105
889.511	10036
889.635	10078
889.759	9915
889.883	10010
890.006	10032
890.13	10169
890.254	9903
890.377	9869
890.501	9816
890.624	9873
890.748	9918
890.871	9857
890.995	9751
891.118	9709
891.241	9751
891.364	9690
891.488	9816
891.611	9785
891.734	9720
891.857	9720
891.98	9698
892.103	9766
892.226	9747
892.349	9629
892.471	9511
892.594	9523
892.717	9557
892.839	9572
892.962	9656
893.085	9633
893.207	9557
893.33	9530
893.452	9557
893.575	9564
893.697	9492
893.819	9686
893.941	9580
894.064	9633
894.186	9454
894.308	9412
894.43	9618
894.552	9515
894.674	9603
894.796	9332
894.918	9359
895.04	9340
895.161	9306
895.283	9374
895.405	9253
895.526	9211
895.648	9275
895.769	9241
895.891	9348
896.012	9195
896.134	9173
896.255	9176
896.376	9081
896.498	9089
896.619	9135
896.74	9089
896.861	9085
896.982	9237
897.103	9386
897.224	9146
897.345	9108
897.466	9028
897.587	9020
897.708	9127
897.828	8990
897.949	8933
898.07	8887
898.19	8937
898.311	8986
898.431	8895
898.552	8963
898.672	8941
898.792	8956
898.913	8956
899.033	8800
899.153	8823
899.273	8720
899.393	8724
899.513	8727
899.633	8804
899.753	8682
899.873	8617
899.993	8777
900.113	8705
900.232	8720
900.352	8663
900.472	8625
900.591	8526
900.711	8629
900.83	8511
900.95	8674
901.069	8735
901.189	8526
901.308	8412
901.427	8381
901.546	8465
901.665	8389
901.784	8488
901.904	8358
902.023	8320
902.141	8221
902.26	8164
902.379	8221
902.498	8202
902.617	8256
902.735	8294
902.854	8317
902.973	8248
903.091	8103
903.21	8149
903.328	8180
903.446	8103
903.565	8077
903.683	8081
903.801	8065
903.919	8100
904.038	8103
904.156	8043
904.274	8058
904.392	8050
904.51	7986
904.627	8039
904.745	8134
904.863	8145
904.981	7989
905.098	7902
905.216	7894
905.334	7868
905.451	7967
905.569	7970
905.686	7986
905.803	7913
905.921	7757
906.038	7917
906.155	7792
906.272	7700
906.389	7753
906.506	7639
906.623	7655
906.74	7613
906.857	7582
906.974	7613
907.091	7715
907.208	7674
907.324	7609
907.441	7521
907.557	7472
907.674	7468
907.79	7362
907.907	7453
908.023	7438
908.139	7392
908.256	7468
908.372	7358
908.488	7320
908.604	7266
908.72	7228
908.836	7282
908.952	7187
909.068	7251
909.184	7274
909.3	7228
909.415	7225
909.531	7259
909.647	7088
909.762	7126
909.878	7053
909.993	7088
910.108	7095
910.224	7057
910.339	7110
910.454	6989
910.57	6996
910.685	6958
910.8	7183
910.915	7118
911.03	7027
911.145	6905
911.259	6852
911.374	6935
911.489	6791
911.604	6787
911.718	6738
911.833	6715
911.947	6707
912.062	6589
912.176	6673
912.291	6749
912.405	6734
912.519	6798
912.633	6935
912.748	6776
912.862	6677
912.976	6578
913.09	6582
913.204	6589
913.318	6570
913.431	6642
913.545	6665
913.659	6696
913.772	6646
913.886	6544
914	6582
914.113	6540
914.226	6616
914.34	6616
914.453	6494
914.566	6620
914.68	6525
914.793	6555
914.906	6388
915.019	6395
915.132	6410
915.245	6403
915.358	6426
915.47	6426
915.583	6471
915.696	6456
915.809	6532
915.921	6555
916.034	6391
916.146	6407
916.259	6422
916.371	6471
916.483	6445
916.595	6388
916.708	6369
916.82	6429
916.932	6357
917.044	6380
917.156	6395
917.268	6334
917.38	6338
917.491	6289
917.603	6384
917.715	6433
917.826	6433
917.938	6338
918.049	6201
918.161	6407
918.272	6403
918.384	6422
918.495	6327
918.606	6311
918.717	6205
918.828	6228
918.939	6239
919.05	6197
919.161	6205
919.272	6114
919.383	6175
919.494	6289
919.604	6395
919.715	6251
919.826	6224
919.936	6209
920.047	6296
920.157	6266
920.267	6418
920.378	6315
920.488	6262
920.598	6437
920.708	6547
920.818	6494
920.928	6429
921.038	6555
921.148	6544
921.258	6308
921.368	6292
921.477	6228
921.587	6182
921.697	6076
921.806	6148
921.916	6019
922.025	5935
922.134	5942
922.244	5889
922.353	5942
922.462	5824
922.571	5729
922.68	5695
922.789	5642
922.898	5695
923.007	5592
923.116	5688
923.224	5649
923.333	5611
923.442	5608
923.55	5592
923.659	5535
923.767	5634
923.876	5512
923.984	5623
924.092	5558
924.201	5493
924.309	5581
924.417	5577
924.525	5524
924.633	5524
924.741	6292
924.849	5357
924.956	5433
925.064	5341
925.172	5364
925.279	5296
925.387	5372
925.494	5269
925.602	5402
925.709	5383
925.816	5246
925.924	5239
926.031	5368
926.138	5269
926.245	5353
926.352	5235
926.459	5315
926.566	5303
926.673	5204
926.779	5166
926.886	5113
926.993	5048
927.099	4987
927.206	4934
927.312	4976
927.419	5006
927.525	4934
927.631	5010
927.737	4889
927.843	4843
927.95	4782
928.056	4793
928.162	4835
928.267	4854
928.373	5220
928.479	4828
928.585	4691
928.69	4755
928.796	4782
928.901	4687
929.007	4592
929.112	4660
929.218	4611
929.323	4649
929.428	4584
929.533	4683
929.638	4489
929.743	4508
929.848	4550
929.953	4512
930.058	4443
930.163	4341
930.267	4337
930.372	4436
930.477	4303
930.581	4424
930.685	4390
930.79	4265
930.894	4219
930.998	4280
931.103	4398
931.207	4109
931.311	4082
931.415	4067
931.519	3880
931.623	3994
