Data from glass_V78500241_816.txt Node
Date: Wed Sep 01 19:20:09 CST 2021
User: usil
Spectrometer: V785-0024
Trigger mode: 0
Integration Time (sec): 4.000000E-1
Scans to average: 1
Nonlinearity correction enabled: false
Boxcar width: 0
Storing dark spectrum: false
XAxis mode: Wavelengths
Number of Pixels in Spectrum: 1024
>>>>>Begin Spectral Data<<<<<
801.071	3778
801.214	3800
801.356	3747
801.499	3789
801.641	3694
801.783	3751
801.926	3896
802.068	3819
802.211	3876
802.353	3884
802.496	3869
802.638	3892
802.78	3930
802.923	3922
803.065	3949
803.208	3899
803.35	3873
803.492	3903
803.635	3926
803.777	3797
803.919	3960
804.061	4147
804.204	3987
804.346	3934
804.488	3911
804.63	3987
804.773	3994
804.915	4044
805.057	4166
805.199	4013
805.341	4120
805.483	4154
805.626	4166
805.768	4139
805.91	4211
806.052	4185
806.194	4219
806.336	4363
806.478	4246
806.62	4181
806.762	4223
806.904	4265
807.046	4337
807.188	4246
807.33	4192
807.472	4234
807.614	4211
807.756	4341
807.898	4223
808.04	4192
808.182	4306
808.324	4325
808.465	4398
808.607	4470
808.749	4443
808.891	4497
809.033	4512
809.174	4417
809.316	4284
809.458	4287
809.6	4135
809.741	4124
809.883	4185
810.025	4192
810.166	4196
810.308	4215
810.45	4253
810.591	4192
810.733	4265
810.875	4489
811.016	4801
811.158	5113
811.299	5277
811.441	5330
811.582	5079
811.724	4702
811.865	4512
812.007	4447
812.148	4440
812.29	4421
812.431	4413
812.573	4413
812.714	4371
812.855	4421
812.997	4451
813.138	4481
813.279	4436
813.421	4394
813.562	4383
813.703	4352
813.845	4287
813.986	4253
814.127	4246
814.268	4257
814.41	4352
814.551	4280
814.692	4314
814.833	4295
814.974	4291
815.115	4390
815.256	4291
815.397	4238
815.539	4265
815.68	4204
815.821	4249
815.962	4325
816.103	4287
816.244	4276
816.385	4242
816.526	4291
816.666	4227
816.807	4143
816.948	4177
817.089	4131
817.23	4192
817.371	4078
817.512	4059
817.653	4105
817.793	4036
817.934	4067
818.075	4097
818.216	4090
818.356	4097
818.497	3979
818.638	3930
818.778	3915
818.919	3941
819.06	3876
819.2	3941
819.341	3869
819.481	3835
819.622	3915
819.762	4013
819.903	3983
820.043	3857
820.184	3865
820.324	3869
820.465	3865
820.605	3899
820.746	3865
820.886	3846
821.026	3945
821.167	3941
821.307	3972
821.447	3987
821.588	3975
821.728	3960
821.868	3964
822.008	3888
822.149	3922
822.289	3907
822.429	3816
822.569	3751
822.709	3797
822.849	3709
822.99	3736
823.13	3781
823.27	3823
823.41	3755
823.55	3770
823.69	3747
823.83	3736
823.97	3701
824.11	3618
824.25	3599
824.389	3629
824.529	3656
824.669	3656
824.809	3724
824.949	3732
825.089	3728
825.228	3701
825.368	3599
825.508	3606
825.648	3549
825.787	3614
825.927	3679
826.067	3622
826.206	3652
826.346	3812
826.485	3838
826.625	3861
826.765	3956
826.904	3838
827.044	3656
827.183	3568
827.323	3443
827.462	3507
827.601	3435
827.741	3431
827.88	3473
828.02	3370
828.159	3435
828.298	3488
828.437	3557
828.577	3458
828.716	3637
828.855	3523
828.994	3405
829.134	3397
829.273	3431
829.412	3386
829.551	3344
829.69	3370
829.829	3462
829.968	3507
830.107	3473
830.246	3458
830.385	3416
830.524	3370
830.663	3302
830.802	3275
830.941	3245
831.08	3230
831.219	3275
831.357	3287
831.496	3405
831.635	3264
831.774	3184
831.913	3195
832.051	3161
832.19	3157
832.329	3218
832.467	3165
832.606	3138
832.744	3157
832.883	3165
833.022	3203
833.16	3283
833.299	3310
833.437	3367
833.576	3351
833.714	3424
833.852	3477
833.991	3435
834.129	3504
834.267	3462
834.406	3393
834.544	3443
834.682	3412
834.821	3428
834.959	3576
835.097	3428
835.235	3542
835.373	3492
835.511	3519
835.65	3504
835.788	3477
835.926	3401
836.064	3370
836.202	3450
836.34	3591
836.478	3576
836.615	3534
836.753	3561
836.891	3679
837.029	3610
837.167	3576
837.305	3633
837.443	3515
837.58	3492
837.718	3622
837.856	3545
837.993	3568
838.131	3633
838.269	3526
838.406	3587
838.544	3599
838.681	3492
838.819	3458
838.956	3405
839.094	3424
839.231	3431
839.369	3534
839.506	3766
839.643	3648
839.781	3477
839.918	3485
840.055	3542
840.193	3580
840.33	3511
840.467	3568
840.604	3599
840.742	3804
840.879	3568
841.016	3526
841.153	3595
841.29	3808
841.427	3724
841.564	3774
841.701	3785
841.838	3720
841.975	3694
842.112	3751
842.249	3633
842.385	3610
842.522	3850
842.659	3675
842.796	3698
842.933	3770
843.069	3755
843.206	3724
843.343	3789
843.479	3778
843.616	3857
843.752	3671
843.889	3686
844.025	3873
844.162	3682
844.298	3888
844.435	3816
844.571	3789
844.708	3918
844.844	3956
844.98	4093
845.117	4040
845.253	3911
845.389	3899
845.525	3972
845.661	3972
845.798	3926
845.934	4029
846.07	4013
846.206	4109
846.342	4139
846.478	4097
846.614	4017
846.75	4010
846.886	3907
847.022	4036
847.158	4002
847.294	3994
847.429	4067
847.565	4013
847.701	4246
847.837	3907
847.972	3907
848.108	4032
848.244	3994
848.379	3846
848.515	3831
848.65	3838
848.786	3888
848.921	3888
849.057	3964
849.192	3964
849.328	3918
849.463	3918
849.598	3876
849.734	3892
849.869	3861
850.004	3808
850.14	3842
850.275	3766
850.41	3743
850.545	3781
850.68	3816
850.815	3831
850.95	3831
851.085	3972
851.22	3873
851.355	3819
851.49	3743
851.625	3835
851.76	3823
851.895	3747
852.03	3785
852.165	3838
852.299	3823
852.434	3922
852.569	3873
852.703	3869
852.838	3926
852.973	3991
853.107	4010
853.242	3888
853.376	3896
853.511	3800
853.645	3823
853.78	4059
853.914	3922
854.048	3899
854.183	3896
854.317	3953
854.451	4032
854.585	3994
854.72	3949
854.854	4048
854.988	3934
855.122	3987
855.256	3968
855.39	3998
855.524	4124
855.658	4090
855.792	4097
855.926	4166
856.06	4135
856.194	4188
856.327	4162
856.461	4131
856.595	4135
856.729	4200
856.862	4249
856.996	4227
857.13	4306
857.263	4348
857.397	4333
857.53	4325
857.664	4344
857.797	4436
857.931	4428
858.064	4409
858.197	4470
858.331	4413
858.464	4379
858.597	4360
858.731	4451
858.864	4451
858.997	4447
859.13	4550
859.263	4508
859.396	4580
859.529	4577
859.662	4554
859.795	4554
859.928	4634
860.061	4702
860.194	4725
860.327	4641
860.46	4649
860.592	4771
860.725	4744
860.858	4793
860.99	4759
861.123	4729
861.256	4683
861.388	4774
861.521	5402
861.653	4721
861.786	4729
861.918	4744
862.05	4885
862.183	4870
862.315	4850
862.447	4965
862.58	4930
862.712	4809
862.844	4782
862.976	4858
863.108	4850
863.24	5239
863.372	4854
863.504	4900
863.636	4908
863.768	4987
863.9	4965
864.032	4957
864.164	5022
864.296	5022
864.428	5105
864.559	5143
864.691	5151
864.823	5109
864.954	5098
865.086	5128
865.217	5071
865.349	5147
865.48	5136
865.612	5201
865.743	5334
865.875	5166
866.006	5181
866.137	5269
866.269	5254
866.4	5292
866.531	5216
866.662	5261
866.793	5299
866.924	5288
867.055	5326
867.186	5395
867.317	5296
867.448	5345
867.579	5395
867.71	5391
867.841	5406
867.972	5490
868.103	5455
868.233	5501
868.364	5528
868.495	5592
868.625	5699
868.756	5752
868.886	5653
869.017	5741
869.147	5832
869.278	5923
869.408	5798
869.539	5851
869.669	5999
869.799	5939
869.929	6015
870.06	6049
870.19	6167
870.32	6228
870.45	6308
870.58	6357
870.71	6399
870.84	6475
870.97	6380
871.1	6452
871.23	6620
871.36	6734
871.489	6707
871.619	6768
871.749	6810
871.879	6818
872.008	7019
872.138	6970
872.267	6993
872.397	7015
872.526	7038
872.656	7088
872.785	7194
872.915	7441
873.044	7540
873.173	7563
873.303	7586
873.432	7753
873.561	7894
873.69	7970
873.819	8008
873.948	8187
874.077	8252
874.206	8324
874.335	8457
874.464	8689
874.593	8887
874.722	8986
874.851	9195
874.979	9226
875.108	9321
875.237	9397
875.365	9496
875.494	9724
875.623	9842
875.751	9778
875.88	9979
876.008	10173
876.136	10261
876.265	10516
876.393	10679
876.521	10778
876.65	10702
876.778	10839
876.906	10862
877.034	10995
877.162	11143
877.29	11220
877.418	11258
877.546	11360
877.674	11433
877.802	11383
877.93	11486
878.058	11623
878.185	11535
878.313	11657
878.441	11764
878.568	11722
878.696	11786
878.824	11874
878.951	11935
879.079	12079
879.206	12117
879.333	11977
879.461	12026
879.588	12053
879.715	12091
879.842	12281
879.97	12087
880.097	11961
880.224	11893
880.351	11874
880.478	11939
880.605	11840
880.732	11882
880.859	11988
880.986	11790
881.112	11832
881.239	11851
881.366	11676
881.493	11615
881.619	11570
881.746	11589
881.872	11551
881.999	11539
882.125	11448
882.252	11589
882.378	11493
882.505	11520
882.631	11379
882.757	11353
882.883	11334
883.01	11261
883.136	11284
883.262	11029
883.388	11147
883.514	11254
883.64	11227
883.766	11124
883.892	11010
884.018	11041
884.143	11128
884.269	11128
884.395	10869
884.52	10831
884.646	10805
884.772	10687
884.897	10683
885.023	10580
885.148	10683
885.274	10786
885.399	10706
885.524	10687
885.65	10519
885.775	10694
885.9	10573
886.025	10622
886.15	10615
886.275	10413
886.4	10409
886.525	10428
886.65	10440
886.775	10417
886.9	10462
887.025	10535
887.149	10363
887.274	10295
887.399	10207
887.523	10249
887.648	10200
887.773	10181
887.897	10223
888.021	10211
888.146	10150
888.27	10246
888.395	10234
888.519	10227
888.643	10242
888.767	10177
888.891	10090
889.015	10044
889.139	10101
889.263	9972
889.387	10078
889.511	10105
889.635	10135
889.759	9953
889.883	10013
890.006	10006
890.13	10082
890.254	10040
890.377	10040
890.501	9949
890.624	9998
890.748	9884
890.871	9724
890.995	9759
891.118	9690
891.241	9831
891.364	9762
891.488	9816
891.611	9766
891.734	9755
891.857	9743
891.98	9766
892.103	9793
892.226	9671
892.349	9641
892.471	9469
892.594	9629
892.717	9618
892.839	9622
892.962	9572
893.085	9663
893.207	9633
893.33	9534
893.452	9511
893.575	9614
893.697	9485
893.819	9595
893.941	9641
894.064	9629
894.186	9523
894.308	9454
894.43	9504
894.552	9625
894.674	9492
894.796	9435
894.918	9359
895.04	9355
895.161	9378
895.283	9332
895.405	9222
895.526	9249
895.648	9222
895.769	9264
895.891	9268
896.012	9283
896.134	9287
896.255	9192
896.376	9142
896.498	9184
896.619	9146
896.74	9100
896.861	9097
896.982	9348
897.103	9355
897.224	9150
897.345	9020
897.466	9039
897.587	8986
897.708	9112
897.828	9001
897.949	9005
898.07	8845
898.19	8906
898.311	9020
898.431	8967
898.552	8842
898.672	9032
898.792	9077
898.913	8902
899.033	8807
899.153	8796
899.273	8629
899.393	8689
899.513	8785
899.633	8823
899.753	8823
899.873	8724
899.993	8731
900.113	8659
900.232	8689
900.352	8689
900.472	8655
900.591	8625
900.711	8651
900.83	8537
900.95	8727
901.069	8750
901.189	8552
901.308	8419
901.427	8362
901.546	8469
901.665	8469
901.784	8518
901.904	8492
902.023	8381
902.141	8214
902.26	8221
902.379	8305
902.498	8191
902.617	8206
902.735	8294
902.854	8206
902.973	8145
903.091	8103
903.21	8206
903.328	8168
903.446	8240
903.565	8039
903.683	8077
903.801	8008
903.919	8103
904.038	8107
904.156	8016
904.274	8077
904.392	7974
904.51	7982
904.627	8024
904.745	8050
904.863	8119
904.981	7875
905.098	7864
905.216	7917
905.334	7928
905.451	7898
905.569	7902
905.686	8008
905.803	7978
905.921	7845
906.038	7864
906.155	7750
906.272	7727
906.389	7727
906.506	7651
906.623	7666
906.74	7613
906.857	7662
906.974	7632
907.091	7628
907.208	7795
907.324	7594
907.441	7613
907.557	7396
907.674	7434
907.79	7430
907.907	7403
908.023	7460
908.139	7464
908.256	7381
908.372	7335
908.488	7403
908.604	7316
908.72	7301
908.836	7247
908.952	7293
909.068	7255
909.184	7285
909.3	7331
909.415	7316
909.531	7289
909.647	7141
909.762	7110
909.878	7088
909.993	7114
910.108	7095
910.224	7072
910.339	7118
910.454	7004
910.57	7019
910.685	6958
910.8	7228
910.915	7072
911.03	7118
911.145	6954
911.259	6833
911.374	6954
911.489	6840
911.604	6878
911.718	6757
911.833	6757
911.947	6642
912.062	6593
912.176	6665
912.291	6730
912.405	6722
912.519	6787
912.633	6802
912.748	6738
912.862	6681
912.976	6578
913.09	6570
913.204	6658
913.318	6597
913.431	6665
913.545	6673
913.659	6722
913.772	6654
913.886	6593
914	6570
914.113	6570
914.226	6673
914.34	6589
914.453	6486
914.566	6623
914.68	6532
914.793	6547
914.906	6486
915.019	6407
915.132	6395
915.245	6391
915.358	6509
915.47	6426
915.583	6441
915.696	6479
915.809	6498
915.921	6574
916.034	6403
916.146	6486
916.259	6372
916.371	6544
916.483	6433
916.595	6342
916.708	6502
916.82	6346
916.932	6448
917.044	6418
917.156	6452
917.268	6281
917.38	6281
917.491	6296
917.603	6319
917.715	6502
917.826	6410
917.938	6258
918.049	6281
918.161	6304
918.272	6445
918.384	6395
918.495	6331
918.606	6277
918.717	6247
918.828	6327
918.939	6304
919.05	6228
919.161	6216
919.272	6114
919.383	6163
919.494	6296
919.604	6452
919.715	6273
919.826	6254
919.936	6270
920.047	6304
920.157	6296
920.267	6479
920.378	6311
920.488	6323
920.598	6479
920.708	6574
920.818	6410
920.928	6448
921.038	6604
921.148	6612
921.258	6342
921.368	6277
921.477	6228
921.587	6205
921.697	6068
921.806	6228
921.916	6114
922.025	5931
922.134	5908
922.244	5859
922.353	5935
922.462	5840
922.571	5828
922.68	5668
922.789	5653
922.898	5756
923.007	5630
923.116	5722
923.224	5676
923.333	5710
923.442	5665
923.55	5581
923.659	5600
923.767	5619
923.876	5543
923.984	5642
924.092	5551
924.201	5543
924.309	5539
924.417	5570
924.525	5539
924.633	5505
924.741	6133
924.849	5398
924.956	5497
925.064	5353
925.172	5345
925.279	5292
925.387	5376
925.494	5353
925.602	5402
925.709	5406
925.816	5265
925.924	5372
926.031	5421
926.138	5288
926.245	5376
926.352	5239
926.459	5330
926.566	5337
926.673	5242
926.779	5204
926.886	5067
926.993	5029
927.099	5014
927.206	4953
927.312	5018
927.419	5003
927.525	4987
927.631	4987
927.737	4904
927.843	4866
927.95	4786
928.056	4854
928.162	4786
928.267	4847
928.373	5406
928.479	4812
928.585	4706
928.69	4805
928.796	4809
928.901	4702
929.007	4622
929.112	4691
929.218	4618
929.323	4554
929.428	4607
929.533	4653
929.638	4588
929.743	4512
929.848	4558
929.953	4504
930.058	4398
930.163	4348
930.267	4367
930.372	4447
930.477	4303
930.581	4500
930.685	4424
930.79	4257
930.894	4268
930.998	4306
931.103	4383
931.207	4196
931.311	4093
931.415	4044
931.519	3968
931.623	3945
