Data from glass_V78500241_628.txt Node
Date: Wed Sep 01 19:18:51 CST 2021
User: usil
Spectrometer: V785-0024
Trigger mode: 0
Integration Time (sec): 4.000000E-1
Scans to average: 1
Nonlinearity correction enabled: false
Boxcar width: 0
Storing dark spectrum: false
XAxis mode: Wavelengths
Number of Pixels in Spectrum: 1024
>>>>>Begin Spectral Data<<<<<
801.071	3732
801.214	3762
801.356	3759
801.499	3778
801.641	3736
801.783	3762
801.926	3876
802.068	3850
802.211	3888
802.353	3930
802.496	3850
802.638	3907
802.78	3899
802.923	3972
803.065	3918
803.208	3846
803.35	3865
803.492	3903
803.635	3922
803.777	3804
803.919	3907
804.061	4135
804.204	3983
804.346	3953
804.488	3964
804.63	4025
804.773	4010
804.915	4021
805.057	4143
805.199	4067
805.341	4109
805.483	4158
805.626	4177
805.768	4112
805.91	4211
806.052	4246
806.194	4215
806.336	4386
806.478	4223
806.62	4162
806.762	4207
806.904	4306
807.046	4314
807.188	4234
807.33	4185
807.472	4276
807.614	4215
807.756	4276
807.898	4192
808.04	4230
808.182	4325
808.324	4314
808.465	4367
808.607	4443
808.749	4466
808.891	4470
809.033	4588
809.174	4459
809.316	4284
809.458	4257
809.6	4143
809.741	4150
809.883	4120
810.025	4204
810.166	4173
810.308	4177
810.45	4291
810.591	4227
810.733	4333
810.875	4527
811.016	4831
811.158	5117
811.299	5269
811.441	5334
811.582	5086
811.724	4683
811.865	4478
812.007	4455
812.148	4436
812.29	4455
812.431	4409
812.573	4443
812.714	4379
812.855	4394
812.997	4440
813.138	4447
813.279	4405
813.421	4379
813.562	4371
813.703	4295
813.845	4348
813.986	4238
814.127	4246
814.268	4284
814.41	4287
814.551	4287
814.692	4333
814.833	4246
814.974	4306
815.115	4341
815.256	4249
815.397	4257
815.539	4291
815.68	4185
815.821	4238
815.962	4272
816.103	4299
816.244	4272
816.385	4249
816.526	4325
816.666	4253
816.807	4166
816.948	4219
817.089	4181
817.23	4162
817.371	4074
817.512	4032
817.653	4105
817.793	4051
817.934	4063
818.075	4112
818.216	4116
818.356	4086
818.497	3979
818.638	3949
818.778	3972
818.919	3876
819.06	3869
819.2	3960
819.341	3915
819.481	3846
819.622	3911
819.762	4021
819.903	3960
820.043	3869
820.184	3869
820.324	3876
820.465	3888
820.605	3896
820.746	3884
820.886	3804
821.026	3975
821.167	3930
821.307	3934
821.447	3987
821.588	3953
821.728	3998
821.868	3949
822.008	3850
822.149	3896
822.289	3949
822.429	3785
822.569	3770
822.709	3835
822.849	3705
822.99	3736
823.13	3778
823.27	3774
823.41	3774
823.55	3732
823.69	3698
823.83	3751
823.97	3709
824.11	3667
824.25	3587
824.389	3660
824.529	3660
824.669	3660
824.809	3743
824.949	3785
825.089	3781
825.228	3740
825.368	3595
825.508	3591
825.648	3591
825.787	3587
825.927	3671
826.067	3648
826.206	3679
826.346	3831
826.485	3865
826.625	3888
826.765	3972
826.904	3823
827.044	3610
827.183	3542
827.323	3409
827.462	3496
827.601	3450
827.741	3439
827.88	3450
828.02	3389
828.159	3439
828.298	3496
828.437	3534
828.577	3496
828.716	3618
828.855	3466
828.994	3401
829.134	3386
829.273	3405
829.412	3374
829.551	3336
829.69	3386
829.829	3412
829.968	3526
830.107	3469
830.246	3428
830.385	3389
830.524	3405
830.663	3348
830.802	3237
830.941	3207
831.08	3222
831.219	3302
831.357	3275
831.496	3450
831.635	3222
831.774	3161
831.913	3222
832.051	3142
832.19	3135
832.329	3253
832.467	3142
832.606	3104
832.744	3207
832.883	3222
833.022	3192
833.16	3279
833.299	3302
833.437	3355
833.576	3336
833.714	3382
833.852	3466
833.991	3454
834.129	3488
834.267	3447
834.406	3409
834.544	3439
834.682	3389
834.821	3393
834.959	3568
835.097	3409
835.235	3553
835.373	3485
835.511	3511
835.65	3488
835.788	3504
835.926	3393
836.064	3393
836.202	3416
836.34	3557
836.478	3580
836.615	3568
836.753	3587
836.891	3637
837.029	3652
837.167	3591
837.305	3561
837.443	3572
837.58	3507
837.718	3644
837.856	3580
837.993	3591
838.131	3606
838.269	3545
838.406	3587
838.544	3625
838.681	3511
838.819	3466
838.956	3401
839.094	3370
839.231	3496
839.369	3530
839.506	3759
839.643	3652
839.781	3519
839.918	3462
840.055	3545
840.193	3549
840.33	3561
840.467	3561
840.604	3595
840.742	3823
840.879	3511
841.016	3572
841.153	3595
841.29	3785
841.427	3759
841.564	3755
841.701	3728
841.838	3698
841.975	3648
842.112	3717
842.249	3652
842.385	3667
842.522	3819
842.659	3690
842.796	3728
842.933	3728
843.069	3720
843.206	3717
843.343	3812
843.479	3793
843.616	3831
843.752	3747
843.889	3713
844.025	3857
844.162	3759
844.298	3838
844.435	3850
844.571	3755
844.708	3911
844.844	4002
844.98	4036
845.117	4082
845.253	3956
845.389	3903
845.525	3998
845.661	3979
845.798	3964
845.934	4032
846.07	3953
846.206	4078
846.342	4131
846.478	4055
846.614	3987
846.75	3972
846.886	3892
847.022	4048
847.158	3956
847.294	4055
847.429	4013
847.565	4010
847.701	4253
847.837	3876
847.972	3899
848.108	3991
848.244	3975
848.379	3922
848.515	3869
848.65	3823
848.786	3865
848.921	3819
849.057	3934
849.192	3941
849.328	3949
849.463	3934
849.598	3869
849.734	3888
849.869	3831
850.004	3808
850.14	3835
850.275	3797
850.41	3740
850.545	3774
850.68	3743
850.815	3823
850.95	3804
851.085	3945
851.22	3880
851.355	3876
851.49	3816
851.625	3774
851.76	3785
851.895	3770
852.03	3724
852.165	3831
852.299	3876
852.434	3918
852.569	3884
852.703	3888
852.838	3937
852.973	3968
853.107	4036
853.242	3888
853.376	3861
853.511	3797
853.645	3842
853.78	3975
853.914	3934
854.048	3907
854.183	3956
854.317	3960
854.451	4120
854.585	3949
854.72	3979
854.854	4082
854.988	3991
855.122	4002
855.256	3926
855.39	4006
855.524	4112
855.658	4090
855.792	4101
855.926	4139
856.06	4177
856.194	4223
856.327	4158
856.461	4135
856.595	4150
856.729	4215
856.862	4322
856.996	4306
857.13	4322
857.263	4341
857.397	4348
857.53	4310
857.664	4337
857.797	4398
857.931	4394
858.064	4428
858.197	4481
858.331	4405
858.464	4379
858.597	4375
858.731	4432
858.864	4485
858.997	4455
859.13	4512
859.263	4573
859.396	4561
859.529	4577
859.662	4580
859.795	4523
859.928	4622
860.061	4729
860.194	4771
860.327	4672
860.46	4645
860.592	4721
860.725	4774
860.858	4828
860.99	4721
861.123	4710
861.256	4675
861.388	4767
861.521	5246
861.653	4748
861.786	4717
861.918	4755
862.05	4835
862.183	4866
862.315	4915
862.447	4987
862.58	4896
862.712	4790
862.844	4786
862.976	4858
863.108	4896
863.24	5223
863.372	4854
863.504	4904
863.636	4881
863.768	4927
863.9	4949
864.032	4923
864.164	4953
864.296	5029
864.428	5018
864.559	5109
864.691	5098
864.823	5128
864.954	5102
865.086	5223
865.217	5132
865.349	5102
865.48	5170
865.612	5250
865.743	5292
865.875	5201
866.006	5204
866.137	5189
866.269	5216
866.4	5261
866.531	5254
866.662	5299
866.793	5296
866.924	5227
867.055	5330
867.186	5357
867.317	5368
867.448	5296
867.579	5379
867.71	5433
867.841	5421
867.972	5493
868.103	5421
868.233	5490
868.364	5497
868.495	5547
868.625	5703
868.756	5817
868.886	5665
869.017	5775
869.147	5866
869.278	5874
869.408	5824
869.539	5901
869.669	5897
869.799	5923
869.929	5999
870.06	6030
870.19	6167
870.32	6232
870.45	6289
870.58	6338
870.71	6429
870.84	6483
870.97	6452
871.1	6479
871.23	6662
871.36	6722
871.489	6669
871.619	6776
871.749	6848
871.879	6837
872.008	7038
872.138	6962
872.267	6989
872.397	6947
872.526	7042
872.656	7133
872.785	7217
872.915	7369
873.044	7613
873.173	7575
873.303	7655
873.432	7746
873.561	7871
873.69	7944
873.819	8050
873.948	8195
874.077	8240
874.206	8317
874.335	8438
874.464	8617
874.593	8849
874.722	8891
874.851	9169
874.979	9321
875.108	9370
875.237	9428
875.365	9443
875.494	9648
875.623	9816
875.751	9930
875.88	9953
876.008	10090
876.136	10310
876.265	10603
876.393	10622
876.521	10729
876.65	10828
876.778	10904
876.906	10987
877.034	11064
877.162	11071
877.29	11102
877.418	11235
877.546	11433
877.674	11414
877.802	11478
877.93	11577
878.058	11589
878.185	11547
878.313	11657
878.441	11699
878.568	11722
878.696	11779
878.824	11824
878.951	11908
879.079	12003
879.206	12079
879.333	12007
879.461	12007
879.588	12125
879.715	12110
879.842	12216
879.97	12117
880.097	11908
880.224	11859
880.351	11813
880.478	11821
880.605	11828
880.732	11836
880.859	11965
880.986	11790
881.112	11961
881.239	11745
881.366	11600
881.493	11665
881.619	11509
881.746	11562
881.872	11592
881.999	11524
882.125	11493
882.252	11478
882.378	11547
882.505	11509
882.631	11391
882.757	11296
882.883	11421
883.01	11258
883.136	11212
883.262	11121
883.388	11113
883.514	11265
883.64	11151
883.766	11143
883.892	10915
884.018	10987
884.143	11075
884.269	11155
884.395	10786
884.52	10790
884.646	10721
884.772	10736
884.897	10649
885.023	10687
885.148	10816
885.274	10862
885.399	10691
885.524	10573
885.65	10645
885.775	10607
885.9	10542
886.025	10550
886.15	10573
886.275	10470
886.4	10451
886.525	10405
886.65	10382
886.775	10386
886.9	10466
887.025	10554
887.149	10398
887.274	10246
887.399	10287
887.523	10158
887.648	10093
887.773	10109
887.897	10246
888.021	10166
888.146	10147
888.27	10261
888.395	10196
888.519	10143
888.643	10204
888.767	10128
888.891	10086
889.015	10067
889.139	10082
889.263	9975
889.387	10021
889.511	10071
889.635	10166
889.759	9979
889.883	9991
890.006	10082
890.13	10044
890.254	9983
890.377	9972
890.501	9831
890.624	9899
890.748	9888
890.871	9854
890.995	9717
891.118	9797
891.241	9743
891.364	9759
891.488	9816
891.611	9671
891.734	9789
891.857	9797
891.98	9736
892.103	9781
892.226	9675
892.349	9747
892.471	9526
892.594	9652
892.717	9656
892.839	9679
892.962	9629
893.085	9648
893.207	9610
893.33	9557
893.452	9553
893.575	9622
893.697	9511
893.819	9732
893.941	9553
894.064	9694
894.186	9542
894.308	9355
894.43	9500
894.552	9557
894.674	9561
894.796	9370
894.918	9389
895.04	9462
895.161	9355
895.283	9325
895.405	9275
895.526	9287
895.648	9241
895.769	9317
895.891	9237
896.012	9294
896.134	9207
896.255	9214
896.376	9123
896.498	9142
896.619	9195
896.74	9116
896.861	9089
896.982	9222
897.103	9340
897.224	9161
897.345	9116
897.466	8967
897.587	8956
897.708	9074
897.828	9058
897.949	8971
898.07	8826
898.19	8933
898.311	9009
898.431	8929
898.552	8948
898.672	8956
898.792	8994
898.913	8956
899.033	8769
899.153	8762
899.273	8667
899.393	8659
899.513	8796
899.633	8743
899.753	8746
899.873	8659
899.993	8762
900.113	8739
900.232	8708
900.352	8708
900.472	8610
900.591	8579
900.711	8644
900.83	8564
900.95	8693
901.069	8701
901.189	8644
901.308	8461
901.427	8434
901.546	8480
901.665	8533
901.784	8495
901.904	8317
902.023	8358
902.141	8248
902.26	8248
902.379	8309
902.498	8233
902.617	8256
902.735	8347
902.854	8317
902.973	8290
903.091	8157
903.21	8149
903.328	8237
903.446	8115
903.565	8081
903.683	8077
903.801	8039
903.919	8126
904.038	8084
904.156	8062
904.274	8092
904.392	8069
904.51	8031
904.627	8001
904.745	8088
904.863	8096
904.981	7978
905.098	7852
905.216	7879
905.334	7894
905.451	7928
905.569	7860
905.686	7909
905.803	7909
905.921	7799
906.038	7936
906.155	7746
906.272	7765
906.389	7761
906.506	7670
906.623	7693
906.74	7582
906.857	7556
906.974	7578
907.091	7719
907.208	7708
907.324	7677
907.441	7552
907.557	7483
907.674	7476
907.79	7419
907.907	7438
908.023	7457
908.139	7400
908.256	7419
908.372	7419
908.488	7324
908.604	7316
908.72	7251
908.836	7251
908.952	7266
909.068	7289
909.184	7301
909.3	7236
909.415	7274
909.531	7301
909.647	7129
909.762	7137
909.878	7114
909.993	7168
910.108	7053
910.224	7069
910.339	7065
910.454	7168
910.57	6981
910.685	7008
910.8	7171
910.915	7118
911.03	7042
911.145	6894
911.259	6913
911.374	6878
911.489	6852
911.604	6791
911.718	6658
911.833	6760
911.947	6627
912.062	6608
912.176	6734
912.291	6703
912.405	6726
912.519	6791
912.633	6848
912.748	6730
912.862	6722
912.976	6547
913.09	6578
913.204	6616
913.318	6623
913.431	6688
913.545	6749
913.659	6806
913.772	6662
913.886	6574
914	6551
914.113	6574
914.226	6631
914.34	6635
914.453	6471
914.566	6658
914.68	6502
914.793	6593
914.906	6437
915.019	6460
915.132	6384
915.245	6403
915.358	6448
915.47	6441
915.583	6452
915.696	6509
915.809	6494
915.921	6547
916.034	6426
916.146	6380
916.259	6433
916.371	6509
916.483	6467
916.595	6437
916.708	6357
916.82	6429
916.932	6464
917.044	6395
917.156	6407
917.268	6342
917.38	6300
917.491	6300
917.603	6346
917.715	6399
917.826	6448
917.938	6350
918.049	6292
918.161	6346
918.272	6506
918.384	6475
918.495	6334
918.606	6281
918.717	6277
918.828	6308
918.939	6277
919.05	6224
919.161	6235
919.272	6201
919.383	6171
919.494	6342
919.604	6426
919.715	6292
919.826	6167
919.936	6281
920.047	6327
920.157	6277
920.267	6460
920.378	6376
920.488	6296
920.598	6528
920.708	6589
920.818	6471
920.928	6502
921.038	6616
921.148	6589
921.258	6410
921.368	6331
921.477	6262
921.587	6197
921.697	6098
921.806	6213
921.916	6053
922.025	5920
922.134	5927
922.244	5870
922.353	5969
922.462	5897
922.571	5802
922.68	5775
922.789	5726
922.898	5710
923.007	5680
923.116	5707
923.224	5665
923.333	5676
923.442	5630
923.55	5570
923.659	5558
923.767	5661
923.876	5600
923.984	5581
924.092	5539
924.201	5535
924.309	5577
924.417	5539
924.525	5482
924.633	5478
924.741	6251
924.849	5364
924.956	5490
925.064	5391
925.172	5345
925.279	5330
925.387	5391
925.494	5315
925.602	5387
925.709	5417
925.816	5292
925.924	5299
926.031	5410
926.138	5330
926.245	5353
926.352	5284
926.459	5299
926.566	5318
926.673	5261
926.779	5064
926.886	5124
926.993	4984
927.099	5045
927.206	5025
927.312	4972
927.419	5037
927.525	4991
927.631	4991
927.737	4904
927.843	4915
927.95	4771
928.056	4881
928.162	4831
928.267	4873
928.373	5277
928.479	4843
928.585	4714
928.69	4793
928.796	4824
928.901	4637
929.007	4580
929.112	4710
929.218	4622
929.323	4599
929.428	4584
929.533	4706
929.638	4504
929.743	4554
929.848	4592
929.953	4531
930.058	4466
930.163	4325
930.267	4375
930.372	4440
930.477	4341
930.581	4519
930.685	4379
930.79	4242
930.894	4287
930.998	4261
931.103	4428
931.207	4150
931.311	4071
931.415	4029
931.519	3922
931.623	3953
