Data from glass_V78500241_1172.txt Node
Date: Wed Sep 01 19:22:37 CST 2021
User: usil
Spectrometer: V785-0024
Trigger mode: 0
Integration Time (sec): 4.000000E-1
Scans to average: 1
Nonlinearity correction enabled: false
Boxcar width: 0
Storing dark spectrum: false
XAxis mode: Wavelengths
Number of Pixels in Spectrum: 1024
>>>>>Begin Spectral Data<<<<<
801.071	3686
801.214	3743
801.356	3671
801.499	3747
801.641	3743
801.783	3755
801.926	3850
802.068	3846
802.211	3876
802.353	3846
802.496	3823
802.638	3922
802.78	3934
802.923	3991
803.065	3956
803.208	3865
803.35	3846
803.492	3918
803.635	3922
803.777	3831
803.919	3884
804.061	4131
804.204	3983
804.346	3941
804.488	3937
804.63	4040
804.773	3991
804.915	4002
805.057	4139
805.199	4032
805.341	4128
805.483	4139
805.626	4131
805.768	4135
805.91	4234
806.052	4284
806.194	4200
806.336	4413
806.478	4211
806.62	4166
806.762	4219
806.904	4234
807.046	4348
807.188	4230
807.33	4150
807.472	4257
807.614	4200
807.756	4242
807.898	4192
808.04	4272
808.182	4268
808.324	4325
808.465	4287
808.607	4470
808.749	4455
808.891	4466
809.033	4459
809.174	4432
809.316	4291
809.458	4265
809.6	4166
809.741	4139
809.883	4188
810.025	4268
810.166	4227
810.308	4219
810.45	4265
810.591	4204
810.733	4287
810.875	4508
811.016	4809
811.158	5170
811.299	5280
811.441	5303
811.582	5075
811.724	4752
811.865	4489
812.007	4447
812.148	4405
812.29	4417
812.431	4436
812.573	4402
812.714	4333
812.855	4413
812.997	4428
813.138	4481
813.279	4455
813.421	4348
813.562	4379
813.703	4363
813.845	4329
813.986	4280
814.127	4219
814.268	4284
814.41	4291
814.551	4257
814.692	4352
814.833	4276
814.974	4276
815.115	4363
815.256	4234
815.397	4230
815.539	4246
815.68	4249
815.821	4246
815.962	4272
816.103	4253
816.244	4261
816.385	4272
816.526	4303
816.666	4200
816.807	4109
816.948	4147
817.089	4185
817.23	4135
817.371	4086
817.512	4025
817.653	4082
817.793	4013
817.934	4025
818.075	4097
818.216	4150
818.356	4090
818.497	4029
818.638	3934
818.778	3975
818.919	3869
819.06	3873
819.2	3899
819.341	3899
819.481	3842
819.622	3911
819.762	4013
819.903	3987
820.043	3930
820.184	3865
820.324	3800
820.465	3930
820.605	3861
820.746	3888
820.886	3778
821.026	3918
821.167	3842
821.307	3998
821.447	4006
821.588	3915
821.728	3956
821.868	3964
822.008	3896
822.149	3941
822.289	3941
822.429	3800
822.569	3736
822.709	3819
822.849	3751
822.99	3720
823.13	3797
823.27	3785
823.41	3751
823.55	3724
823.69	3705
823.83	3755
823.97	3743
824.11	3587
824.25	3648
824.389	3656
824.529	3682
824.669	3652
824.809	3686
824.949	3766
825.089	3694
825.228	3728
825.368	3610
825.508	3545
825.648	3595
825.787	3599
825.927	3629
826.067	3629
826.206	3648
826.346	3804
826.485	3850
826.625	3869
826.765	3880
826.904	3873
827.044	3625
827.183	3549
827.323	3412
827.462	3511
827.601	3462
827.741	3450
827.88	3435
828.02	3370
828.159	3450
828.298	3466
828.437	3568
828.577	3481
828.716	3606
828.855	3496
828.994	3351
829.134	3401
829.273	3378
829.412	3367
829.551	3363
829.69	3374
829.829	3454
829.968	3534
830.107	3469
830.246	3473
830.385	3378
830.524	3367
830.663	3298
830.802	3272
830.941	3195
831.08	3169
831.219	3264
831.357	3306
831.496	3424
831.635	3211
831.774	3222
831.913	3207
832.051	3138
832.19	3157
832.329	3188
832.467	3157
832.606	3119
832.744	3180
832.883	3188
833.022	3180
833.16	3256
833.299	3336
833.437	3351
833.576	3351
833.714	3450
833.852	3420
833.991	3450
834.129	3488
834.267	3466
834.406	3431
834.544	3424
834.682	3420
834.821	3458
834.959	3618
835.097	3450
835.235	3538
835.373	3526
835.511	3500
835.65	3519
835.788	3534
835.926	3405
836.064	3428
836.202	3424
836.34	3580
836.478	3641
836.615	3606
836.753	3603
836.891	3618
837.029	3656
837.167	3584
837.305	3580
837.443	3561
837.58	3496
837.718	3618
837.856	3561
837.993	3561
838.131	3591
838.269	3584
838.406	3603
838.544	3580
838.681	3462
838.819	3477
838.956	3393
839.094	3386
839.231	3488
839.369	3538
839.506	3717
839.643	3599
839.781	3469
839.918	3454
840.055	3549
840.193	3538
840.33	3523
840.467	3576
840.604	3637
840.742	3835
840.879	3568
841.016	3633
841.153	3625
841.29	3797
841.427	3709
841.564	3762
841.701	3778
841.838	3690
841.975	3690
842.112	3701
842.249	3671
842.385	3618
842.522	3827
842.659	3720
842.796	3701
842.933	3728
843.069	3671
843.206	3709
843.343	3808
843.479	3797
843.616	3812
843.752	3667
843.889	3686
844.025	3861
844.162	3770
844.298	3888
844.435	3789
844.571	3816
844.708	3865
844.844	3975
844.98	4074
845.117	4017
845.253	3945
845.389	3945
845.525	3945
845.661	3991
845.798	3892
845.934	4032
846.07	3953
846.206	4074
846.342	4147
846.478	4074
846.614	3972
846.75	3956
846.886	3922
847.022	4036
847.158	3983
847.294	4002
847.429	4006
847.565	3972
847.701	4238
847.837	3930
847.972	3842
848.108	4017
848.244	4002
848.379	3854
848.515	3835
848.65	3816
848.786	3846
848.921	3857
849.057	3941
849.192	3956
849.328	3953
849.463	3915
849.598	3854
849.734	3876
849.869	3804
850.004	3819
850.14	3823
850.275	3759
850.41	3732
850.545	3774
850.68	3762
850.815	3808
850.95	3759
851.085	3941
851.22	3850
851.355	3846
851.49	3793
851.625	3816
851.76	3781
851.895	3755
852.03	3736
852.165	3800
852.299	3850
852.434	3926
852.569	3888
852.703	3899
852.838	3960
852.973	3975
853.107	4006
853.242	3907
853.376	3880
853.511	3793
853.645	3846
853.78	3983
853.914	3911
854.048	3888
854.183	3930
854.317	3949
854.451	4093
854.585	4006
854.72	3964
854.854	4051
854.988	3991
855.122	3994
855.256	3907
855.39	4032
855.524	4036
855.658	4090
855.792	4093
855.926	4116
856.06	4166
856.194	4207
856.327	4135
856.461	4139
856.595	4242
856.729	4188
856.862	4314
856.996	4219
857.13	4325
857.263	4333
857.397	4325
857.53	4253
857.664	4363
857.797	4409
857.931	4402
858.064	4447
858.197	4489
858.331	4375
858.464	4390
858.597	4360
858.731	4440
858.864	4478
858.997	4436
859.13	4497
859.263	4527
859.396	4580
859.529	4531
859.662	4542
859.795	4500
859.928	4618
860.061	4698
860.194	4714
860.327	4691
860.46	4687
860.592	4736
860.725	4774
860.858	4771
860.99	4717
861.123	4691
861.256	4698
861.388	4797
861.521	5357
861.653	4698
861.786	4740
861.918	4694
862.05	4805
862.183	4835
862.315	4919
862.447	4957
862.58	4881
862.712	4824
862.844	4763
862.976	4892
863.108	4877
863.24	5151
863.372	4862
863.504	4938
863.636	4911
863.768	4980
863.9	4976
864.032	4930
864.164	4934
864.296	5018
864.428	5067
864.559	5090
864.691	5128
864.823	5102
864.954	5143
865.086	5128
865.217	5136
865.349	5124
865.48	5208
865.612	5220
865.743	5292
865.875	5246
866.006	5201
866.137	5277
866.269	5254
866.4	5269
866.531	5292
866.662	5261
866.793	5322
866.924	5288
867.055	5376
867.186	5360
867.317	5292
867.448	5292
867.579	5391
867.71	5349
867.841	5357
867.972	5440
868.103	5505
868.233	5539
868.364	5539
868.495	5592
868.625	5688
868.756	5805
868.886	5642
869.017	5729
869.147	5844
869.278	5828
869.408	5824
869.539	5802
869.669	5889
869.799	5901
869.929	6015
870.06	6038
870.19	6205
870.32	6155
870.45	6273
870.58	6334
870.71	6445
870.84	6448
870.97	6403
871.1	6467
871.23	6688
871.36	6673
871.489	6642
871.619	6722
871.749	6818
871.879	6852
872.008	7034
872.138	6993
872.267	7057
872.397	7069
872.526	7091
872.656	7145
872.785	7278
872.915	7422
873.044	7556
873.173	7510
873.303	7639
873.432	7837
873.561	7875
873.69	7913
873.819	8024
873.948	8187
874.077	8313
874.206	8366
874.335	8457
874.464	8674
874.593	8842
874.722	8979
874.851	9074
874.979	9157
875.108	9408
875.237	9408
875.365	9435
875.494	9644
875.623	9884
875.751	9846
875.88	9953
876.008	10082
876.136	10382
876.265	10561
876.393	10710
876.521	10740
876.65	10866
876.778	10839
876.906	10919
877.034	11014
877.162	11067
877.29	11143
877.418	11303
877.546	11376
877.674	11497
877.802	11493
877.93	11589
878.058	11543
878.185	11554
878.313	11623
878.441	11729
878.568	11627
878.696	11790
878.824	11828
878.951	11942
879.079	11977
879.206	12190
879.333	12091
879.461	11992
879.588	12121
879.715	12087
879.842	12216
879.97	12064
880.097	11874
880.224	11885
880.351	11893
880.478	11904
880.605	11912
880.732	11836
880.859	12057
880.986	11817
881.112	11805
881.239	11748
881.366	11703
881.493	11630
881.619	11566
881.746	11585
881.872	11558
881.999	11558
882.125	11448
882.252	11562
882.378	11554
882.505	11585
882.631	11425
882.757	11250
882.883	11315
883.01	11204
883.136	11201
883.262	11083
883.388	11102
883.514	11151
883.64	11193
883.766	11151
883.892	10911
884.018	10991
884.143	10999
884.269	11109
884.395	10862
884.52	10816
884.646	10831
884.772	10687
884.897	10675
885.023	10702
885.148	10809
885.274	10797
885.399	10641
885.524	10599
885.65	10573
885.775	10607
885.9	10660
886.025	10691
886.15	10599
886.275	10413
886.4	10375
886.525	10443
886.65	10459
886.775	10356
886.9	10565
887.025	10535
887.149	10417
887.274	10230
887.399	10196
887.523	10188
887.648	10154
887.773	10059
887.897	10215
888.021	10272
888.146	10131
888.27	10303
888.395	10227
888.519	10227
888.643	10173
888.767	10188
888.891	10101
889.015	10048
889.139	10074
889.263	9987
889.387	10071
889.511	10044
889.635	10112
889.759	10032
889.883	9926
890.006	10063
890.13	10131
890.254	9941
890.377	9945
890.501	9907
890.624	9861
890.748	9918
890.871	9785
890.995	9785
891.118	9751
891.241	9804
891.364	9743
891.488	9812
891.611	9717
891.734	9781
891.857	9808
891.98	9717
892.103	9804
892.226	9660
892.349	9625
892.471	9542
892.594	9603
892.717	9606
892.839	9713
892.962	9603
893.085	9724
893.207	9629
893.33	9504
893.452	9526
893.575	9580
893.697	9557
893.819	9610
893.941	9667
894.064	9584
894.186	9435
894.308	9454
894.43	9466
894.552	9545
894.674	9500
894.796	9374
894.918	9439
895.04	9397
895.161	9367
895.283	9412
895.405	9287
895.526	9306
895.648	9211
895.769	9142
895.891	9298
896.012	9272
896.134	9214
896.255	9176
896.376	9116
896.498	9214
896.619	9089
896.74	9138
896.861	9146
896.982	9325
897.103	9306
897.224	9150
897.345	9077
897.466	9028
897.587	9039
897.708	9165
897.828	9013
897.949	8998
898.07	8830
898.19	8998
898.311	9009
898.431	8880
898.552	8979
898.672	8925
898.792	8986
898.913	8899
899.033	8777
899.153	8758
899.273	8663
899.393	8693
899.513	8792
899.633	8716
899.753	8739
899.873	8796
899.993	8686
900.113	8693
900.232	8663
900.352	8655
900.472	8606
900.591	8571
900.711	8670
900.83	8686
900.95	8686
901.069	8682
901.189	8632
901.308	8446
901.427	8347
901.546	8415
901.665	8465
901.784	8484
901.904	8385
902.023	8355
902.141	8305
902.26	8206
902.379	8267
902.498	8225
902.617	8240
902.735	8313
902.854	8343
902.973	8298
903.091	8103
903.21	8115
903.328	8126
903.446	8096
903.565	8142
903.683	8115
903.801	8050
903.919	8100
904.038	8130
904.156	7967
904.274	8084
904.392	8062
904.51	8020
904.627	8054
904.745	8069
904.863	8103
904.981	7940
905.098	7864
905.216	7856
905.334	7890
905.451	7879
905.569	7860
905.686	7947
905.803	7898
905.921	7746
906.038	7909
906.155	7822
906.272	7731
906.389	7727
906.506	7658
906.623	7719
906.74	7609
906.857	7605
906.974	7597
907.091	7719
907.208	7776
907.324	7613
907.441	7578
907.557	7483
907.674	7449
907.79	7457
907.907	7384
908.023	7495
908.139	7426
908.256	7419
908.372	7354
908.488	7312
908.604	7285
908.72	7232
908.836	7293
908.952	7259
909.068	7232
909.184	7316
909.3	7266
909.415	7259
909.531	7274
909.647	7122
909.762	7164
909.878	7149
909.993	7099
910.108	7141
910.224	7103
910.339	7107
910.454	7057
910.57	6947
910.685	7050
910.8	7168
910.915	7114
911.03	7023
911.145	6966
911.259	6924
911.374	6939
911.489	6890
911.604	6795
911.718	6719
911.833	6715
911.947	6631
912.062	6601
912.176	6726
912.291	6700
912.405	6669
912.519	6818
912.633	6840
912.748	6757
912.862	6692
912.976	6555
913.09	6563
913.204	6578
913.318	6669
913.431	6715
913.545	6654
913.659	6703
913.772	6711
913.886	6570
914	6536
914.113	6658
914.226	6635
914.34	6601
914.453	6506
914.566	6578
914.68	6631
914.793	6551
914.906	6437
915.019	6426
915.132	6369
915.245	6414
915.358	6437
915.47	6502
915.583	6418
915.696	6513
915.809	6498
915.921	6540
916.034	6388
916.146	6429
916.259	6353
916.371	6490
916.483	6464
916.595	6365
916.708	6388
916.82	6414
916.932	6433
917.044	6429
917.156	6429
917.268	6350
917.38	6357
917.491	6395
917.603	6346
917.715	6372
917.826	6445
917.938	6311
918.049	6224
918.161	6338
918.272	6376
918.384	6403
918.495	6361
918.606	6277
918.717	6281
918.828	6292
918.939	6353
919.05	6251
919.161	6277
919.272	6175
919.383	6182
919.494	6331
919.604	6395
919.715	6304
919.826	6239
919.936	6254
920.047	6308
920.157	6277
920.267	6467
920.378	6365
920.488	6308
920.598	6437
920.708	6528
920.818	6498
920.928	6517
921.038	6662
921.148	6483
921.258	6422
921.368	6308
921.477	6194
921.587	6258
921.697	6068
921.806	6197
921.916	6163
922.025	5958
922.134	5931
922.244	5889
922.353	5984
922.462	5889
922.571	5802
922.68	5726
922.789	5726
922.898	5668
923.007	5657
923.116	5688
923.224	5718
923.333	5653
923.442	5657
923.55	5566
923.659	5535
923.767	5611
923.876	5596
923.984	5562
924.092	5558
924.201	5562
924.309	5528
924.417	5554
924.525	5478
924.633	5501
924.741	6292
924.849	5357
924.956	5486
925.064	5337
925.172	5307
925.279	5345
925.387	5387
925.494	5341
925.602	5444
925.709	5357
925.816	5311
925.924	5288
926.031	5364
926.138	5292
926.245	5322
926.352	5231
926.459	5330
926.566	5357
926.673	5235
926.779	5151
926.886	5056
926.993	5033
927.099	5033
927.206	4999
927.312	4976
927.419	4999
927.525	4976
927.631	4953
927.737	4900
927.843	4820
927.95	4759
928.056	4854
928.162	4839
928.267	4866
928.373	5368
928.479	4885
928.585	4691
928.69	4790
928.796	4763
928.901	4717
929.007	4577
929.112	4721
929.218	4611
929.323	4630
929.428	4535
929.533	4641
929.638	4512
929.743	4470
929.848	4603
929.953	4550
930.058	4481
930.163	4306
930.267	4341
930.372	4451
930.477	4261
930.581	4485
930.685	4329
930.79	4306
930.894	4352
930.998	4265
931.103	4379
931.207	4139
931.311	4086
931.415	4055
931.519	3903
931.623	3953
