Data from glass_V78500241_2707.txt Node
Date: Wed Sep 01 19:33:15 CST 2021
User: usil
Spectrometer: V785-0024
Trigger mode: 0
Integration Time (sec): 4.000000E-1
Scans to average: 1
Nonlinearity correction enabled: false
Boxcar width: 0
Storing dark spectrum: false
XAxis mode: Wavelengths
Number of Pixels in Spectrum: 1024
>>>>>Begin Spectral Data<<<<<
801.071	3732
801.214	3724
801.356	3717
801.499	3740
801.641	3740
801.783	3759
801.926	3842
802.068	3835
802.211	3816
802.353	3865
802.496	3781
802.638	3819
802.78	3884
802.923	3873
803.065	3854
803.208	3816
803.35	3861
803.492	3915
803.635	3903
803.777	3766
803.919	3823
804.061	4109
804.204	3960
804.346	3926
804.488	3911
804.63	4032
804.773	3964
804.915	4010
805.057	4116
805.199	4059
805.341	4082
805.483	4101
805.626	4154
805.768	4139
805.91	4215
806.052	4215
806.194	4192
806.336	4367
806.478	4135
806.62	4188
806.762	4173
806.904	4238
807.046	4322
807.188	4166
807.33	4162
807.472	4295
807.614	4185
807.756	4215
807.898	4223
808.04	4196
808.182	4227
808.324	4276
808.465	4348
808.607	4451
808.749	4478
808.891	4432
809.033	4459
809.174	4421
809.316	4200
809.458	4268
809.6	4166
809.741	4093
809.883	4131
810.025	4204
810.166	4207
810.308	4200
810.45	4234
810.591	4223
810.733	4268
810.875	4474
811.016	4774
811.158	5067
811.299	5246
811.441	5208
811.582	5010
811.724	4683
811.865	4485
812.007	4474
812.148	4402
812.29	4405
812.431	4413
812.573	4379
812.714	4341
812.855	4383
812.997	4379
813.138	4497
813.279	4424
813.421	4383
813.562	4337
813.703	4314
813.845	4341
813.986	4246
814.127	4242
814.268	4238
814.41	4246
814.551	4242
814.692	4325
814.833	4234
814.974	4261
815.115	4322
815.256	4276
815.397	4185
815.539	4238
815.68	4207
815.821	4166
815.962	4242
816.103	4272
816.244	4230
816.385	4253
816.526	4246
816.666	4215
816.807	4105
816.948	4238
817.089	4135
817.23	4097
817.371	4002
817.512	4032
817.653	4044
817.793	4051
817.934	4017
818.075	4105
818.216	4067
818.356	4093
818.497	4002
818.638	3915
818.778	3911
818.919	3854
819.06	3876
819.2	3899
819.341	3896
819.481	3823
819.622	3884
819.762	3964
819.903	3972
820.043	3800
820.184	3854
820.324	3831
820.465	3884
820.605	3812
820.746	3869
820.886	3785
821.026	3930
821.167	3892
821.307	3975
821.447	4010
821.588	3937
821.728	3964
821.868	3903
822.008	3823
822.149	3861
822.289	3880
822.429	3762
822.569	3724
822.709	3770
822.849	3671
822.99	3732
823.13	3766
823.27	3759
823.41	3686
823.55	3728
823.69	3713
823.83	3751
823.97	3629
824.11	3591
824.25	3587
824.389	3667
824.529	3618
824.669	3618
824.809	3698
824.949	3740
825.089	3713
825.228	3694
825.368	3580
825.508	3542
825.648	3561
825.787	3606
825.927	3641
826.067	3603
826.206	3644
826.346	3762
826.485	3797
826.625	3854
826.765	3960
826.904	3781
827.044	3587
827.183	3504
827.323	3424
827.462	3488
827.601	3431
827.741	3405
827.88	3428
828.02	3374
828.159	3412
828.298	3469
828.437	3496
828.577	3443
828.716	3564
828.855	3473
828.994	3370
829.134	3416
829.273	3367
829.412	3355
829.551	3336
829.69	3367
829.829	3409
829.968	3507
830.107	3428
830.246	3420
830.385	3344
830.524	3351
830.663	3306
830.802	3268
830.941	3188
831.08	3173
831.219	3233
831.357	3233
831.496	3367
831.635	3230
831.774	3173
831.913	3214
832.051	3100
832.19	3138
832.329	3169
832.467	3112
832.606	3097
832.744	3161
832.883	3173
833.022	3161
833.16	3253
833.299	3256
833.437	3317
833.576	3329
833.714	3363
833.852	3397
833.991	3435
834.129	3443
834.267	3458
834.406	3370
834.544	3428
834.682	3401
834.821	3405
834.959	3591
835.097	3367
835.235	3473
835.373	3507
835.511	3458
835.65	3458
835.788	3462
835.926	3370
836.064	3348
836.202	3405
836.34	3534
836.478	3576
836.615	3519
836.753	3603
836.891	3633
837.029	3622
837.167	3572
837.305	3523
837.443	3542
837.58	3469
837.718	3606
837.856	3599
837.993	3538
838.131	3591
838.269	3545
838.406	3572
838.544	3561
838.681	3485
838.819	3439
838.956	3336
839.094	3386
839.231	3450
839.369	3500
839.506	3736
839.643	3622
839.781	3511
839.918	3450
840.055	3515
840.193	3496
840.33	3519
840.467	3553
840.604	3595
840.742	3732
840.879	3530
841.016	3557
841.153	3603
841.29	3762
841.427	3709
841.564	3701
841.701	3740
841.838	3671
841.975	3637
842.112	3686
842.249	3622
842.385	3629
842.522	3785
842.659	3663
842.796	3625
842.933	3682
843.069	3701
843.206	3698
843.343	3808
843.479	3740
843.616	3789
843.752	3648
843.889	3682
844.025	3850
844.162	3701
844.298	3850
844.435	3785
844.571	3774
844.708	3899
844.844	3964
844.98	3972
845.117	3983
845.253	3941
845.389	3888
845.525	3934
845.661	3934
845.798	3979
845.934	3960
846.07	3892
846.206	4044
846.342	4120
846.478	4067
846.614	3960
846.75	3930
846.886	3896
847.022	3979
847.158	3899
847.294	3987
847.429	3987
847.565	3998
847.701	4188
847.837	3865
847.972	3838
848.108	3937
848.244	3922
848.379	3854
848.515	3827
848.65	3766
848.786	3846
848.921	3846
849.057	3892
849.192	3911
849.328	3896
849.463	3934
849.598	3869
849.734	3831
849.869	3857
850.004	3743
850.14	3778
850.275	3793
850.41	3720
850.545	3720
850.68	3770
850.815	3736
850.95	3819
851.085	3949
851.22	3884
851.355	3819
851.49	3789
851.625	3747
851.76	3819
851.895	3724
852.03	3694
852.165	3785
852.299	3835
852.434	3880
852.569	3812
852.703	3819
852.838	3888
852.973	4025
853.107	3945
853.242	3861
853.376	3808
853.511	3778
853.645	3823
853.78	3945
853.914	3865
854.048	3899
854.183	3854
854.317	3930
854.451	4040
854.585	3945
854.72	3911
854.854	4048
854.988	3987
855.122	4013
855.256	3926
855.39	3994
855.524	4090
855.658	4086
855.792	4048
855.926	4116
856.06	4158
856.194	4200
856.327	4131
856.461	4090
856.595	4139
856.729	4139
856.862	4268
856.996	4207
857.13	4299
857.263	4314
857.397	4310
857.53	4257
857.664	4337
857.797	4344
857.931	4405
858.064	4379
858.197	4443
858.331	4398
858.464	4409
858.597	4325
858.731	4440
858.864	4447
858.997	4379
859.13	4508
859.263	4523
859.396	4618
859.529	4478
859.662	4485
859.795	4573
859.928	4641
860.061	4675
860.194	4733
860.327	4611
860.46	4634
860.592	4748
860.725	4721
860.858	4771
860.99	4759
861.123	4672
861.256	4729
861.388	4759
861.521	5288
861.653	4729
861.786	4710
861.918	4702
862.05	4786
862.183	4809
862.315	4862
862.447	4911
862.58	4835
862.712	4759
862.844	4767
862.976	4843
863.108	4911
863.24	5254
863.372	4850
863.504	4839
863.636	4946
863.768	4889
863.9	4972
864.032	4919
864.164	4881
864.296	5067
864.428	5067
864.559	5086
864.691	5079
864.823	5086
864.954	5098
865.086	5109
865.217	5113
865.349	5105
865.48	5121
865.612	5109
865.743	5235
865.875	5193
866.006	5174
866.137	5185
866.269	5220
866.4	5277
866.531	5265
866.662	5261
866.793	5288
866.924	5299
867.055	5334
867.186	5337
867.317	5353
867.448	5330
867.579	5345
867.71	5406
867.841	5334
867.972	5421
868.103	5372
868.233	5414
868.364	5444
868.495	5532
868.625	5653
868.756	5745
868.886	5684
869.017	5741
869.147	5790
869.278	5847
869.408	5809
869.539	5828
869.669	5923
869.799	5954
869.929	5973
870.06	6015
870.19	6178
870.32	6213
870.45	6239
870.58	6353
870.71	6441
870.84	6452
870.97	6353
871.1	6467
871.23	6597
871.36	6646
871.489	6642
871.619	6802
871.749	6783
871.879	6848
872.008	6913
872.138	6916
872.267	7057
872.397	6928
872.526	7000
872.656	7069
872.785	7160
872.915	7419
873.044	7540
873.173	7556
873.303	7620
873.432	7769
873.561	7856
873.69	7909
873.819	7959
873.948	8161
874.077	8214
874.206	8313
874.335	8457
874.464	8697
874.593	8872
874.722	8956
874.851	9085
874.979	9119
875.108	9294
875.237	9435
875.365	9439
875.494	9679
875.623	9876
875.751	9781
875.88	9918
876.008	10158
876.136	10249
876.265	10417
876.393	10592
876.521	10706
876.65	10774
876.778	10869
876.906	10911
877.034	11018
877.162	11079
877.29	11117
877.418	11231
877.546	11372
877.674	11433
877.802	11547
877.93	11512
878.058	11528
878.185	11562
878.313	11600
878.441	11764
878.568	11619
878.696	11809
878.824	11802
878.951	12003
879.079	12011
879.206	12079
879.333	12163
879.461	12038
879.588	12034
879.715	12140
879.842	12224
879.97	12007
880.097	11863
880.224	11920
880.351	11821
880.478	11878
880.605	11897
880.732	11764
880.859	11977
880.986	11786
881.112	11805
881.239	11646
881.366	11653
881.493	11672
881.619	11581
881.746	11630
881.872	11592
881.999	11505
882.125	11417
882.252	11570
882.378	11551
882.505	11581
882.631	11356
882.757	11318
882.883	11315
883.01	11280
883.136	11170
883.262	11174
883.388	11136
883.514	11178
883.64	11189
883.766	11170
883.892	11006
884.018	10987
884.143	11025
884.269	11071
884.395	10873
884.52	10698
884.646	10740
884.772	10630
884.897	10668
885.023	10645
885.148	10744
885.274	10706
885.399	10683
885.524	10573
885.65	10599
885.775	10611
885.9	10538
886.025	10596
886.15	10527
886.275	10443
886.4	10333
886.525	10432
886.65	10318
886.775	10394
886.9	10417
887.025	10531
887.149	10329
887.274	10128
887.399	10185
887.523	10177
887.648	10090
887.773	10166
887.897	10215
888.021	10219
888.146	10131
888.27	10284
888.395	10200
888.519	10150
888.643	10246
888.767	10207
888.891	10128
889.015	9994
889.139	10086
889.263	9968
889.387	10124
889.511	10131
889.635	10131
889.759	9953
889.883	9956
890.006	9960
890.13	10090
890.254	9926
890.377	10006
890.501	9869
890.624	9930
890.748	9964
890.871	9816
890.995	9759
891.118	9690
891.241	9778
891.364	9660
891.488	9846
891.611	9736
891.734	9682
891.857	9743
891.98	9698
892.103	9785
892.226	9667
892.349	9633
892.471	9557
892.594	9545
892.717	9633
892.839	9523
892.962	9591
893.085	9686
893.207	9507
893.33	9473
893.452	9534
893.575	9633
893.697	9466
893.819	9606
893.941	9587
894.064	9526
894.186	9408
894.308	9462
894.43	9492
894.552	9500
894.674	9481
894.796	9447
894.918	9378
895.04	9313
895.161	9306
895.283	9374
895.405	9207
895.526	9264
895.648	9245
895.769	9275
895.891	9180
896.012	9226
896.134	9226
896.255	9211
896.376	9138
896.498	9180
896.619	9161
896.74	9062
896.861	9047
896.982	9275
897.103	9253
897.224	9207
897.345	9036
897.466	8998
897.587	8998
897.708	9077
897.828	9066
897.949	8929
898.07	8864
898.19	8861
898.311	8998
898.431	8914
898.552	8918
898.672	8967
898.792	8914
898.913	8929
899.033	8834
899.153	8708
899.273	8678
899.393	8693
899.513	8724
899.633	8762
899.753	8758
899.873	8735
899.993	8720
900.113	8697
900.232	8724
900.352	8693
900.472	8625
900.591	8526
900.711	8571
900.83	8518
900.95	8629
901.069	8674
901.189	8564
901.308	8427
901.427	8396
901.546	8400
901.665	8511
901.784	8473
901.904	8328
902.023	8381
902.141	8187
902.26	8176
902.379	8279
902.498	8161
902.617	8187
902.735	8244
902.854	8294
902.973	8290
903.091	8077
903.21	8176
903.328	8123
903.446	8103
903.565	8043
903.683	8046
903.801	8012
903.919	8103
904.038	8103
904.156	8046
904.274	8077
904.392	8084
904.51	8005
904.627	8027
904.745	8103
904.863	8069
904.981	7890
905.098	7909
905.216	7875
905.334	7906
905.451	7883
905.569	7852
905.686	7898
905.803	7974
905.921	7712
906.038	7772
906.155	7784
906.272	7700
906.389	7639
906.506	7647
906.623	7643
906.74	7567
906.857	7613
906.974	7575
907.091	7609
907.208	7689
907.324	7639
907.441	7514
907.557	7457
907.674	7434
907.79	7381
907.907	7358
908.023	7464
908.139	7358
908.256	7441
908.372	7362
908.488	7282
908.604	7327
908.72	7183
908.836	7194
908.952	7270
909.068	7202
909.184	7270
909.3	7194
909.415	7247
909.531	7270
909.647	7099
909.762	7129
909.878	7053
909.993	7103
910.108	7141
910.224	7053
910.339	7107
910.454	7042
910.57	7000
910.685	6985
910.8	7084
910.915	7107
911.03	7031
911.145	6867
911.259	6863
911.374	6935
911.489	6783
911.604	6863
911.718	6688
911.833	6757
911.947	6696
912.062	6623
912.176	6749
912.291	6673
912.405	6623
912.519	6825
912.633	6814
912.748	6753
912.862	6623
912.976	6601
913.09	6532
913.204	6582
913.318	6612
913.431	6650
913.545	6627
913.659	6726
913.772	6612
913.886	6521
914	6509
914.113	6635
914.226	6662
914.34	6585
914.453	6426
914.566	6601
914.68	6532
914.793	6521
914.906	6418
915.019	6414
915.132	6319
915.245	6403
915.358	6418
915.47	6422
915.583	6399
915.696	6410
915.809	6559
915.921	6574
916.034	6448
916.146	6346
916.259	6391
916.371	6456
916.483	6437
916.595	6391
916.708	6422
916.82	6391
916.932	6391
917.044	6376
917.156	6334
917.268	6357
917.38	6334
917.491	6292
917.603	6353
917.715	6342
917.826	6342
917.938	6357
918.049	6220
918.161	6327
918.272	6422
918.384	6429
918.495	6342
918.606	6277
918.717	6220
918.828	6178
918.939	6273
919.05	6178
919.161	6254
919.272	6057
919.383	6133
919.494	6270
919.604	6456
919.715	6232
919.826	6228
919.936	6216
920.047	6292
920.157	6285
920.267	6460
920.378	6323
920.488	6300
920.598	6452
920.708	6467
920.818	6403
920.928	6441
921.038	6528
921.148	6578
921.258	6327
921.368	6281
921.477	6182
921.587	6152
921.697	6064
921.806	6167
921.916	6053
922.025	5954
922.134	5942
922.244	5821
922.353	5969
922.462	5809
922.571	5779
922.68	5703
922.789	5649
922.898	5722
923.007	5581
923.116	5703
923.224	5695
923.333	5611
923.442	5592
923.55	5585
923.659	5592
923.767	5638
923.876	5486
923.984	5566
924.092	5509
924.201	5535
924.309	5570
924.417	5520
924.525	5398
924.633	5444
924.741	6247
924.849	5414
924.956	5474
925.064	5341
925.172	5284
925.279	5337
925.387	5299
925.494	5284
925.602	5387
925.709	5311
925.816	5261
925.924	5292
926.031	5364
926.138	5330
926.245	5299
926.352	5201
926.459	5326
926.566	5341
926.673	5132
926.779	5117
926.886	5117
926.993	5041
927.099	4991
927.206	4896
927.312	4968
927.419	5029
927.525	4987
927.631	5018
927.737	4896
927.843	4828
927.95	4767
928.056	4839
928.162	4831
928.267	4831
928.373	5258
928.479	4854
928.585	4645
928.69	4763
928.796	4763
928.901	4687
929.007	4611
929.112	4660
929.218	4630
929.323	4599
929.428	4527
929.533	4668
929.638	4523
929.743	4523
929.848	4516
929.953	4538
930.058	4436
930.163	4291
930.267	4303
930.372	4417
930.477	4276
930.581	4409
930.685	4344
930.79	4291
930.894	4257
930.998	4257
931.103	4360
931.207	4120
931.311	4051
931.415	4036
931.519	3968
931.623	3911
