Data from glass_V78500241_2210.txt Node
Date: Wed Sep 01 19:29:49 CST 2021
User: usil
Spectrometer: V785-0024
Trigger mode: 0
Integration Time (sec): 4.000000E-1
Scans to average: 1
Nonlinearity correction enabled: false
Boxcar width: 0
Storing dark spectrum: false
XAxis mode: Wavelengths
Number of Pixels in Spectrum: 1024
>>>>>Begin Spectral Data<<<<<
801.071	3743
801.214	3762
801.356	3671
801.499	3724
801.641	3713
801.783	3770
801.926	3835
802.068	3823
802.211	3846
802.353	3899
802.496	3850
802.638	3873
802.78	3899
802.923	3953
803.065	3880
803.208	3842
803.35	3838
803.492	3918
803.635	3922
803.777	3819
803.919	3915
804.061	4143
804.204	3968
804.346	3949
804.488	3907
804.63	4021
804.773	3956
804.915	3983
805.057	4116
805.199	4032
805.341	4112
805.483	4131
805.626	4143
805.768	4086
805.91	4188
806.052	4173
806.194	4234
806.336	4367
806.478	4242
806.62	4147
806.762	4143
806.904	4253
807.046	4322
807.188	4207
807.33	4147
807.472	4219
807.614	4188
807.756	4265
807.898	4185
808.04	4253
808.182	4287
808.324	4303
808.465	4367
808.607	4413
808.749	4443
808.891	4436
809.033	4508
809.174	4409
809.316	4246
809.458	4181
809.6	4105
809.741	4139
809.883	4150
810.025	4173
810.166	4196
810.308	4215
810.45	4257
810.591	4242
810.733	4299
810.875	4516
811.016	4793
811.158	5147
811.299	5330
811.441	5284
811.582	5052
811.724	4672
811.865	4436
812.007	4451
812.148	4447
812.29	4436
812.431	4379
812.573	4398
812.714	4363
812.855	4390
812.997	4405
813.138	4459
813.279	4405
813.421	4363
813.562	4394
813.703	4310
813.845	4310
813.986	4227
814.127	4204
814.268	4188
814.41	4295
814.551	4223
814.692	4291
814.833	4227
814.974	4284
815.115	4333
815.256	4261
815.397	4177
815.539	4249
815.68	4223
815.821	4230
815.962	4303
816.103	4246
816.244	4211
816.385	4196
816.526	4280
816.666	4192
816.807	4124
816.948	4162
817.089	4158
817.23	4097
817.371	4090
817.512	4044
817.653	4078
817.793	4055
817.934	4055
818.075	4074
818.216	4017
818.356	4071
818.497	3953
818.638	3880
818.778	3896
818.919	3903
819.06	3808
819.2	3907
819.341	3816
819.481	3846
819.622	3892
819.762	3998
819.903	3945
820.043	3869
820.184	3842
820.324	3804
820.465	3854
820.605	3873
820.746	3865
820.886	3785
821.026	3937
821.167	3873
821.307	3945
821.447	3953
821.588	3930
821.728	3953
821.868	3949
822.008	3838
822.149	3922
822.289	3941
822.429	3781
822.569	3789
822.709	3816
822.849	3682
822.99	3766
823.13	3732
823.27	3781
823.41	3694
823.55	3698
823.69	3705
823.83	3774
823.97	3656
824.11	3622
824.25	3564
824.389	3633
824.529	3656
824.669	3622
824.809	3694
824.949	3736
825.089	3701
825.228	3686
825.368	3553
825.508	3580
825.648	3561
825.787	3572
825.927	3618
826.067	3648
826.206	3656
826.346	3766
826.485	3800
826.625	3861
826.765	3937
826.904	3857
827.044	3603
827.183	3538
827.323	3405
827.462	3477
827.601	3458
827.741	3412
827.88	3447
828.02	3363
828.159	3458
828.298	3477
828.437	3504
828.577	3481
828.716	3549
828.855	3450
828.994	3439
829.134	3382
829.273	3401
829.412	3348
829.551	3344
829.69	3355
829.829	3389
829.968	3523
830.107	3435
830.246	3435
830.385	3340
830.524	3298
830.663	3272
830.802	3256
830.941	3249
831.08	3214
831.219	3272
831.357	3241
831.496	3420
831.635	3233
831.774	3222
831.913	3192
832.051	3077
832.19	3127
832.329	3260
832.467	3116
832.606	3093
832.744	3169
832.883	3131
833.022	3192
833.16	3233
833.299	3283
833.437	3313
833.576	3363
833.714	3416
833.852	3397
833.991	3409
834.129	3466
834.267	3458
834.406	3378
834.544	3439
834.682	3409
834.821	3393
834.959	3557
835.097	3397
835.235	3530
835.373	3458
835.511	3511
835.65	3447
835.788	3530
835.926	3367
836.064	3355
836.202	3374
836.34	3610
836.478	3599
836.615	3564
836.753	3637
836.891	3637
837.029	3599
837.167	3603
837.305	3538
837.443	3530
837.58	3481
837.718	3564
837.856	3561
837.993	3507
838.131	3606
838.269	3534
838.406	3568
838.544	3587
838.681	3481
838.819	3447
838.956	3378
839.094	3370
839.231	3420
839.369	3492
839.506	3740
839.643	3584
839.781	3500
839.918	3443
840.055	3542
840.193	3519
840.33	3519
840.467	3561
840.604	3595
840.742	3743
840.879	3545
841.016	3504
841.153	3614
841.29	3736
841.427	3724
841.564	3732
841.701	3709
841.838	3713
841.975	3698
842.112	3690
842.249	3656
842.385	3625
842.522	3827
842.659	3690
842.796	3629
842.933	3740
843.069	3682
843.206	3698
843.343	3823
843.479	3736
843.616	3774
843.752	3663
843.889	3705
844.025	3873
844.162	3671
844.298	3831
844.435	3774
844.571	3781
844.708	3953
844.844	3994
844.98	4048
845.117	3987
845.253	3937
845.389	3907
845.525	3979
845.661	3953
845.798	3861
845.934	3968
846.07	3941
846.206	4021
846.342	4078
846.478	4021
846.614	3960
846.75	3918
846.886	3892
847.022	4021
847.158	3983
847.294	3987
847.429	4017
847.565	4032
847.701	4249
847.837	3876
847.972	3846
848.108	3975
848.244	3934
848.379	3808
848.515	3823
848.65	3850
848.786	3846
848.921	3835
849.057	3922
849.192	3968
849.328	3857
849.463	3934
849.598	3861
849.734	3873
849.869	3831
850.004	3800
850.14	3819
850.275	3774
850.41	3736
850.545	3785
850.68	3793
850.815	3766
850.95	3766
851.085	3956
851.22	3880
851.355	3823
851.49	3770
851.625	3762
851.76	3793
851.895	3740
852.03	3717
852.165	3793
852.299	3842
852.434	3907
852.569	3869
852.703	3873
852.838	3915
852.973	3983
853.107	3979
853.242	3854
853.376	3854
853.511	3774
853.645	3854
853.78	3956
853.914	3842
854.048	3892
854.183	3861
854.317	3956
854.451	4044
854.585	3972
854.72	3918
854.854	4036
854.988	3915
855.122	3983
855.256	3888
855.39	3983
855.524	4086
855.658	4082
855.792	4074
855.926	4154
856.06	4154
856.194	4227
856.327	4169
856.461	4120
856.595	4082
856.729	4185
856.862	4257
856.996	4284
857.13	4276
857.263	4325
857.397	4337
857.53	4287
857.664	4325
857.797	4363
857.931	4443
858.064	4367
858.197	4455
858.331	4356
858.464	4337
858.597	4363
858.731	4440
858.864	4440
858.997	4436
859.13	4550
859.263	4519
859.396	4580
859.529	4504
859.662	4519
859.795	4519
859.928	4577
860.061	4645
860.194	4744
860.327	4649
860.46	4641
860.592	4831
860.725	4748
860.858	4801
860.99	4694
861.123	4679
861.256	4675
861.388	4740
861.521	5452
861.653	4698
861.786	4717
861.918	4717
862.05	4752
862.183	4805
862.315	4843
862.447	4911
862.58	4938
862.712	4790
862.844	4759
862.976	4850
863.108	4873
863.24	5178
863.372	4824
863.504	4870
863.636	4881
863.768	4972
863.9	4904
864.032	4946
864.164	4991
864.296	5079
864.428	5102
864.559	5048
864.691	5117
864.823	5090
864.954	5147
865.086	5124
865.217	5117
865.349	5136
865.48	5113
865.612	5204
865.743	5246
865.875	5181
866.006	5201
866.137	5204
866.269	5212
866.4	5220
866.531	5254
866.662	5166
866.793	5246
866.924	5299
867.055	5357
867.186	5360
867.317	5318
867.448	5288
867.579	5429
867.71	5349
867.841	5345
867.972	5467
868.103	5448
868.233	5444
868.364	5516
868.495	5516
868.625	5688
868.756	5760
868.886	5661
869.017	5684
869.147	5847
869.278	5821
869.408	5813
869.539	5855
869.669	5878
869.799	5870
869.929	6015
870.06	6049
870.19	6178
870.32	6201
870.45	6277
870.58	6384
870.71	6418
870.84	6429
870.97	6384
871.1	6437
871.23	6635
871.36	6654
871.489	6658
871.619	6730
871.749	6779
871.879	6806
872.008	6966
872.138	6886
872.267	7012
872.397	6989
872.526	7027
872.656	7110
872.785	7168
872.915	7373
873.044	7502
873.173	7518
873.303	7670
873.432	7719
873.561	7894
873.69	7925
873.819	8024
873.948	8115
874.077	8252
874.206	8377
874.335	8423
874.464	8560
874.593	8811
874.722	8914
874.851	9150
874.979	9161
875.108	9336
875.237	9359
875.365	9405
875.494	9614
875.623	9781
875.751	9816
875.88	10029
876.008	10219
876.136	10280
876.265	10474
876.393	10649
876.521	10679
876.65	10809
876.778	10862
876.906	10824
877.034	10919
877.162	11083
877.29	11056
877.418	11254
877.546	11356
877.674	11421
877.802	11509
877.93	11474
878.058	11562
878.185	11627
878.313	11695
878.441	11741
878.568	11756
878.696	11756
878.824	11847
878.951	12007
879.079	12072
879.206	12205
879.333	12060
879.461	11984
879.588	12019
879.715	12030
879.842	12262
879.97	12053
880.097	11832
880.224	11813
880.351	11942
880.478	11920
880.605	11882
880.732	11836
880.859	11988
880.986	11817
881.112	11760
881.239	11733
881.366	11634
881.493	11638
881.619	11589
881.746	11558
881.872	11471
881.999	11558
882.125	11482
882.252	11528
882.378	11471
882.505	11642
882.631	11345
882.757	11307
882.883	11337
883.01	11265
883.136	11174
883.262	11174
883.388	11079
883.514	11246
883.64	11140
883.766	11140
883.892	11090
884.018	10961
884.143	11121
884.269	11090
884.395	10889
884.52	10702
884.646	10790
884.772	10672
884.897	10649
885.023	10672
885.148	10752
885.274	10805
885.399	10691
885.524	10618
885.65	10607
885.775	10561
885.9	10618
886.025	10645
886.15	10596
886.275	10497
886.4	10443
886.525	10344
886.65	10276
886.775	10409
886.9	10500
887.025	10550
887.149	10333
887.274	10188
887.399	10131
887.523	10181
887.648	10124
887.773	10128
887.897	10227
888.021	10223
888.146	10135
888.27	10207
888.395	10124
888.519	10242
888.643	10211
888.767	10169
888.891	10071
889.015	10025
889.139	10120
889.263	9991
889.387	10086
889.511	10044
889.635	9994
889.759	9956
889.883	10021
890.006	10029
890.13	10090
890.254	9975
890.377	9915
890.501	9842
890.624	9899
890.748	9857
890.871	9755
890.995	9800
891.118	9724
891.241	9762
891.364	9759
891.488	9759
891.611	9755
891.734	9759
891.857	9751
891.98	9690
892.103	9751
892.226	9747
892.349	9698
892.471	9526
892.594	9545
892.717	9614
892.839	9561
892.962	9633
893.085	9679
893.207	9584
893.33	9428
893.452	9469
893.575	9599
893.697	9523
893.819	9622
893.941	9648
894.064	9507
894.186	9367
894.308	9401
894.43	9481
894.552	9485
894.674	9553
894.796	9397
894.918	9348
895.04	9310
895.161	9401
895.283	9344
895.405	9199
895.526	9336
895.648	9214
895.769	9211
895.891	9249
896.012	9264
896.134	9135
896.255	9142
896.376	9085
896.498	9100
896.619	9157
896.74	9081
896.861	9108
896.982	9264
897.103	9329
897.224	9150
897.345	9032
897.466	8971
897.587	8963
897.708	9089
897.828	9036
897.949	8895
898.07	8819
898.19	8883
898.311	9001
898.431	8899
898.552	8868
898.672	9001
898.792	8937
898.913	8921
899.033	8811
899.153	8731
899.273	8724
899.393	8727
899.513	8788
899.633	8697
899.753	8746
899.873	8727
899.993	8758
900.113	8625
900.232	8693
900.352	8693
900.472	8587
900.591	8621
900.711	8621
900.83	8495
900.95	8735
901.069	8705
901.189	8541
901.308	8396
901.427	8366
901.546	8442
901.665	8461
901.784	8492
901.904	8362
902.023	8374
902.141	8263
902.26	8168
902.379	8267
902.498	8176
902.617	8206
902.735	8336
902.854	8267
902.973	8252
903.091	8081
903.21	8153
903.328	8115
903.446	8126
903.565	8062
903.683	8096
903.801	7989
903.919	8084
904.038	8119
904.156	8073
904.274	8084
904.392	8005
904.51	8031
904.627	8077
904.745	8081
904.863	8119
904.981	7902
905.098	7883
905.216	7875
905.334	7883
905.451	7909
905.569	7906
905.686	7902
905.803	7947
905.921	7807
906.038	7837
906.155	7830
906.272	7689
906.389	7662
906.506	7670
906.623	7632
906.74	7601
906.857	7540
906.974	7552
907.091	7689
907.208	7677
907.324	7632
907.441	7563
907.557	7441
907.674	7422
907.79	7365
907.907	7403
908.023	7464
908.139	7403
908.256	7365
908.372	7369
908.488	7354
908.604	7270
908.72	7175
908.836	7198
908.952	7236
909.068	7362
909.184	7331
909.3	7217
909.415	7282
909.531	7320
909.647	7114
909.762	7088
909.878	7103
909.993	7107
910.108	7050
910.224	7076
910.339	7088
910.454	7057
910.57	6989
910.685	6928
910.8	7149
910.915	7091
911.03	6966
911.145	6909
911.259	6848
911.374	6894
911.489	6837
911.604	6768
911.718	6741
911.833	6726
911.947	6669
912.062	6570
912.176	6673
912.291	6707
912.405	6741
912.519	6821
912.633	6806
912.748	6646
912.862	6707
912.976	6616
913.09	6547
913.204	6593
913.318	6616
913.431	6620
913.545	6684
913.659	6745
913.772	6639
913.886	6570
914	6467
914.113	6578
914.226	6616
914.34	6646
914.453	6448
914.566	6616
914.68	6467
914.793	6460
914.906	6422
915.019	6384
915.132	6418
915.245	6342
915.358	6437
915.47	6467
915.583	6433
915.696	6433
915.809	6528
915.921	6540
916.034	6414
916.146	6376
916.259	6410
916.371	6418
916.483	6441
916.595	6433
916.708	6429
916.82	6372
916.932	6395
917.044	6369
917.156	6372
917.268	6346
917.38	6296
917.491	6315
917.603	6391
917.715	6422
917.826	6395
917.938	6311
918.049	6266
918.161	6311
918.272	6433
918.384	6403
918.495	6296
918.606	6258
918.717	6159
918.828	6243
918.939	6315
919.05	6171
919.161	6266
919.272	6098
919.383	6186
919.494	6292
919.604	6384
919.715	6300
919.826	6235
919.936	6254
920.047	6273
920.157	6251
920.267	6407
920.378	6281
920.488	6262
920.598	6467
920.708	6540
920.818	6475
920.928	6460
921.038	6601
921.148	6574
921.258	6331
921.368	6281
921.477	6190
921.587	6171
921.697	6091
921.806	6201
921.916	6053
922.025	5889
922.134	5866
922.244	5866
922.353	5954
922.462	5851
922.571	5790
922.68	5714
922.789	5668
922.898	5745
923.007	5604
923.116	5714
923.224	5649
923.333	5646
923.442	5596
923.55	5577
923.659	5573
923.767	5608
923.876	5516
923.984	5634
924.092	5505
924.201	5551
924.309	5585
924.417	5512
924.525	5459
924.633	5509
924.741	6289
924.849	5353
924.956	5486
925.064	5379
925.172	5337
925.279	5250
925.387	5383
925.494	5364
925.602	5383
925.709	5326
925.816	5353
925.924	5349
926.031	5349
926.138	5296
926.245	5258
926.352	5242
926.459	5318
926.566	5330
926.673	5178
926.779	5147
926.886	5159
926.993	5041
927.099	4968
927.206	4984
927.312	4968
927.419	4987
927.525	4968
927.631	4965
927.737	4923
927.843	4797
927.95	4774
928.056	4805
928.162	4828
928.267	4862
928.373	5349
928.479	4854
928.585	4664
928.69	4797
928.796	4744
928.901	4645
929.007	4607
929.112	4683
929.218	4611
929.323	4603
929.428	4599
929.533	4668
929.638	4512
929.743	4546
929.848	4580
929.953	4493
930.058	4413
930.163	4295
930.267	4337
930.372	4390
930.477	4261
930.581	4504
930.685	4360
930.79	4230
930.894	4268
930.998	4249
931.103	4337
931.207	4071
931.311	4036
931.415	4048
931.519	3926
931.623	3934
