Data from glass_V78500241_224.txt Node
Date: Wed Sep 01 19:16:03 CST 2021
User: usil
Spectrometer: V785-0024
Trigger mode: 0
Integration Time (sec): 4.000000E-1
Scans to average: 1
Nonlinearity correction enabled: false
Boxcar width: 0
Storing dark spectrum: false
XAxis mode: Wavelengths
Number of Pixels in Spectrum: 1024
>>>>>Begin Spectral Data<<<<<
801.071	3736
801.214	3732
801.356	3705
801.499	3781
801.641	3766
801.783	3766
801.926	3861
802.068	3896
802.211	3903
802.353	3876
802.496	3827
802.638	3857
802.78	3888
802.923	3953
803.065	3964
803.208	3884
803.35	3907
803.492	3930
803.635	3945
803.777	3804
803.919	3899
804.061	4120
804.204	3979
804.346	3949
804.488	3918
804.63	3979
804.773	3983
804.915	4006
805.057	4147
805.199	4082
805.341	4120
805.483	4143
805.626	4169
805.768	4090
805.91	4204
806.052	4268
806.194	4242
806.336	4360
806.478	4219
806.62	4196
806.762	4158
806.904	4280
807.046	4356
807.188	4215
807.33	4204
807.472	4280
807.614	4177
807.756	4295
807.898	4249
808.04	4227
808.182	4246
808.324	4329
808.465	4390
808.607	4504
808.749	4531
808.891	4481
809.033	4516
809.174	4394
809.316	4257
809.458	4234
809.6	4139
809.741	4177
809.883	4135
810.025	4219
810.166	4196
810.308	4268
810.45	4249
810.591	4219
810.733	4303
810.875	4481
811.016	4824
811.158	5170
811.299	5265
811.441	5284
811.582	5090
811.724	4691
811.865	4481
812.007	4500
812.148	4451
812.29	4413
812.431	4379
812.573	4417
812.714	4337
812.855	4394
812.997	4405
813.138	4516
813.279	4459
813.421	4413
813.562	4417
813.703	4405
813.845	4352
813.986	4257
814.127	4204
814.268	4265
814.41	4314
814.551	4306
814.692	4375
814.833	4242
814.974	4322
815.115	4352
815.256	4207
815.397	4246
815.539	4303
815.68	4173
815.821	4234
815.962	4363
816.103	4303
816.244	4249
816.385	4253
816.526	4272
816.666	4246
816.807	4131
816.948	4204
817.089	4158
817.23	4105
817.371	4051
817.512	4067
817.653	4090
817.793	4044
817.934	4082
818.075	4112
818.216	4101
818.356	4101
818.497	3968
818.638	3911
818.778	3949
818.919	3930
819.06	3915
819.2	3937
819.341	3907
819.481	3861
819.622	3918
819.762	4013
819.903	3934
820.043	3888
820.184	3857
820.324	3827
820.465	3869
820.605	3876
820.746	3899
820.886	3804
821.026	3964
821.167	3968
821.307	3994
821.447	3964
821.588	3968
821.728	3926
821.868	3960
822.008	3850
822.149	3918
822.289	3953
822.429	3800
822.569	3778
822.709	3816
822.849	3724
822.99	3751
823.13	3827
823.27	3789
823.41	3709
823.55	3736
823.69	3743
823.83	3732
823.97	3701
824.11	3641
824.25	3587
824.389	3637
824.529	3667
824.669	3656
824.809	3724
824.949	3740
825.089	3732
825.228	3667
825.368	3610
825.508	3557
825.648	3595
825.787	3648
825.927	3629
826.067	3652
826.206	3686
826.346	3865
826.485	3896
826.625	3892
826.765	3926
826.904	3835
827.044	3663
827.183	3515
827.323	3473
827.462	3492
827.601	3473
827.741	3462
827.88	3496
828.02	3416
828.159	3466
828.298	3496
828.437	3553
828.577	3500
828.716	3587
828.855	3545
828.994	3393
829.134	3405
829.273	3382
829.412	3363
829.551	3389
829.69	3386
829.829	3462
829.968	3526
830.107	3458
830.246	3458
830.385	3386
830.524	3363
830.663	3302
830.802	3298
830.941	3237
831.08	3214
831.219	3298
831.357	3260
831.496	3435
831.635	3275
831.774	3222
831.913	3218
832.051	3131
832.19	3173
832.329	3241
832.467	3123
832.606	3154
832.744	3165
832.883	3195
833.022	3207
833.16	3253
833.299	3313
833.437	3317
833.576	3401
833.714	3378
833.852	3420
833.991	3458
834.129	3496
834.267	3439
834.406	3401
834.544	3435
834.682	3496
834.821	3397
834.959	3614
835.097	3420
835.235	3584
835.373	3504
835.511	3523
835.65	3481
835.788	3473
835.926	3428
836.064	3466
836.202	3420
836.34	3595
836.478	3568
836.615	3561
836.753	3671
836.891	3648
837.029	3618
837.167	3622
837.305	3564
837.443	3576
837.58	3504
837.718	3618
837.856	3515
837.993	3580
838.131	3603
838.269	3595
838.406	3648
838.544	3584
838.681	3507
838.819	3496
838.956	3416
839.094	3428
839.231	3496
839.369	3542
839.506	3747
839.643	3660
839.781	3511
839.918	3500
840.055	3553
840.193	3538
840.33	3523
840.467	3584
840.604	3648
840.742	3819
840.879	3557
841.016	3587
841.153	3561
841.29	3816
841.427	3717
841.564	3724
841.701	3759
841.838	3720
841.975	3701
842.112	3755
842.249	3663
842.385	3637
842.522	3812
842.659	3682
842.796	3701
842.933	3743
843.069	3709
843.206	3747
843.343	3831
843.479	3823
843.616	3827
843.752	3675
843.889	3701
844.025	3857
844.162	3728
844.298	3842
844.435	3800
844.571	3747
844.708	3876
844.844	3998
844.98	4017
845.117	4017
845.253	3953
845.389	3926
845.525	3998
845.661	3998
845.798	3926
845.934	4013
846.07	3968
846.206	4055
846.342	4105
846.478	4090
846.614	3975
846.75	3968
846.886	3949
847.022	4010
847.158	3987
847.294	3983
847.429	4074
847.565	3956
847.701	4177
847.837	3896
847.972	3915
848.108	4017
848.244	4013
848.379	3880
848.515	3823
848.65	3861
848.786	3854
848.921	3850
849.057	3922
849.192	3945
849.328	3968
849.463	3922
849.598	3888
849.734	3857
849.869	3808
850.004	3800
850.14	3861
850.275	3778
850.41	3789
850.545	3789
850.68	3789
850.815	3808
850.95	3808
851.085	3922
851.22	3869
851.355	3789
851.49	3793
851.625	3797
851.76	3838
851.895	3778
852.03	3759
852.165	3785
852.299	3861
852.434	3903
852.569	3873
852.703	3907
852.838	3960
852.973	4067
853.107	3960
853.242	3888
853.376	3918
853.511	3789
853.645	3854
853.78	4029
853.914	3892
854.048	3880
854.183	3903
854.317	3998
854.451	4063
854.585	4002
854.72	3945
854.854	4109
854.988	3941
855.122	3998
855.256	3899
855.39	4101
855.524	4112
855.658	4143
855.792	4116
855.926	4109
856.06	4177
856.194	4211
856.327	4169
856.461	4128
856.595	4181
856.729	4150
856.862	4306
856.996	4242
857.13	4295
857.263	4329
857.397	4405
857.53	4314
857.664	4341
857.797	4390
857.931	4440
858.064	4386
858.197	4531
858.331	4390
858.464	4360
858.597	4356
858.731	4470
858.864	4455
858.997	4466
859.13	4577
859.263	4550
859.396	4592
859.529	4527
859.662	4561
859.795	4565
859.928	4603
860.061	4691
860.194	4790
860.327	4660
860.46	4656
860.592	4706
860.725	4797
860.858	4778
860.99	4664
861.123	4675
861.256	4668
861.388	4782
861.521	5379
861.653	4759
861.786	4729
861.918	4805
862.05	4835
862.183	4839
862.315	4896
862.447	4972
862.58	4911
862.712	4831
862.844	4805
862.976	4957
863.108	4866
863.24	5185
863.372	4835
863.504	4927
863.636	4934
863.768	4930
863.9	5041
864.032	4968
864.164	4957
864.296	5090
864.428	5098
864.559	5140
864.691	5159
864.823	5162
864.954	5155
865.086	5162
865.217	5124
865.349	5128
865.48	5166
865.612	5242
865.743	5239
865.875	5208
866.006	5239
866.137	5185
866.269	5212
866.4	5235
866.531	5254
866.662	5269
866.793	5254
866.924	5315
867.055	5349
867.186	5337
867.317	5322
867.448	5296
867.579	5379
867.71	5353
867.841	5334
867.972	5455
868.103	5486
868.233	5455
868.364	5558
868.495	5543
868.625	5638
868.756	5779
868.886	5691
869.017	5726
869.147	5859
869.278	5847
869.408	5840
869.539	5821
869.669	5973
869.799	5916
869.929	5980
870.06	6030
870.19	6216
870.32	6247
870.45	6239
870.58	6376
870.71	6498
870.84	6471
870.97	6399
871.1	6433
871.23	6597
871.36	6677
871.489	6677
871.619	6840
871.749	6779
871.879	6859
872.008	7050
872.138	6970
872.267	6977
872.397	6977
872.526	7072
872.656	7133
872.785	7225
872.915	7434
873.044	7468
873.173	7594
873.303	7666
873.432	7742
873.561	7852
873.69	8020
873.819	7997
873.948	8229
874.077	8206
874.206	8370
874.335	8450
874.464	8686
874.593	8788
874.722	8857
874.851	9142
874.979	9279
875.108	9431
875.237	9458
875.365	9507
875.494	9671
875.623	9797
875.751	9941
875.88	10013
876.008	10185
876.136	10230
876.265	10523
876.393	10755
876.521	10653
876.65	10790
876.778	10850
876.906	10923
877.034	10942
877.162	11162
877.29	11128
877.418	11303
877.546	11356
877.674	11532
877.802	11524
877.93	11596
878.058	11596
878.185	11577
878.313	11604
878.441	11783
878.568	11665
878.696	11710
878.824	11813
878.951	12007
879.079	11992
879.206	12136
879.333	12041
879.461	11958
879.588	12121
879.715	12117
879.842	12247
879.97	12007
880.097	11847
880.224	11878
880.351	11870
880.478	11950
880.605	11824
880.732	11889
880.859	11980
880.986	11870
881.112	11817
881.239	11786
881.366	11767
881.493	11608
881.619	11547
881.746	11486
881.872	11562
881.999	11619
882.125	11490
882.252	11581
882.378	11520
882.505	11539
882.631	11452
882.757	11330
882.883	11349
883.01	11239
883.136	11265
883.262	11052
883.388	11140
883.514	11208
883.64	11170
883.766	11045
883.892	10991
884.018	11029
884.143	11010
884.269	11132
884.395	10942
884.52	10809
884.646	10706
884.772	10698
884.897	10641
885.023	10653
885.148	10721
885.274	10809
885.399	10675
885.524	10668
885.65	10626
885.775	10630
885.9	10550
886.025	10565
886.15	10565
886.275	10497
886.4	10325
886.525	10440
886.65	10375
886.775	10398
886.9	10512
887.025	10569
887.149	10363
887.274	10314
887.399	10196
887.523	10131
887.648	10116
887.773	10166
887.897	10291
888.021	10242
888.146	10192
888.27	10227
888.395	10348
888.519	10204
888.643	10234
888.767	10158
888.891	10078
889.015	10040
889.139	10086
889.263	10029
889.387	10021
889.511	10128
889.635	10082
889.759	9987
889.883	9888
890.006	9960
890.13	10143
890.254	9949
890.377	9926
890.501	9865
890.624	9895
890.748	9918
890.871	9827
890.995	9778
891.118	9686
891.241	9793
891.364	9740
891.488	9846
891.611	9770
891.734	9743
891.857	9759
891.98	9736
892.103	9789
892.226	9720
892.349	9614
892.471	9553
892.594	9534
892.717	9629
892.839	9584
892.962	9599
893.085	9675
893.207	9519
893.33	9584
893.452	9523
893.575	9572
893.697	9454
893.819	9660
893.941	9713
894.064	9686
894.186	9466
894.308	9431
894.43	9576
894.552	9625
894.674	9534
894.796	9397
894.918	9306
895.04	9397
895.161	9367
895.283	9378
895.405	9291
895.526	9351
895.648	9237
895.769	9184
895.891	9245
896.012	9279
896.134	9313
896.255	9192
896.376	9081
896.498	9222
896.619	9138
896.74	9123
896.861	9104
896.982	9348
897.103	9287
897.224	9184
897.345	9089
897.466	9009
897.587	9100
897.708	9039
897.828	9062
897.949	8868
898.07	8887
898.19	8895
898.311	9055
898.431	8967
898.552	8941
898.672	9047
898.792	8994
898.913	8902
899.033	8880
899.153	8750
899.273	8746
899.393	8766
899.513	8727
899.633	8746
899.753	8716
899.873	8701
899.993	8746
900.113	8788
900.232	8724
900.352	8606
900.472	8678
900.591	8552
900.711	8629
900.83	8583
900.95	8708
901.069	8720
901.189	8587
901.308	8457
901.427	8381
901.546	8450
901.665	8454
901.784	8446
901.904	8393
902.023	8339
902.141	8309
902.26	8180
902.379	8279
902.498	8256
902.617	8199
902.735	8290
902.854	8343
902.973	8271
903.091	8142
903.21	8172
903.328	8191
903.446	8096
903.565	8107
903.683	8065
903.801	8027
903.919	8103
904.038	8107
904.156	8081
904.274	8058
904.392	8073
904.51	8058
904.627	8096
904.745	8183
904.863	8153
904.981	7909
905.098	7887
905.216	7902
905.334	7906
905.451	7871
905.569	7955
905.686	7955
905.803	7936
905.921	7788
906.038	7879
906.155	7803
906.272	7704
906.389	7708
906.506	7643
906.623	7639
906.74	7639
906.857	7563
906.974	7609
907.091	7681
907.208	7734
907.324	7647
907.441	7586
907.557	7502
907.674	7483
907.79	7438
907.907	7388
908.023	7449
908.139	7392
908.256	7384
908.372	7354
908.488	7308
908.604	7278
908.72	7282
908.836	7263
908.952	7247
909.068	7217
909.184	7305
909.3	7282
909.415	7346
909.531	7247
909.647	7107
909.762	7095
909.878	7091
909.993	7190
910.108	7114
910.224	7069
910.339	7050
910.454	7004
910.57	6973
910.685	6993
910.8	7171
910.915	7084
911.03	6970
911.145	6886
911.259	6878
911.374	6943
911.489	6779
911.604	6757
911.718	6772
911.833	6726
911.947	6673
912.062	6593
912.176	6688
912.291	6730
912.405	6665
912.519	6837
912.633	6875
912.748	6719
912.862	6741
912.976	6642
913.09	6551
913.204	6574
913.318	6616
913.431	6684
913.545	6719
913.659	6726
913.772	6673
913.886	6509
914	6559
914.113	6578
914.226	6635
914.34	6559
914.453	6490
914.566	6544
914.68	6506
914.793	6578
914.906	6422
915.019	6391
915.132	6331
915.245	6380
915.358	6433
915.47	6437
915.583	6433
915.696	6486
915.809	6521
915.921	6525
916.034	6441
916.146	6407
916.259	6391
916.371	6528
916.483	6498
916.595	6407
916.708	6452
916.82	6448
916.932	6407
917.044	6403
917.156	6376
917.268	6369
917.38	6376
917.491	6369
917.603	6346
917.715	6361
917.826	6410
917.938	6338
918.049	6296
918.161	6350
918.272	6448
918.384	6426
918.495	6357
918.606	6285
918.717	6243
918.828	6289
918.939	6277
919.05	6197
919.161	6308
919.272	6155
919.383	6167
919.494	6247
919.604	6384
919.715	6369
919.826	6163
919.936	6254
920.047	6353
920.157	6235
920.267	6464
920.378	6300
920.488	6361
920.598	6429
920.708	6589
920.818	6471
920.928	6528
921.038	6574
921.148	6604
921.258	6308
921.368	6304
921.477	6159
921.587	6159
921.697	6117
921.806	6235
921.916	6136
922.025	5893
922.134	5980
922.244	5897
922.353	5958
922.462	5863
922.571	5790
922.68	5775
922.789	5695
922.898	5714
923.007	5638
923.116	5688
923.224	5737
923.333	5627
923.442	5653
923.55	5611
923.659	5615
923.767	5672
923.876	5505
923.984	5592
924.092	5516
924.201	5554
924.309	5600
924.417	5623
924.525	5474
924.633	5551
924.741	6342
924.849	5372
924.956	5532
925.064	5406
925.172	5334
925.279	5322
925.387	5379
925.494	5334
925.602	5425
925.709	5398
925.816	5292
925.924	5357
926.031	5398
926.138	5315
926.245	5326
926.352	5280
926.459	5284
926.566	5345
926.673	5250
926.779	5181
926.886	5113
926.993	5102
927.099	5048
927.206	4976
927.312	4972
927.419	5098
927.525	5003
927.631	4995
927.737	4892
927.843	4881
927.95	4801
928.056	4877
928.162	4812
928.267	4809
928.373	5277
928.479	4904
928.585	4721
928.69	4767
928.796	4854
928.901	4710
929.007	4580
929.112	4634
929.218	4637
929.323	4603
929.428	4634
929.533	4672
929.638	4523
929.743	4573
929.848	4550
929.953	4489
930.058	4462
930.163	4329
930.267	4337
930.372	4470
930.477	4337
930.581	4519
930.685	4413
930.79	4265
930.894	4287
930.998	4249
931.103	4367
931.207	4131
931.311	4090
931.415	4010
931.519	3903
931.623	3937
