Data from glass_V78500241_2821.txt Node
Date: Wed Sep 01 19:34:03 CST 2021
User: usil
Spectrometer: V785-0024
Trigger mode: 0
Integration Time (sec): 4.000000E-1
Scans to average: 1
Nonlinearity correction enabled: false
Boxcar width: 0
Storing dark spectrum: false
XAxis mode: Wavelengths
Number of Pixels in Spectrum: 1024
>>>>>Begin Spectral Data<<<<<
801.071	3766
801.214	3709
801.356	3701
801.499	3705
801.641	3717
801.783	3713
801.926	3884
802.068	3808
802.211	3854
802.353	3880
802.496	3854
802.638	3842
802.78	3896
802.923	3926
803.065	3850
803.208	3865
803.35	3831
803.492	3861
803.635	3915
803.777	3808
803.919	3911
804.061	4139
804.204	3930
804.346	3937
804.488	3857
804.63	3983
804.773	3964
804.915	4025
805.057	4147
805.199	4036
805.341	4051
805.483	4082
805.626	4116
805.768	4128
805.91	4177
806.052	4242
806.194	4181
806.336	4341
806.478	4211
806.62	4128
806.762	4150
806.904	4196
807.046	4356
807.188	4242
807.33	4143
807.472	4219
807.614	4173
807.756	4253
807.898	4207
808.04	4188
808.182	4242
808.324	4310
808.465	4379
808.607	4375
808.749	4424
808.891	4474
809.033	4538
809.174	4383
809.316	4253
809.458	4227
809.6	4185
809.741	4116
809.883	4150
810.025	4234
810.166	4166
810.308	4181
810.45	4253
810.591	4246
810.733	4314
810.875	4474
811.016	4774
811.158	5109
811.299	5254
811.441	5269
811.582	5056
811.724	4759
811.865	4478
812.007	4462
812.148	4394
812.29	4405
812.431	4379
812.573	4451
812.714	4375
812.855	4402
812.997	4413
813.138	4455
813.279	4375
813.421	4424
813.562	4398
813.703	4329
813.845	4333
813.986	4287
814.127	4230
814.268	4238
814.41	4280
814.551	4249
814.692	4291
814.833	4268
814.974	4265
815.115	4318
815.256	4215
815.397	4234
815.539	4257
815.68	4207
815.821	4192
815.962	4295
816.103	4284
816.244	4173
816.385	4211
816.526	4268
816.666	4162
816.807	4063
816.948	4223
817.089	4128
817.23	4112
817.371	4048
817.512	4048
817.653	4063
817.793	3972
817.934	4055
818.075	4071
818.216	4074
818.356	4086
818.497	3979
818.638	3911
818.778	3918
818.919	3880
819.06	3842
819.2	3857
819.341	3835
819.481	3835
819.622	3850
819.762	4006
819.903	3926
820.043	3857
820.184	3789
820.324	3755
820.465	3850
820.605	3869
820.746	3850
820.886	3785
821.026	3876
821.167	3937
821.307	3956
821.447	3960
821.588	3937
821.728	3937
821.868	3907
822.008	3835
822.149	3880
822.289	3937
822.429	3774
822.569	3740
822.709	3800
822.849	3698
822.99	3667
823.13	3728
823.27	3747
823.41	3701
823.55	3686
823.69	3717
823.83	3694
823.97	3644
824.11	3580
824.25	3553
824.389	3576
824.529	3671
824.669	3622
824.809	3736
824.949	3755
825.089	3713
825.228	3694
825.368	3580
825.508	3553
825.648	3591
825.787	3625
825.927	3587
826.067	3614
826.206	3652
826.346	3755
826.485	3785
826.625	3819
826.765	3903
826.904	3842
827.044	3587
827.183	3526
827.323	3409
827.462	3473
827.601	3416
827.741	3412
827.88	3439
828.02	3332
828.159	3405
828.298	3473
828.437	3515
828.577	3462
828.716	3568
828.855	3458
828.994	3401
829.134	3298
829.273	3374
829.412	3359
829.551	3336
829.69	3367
829.829	3409
829.968	3500
830.107	3435
830.246	3435
830.385	3367
830.524	3329
830.663	3275
830.802	3279
830.941	3192
831.08	3119
831.219	3245
831.357	3275
831.496	3420
831.635	3218
831.774	3192
831.913	3165
832.051	3142
832.19	3135
832.329	3169
832.467	3066
832.606	3116
832.744	3138
832.883	3165
833.022	3173
833.16	3245
833.299	3329
833.437	3355
833.576	3409
833.714	3401
833.852	3435
833.991	3401
834.129	3462
834.267	3420
834.406	3386
834.544	3466
834.682	3397
834.821	3389
834.959	3530
835.097	3424
835.235	3504
835.373	3534
835.511	3431
835.65	3466
835.788	3443
835.926	3378
836.064	3370
836.202	3374
836.34	3545
836.478	3599
836.615	3545
836.753	3599
836.891	3637
837.029	3603
837.167	3603
837.305	3519
837.443	3500
837.58	3504
837.718	3591
837.856	3561
837.993	3488
838.131	3603
838.269	3614
838.406	3553
838.544	3568
838.681	3458
838.819	3435
838.956	3401
839.094	3355
839.231	3393
839.369	3530
839.506	3724
839.643	3644
839.781	3519
839.918	3473
840.055	3538
840.193	3523
840.33	3473
840.467	3576
840.604	3587
840.742	3762
840.879	3477
841.016	3545
841.153	3599
841.29	3762
841.427	3709
841.564	3705
841.701	3732
841.838	3663
841.975	3648
842.112	3686
842.249	3660
842.385	3603
842.522	3759
842.659	3641
842.796	3618
842.933	3690
843.069	3705
843.206	3694
843.343	3797
843.479	3732
843.616	3812
843.752	3679
843.889	3663
844.025	3831
844.162	3713
844.298	3842
844.435	3751
844.571	3793
844.708	3857
844.844	3994
844.98	4013
845.117	3987
845.253	3964
845.389	3873
845.525	3937
845.661	3956
845.798	3876
845.934	3975
846.07	3956
846.206	4036
846.342	4120
846.478	4036
846.614	3926
846.75	3903
846.886	3903
847.022	3994
847.158	3956
847.294	4002
847.429	4025
847.565	3979
847.701	4200
847.837	3861
847.972	3865
848.108	3922
848.244	3934
848.379	3808
848.515	3778
848.65	3785
848.786	3819
848.921	3857
849.057	3899
849.192	3937
849.328	3842
849.463	3865
849.598	3880
849.734	3876
849.869	3827
850.004	3797
850.14	3797
850.275	3778
850.41	3720
850.545	3736
850.68	3751
850.815	3766
850.95	3770
851.085	3926
851.22	3842
851.355	3774
851.49	3736
851.625	3774
851.76	3797
851.895	3747
852.03	3740
852.165	3808
852.299	3827
852.434	3915
852.569	3819
852.703	3869
852.838	3915
852.973	4010
853.107	3968
853.242	3903
853.376	3854
853.511	3743
853.645	3819
853.78	3972
853.914	3850
854.048	3903
854.183	3899
854.317	3934
854.451	4048
854.585	3922
854.72	3911
854.854	3998
854.988	3915
855.122	4013
855.256	3884
855.39	4002
855.524	4086
855.658	4093
855.792	4082
855.926	4166
856.06	4139
856.194	4173
856.327	4112
856.461	4105
856.595	4154
856.729	4185
856.862	4253
856.996	4200
857.13	4303
857.263	4284
857.397	4344
857.53	4242
857.664	4348
857.797	4356
857.931	4386
858.064	4341
858.197	4409
858.331	4398
858.464	4363
858.597	4375
858.731	4459
858.864	4417
858.997	4447
859.13	4485
859.263	4481
859.396	4512
859.529	4493
859.662	4470
859.795	4531
859.928	4561
860.061	4733
860.194	4729
860.327	4683
860.46	4599
860.592	4691
860.725	4725
860.858	4767
860.99	4687
861.123	4675
861.256	4691
861.388	4774
861.521	5246
861.653	4702
861.786	4679
861.918	4714
862.05	4771
862.183	4809
862.315	4908
862.447	4930
862.58	4889
862.712	4759
862.844	4793
862.976	4889
863.108	4839
863.24	5201
863.372	4740
863.504	4873
863.636	4885
863.768	4957
863.9	4930
864.032	4915
864.164	4927
864.296	5018
864.428	5041
864.559	5071
864.691	5098
864.823	5056
864.954	5090
865.086	5143
865.217	5109
865.349	5064
865.48	5181
865.612	5246
865.743	5307
865.875	5258
866.006	5162
866.137	5201
866.269	5273
866.4	5227
866.531	5254
866.662	5261
866.793	5261
866.924	5254
867.055	5326
867.186	5353
867.317	5277
867.448	5288
867.579	5436
867.71	5398
867.841	5402
867.972	5490
868.103	5440
868.233	5497
868.364	5463
868.495	5493
868.625	5638
868.756	5726
868.886	5676
869.017	5752
869.147	5885
869.278	5832
869.408	5764
869.539	5798
869.669	5889
869.799	5931
869.929	6030
870.06	5904
870.19	6175
870.32	6213
870.45	6289
870.58	6346
870.71	6346
870.84	6399
870.97	6422
871.1	6388
871.23	6616
871.36	6684
871.489	6612
871.619	6772
871.749	6795
871.879	6909
872.008	6985
872.138	6905
872.267	6985
872.397	6947
872.526	7061
872.656	7061
872.785	7175
872.915	7354
873.044	7518
873.173	7563
873.303	7567
873.432	7727
873.561	7807
873.69	7902
873.819	7993
873.948	8195
874.077	8202
874.206	8275
874.335	8412
874.464	8636
874.593	8804
874.722	9013
874.851	9138
874.979	9245
875.108	9321
875.237	9428
875.365	9458
875.494	9591
875.623	9835
875.751	9819
875.88	9956
876.008	10185
876.136	10265
876.265	10428
876.393	10694
876.521	10672
876.65	10778
876.778	10835
876.906	10869
877.034	11014
877.162	11113
877.29	11090
877.418	11242
877.546	11311
877.674	11448
877.802	11398
877.93	11467
878.058	11478
878.185	11608
878.313	11562
878.441	11783
878.568	11627
878.696	11840
878.824	11866
878.951	12045
879.079	11973
879.206	12110
879.333	12060
879.461	11935
879.588	11980
879.715	11980
879.842	12216
879.97	12129
880.097	11885
880.224	11840
880.351	11882
880.478	11946
880.605	11817
880.732	11794
880.859	12045
880.986	11824
881.112	11851
881.239	11760
881.366	11623
881.493	11642
881.619	11493
881.746	11455
881.872	11566
881.999	11562
882.125	11444
882.252	11493
882.378	11493
882.505	11501
882.631	11326
882.757	11299
882.883	11341
883.01	11250
883.136	11166
883.262	11079
883.388	11041
883.514	11147
883.64	11132
883.766	11071
883.892	11041
884.018	10999
884.143	11041
884.269	11064
884.395	10854
884.52	10771
884.646	10725
884.772	10729
884.897	10603
885.023	10641
885.148	10710
885.274	10744
885.399	10698
885.524	10664
885.65	10592
885.775	10561
885.9	10580
886.025	10565
886.15	10474
886.275	10500
886.4	10402
886.525	10379
886.65	10417
886.775	10306
886.9	10432
887.025	10451
887.149	10379
887.274	10234
887.399	10249
887.523	10135
887.648	10158
887.773	10078
887.897	10291
888.021	10230
888.146	10204
888.27	10185
888.395	10204
888.519	10227
888.643	10101
888.767	10200
888.891	10074
889.015	10025
889.139	10059
889.263	9968
889.387	10105
889.511	10055
889.635	10029
889.759	9892
889.883	9991
890.006	9949
890.13	10071
890.254	9934
890.377	10010
890.501	9819
890.624	9865
890.748	9819
890.871	9717
890.995	9778
891.118	9701
891.241	9705
891.364	9690
891.488	9846
891.611	9701
891.734	9789
891.857	9770
891.98	9652
892.103	9743
892.226	9679
892.349	9663
892.471	9564
892.594	9591
892.717	9561
892.839	9633
892.962	9568
893.085	9701
893.207	9549
893.33	9523
893.452	9420
893.575	9523
893.697	9538
893.819	9542
893.941	9500
894.064	9572
894.186	9439
894.308	9378
894.43	9458
894.552	9485
894.674	9504
894.796	9329
894.918	9336
895.04	9302
895.161	9370
895.283	9317
895.405	9233
895.526	9401
895.648	9256
895.769	9272
895.891	9264
896.012	9230
896.134	9165
896.255	9138
896.376	9089
896.498	9135
896.619	9116
896.74	9020
896.861	9104
896.982	9226
897.103	9310
897.224	9108
897.345	9051
897.466	8910
897.587	8941
897.708	9097
897.828	9043
897.949	8967
898.07	8857
898.19	8842
898.311	8982
898.431	8899
898.552	8925
898.672	8994
898.792	8948
898.913	8929
899.033	8788
899.153	8724
899.273	8648
899.393	8754
899.513	8777
899.633	8708
899.753	8766
899.873	8716
899.993	8769
900.113	8716
900.232	8701
900.352	8667
900.472	8686
900.591	8568
900.711	8602
900.83	8492
900.95	8667
901.069	8697
901.189	8495
901.308	8438
901.427	8362
901.546	8473
901.665	8396
901.784	8530
901.904	8400
902.023	8305
902.141	8199
902.26	8206
902.379	8240
902.498	8221
902.617	8172
902.735	8244
902.854	8244
902.973	8252
903.091	8092
903.21	8024
903.328	8081
903.446	8081
903.565	8111
903.683	8103
903.801	8031
903.919	8134
904.038	8096
904.156	8031
904.274	8107
904.392	8050
904.51	7989
904.627	7963
904.745	8092
904.863	8138
904.981	7928
905.098	7864
905.216	7849
905.334	7902
905.451	7890
905.569	7826
905.686	7894
905.803	7902
905.921	7811
906.038	7917
906.155	7761
906.272	7685
906.389	7666
906.506	7666
906.623	7632
906.74	7571
906.857	7491
906.974	7533
907.091	7651
907.208	7761
907.324	7597
907.441	7609
907.557	7487
907.674	7480
907.79	7346
907.907	7434
908.023	7468
908.139	7335
908.256	7320
908.372	7308
908.488	7293
908.604	7297
908.72	7164
908.836	7183
908.952	7228
909.068	7217
909.184	7316
909.3	7209
909.415	7247
909.531	7335
909.647	7057
909.762	7145
909.878	7099
909.993	7126
910.108	7057
910.224	7080
910.339	7156
910.454	7076
910.57	6962
910.685	6928
910.8	7194
910.915	7065
911.03	6989
911.145	6932
911.259	6829
911.374	6829
911.489	6810
911.604	6776
911.718	6734
911.833	6700
911.947	6673
912.062	6627
912.176	6719
912.291	6738
912.405	6684
912.519	6772
912.633	6795
912.748	6730
912.862	6696
912.976	6570
913.09	6475
913.204	6604
913.318	6528
913.431	6665
913.545	6631
913.659	6738
913.772	6669
913.886	6502
914	6532
914.113	6608
914.226	6646
914.34	6623
914.453	6506
914.566	6566
914.68	6483
914.793	6483
914.906	6391
915.019	6350
915.132	6342
915.245	6388
915.358	6441
915.47	6433
915.583	6414
915.696	6429
915.809	6490
915.921	6483
916.034	6346
916.146	6391
916.259	6376
916.371	6467
916.483	6426
916.595	6418
916.708	6369
916.82	6399
916.932	6361
917.044	6376
917.156	6391
917.268	6338
917.38	6258
917.491	6315
917.603	6342
917.715	6441
917.826	6418
917.938	6331
918.049	6190
918.161	6296
918.272	6445
918.384	6388
918.495	6372
918.606	6235
918.717	6194
918.828	6304
918.939	6228
919.05	6152
919.161	6239
919.272	6136
919.383	6136
919.494	6285
919.604	6384
919.715	6258
919.826	6209
919.936	6201
920.047	6292
920.157	6262
920.267	6399
920.378	6350
920.488	6258
920.598	6391
920.708	6506
920.818	6464
920.928	6418
921.038	6589
921.148	6509
921.258	6350
921.368	6285
921.477	6152
921.587	6125
921.697	6019
921.806	6216
921.916	6026
922.025	5904
922.134	5847
922.244	5897
922.353	5901
922.462	5786
922.571	5707
922.68	5668
922.789	5661
922.898	5649
923.007	5589
923.116	5688
923.224	5691
923.333	5619
923.442	5627
923.55	5520
923.659	5570
923.767	5646
923.876	5535
923.984	5596
924.092	5512
924.201	5562
924.309	5509
924.417	5471
924.525	5440
924.633	5543
924.741	6270
924.849	5345
924.956	5490
925.064	5322
925.172	5273
925.279	5261
925.387	5345
925.494	5345
925.602	5383
925.709	5357
925.816	5258
925.924	5292
926.031	5383
926.138	5307
926.245	5330
926.352	5254
926.459	5273
926.566	5315
926.673	5151
926.779	5102
926.886	5094
926.993	5014
927.099	4976
927.206	4949
927.312	4934
927.419	4995
927.525	4953
927.631	4976
927.737	4915
927.843	4873
927.95	4748
928.056	4801
928.162	4828
928.267	4820
928.373	5254
928.479	4820
928.585	4626
928.69	4721
928.796	4767
928.901	4637
929.007	4554
929.112	4672
929.218	4637
929.323	4588
929.428	4550
929.533	4645
929.638	4519
929.743	4535
929.848	4519
929.953	4436
930.058	4447
930.163	4306
930.267	4306
930.372	4421
930.477	4280
930.581	4485
930.685	4306
930.79	4272
930.894	4238
930.998	4227
931.103	4383
931.207	4082
931.311	4051
931.415	4017
931.519	3896
931.623	3926
