Data from glass_V78500241_181.txt Node
Date: Wed Sep 01 19:15:45 CST 2021
User: usil
Spectrometer: V785-0024
Trigger mode: 0
Integration Time (sec): 4.000000E-1
Scans to average: 1
Nonlinearity correction enabled: false
Boxcar width: 0
Storing dark spectrum: false
XAxis mode: Wavelengths
Number of Pixels in Spectrum: 1024
>>>>>Begin Spectral Data<<<<<
801.071	3751
801.214	3770
801.356	3732
801.499	3740
801.641	3698
801.783	3774
801.926	3880
802.068	3857
802.211	3869
802.353	3896
802.496	3842
802.638	3869
802.78	3937
802.923	3922
803.065	3930
803.208	3869
803.35	3846
803.492	3918
803.635	3975
803.777	3812
803.919	3888
804.061	4150
804.204	4025
804.346	3972
804.488	3911
804.63	4032
804.773	3953
804.915	4067
805.057	4150
805.199	4071
805.341	4032
805.483	4143
805.626	4181
805.768	4105
805.91	4200
806.052	4253
806.194	4211
806.336	4344
806.478	4227
806.62	4185
806.762	4185
806.904	4261
807.046	4402
807.188	4200
807.33	4177
807.472	4249
807.614	4196
807.756	4295
807.898	4253
808.04	4234
808.182	4276
808.324	4325
808.465	4379
808.607	4466
808.749	4504
808.891	4443
809.033	4497
809.174	4383
809.316	4249
809.458	4249
809.6	4188
809.741	4158
809.883	4154
810.025	4169
810.166	4215
810.308	4192
810.45	4249
810.591	4227
810.733	4371
810.875	4531
811.016	4797
811.158	5147
811.299	5330
811.441	5299
811.582	5064
811.724	4702
811.865	4474
812.007	4531
812.148	4386
812.29	4424
812.431	4455
812.573	4459
812.714	4413
812.855	4466
812.997	4402
813.138	4474
813.279	4440
813.421	4394
813.562	4428
813.703	4333
813.845	4318
813.986	4280
814.127	4242
814.268	4234
814.41	4280
814.551	4303
814.692	4344
814.833	4291
814.974	4322
815.115	4360
815.256	4257
815.397	4219
815.539	4238
815.68	4211
815.821	4207
815.962	4310
816.103	4322
816.244	4249
816.385	4242
816.526	4325
816.666	4238
816.807	4124
816.948	4188
817.089	4211
817.23	4162
817.371	4029
817.512	4124
817.653	4082
817.793	4101
817.934	4067
818.075	4055
818.216	4139
818.356	4071
818.497	4013
818.638	3892
818.778	3930
818.919	3873
819.06	3888
819.2	3899
819.341	3869
819.481	3857
819.622	3899
819.762	4048
819.903	3956
820.043	3888
820.184	3892
820.324	3816
820.465	3922
820.605	3854
820.746	3892
820.886	3816
821.026	3918
821.167	3941
821.307	3987
821.447	3994
821.588	3949
821.728	3972
821.868	3945
822.008	3892
822.149	3934
822.289	3896
822.429	3823
822.569	3751
822.709	3827
822.849	3682
822.99	3740
823.13	3808
823.27	3800
823.41	3743
823.55	3705
823.69	3701
823.83	3751
823.97	3690
824.11	3587
824.25	3663
824.389	3660
824.529	3686
824.669	3682
824.809	3770
824.949	3755
825.089	3743
825.228	3698
825.368	3606
825.508	3587
825.648	3618
825.787	3610
825.927	3641
826.067	3644
826.206	3663
826.346	3812
826.485	3880
826.625	3876
826.765	3953
826.904	3865
827.044	3625
827.183	3538
827.323	3439
827.462	3504
827.601	3447
827.741	3458
827.88	3447
828.02	3405
828.159	3462
828.298	3511
828.437	3515
828.577	3530
828.716	3625
828.855	3530
828.994	3397
829.134	3374
829.273	3428
829.412	3340
829.551	3332
829.69	3405
829.829	3492
829.968	3511
830.107	3485
830.246	3447
830.385	3340
830.524	3359
830.663	3344
830.802	3291
830.941	3226
831.08	3245
831.219	3253
831.357	3237
831.496	3378
831.635	3249
831.774	3169
831.913	3207
832.051	3176
832.19	3176
832.329	3241
832.467	3123
832.606	3089
832.744	3146
832.883	3226
833.022	3214
833.16	3272
833.299	3317
833.437	3367
833.576	3378
833.714	3420
833.852	3473
833.991	3447
834.129	3473
834.267	3462
834.406	3374
834.544	3431
834.682	3458
834.821	3428
834.959	3599
835.097	3435
835.235	3542
835.373	3500
835.511	3496
835.65	3481
835.788	3488
835.926	3389
836.064	3431
836.202	3378
836.34	3606
836.478	3625
836.615	3545
836.753	3580
836.891	3682
837.029	3614
837.167	3599
837.305	3584
837.443	3587
837.58	3519
837.718	3599
837.856	3591
837.993	3587
838.131	3591
838.269	3618
838.406	3618
838.544	3595
838.681	3485
838.819	3477
838.956	3401
839.094	3363
839.231	3466
839.369	3526
839.506	3751
839.643	3641
839.781	3488
839.918	3515
840.055	3553
840.193	3561
840.33	3572
840.467	3591
840.604	3576
840.742	3812
840.879	3564
841.016	3564
841.153	3652
841.29	3789
841.427	3736
841.564	3755
841.701	3762
841.838	3728
841.975	3698
842.112	3709
842.249	3641
842.385	3629
842.522	3838
842.659	3679
842.796	3675
842.933	3724
843.069	3705
843.206	3751
843.343	3850
843.479	3804
843.616	3819
843.752	3671
843.889	3690
844.025	3892
844.162	3720
844.298	3831
844.435	3838
844.571	3785
844.708	3896
844.844	3972
844.98	3991
845.117	3991
845.253	3937
845.389	3903
845.525	3983
845.661	3983
845.798	3907
845.934	3979
846.07	3941
846.206	4101
846.342	4116
846.478	4093
846.614	3949
846.75	3945
846.886	3911
847.022	4051
847.158	3960
847.294	4059
847.429	4048
847.565	4017
847.701	4223
847.837	3911
847.972	3831
848.108	3994
848.244	3945
848.379	3816
848.515	3789
848.65	3838
848.786	3846
848.921	3911
849.057	3945
849.192	4021
849.328	3899
849.463	3945
849.598	3911
849.734	3915
849.869	3819
850.004	3835
850.14	3869
850.275	3808
850.41	3781
850.545	3781
850.68	3823
850.815	3857
850.95	3793
851.085	3956
851.22	3911
851.355	3846
851.49	3857
851.625	3819
851.76	3800
851.895	3778
852.03	3705
852.165	3781
852.299	3861
852.434	3922
852.569	3896
852.703	3896
852.838	3949
852.973	3998
853.107	3953
853.242	3899
853.376	3876
853.511	3797
853.645	3846
853.78	4002
853.914	3907
854.048	3926
854.183	3873
854.317	4010
854.451	4086
854.585	3964
854.72	3953
854.854	4063
854.988	3945
855.122	4013
855.256	3907
855.39	3994
855.524	4093
855.658	4120
855.792	4120
855.926	4158
856.06	4181
856.194	4238
856.327	4166
856.461	4158
856.595	4158
856.729	4169
856.862	4242
856.996	4242
857.13	4306
857.263	4367
857.397	4402
857.53	4322
857.664	4348
857.797	4398
857.931	4436
858.064	4375
858.197	4459
858.331	4417
858.464	4367
858.597	4371
858.731	4470
858.864	4451
858.997	4466
859.13	4519
859.263	4519
859.396	4607
859.529	4550
859.662	4577
859.795	4512
859.928	4565
860.061	4675
860.194	4729
860.327	4675
860.46	4649
860.592	4717
860.725	4778
860.858	4744
860.99	4691
861.123	4694
861.256	4710
861.388	4797
861.521	5433
861.653	4710
861.786	4702
861.918	4736
862.05	4881
862.183	4839
862.315	4972
862.447	4873
862.58	4881
862.712	4805
862.844	4767
862.976	4854
863.108	4919
863.24	5322
863.372	4866
863.504	4934
863.636	4934
863.768	4980
863.9	4919
864.032	4885
864.164	5010
864.296	4991
864.428	5083
864.559	5143
864.691	5151
864.823	5143
864.954	5121
865.086	5151
865.217	5170
865.349	5083
865.48	5166
865.612	5250
865.743	5311
865.875	5208
866.006	5162
866.137	5261
866.269	5235
866.4	5269
866.531	5231
866.662	5235
866.793	5292
866.924	5277
867.055	5368
867.186	5341
867.317	5296
867.448	5292
867.579	5395
867.71	5368
867.841	5368
867.972	5482
868.103	5524
868.233	5478
868.364	5570
868.495	5589
868.625	5733
868.756	5786
868.886	5634
869.017	5775
869.147	5836
869.278	5889
869.408	5809
869.539	5870
869.669	5977
869.799	5908
869.929	5992
870.06	6015
870.19	6194
870.32	6209
870.45	6254
870.58	6331
870.71	6456
870.84	6456
870.97	6494
871.1	6475
871.23	6635
871.36	6646
871.489	6738
871.619	6753
871.749	6840
871.879	6916
872.008	6920
872.138	6947
872.267	7050
872.397	7023
872.526	7000
872.656	7141
872.785	7217
872.915	7381
873.044	7476
873.173	7563
873.303	7613
873.432	7761
873.561	7887
873.69	7921
873.819	7955
873.948	8168
874.077	8206
874.206	8286
874.335	8431
874.464	8625
874.593	8838
874.722	8887
874.851	9074
874.979	9245
875.108	9382
875.237	9519
875.365	9557
875.494	9671
875.623	9873
875.751	9823
875.88	9991
876.008	10158
876.136	10249
876.265	10546
876.393	10698
876.521	10725
876.65	10904
876.778	10847
876.906	10843
877.034	10900
877.162	11113
877.29	11147
877.418	11273
877.546	11288
877.674	11490
877.802	11497
877.93	11505
878.058	11501
878.185	11646
878.313	11668
878.441	11775
878.568	11634
878.696	11741
878.824	11908
878.951	11942
879.079	12007
879.206	12178
879.333	12060
879.461	11965
879.588	12034
879.715	12068
879.842	12232
879.97	12015
880.097	11946
880.224	11984
880.351	11828
880.478	11912
880.605	11878
880.732	11771
880.859	12034
880.986	11832
881.112	11859
881.239	11714
881.366	11703
881.493	11592
881.619	11547
881.746	11581
881.872	11570
881.999	11482
882.125	11482
882.252	11722
882.378	11455
882.505	11493
882.631	11387
882.757	11239
882.883	11337
883.01	11299
883.136	11151
883.262	11071
883.388	11113
883.514	11155
883.64	11147
883.766	11098
883.892	10919
884.018	10991
884.143	11006
884.269	11102
884.395	10847
884.52	10820
884.646	10790
884.772	10664
884.897	10702
885.023	10706
885.148	10706
885.274	10858
885.399	10767
885.524	10630
885.65	10622
885.775	10649
885.9	10660
886.025	10599
886.15	10588
886.275	10470
886.4	10455
886.525	10363
886.65	10421
886.775	10344
886.9	10478
887.025	10527
887.149	10379
887.274	10223
887.399	10200
887.523	10105
887.648	10135
887.773	10090
887.897	10158
888.021	10147
888.146	10150
888.27	10303
888.395	10249
888.519	10192
888.643	10238
888.767	10158
888.891	10120
889.015	10128
889.139	10074
889.263	10036
889.387	10071
889.511	10120
889.635	10051
889.759	9991
889.883	10036
890.006	10036
890.13	10112
890.254	9934
890.377	9949
890.501	9895
890.624	9850
890.748	9895
890.871	9793
890.995	9778
891.118	9740
891.241	9804
891.364	9747
891.488	9842
891.611	9732
891.734	9831
891.857	9808
891.98	9781
892.103	9835
892.226	9675
892.349	9648
892.471	9500
892.594	9701
892.717	9576
892.839	9595
892.962	9622
893.085	9660
893.207	9606
893.33	9542
893.452	9496
893.575	9637
893.697	9519
893.819	9686
893.941	9629
894.064	9595
894.186	9469
894.308	9439
894.43	9488
894.552	9610
894.674	9530
894.796	9454
894.918	9412
895.04	9401
895.161	9401
895.283	9313
895.405	9256
895.526	9214
895.648	9184
895.769	9245
895.891	9237
896.012	9249
896.134	9268
896.255	9211
896.376	9241
896.498	9142
896.619	9116
896.74	9070
896.861	9123
896.982	9211
897.103	9351
897.224	9142
897.345	9013
897.466	9024
897.587	9074
897.708	9070
897.828	9043
897.949	8982
898.07	8883
898.19	8914
898.311	9017
898.431	8971
898.552	8952
898.672	8929
898.792	8948
898.913	8948
899.033	8826
899.153	8705
899.273	8678
899.393	8788
899.513	8766
899.633	8697
899.753	8769
899.873	8697
899.993	8777
900.113	8731
900.232	8762
900.352	8610
900.472	8632
900.591	8587
900.711	8640
900.83	8545
900.95	8724
901.069	8731
901.189	8549
901.308	8457
901.427	8427
901.546	8473
901.665	8473
901.784	8518
901.904	8396
902.023	8317
902.141	8229
902.26	8275
902.379	8339
902.498	8218
902.617	8263
902.735	8263
902.854	8343
902.973	8282
903.091	8176
903.21	8134
903.328	8172
903.446	8073
903.565	8065
903.683	8126
903.801	8119
903.919	8145
904.038	8164
904.156	8027
904.274	8100
904.392	8039
904.51	8073
904.627	8050
904.745	8103
904.863	8100
904.981	7868
905.098	7883
905.216	7928
905.334	7909
905.451	7967
905.569	7792
905.686	7917
905.803	7955
905.921	7788
906.038	7871
906.155	7792
906.272	7780
906.389	7670
906.506	7677
906.623	7567
906.74	7643
906.857	7529
906.974	7609
907.091	7647
907.208	7731
907.324	7689
907.441	7632
907.557	7529
907.674	7495
907.79	7308
907.907	7396
908.023	7464
908.139	7411
908.256	7430
908.372	7354
908.488	7411
908.604	7285
908.72	7247
908.836	7293
908.952	7282
909.068	7244
909.184	7354
909.3	7274
909.415	7312
909.531	7263
909.647	7129
909.762	7149
909.878	7152
909.993	7149
910.108	7088
910.224	7072
910.339	7141
910.454	7069
910.57	7107
910.685	7012
910.8	7160
910.915	7141
911.03	7031
911.145	6958
911.259	6913
911.374	6848
911.489	6897
911.604	6897
911.718	6730
911.833	6798
911.947	6681
912.062	6642
912.176	6692
912.291	6688
912.405	6665
912.519	6814
912.633	6833
912.748	6760
912.862	6677
912.976	6654
913.09	6589
913.204	6627
913.318	6589
913.431	6639
913.545	6684
913.659	6722
913.772	6662
913.886	6616
914	6585
914.113	6631
914.226	6688
914.34	6692
914.453	6502
914.566	6585
914.68	6506
914.793	6536
914.906	6380
915.019	6334
915.132	6388
915.245	6460
915.358	6418
915.47	6479
915.583	6445
915.696	6456
915.809	6464
915.921	6612
916.034	6441
916.146	6441
916.259	6403
916.371	6483
916.483	6494
916.595	6361
916.708	6456
916.82	6388
916.932	6437
917.044	6407
917.156	6410
917.268	6372
917.38	6410
917.491	6361
917.603	6353
917.715	6414
917.826	6388
917.938	6331
918.049	6300
918.161	6338
918.272	6464
918.384	6395
918.495	6353
918.606	6281
918.717	6273
918.828	6304
918.939	6361
919.05	6232
919.161	6285
919.272	6117
919.383	6182
919.494	6346
919.604	6418
919.715	6300
919.826	6228
919.936	6285
920.047	6342
920.157	6331
920.267	6391
920.378	6304
920.488	6346
920.598	6486
920.708	6536
920.818	6467
920.928	6509
921.038	6555
921.148	6597
921.258	6376
921.368	6308
921.477	6190
921.587	6197
921.697	6098
921.806	6216
921.916	6045
922.025	5988
922.134	5961
922.244	5855
922.353	5931
922.462	5840
922.571	5771
922.68	5707
922.789	5729
922.898	5703
923.007	5665
923.116	5672
923.224	5665
923.333	5722
923.442	5638
923.55	5646
923.659	5589
923.767	5623
923.876	5577
923.984	5562
924.092	5539
924.201	5554
924.309	5501
924.417	5573
924.525	5547
924.633	5493
924.741	6121
924.849	5368
924.956	5490
925.064	5364
925.172	5277
925.279	5326
925.387	5326
925.494	5353
925.602	5402
925.709	5421
925.816	5318
925.924	5334
926.031	5353
926.138	5273
926.245	5337
926.352	5204
926.459	5318
926.566	5303
926.673	5212
926.779	5136
926.886	5162
926.993	5010
927.099	5029
927.206	4965
927.312	5022
927.419	5010
927.525	5025
927.631	4999
927.737	4885
927.843	4850
927.95	4828
928.056	4839
928.162	4835
928.267	4873
928.373	5265
928.479	4862
928.585	4714
928.69	4774
928.796	4812
928.901	4698
929.007	4592
929.112	4694
929.218	4668
929.323	4672
929.428	4565
929.533	4710
929.638	4538
929.743	4500
929.848	4546
929.953	4542
930.058	4428
930.163	4352
930.267	4405
930.372	4436
930.477	4287
930.581	4474
930.685	4383
930.79	4318
930.894	4306
930.998	4253
931.103	4375
931.207	4173
931.311	4097
931.415	4116
931.519	3956
931.623	3953
