Data from glass_V78500241_2255.txt Node
Date: Wed Sep 01 19:30:07 CST 2021
User: usil
Spectrometer: V785-0024
Trigger mode: 0
Integration Time (sec): 4.000000E-1
Scans to average: 1
Nonlinearity correction enabled: false
Boxcar width: 0
Storing dark spectrum: false
XAxis mode: Wavelengths
Number of Pixels in Spectrum: 1024
>>>>>Begin Spectral Data<<<<<
801.071	3736
801.214	3759
801.356	3713
801.499	3728
801.641	3720
801.783	3747
801.926	3816
802.068	3789
802.211	3850
802.353	3861
802.496	3819
802.638	3857
802.78	3922
802.923	3964
803.065	3876
803.208	3869
803.35	3880
803.492	3934
803.635	3869
803.777	3804
803.919	3911
804.061	4147
804.204	3987
804.346	3918
804.488	3915
804.63	4025
804.773	3975
804.915	3987
805.057	4135
805.199	4002
805.341	4051
805.483	4135
805.626	4166
805.768	4082
805.91	4230
806.052	4211
806.194	4192
806.336	4363
806.478	4200
806.62	4188
806.762	4196
806.904	4265
807.046	4363
807.188	4181
807.33	4192
807.472	4261
807.614	4192
807.756	4242
807.898	4196
808.04	4211
808.182	4272
808.324	4322
808.465	4402
808.607	4462
808.749	4474
808.891	4481
809.033	4508
809.174	4383
809.316	4253
809.458	4238
809.6	4109
809.741	4169
809.883	4109
810.025	4215
810.166	4188
810.308	4223
810.45	4257
810.591	4238
810.733	4280
810.875	4516
811.016	4828
811.158	5128
811.299	5239
811.441	5261
811.582	5067
811.724	4683
811.865	4443
812.007	4519
812.148	4424
812.29	4375
812.431	4375
812.573	4436
812.714	4344
812.855	4394
812.997	4428
813.138	4504
813.279	4329
813.421	4379
813.562	4348
813.703	4291
813.845	4329
813.986	4257
814.127	4188
814.268	4268
814.41	4306
814.551	4257
814.692	4299
814.833	4265
814.974	4329
815.115	4356
815.256	4219
815.397	4253
815.539	4230
815.68	4181
815.821	4211
815.962	4299
816.103	4299
816.244	4261
816.385	4200
816.526	4261
816.666	4234
816.807	4082
816.948	4185
817.089	4188
817.23	4082
817.371	4067
817.512	4021
817.653	4063
817.793	3991
817.934	4006
818.075	4040
818.216	4067
818.356	4040
818.497	3987
818.638	3896
818.778	3922
818.919	3896
819.06	3876
819.2	3945
819.341	3831
819.481	3873
819.622	3918
819.762	3979
819.903	3991
820.043	3838
820.184	3846
820.324	3850
820.465	3880
820.605	3907
820.746	3846
820.886	3766
821.026	3911
821.167	3892
821.307	3941
821.447	3991
821.588	3968
821.728	3953
821.868	3915
822.008	3842
822.149	3888
822.289	3907
822.429	3781
822.569	3736
822.709	3819
822.849	3682
822.99	3679
823.13	3759
823.27	3732
823.41	3667
823.55	3724
823.69	3701
823.83	3732
823.97	3644
824.11	3625
824.25	3580
824.389	3625
824.529	3648
824.669	3667
824.809	3705
824.949	3774
825.089	3694
825.228	3701
825.368	3530
825.508	3545
825.648	3561
825.787	3599
825.927	3625
826.067	3644
826.206	3675
826.346	3778
826.485	3835
826.625	3869
826.765	3949
826.904	3804
827.044	3580
827.183	3511
827.323	3424
827.462	3504
827.601	3458
827.741	3386
827.88	3443
828.02	3405
828.159	3405
828.298	3511
828.437	3526
828.577	3477
828.716	3591
828.855	3469
828.994	3340
829.134	3325
829.273	3370
829.412	3351
829.551	3336
829.69	3378
829.829	3393
829.968	3473
830.107	3447
830.246	3469
830.385	3355
830.524	3317
830.663	3283
830.802	3275
830.941	3184
831.08	3150
831.219	3237
831.357	3275
831.496	3370
831.635	3222
831.774	3195
831.913	3180
832.051	3150
832.19	3146
832.329	3207
832.467	3157
832.606	3127
832.744	3188
832.883	3195
833.022	3176
833.16	3245
833.299	3275
833.437	3329
833.576	3416
833.714	3389
833.852	3412
833.991	3439
834.129	3443
834.267	3424
834.406	3397
834.544	3409
834.682	3420
834.821	3397
834.959	3587
835.097	3416
835.235	3538
835.373	3424
835.511	3481
835.65	3454
835.788	3488
835.926	3393
836.064	3332
836.202	3420
836.34	3603
836.478	3614
836.615	3507
836.753	3553
836.891	3610
837.029	3637
837.167	3564
837.305	3538
837.443	3496
837.58	3507
837.718	3599
837.856	3542
837.993	3584
838.131	3584
838.269	3568
838.406	3576
838.544	3549
838.681	3454
838.819	3477
838.956	3397
839.094	3367
839.231	3428
839.369	3477
839.506	3728
839.643	3667
839.781	3504
839.918	3485
840.055	3492
840.193	3530
840.33	3530
840.467	3519
840.604	3580
840.742	3812
840.879	3526
841.016	3542
841.153	3606
841.29	3785
841.427	3698
841.564	3705
841.701	3717
841.838	3648
841.975	3671
842.112	3732
842.249	3622
842.385	3614
842.522	3842
842.659	3732
842.796	3633
842.933	3694
843.069	3705
843.206	3701
843.343	3755
843.479	3789
843.616	3804
843.752	3686
843.889	3671
844.025	3804
844.162	3717
844.298	3781
844.435	3774
844.571	3743
844.708	3865
844.844	3979
844.98	4074
845.117	3979
845.253	3888
845.389	3899
845.525	3930
845.661	3987
845.798	3888
845.934	4021
846.07	3956
846.206	4017
846.342	4120
846.478	4029
846.614	3968
846.75	3926
846.886	3934
847.022	4017
847.158	3934
847.294	3987
847.429	3979
847.565	3945
847.701	4204
847.837	3880
847.972	3842
848.108	4013
848.244	3968
848.379	3857
848.515	3800
848.65	3819
848.786	3907
848.921	3823
849.057	3937
849.192	3941
849.328	3903
849.463	3918
849.598	3880
849.734	3873
849.869	3808
850.004	3747
850.14	3762
850.275	3804
850.41	3751
850.545	3728
850.68	3759
850.815	3808
850.95	3774
851.085	3922
851.22	3835
851.355	3785
851.49	3797
851.625	3823
851.76	3793
851.895	3755
852.03	3724
852.165	3831
852.299	3846
852.434	3861
852.569	3854
852.703	3892
852.838	3972
852.973	4013
853.107	3987
853.242	3873
853.376	3827
853.511	3755
853.645	3751
853.78	3953
853.914	3876
854.048	3857
854.183	3888
854.317	3903
854.451	4082
854.585	3953
854.72	3922
854.854	4093
854.988	3934
855.122	3987
855.256	3922
855.39	4013
855.524	4082
855.658	4124
855.792	4067
855.926	4135
856.06	4101
856.194	4147
856.327	4139
856.461	4109
856.595	4139
856.729	4131
856.862	4242
856.996	4219
857.13	4284
857.263	4295
857.397	4341
857.53	4314
857.664	4363
857.797	4375
857.931	4432
858.064	4371
858.197	4443
858.331	4386
858.464	4352
858.597	4356
858.731	4451
858.864	4443
858.997	4455
859.13	4493
859.263	4519
859.396	4580
859.529	4531
859.662	4527
859.795	4565
859.928	4554
860.061	4668
860.194	4725
860.327	4630
860.46	4668
860.592	4767
860.725	4717
860.858	4801
860.99	4729
861.123	4672
861.256	4679
861.388	4721
861.521	5330
861.653	4763
861.786	4668
861.918	4733
862.05	4858
862.183	4847
862.315	4866
862.447	4927
862.58	4870
862.712	4786
862.844	4752
862.976	4824
863.108	4896
863.24	5185
863.372	4820
863.504	4885
863.636	4843
863.768	4938
863.9	4961
864.032	4915
864.164	4984
864.296	5079
864.428	5083
864.559	5048
864.691	5083
864.823	5124
864.954	5079
865.086	5121
865.217	5094
865.349	5117
865.48	5223
865.612	5162
865.743	5265
865.875	5185
866.006	5231
866.137	5185
866.269	5254
866.4	5235
866.531	5216
866.662	5220
866.793	5235
866.924	5307
867.055	5345
867.186	5372
867.317	5318
867.448	5315
867.579	5376
867.71	5326
867.841	5372
867.972	5421
868.103	5429
868.233	5444
868.364	5482
868.495	5535
868.625	5665
868.756	5783
868.886	5688
869.017	5745
869.147	5863
869.278	5847
869.408	5828
869.539	5821
869.669	5874
869.799	5901
869.929	6011
870.06	5992
870.19	6190
870.32	6152
870.45	6232
870.58	6365
870.71	6445
870.84	6490
870.97	6395
871.1	6452
871.23	6635
871.36	6684
871.489	6631
871.619	6677
871.749	6791
871.879	6867
872.008	6966
872.138	6951
872.267	7008
872.397	6928
872.526	7019
872.656	7069
872.785	7209
872.915	7358
873.044	7464
873.173	7514
873.303	7677
873.432	7700
873.561	7852
873.69	7917
873.819	7982
873.948	8142
874.077	8210
874.206	8294
874.335	8415
874.464	8632
874.593	8914
874.722	8899
874.851	9081
874.979	9184
875.108	9321
875.237	9367
875.365	9405
875.494	9606
875.623	9804
875.751	9884
875.88	9994
876.008	10143
876.136	10230
876.265	10508
876.393	10641
876.521	10660
876.65	10831
876.778	10873
876.906	10904
877.034	10923
877.162	11128
877.29	11132
877.418	11299
877.546	11318
877.674	11512
877.802	11486
877.93	11558
878.058	11604
878.185	11532
878.313	11699
878.441	11752
878.568	11684
878.696	11805
878.824	11783
878.951	11882
879.079	11912
879.206	12083
879.333	12102
879.461	12060
879.588	11999
879.715	12003
879.842	12228
879.97	12091
880.097	11878
880.224	11961
880.351	11859
880.478	11851
880.605	11794
880.732	11802
880.859	11958
880.986	11748
881.112	11874
881.239	11821
881.366	11589
881.493	11596
881.619	11581
881.746	11638
881.872	11474
881.999	11482
882.125	11501
882.252	11543
882.378	11554
882.505	11490
882.631	11425
882.757	11273
882.883	11337
883.01	11292
883.136	11246
883.262	11094
883.388	11090
883.514	11231
883.64	11155
883.766	11121
883.892	11003
884.018	10938
884.143	11045
884.269	11045
884.395	10831
884.52	10805
884.646	10755
884.772	10706
884.897	10729
885.023	10725
885.148	10706
885.274	10748
885.399	10672
885.524	10596
885.65	10645
885.775	10504
885.9	10561
886.025	10656
886.15	10569
886.275	10443
886.4	10424
886.525	10382
886.65	10360
886.775	10303
886.9	10424
887.025	10455
887.149	10413
887.274	10242
887.399	10188
887.523	10135
887.648	10166
887.773	10101
887.897	10211
888.021	10261
888.146	10128
888.27	10219
888.395	10181
888.519	10177
888.643	10196
888.767	10185
888.891	10105
889.015	10048
889.139	10067
889.263	9911
889.387	10044
889.511	10147
889.635	9987
889.759	9956
889.883	10006
890.006	10021
890.13	10139
890.254	9945
890.377	9945
890.501	9850
890.624	9876
890.748	9854
890.871	9789
890.995	9720
891.118	9690
891.241	9720
891.364	9667
891.488	9865
891.611	9701
891.734	9747
891.857	9705
891.98	9785
892.103	9789
892.226	9694
892.349	9720
892.471	9515
892.594	9584
892.717	9610
892.839	9606
892.962	9545
893.085	9652
893.207	9545
893.33	9462
893.452	9564
893.575	9564
893.697	9408
893.819	9629
893.941	9686
894.064	9561
894.186	9462
894.308	9424
894.43	9545
894.552	9557
894.674	9526
894.796	9363
894.918	9477
895.04	9313
895.161	9351
895.283	9302
895.405	9313
895.526	9283
895.648	9245
895.769	9241
895.891	9264
896.012	9340
896.134	9165
896.255	9138
896.376	9100
896.498	9146
896.619	9192
896.74	9112
896.861	9039
896.982	9245
897.103	9336
897.224	9176
897.345	9062
897.466	8948
897.587	9020
897.708	9104
897.828	9039
897.949	8948
898.07	8868
898.19	8883
898.311	8990
898.431	8967
898.552	8857
898.672	8944
898.792	8872
898.913	8910
899.033	8754
899.153	8785
899.273	8682
899.393	8750
899.513	8754
899.633	8746
899.753	8754
899.873	8708
899.993	8727
900.113	8659
900.232	8724
900.352	8674
900.472	8621
900.591	8522
900.711	8533
900.83	8537
900.95	8571
901.069	8705
901.189	8533
901.308	8495
901.427	8404
901.546	8450
901.665	8431
901.784	8476
901.904	8415
902.023	8381
902.141	8191
902.26	8199
902.379	8313
902.498	8164
902.617	8202
902.735	8244
902.854	8259
902.973	8305
903.091	8081
903.21	8107
903.328	8153
903.446	8153
903.565	8126
903.683	8115
903.801	8058
903.919	8103
904.038	8161
904.156	8043
904.274	8103
904.392	8046
904.51	7970
904.627	8001
904.745	8046
904.863	8039
904.981	7925
905.098	7849
905.216	7875
905.334	7795
905.451	7951
905.569	7871
905.686	7856
905.803	7936
905.921	7765
906.038	7788
906.155	7860
906.272	7700
906.389	7731
906.506	7658
906.623	7647
906.74	7537
906.857	7529
906.974	7601
907.091	7696
907.208	7715
907.324	7628
907.441	7544
907.557	7464
907.674	7384
907.79	7438
907.907	7411
908.023	7487
908.139	7445
908.256	7441
908.372	7331
908.488	7324
908.604	7297
908.72	7168
908.836	7331
908.952	7259
909.068	7278
909.184	7316
909.3	7301
909.415	7266
909.531	7194
909.647	7160
909.762	7088
909.878	7088
909.993	7072
910.108	7080
910.224	7080
910.339	7069
910.454	7046
910.57	6989
910.685	6985
910.8	7156
910.915	7088
911.03	6958
911.145	6882
911.259	6863
911.374	6913
911.489	6863
911.604	6878
911.718	6726
911.833	6757
911.947	6639
912.062	6582
912.176	6726
912.291	6719
912.405	6692
912.519	6829
912.633	6810
912.748	6726
912.862	6669
912.976	6589
913.09	6578
913.204	6608
913.318	6620
913.431	6623
913.545	6662
913.659	6734
913.772	6582
913.886	6566
914	6597
914.113	6608
914.226	6578
914.34	6597
914.453	6467
914.566	6616
914.68	6486
914.793	6513
914.906	6414
915.019	6407
915.132	6365
915.245	6429
915.358	6380
915.47	6414
915.583	6372
915.696	6490
915.809	6494
915.921	6540
916.034	6414
916.146	6388
916.259	6410
916.371	6525
916.483	6532
916.595	6410
916.708	6391
916.82	6357
916.932	6369
917.044	6365
917.156	6399
917.268	6323
917.38	6292
917.491	6296
917.603	6327
917.715	6376
917.826	6391
917.938	6319
918.049	6254
918.161	6289
918.272	6414
918.384	6422
918.495	6350
918.606	6266
918.717	6209
918.828	6235
918.939	6251
919.05	6171
919.161	6216
919.272	6125
919.383	6140
919.494	6342
919.604	6426
919.715	6327
919.826	6243
919.936	6285
920.047	6372
920.157	6319
920.267	6441
920.378	6273
920.488	6216
920.598	6418
920.708	6513
920.818	6471
920.928	6395
921.038	6601
921.148	6578
921.258	6327
921.368	6319
921.477	6247
921.587	6175
921.697	6015
921.806	6144
921.916	6068
922.025	5939
922.134	5901
922.244	5863
922.353	5912
922.462	5775
922.571	5798
922.68	5699
922.789	5623
922.898	5718
923.007	5562
923.116	5703
923.224	5619
923.333	5623
923.442	5611
923.55	5589
923.659	5543
923.767	5619
923.876	5501
923.984	5646
924.092	5478
924.201	5509
924.309	5592
924.417	5554
924.525	5448
924.633	5497
924.741	6289
924.849	5307
924.956	5440
925.064	5345
925.172	5330
925.279	5322
925.387	5307
925.494	5334
925.602	5429
925.709	5425
925.816	5277
925.924	5360
926.031	5379
926.138	5246
926.245	5296
926.352	5181
926.459	5311
926.566	5334
926.673	5220
926.779	5143
926.886	5090
926.993	5014
927.099	5006
927.206	4980
927.312	4908
927.419	5048
927.525	4968
927.631	4938
927.737	4892
927.843	4892
927.95	4733
928.056	4816
928.162	4801
928.267	4793
928.373	5334
928.479	4759
928.585	4687
928.69	4748
928.796	4759
928.901	4687
929.007	4596
929.112	4630
929.218	4683
929.323	4618
929.428	4584
929.533	4656
929.638	4535
929.743	4516
929.848	4592
929.953	4485
930.058	4405
930.163	4329
930.267	4249
930.372	4428
930.477	4322
930.581	4478
930.685	4329
930.79	4230
930.894	4306
930.998	4215
931.103	4371
931.207	4101
931.311	4074
931.415	4059
931.519	3903
931.623	3915
