Data from glass_V78500241_1758.txt Node
Date: Wed Sep 01 19:26:41 CST 2021
User: usil
Spectrometer: V785-0024
Trigger mode: 0
Integration Time (sec): 4.000000E-1
Scans to average: 1
Nonlinearity correction enabled: false
Boxcar width: 0
Storing dark spectrum: false
XAxis mode: Wavelengths
Number of Pixels in Spectrum: 1024
>>>>>Begin Spectral Data<<<<<
801.071	3743
801.214	3793
801.356	3724
801.499	3713
801.641	3747
801.783	3774
801.926	3846
802.068	3812
802.211	3899
802.353	3892
802.496	3846
802.638	3850
802.78	3907
802.923	3911
803.065	3896
803.208	3888
803.35	3884
803.492	3911
803.635	3934
803.777	3759
803.919	3876
804.061	4204
804.204	3960
804.346	3941
804.488	3899
804.63	4002
804.773	3949
804.915	4086
805.057	4093
805.199	4051
805.341	4097
805.483	4128
805.626	4071
805.768	4120
805.91	4204
806.052	4257
806.194	4215
806.336	4333
806.478	4238
806.62	4185
806.762	4135
806.904	4272
807.046	4314
807.188	4177
807.33	4223
807.472	4257
807.614	4223
807.756	4261
807.898	4249
808.04	4234
808.182	4295
808.324	4299
808.465	4371
808.607	4447
808.749	4474
808.891	4432
809.033	4512
809.174	4421
809.316	4261
809.458	4234
809.6	4177
809.741	4105
809.883	4173
810.025	4211
810.166	4196
810.308	4169
810.45	4253
810.591	4257
810.733	4333
810.875	4535
811.016	4809
811.158	5147
811.299	5322
811.441	5292
811.582	5079
811.724	4664
811.865	4489
812.007	4451
812.148	4417
812.29	4440
812.431	4417
812.573	4405
812.714	4360
812.855	4390
812.997	4394
813.138	4474
813.279	4405
813.421	4398
813.562	4341
813.703	4363
813.845	4379
813.986	4295
814.127	4242
814.268	4272
814.41	4272
814.551	4310
814.692	4310
814.833	4253
814.974	4284
815.115	4352
815.256	4242
815.397	4238
815.539	4284
815.68	4207
815.821	4192
815.962	4322
816.103	4287
816.244	4249
816.385	4253
816.526	4322
816.666	4227
816.807	4105
816.948	4158
817.089	4185
817.23	4086
817.371	4051
817.512	4051
817.653	4040
817.793	3987
817.934	4036
818.075	4078
818.216	4029
818.356	4090
818.497	3979
818.638	3926
818.778	3915
818.919	3873
819.06	3888
819.2	3884
819.341	3869
819.481	3835
819.622	3907
819.762	4051
819.903	3949
820.043	3865
820.184	3842
820.324	3808
820.465	3899
820.605	3857
820.746	3934
820.886	3823
821.026	3903
821.167	3892
821.307	3945
821.447	3964
821.588	3953
821.728	3896
821.868	3907
822.008	3896
822.149	3945
822.289	3941
822.429	3797
822.569	3755
822.709	3743
822.849	3686
822.99	3679
823.13	3770
823.27	3781
823.41	3709
823.55	3789
823.69	3713
823.83	3720
823.97	3686
824.11	3603
824.25	3591
824.389	3637
824.529	3648
824.669	3690
824.809	3728
824.949	3770
825.089	3728
825.228	3675
825.368	3584
825.508	3542
825.648	3557
825.787	3629
825.927	3637
826.067	3599
826.206	3667
826.346	3823
826.485	3808
826.625	3827
826.765	3907
826.904	3819
827.044	3610
827.183	3530
827.323	3401
827.462	3466
827.601	3447
827.741	3443
827.88	3458
828.02	3389
828.159	3462
828.298	3473
828.437	3561
828.577	3424
828.716	3629
828.855	3530
828.994	3378
829.134	3374
829.273	3378
829.412	3344
829.551	3351
829.69	3386
829.829	3450
829.968	3519
830.107	3412
830.246	3443
830.385	3405
830.524	3367
830.663	3329
830.802	3226
830.941	3207
831.08	3169
831.219	3268
831.357	3249
831.496	3409
831.635	3233
831.774	3237
831.913	3233
832.051	3108
832.19	3142
832.329	3199
832.467	3161
832.606	3081
832.744	3146
832.883	3203
833.022	3195
833.16	3241
833.299	3302
833.437	3306
833.576	3344
833.714	3386
833.852	3428
833.991	3428
834.129	3435
834.267	3458
834.406	3405
834.544	3412
834.682	3431
834.821	3420
834.959	3519
835.097	3443
835.235	3530
835.373	3511
835.511	3530
835.65	3481
835.788	3458
835.926	3359
836.064	3363
836.202	3416
836.34	3561
836.478	3610
836.615	3549
836.753	3568
836.891	3595
837.029	3622
837.167	3584
837.305	3515
837.443	3557
837.58	3473
837.718	3557
837.856	3553
837.993	3511
838.131	3599
838.269	3568
838.406	3564
838.544	3595
838.681	3515
838.819	3450
838.956	3363
839.094	3378
839.231	3447
839.369	3523
839.506	3747
839.643	3587
839.781	3523
839.918	3447
840.055	3515
840.193	3526
840.33	3542
840.467	3564
840.604	3625
840.742	3823
840.879	3542
841.016	3542
841.153	3580
841.29	3812
841.427	3740
841.564	3717
841.701	3762
841.838	3717
841.975	3648
842.112	3751
842.249	3633
842.385	3625
842.522	3808
842.659	3690
842.796	3660
842.933	3713
843.069	3705
843.206	3671
843.343	3804
843.479	3797
843.616	3812
843.752	3682
843.889	3675
844.025	3876
844.162	3690
844.298	3842
844.435	3781
844.571	3808
844.708	3873
844.844	3994
844.98	3987
845.117	4029
845.253	3926
845.389	3903
845.525	3991
845.661	3960
845.798	3907
845.934	3956
846.07	3945
846.206	4029
846.342	4101
846.478	4067
846.614	3964
846.75	3953
846.886	3941
847.022	4055
847.158	3968
847.294	3979
847.429	4044
847.565	3994
847.701	4192
847.837	3884
847.972	3915
848.108	4051
848.244	3979
848.379	3857
848.515	3835
848.65	3766
848.786	3793
848.921	3876
849.057	3956
849.192	3949
849.328	3884
849.463	3956
849.598	3869
849.734	3842
849.869	3793
850.004	3778
850.14	3781
850.275	3793
850.41	3717
850.545	3743
850.68	3762
850.815	3823
850.95	3812
851.085	3915
851.22	3892
851.355	3835
851.49	3781
851.625	3766
851.76	3766
851.895	3732
852.03	3698
852.165	3755
852.299	3876
852.434	3865
852.569	3876
852.703	3850
852.838	3907
852.973	4025
853.107	3983
853.242	3854
853.376	3838
853.511	3808
853.645	3857
853.78	4006
853.914	3945
854.048	3907
854.183	3880
854.317	3941
854.451	4055
854.585	3960
854.72	3937
854.854	4063
854.988	3930
855.122	4029
855.256	3930
855.39	3979
855.524	4112
855.658	4082
855.792	4082
855.926	4128
856.06	4105
856.194	4207
856.327	4143
856.461	4128
856.595	4086
856.729	4131
856.862	4276
856.996	4234
857.13	4280
857.263	4276
857.397	4398
857.53	4272
857.664	4306
857.797	4409
857.931	4402
858.064	4325
858.197	4443
858.331	4386
858.464	4360
858.597	4322
858.731	4459
858.864	4466
858.997	4443
859.13	4504
859.263	4561
859.396	4558
859.529	4504
859.662	4516
859.795	4527
859.928	4599
860.061	4653
860.194	4710
860.327	4653
860.46	4641
860.592	4691
860.725	4748
860.858	4809
860.99	4698
861.123	4664
861.256	4645
861.388	4729
861.521	5364
861.653	4733
861.786	4744
861.918	4778
862.05	4759
862.183	4809
862.315	4965
862.447	4911
862.58	4896
862.712	4812
862.844	4782
862.976	4850
863.108	4862
863.24	5235
863.372	4812
863.504	4904
863.636	4930
863.768	4938
863.9	4980
864.032	4911
864.164	4923
864.296	5006
864.428	5083
864.559	5113
864.691	5109
864.823	5071
864.954	5109
865.086	5166
865.217	5075
865.349	5128
865.48	5197
865.612	5235
865.743	5265
865.875	5189
866.006	5223
866.137	5223
866.269	5239
866.4	5239
866.531	5258
866.662	5193
866.793	5231
866.924	5280
867.055	5349
867.186	5337
867.317	5379
867.448	5296
867.579	5395
867.71	5353
867.841	5387
867.972	5509
868.103	5520
868.233	5459
868.364	5509
868.495	5547
868.625	5646
868.756	5836
868.886	5653
869.017	5707
869.147	5870
869.278	5859
869.408	5851
869.539	5847
869.669	5923
869.799	5855
869.929	5931
870.06	6011
870.19	6148
870.32	6194
870.45	6258
870.58	6353
870.71	6456
870.84	6456
870.97	6369
871.1	6445
871.23	6669
871.36	6650
871.489	6658
871.619	6768
871.749	6772
871.879	6848
872.008	7031
872.138	6985
872.267	7072
872.397	6993
872.526	6966
872.656	7156
872.785	7183
872.915	7343
873.044	7506
873.173	7499
873.303	7613
873.432	7761
873.561	7887
873.69	7894
873.819	8058
873.948	8138
874.077	8199
874.206	8339
874.335	8461
874.464	8667
874.593	8864
874.722	8887
874.851	9112
874.979	9195
875.108	9367
875.237	9397
875.365	9477
875.494	9633
875.623	9793
875.751	9873
875.88	10025
876.008	10109
876.136	10295
876.265	10504
876.393	10645
876.521	10706
876.65	10858
876.778	10854
876.906	10847
877.034	10892
877.162	11113
877.29	11140
877.418	11318
877.546	11299
877.674	11398
877.802	11444
877.93	11516
878.058	11497
878.185	11570
878.313	11646
878.441	11619
878.568	11756
878.696	11729
878.824	11729
878.951	11950
879.079	11999
879.206	12106
879.333	12049
879.461	12045
879.588	12140
879.715	12079
879.842	12171
879.97	12019
880.097	11912
880.224	11882
880.351	11920
880.478	11870
880.605	11821
880.732	11802
880.859	12057
880.986	11783
881.112	11745
881.239	11729
881.366	11634
881.493	11653
881.619	11501
881.746	11573
881.872	11501
881.999	11524
882.125	11524
882.252	11585
882.378	11577
882.505	11566
882.631	11379
882.757	11353
882.883	11311
883.01	11273
883.136	11239
883.262	11128
883.388	11075
883.514	11299
883.64	11185
883.766	11117
883.892	11018
884.018	10968
884.143	11083
884.269	11132
884.395	10858
884.52	10835
884.646	10778
884.772	10675
884.897	10607
885.023	10717
885.148	10691
885.274	10759
885.399	10698
885.524	10607
885.65	10508
885.775	10554
885.9	10561
886.025	10645
886.15	10504
886.275	10451
886.4	10356
886.525	10413
886.65	10386
886.775	10348
886.9	10516
887.025	10569
887.149	10325
887.274	10280
887.399	10215
887.523	10169
887.648	10143
887.773	10169
887.897	10215
888.021	10173
888.146	10097
888.27	10306
888.395	10196
888.519	10105
888.643	10196
888.767	10234
888.891	10078
889.015	9968
889.139	10063
889.263	10029
889.387	10078
889.511	10090
889.635	10101
889.759	9968
889.883	10051
890.006	10040
890.13	10078
890.254	9975
890.377	10002
890.501	9816
890.624	9857
890.748	9892
890.871	9774
890.995	9709
891.118	9717
891.241	9804
891.364	9705
891.488	9850
891.611	9732
891.734	9728
891.857	9720
891.98	9732
892.103	9850
892.226	9732
892.349	9663
892.471	9568
892.594	9690
892.717	9568
892.839	9561
892.962	9622
893.085	9618
893.207	9576
893.33	9420
893.452	9500
893.575	9622
893.697	9557
893.819	9553
893.941	9599
894.064	9618
894.186	9473
894.308	9485
894.43	9515
894.552	9545
894.674	9572
894.796	9363
894.918	9359
895.04	9260
895.161	9401
895.283	9367
895.405	9245
895.526	9264
895.648	9306
895.769	9237
895.891	9275
896.012	9367
896.134	9268
896.255	9253
896.376	9184
896.498	9150
896.619	9138
896.74	9058
896.861	9081
896.982	9165
897.103	9214
897.224	9123
897.345	9123
897.466	8986
897.587	8956
897.708	9138
897.828	9036
897.949	8941
898.07	8845
898.19	8944
898.311	9001
898.431	8891
898.552	8887
898.672	8963
898.792	8967
898.913	8880
899.033	8804
899.153	8712
899.273	8632
899.393	8739
899.513	8800
899.633	8716
899.753	8701
899.873	8743
899.993	8708
900.113	8773
900.232	8754
900.352	8583
900.472	8674
900.591	8602
900.711	8575
900.83	8556
900.95	8689
901.069	8762
901.189	8511
901.308	8427
901.427	8438
901.546	8339
901.665	8541
901.784	8507
901.904	8423
902.023	8275
902.141	8187
902.26	8218
902.379	8237
902.498	8199
902.617	8271
902.735	8286
902.854	8324
902.973	8218
903.091	8088
903.21	8119
903.328	8176
903.446	8119
903.565	8069
903.683	8119
903.801	8054
903.919	8119
904.038	8065
904.156	8062
904.274	8092
904.392	8024
904.51	7986
904.627	8069
904.745	8142
904.863	8081
904.981	7917
905.098	7830
905.216	7868
905.334	7830
905.451	7890
905.569	7856
905.686	7883
905.803	7917
905.921	7780
906.038	7890
906.155	7803
906.272	7746
906.389	7712
906.506	7658
906.623	7567
906.74	7620
906.857	7544
906.974	7597
907.091	7632
907.208	7700
907.324	7708
907.441	7567
907.557	7441
907.674	7460
907.79	7400
907.907	7411
908.023	7457
908.139	7415
908.256	7354
908.372	7373
908.488	7346
908.604	7209
908.72	7225
908.836	7217
908.952	7232
909.068	7255
909.184	7373
909.3	7293
909.415	7274
909.531	7335
909.647	7152
909.762	7107
909.878	7038
909.993	7129
910.108	7114
910.224	7046
910.339	7110
910.454	7065
910.57	7050
910.685	6935
910.8	7126
910.915	7171
911.03	7038
911.145	6821
911.259	6856
911.374	6878
911.489	6848
911.604	6787
911.718	6722
911.833	6692
911.947	6669
912.062	6582
912.176	6688
912.291	6719
912.405	6734
912.519	6852
912.633	6810
912.748	6757
912.862	6745
912.976	6547
913.09	6498
913.204	6639
913.318	6608
913.431	6700
913.545	6715
913.659	6734
913.772	6612
913.886	6555
914	6506
914.113	6658
914.226	6604
914.34	6559
914.453	6509
914.566	6623
914.68	6551
914.793	6589
914.906	6407
915.019	6407
915.132	6281
915.245	6433
915.358	6464
915.47	6422
915.583	6464
915.696	6502
915.809	6513
915.921	6528
916.034	6403
916.146	6418
916.259	6380
916.371	6509
916.483	6456
916.595	6414
916.708	6395
916.82	6437
916.932	6372
917.044	6372
917.156	6391
917.268	6270
917.38	6304
917.491	6304
917.603	6369
917.715	6353
917.826	6395
917.938	6311
918.049	6266
918.161	6342
918.272	6395
918.384	6361
918.495	6399
918.606	6300
918.717	6201
918.828	6357
918.939	6292
919.05	6228
919.161	6308
919.272	6114
919.383	6159
919.494	6228
919.604	6403
919.715	6315
919.826	6270
919.936	6292
920.047	6365
920.157	6304
920.267	6388
920.378	6346
920.488	6247
920.598	6445
920.708	6578
920.818	6380
920.928	6464
921.038	6620
921.148	6570
921.258	6334
921.368	6331
921.477	6159
921.587	6178
921.697	6060
921.806	6220
921.916	6163
922.025	5984
922.134	5885
922.244	5897
922.353	5996
922.462	5817
922.571	5798
922.68	5661
922.789	5665
922.898	5718
923.007	5649
923.116	5691
923.224	5726
923.333	5668
923.442	5623
923.55	5589
923.659	5524
923.767	5608
923.876	5573
923.984	5619
924.092	5528
924.201	5581
924.309	5497
924.417	5528
924.525	5455
924.633	5478
924.741	6353
924.849	5349
924.956	5493
925.064	5357
925.172	5292
925.279	5242
925.387	5376
925.494	5364
925.602	5433
925.709	5349
925.816	5284
925.924	5315
926.031	5353
926.138	5357
926.245	5315
926.352	5216
926.459	5337
926.566	5318
926.673	5189
926.779	5140
926.886	5083
926.993	5033
927.099	5010
927.206	4915
927.312	4957
927.419	5003
927.525	4980
927.631	5010
927.737	4915
927.843	4881
927.95	4755
928.056	4782
928.162	4809
928.267	4877
928.373	5349
928.479	4843
928.585	4660
928.69	4774
928.796	4767
928.901	4694
929.007	4558
929.112	4630
929.218	4637
929.323	4599
929.428	4603
929.533	4637
929.638	4554
929.743	4493
929.848	4558
929.953	4493
930.058	4405
930.163	4299
930.267	4333
930.372	4474
930.477	4276
930.581	4428
930.685	4386
930.79	4284
930.894	4268
930.998	4284
931.103	4383
931.207	4135
931.311	4071
931.415	4040
931.519	3918
931.623	3956
