Data from glass_V78500241_296.txt Node
Date: Wed Sep 01 19:16:33 CST 2021
User: usil
Spectrometer: V785-0024
Trigger mode: 0
Integration Time (sec): 4.000000E-1
Scans to average: 1
Nonlinearity correction enabled: false
Boxcar width: 0
Storing dark spectrum: false
XAxis mode: Wavelengths
Number of Pixels in Spectrum: 1024
>>>>>Begin Spectral Data<<<<<
801.071	3743
801.214	3793
801.356	3740
801.499	3736
801.641	3755
801.783	3804
801.926	3854
802.068	3842
802.211	3819
802.353	3861
802.496	3876
802.638	3911
802.78	3934
802.923	3968
803.065	3922
803.208	3846
803.35	3827
803.492	3907
803.635	3930
803.777	3793
803.919	3899
804.061	4154
804.204	3941
804.346	3953
804.488	3968
804.63	4040
804.773	3953
804.915	4044
805.057	4154
805.199	4067
805.341	4135
805.483	4139
805.626	4135
805.768	4124
805.91	4223
806.052	4287
806.194	4181
806.336	4375
806.478	4234
806.62	4177
806.762	4207
806.904	4261
807.046	4352
807.188	4238
807.33	4200
807.472	4287
807.614	4204
807.756	4280
807.898	4204
808.04	4238
808.182	4230
808.324	4333
808.465	4413
808.607	4466
808.749	4497
808.891	4519
809.033	4500
809.174	4409
809.316	4219
809.458	4287
809.6	4162
809.741	4143
809.883	4177
810.025	4223
810.166	4219
810.308	4272
810.45	4280
810.591	4169
810.733	4280
810.875	4459
811.016	4831
811.158	5140
811.299	5261
811.441	5334
811.582	5083
811.724	4706
811.865	4485
812.007	4489
812.148	4402
812.29	4413
812.431	4405
812.573	4394
812.714	4386
812.855	4421
812.997	4409
813.138	4504
813.279	4443
813.421	4432
813.562	4428
813.703	4360
813.845	4310
813.986	4253
814.127	4211
814.268	4284
814.41	4253
814.551	4344
814.692	4310
814.833	4272
814.974	4318
815.115	4306
815.256	4306
815.397	4234
815.539	4284
815.68	4215
815.821	4185
815.962	4314
816.103	4253
816.244	4238
816.385	4249
816.526	4291
816.666	4200
816.807	4135
816.948	4204
817.089	4185
817.23	4162
817.371	4036
817.512	4074
817.653	4063
817.793	4029
817.934	4021
818.075	4101
818.216	4097
818.356	4128
818.497	3994
818.638	3918
818.778	3930
818.919	3869
819.06	3880
819.2	3926
819.341	3915
819.481	3884
819.622	3956
819.762	4040
819.903	3956
820.043	3857
820.184	3812
820.324	3838
820.465	3892
820.605	3861
820.746	3880
820.886	3823
821.026	3949
821.167	3937
821.307	3964
821.447	4013
821.588	3926
821.728	3945
821.868	3922
822.008	3896
822.149	3941
822.289	3964
822.429	3770
822.569	3797
822.709	3797
822.849	3724
822.99	3755
823.13	3759
823.27	3800
823.41	3766
823.55	3755
823.69	3698
823.83	3743
823.97	3690
824.11	3606
824.25	3603
824.389	3675
824.529	3675
824.669	3667
824.809	3778
824.949	3747
825.089	3785
825.228	3686
825.368	3591
825.508	3561
825.648	3576
825.787	3637
825.927	3652
826.067	3637
826.206	3671
826.346	3793
826.485	3827
826.625	3880
826.765	3945
826.904	3846
827.044	3591
827.183	3553
827.323	3431
827.462	3507
827.601	3450
827.741	3439
827.88	3477
828.02	3367
828.159	3431
828.298	3526
828.437	3545
828.577	3488
828.716	3625
828.855	3515
828.994	3393
829.134	3401
829.273	3374
829.412	3359
829.551	3382
829.69	3370
829.829	3454
829.968	3568
830.107	3450
830.246	3473
830.385	3389
830.524	3367
830.663	3291
830.802	3256
830.941	3211
831.08	3237
831.219	3256
831.357	3253
831.496	3405
831.635	3264
831.774	3218
831.913	3226
832.051	3150
832.19	3157
832.329	3207
832.467	3180
832.606	3119
832.744	3146
832.883	3214
833.022	3199
833.16	3233
833.299	3306
833.437	3313
833.576	3359
833.714	3405
833.852	3428
833.991	3485
834.129	3488
834.267	3462
834.406	3424
834.544	3424
834.682	3428
834.821	3424
834.959	3580
835.097	3431
835.235	3584
835.373	3500
835.511	3553
835.65	3481
835.788	3492
835.926	3389
836.064	3424
836.202	3443
836.34	3603
836.478	3629
836.615	3530
836.753	3618
836.891	3625
837.029	3633
837.167	3599
837.305	3599
837.443	3564
837.58	3538
837.718	3595
837.856	3584
837.993	3538
838.131	3629
838.269	3568
838.406	3622
838.544	3549
838.681	3477
838.819	3504
838.956	3401
839.094	3443
839.231	3462
839.369	3557
839.506	3736
839.643	3694
839.781	3515
839.918	3492
840.055	3504
840.193	3523
840.33	3526
840.467	3572
840.604	3637
840.742	3819
840.879	3557
841.016	3599
841.153	3644
841.29	3759
841.427	3732
841.564	3778
841.701	3781
841.838	3671
841.975	3682
842.112	3732
842.249	3648
842.385	3633
842.522	3854
842.659	3713
842.796	3694
842.933	3713
843.069	3732
843.206	3736
843.343	3835
843.479	3793
843.616	3861
843.752	3694
843.889	3698
844.025	3892
844.162	3736
844.298	3831
844.435	3781
844.571	3797
844.708	3949
844.844	3949
844.98	4063
845.117	4032
845.253	3987
845.389	3918
845.525	3991
845.661	3964
845.798	3911
845.934	4032
846.07	3983
846.206	4063
846.342	4109
846.478	4067
846.614	4025
846.75	3918
846.886	3930
847.022	4006
847.158	3979
847.294	4032
847.429	4002
847.565	4032
847.701	4223
847.837	3892
847.972	3869
848.108	3983
848.244	3987
848.379	3861
848.515	3861
848.65	3827
848.786	3857
848.921	3888
849.057	3918
849.192	3941
849.328	3911
849.463	3915
849.598	3880
849.734	3892
849.869	3873
850.004	3808
850.14	3831
850.275	3861
850.41	3728
850.545	3774
850.68	3751
850.815	3808
850.95	3876
851.085	3964
851.22	3911
851.355	3854
851.49	3827
851.625	3781
851.76	3800
851.895	3751
852.03	3785
852.165	3823
852.299	3915
852.434	3907
852.569	3869
852.703	3857
852.838	3884
852.973	4032
853.107	4025
853.242	3934
853.376	3804
853.511	3816
853.645	3869
853.78	3975
853.914	3903
854.048	3934
854.183	3903
854.317	3975
854.451	4101
854.585	4013
854.72	3922
854.854	4071
854.988	3987
855.122	4006
855.256	3949
855.39	4059
855.524	4139
855.658	4086
855.792	4139
855.926	4147
856.06	4211
856.194	4242
856.327	4207
856.461	4150
856.595	4188
856.729	4196
856.862	4268
856.996	4284
857.13	4280
857.263	4333
857.397	4371
857.53	4318
857.664	4314
857.797	4402
857.931	4398
858.064	4394
858.197	4508
858.331	4390
858.464	4436
858.597	4390
858.731	4493
858.864	4451
858.997	4470
859.13	4519
859.263	4565
859.396	4626
859.529	4527
859.662	4565
859.795	4481
859.928	4637
860.061	4710
860.194	4725
860.327	4683
860.46	4710
860.592	4752
860.725	4831
860.858	4824
860.99	4691
861.123	4675
861.256	4656
861.388	4797
861.521	5318
861.653	4717
861.786	4721
861.918	4725
862.05	4839
862.183	4889
862.315	4870
862.447	4946
862.58	4835
862.712	4805
862.844	4790
862.976	4889
863.108	4858
863.24	5239
863.372	4824
863.504	4911
863.636	4892
863.768	4942
863.9	4949
864.032	4946
864.164	4953
864.296	5090
864.428	5140
864.559	5117
864.691	5159
864.823	5136
864.954	5090
865.086	5189
865.217	5128
865.349	5094
865.48	5181
865.612	5204
865.743	5280
865.875	5166
866.006	5208
866.137	5235
866.269	5280
866.4	5288
866.531	5231
866.662	5239
866.793	5265
866.924	5299
867.055	5345
867.186	5296
867.317	5307
867.448	5303
867.579	5417
867.71	5376
867.841	5440
867.972	5440
868.103	5543
868.233	5490
868.364	5512
868.495	5554
868.625	5726
868.756	5802
868.886	5729
869.017	5771
869.147	5866
869.278	5893
869.408	5878
869.539	5863
869.669	5935
869.799	5878
869.929	6045
870.06	5996
870.19	6152
870.32	6152
870.45	6315
870.58	6372
870.71	6467
870.84	6521
870.97	6441
871.1	6460
871.23	6623
871.36	6703
871.489	6684
871.619	6818
871.749	6768
871.879	6871
872.008	7084
872.138	7019
872.267	6996
872.397	7095
872.526	7034
872.656	7103
872.785	7183
872.915	7400
873.044	7491
873.173	7567
873.303	7628
873.432	7826
873.561	7864
873.69	7917
873.819	7993
873.948	8206
874.077	8286
874.206	8374
874.335	8507
874.464	8667
874.593	8853
874.722	8849
874.851	9097
874.979	9245
875.108	9408
875.237	9454
875.365	9526
875.494	9656
875.623	9827
875.751	9842
875.88	10036
876.008	10090
876.136	10371
876.265	10478
876.393	10740
876.521	10740
876.65	10843
876.778	10919
876.906	10919
877.034	10987
877.162	11105
877.29	11208
877.418	11239
877.546	11410
877.674	11436
877.802	11459
877.93	11562
878.058	11558
878.185	11547
878.313	11649
878.441	11786
878.568	11653
878.696	11923
878.824	11843
878.951	11965
879.079	12079
879.206	12068
879.333	12041
879.461	11996
879.588	12152
879.715	12102
879.842	12262
879.97	12011
880.097	11840
880.224	11931
880.351	11836
880.478	11882
880.605	11813
880.732	11817
880.859	12015
880.986	11783
881.112	11878
881.239	11741
881.366	11642
881.493	11665
881.619	11490
881.746	11592
881.872	11547
881.999	11573
882.125	11512
882.252	11604
882.378	11520
882.505	11627
882.631	11356
882.757	11292
882.883	11265
883.01	11292
883.136	11151
883.262	11067
883.388	11113
883.514	11223
883.64	11201
883.766	11170
883.892	11018
884.018	10980
884.143	11071
884.269	11083
884.395	10946
884.52	10801
884.646	10896
884.772	10702
884.897	10649
885.023	10717
885.148	10744
885.274	10793
885.399	10721
885.524	10645
885.65	10649
885.775	10607
885.9	10485
886.025	10634
886.15	10542
886.275	10516
886.4	10375
886.525	10379
886.65	10428
886.775	10344
886.9	10516
887.025	10542
887.149	10379
887.274	10284
887.399	10200
887.523	10128
887.648	10090
887.773	10185
887.897	10246
888.021	10295
888.146	10097
888.27	10204
888.395	10234
888.519	10242
888.643	10192
888.767	10238
888.891	10078
889.015	10063
889.139	10059
889.263	9934
889.387	10078
889.511	10116
889.635	10021
889.759	9964
889.883	9975
890.006	10006
890.13	10025
890.254	9911
890.377	9998
890.501	9838
890.624	9876
890.748	9899
890.871	9785
890.995	9736
891.118	9793
891.241	9778
891.364	9778
891.488	9869
891.611	9770
891.734	9740
891.857	9808
891.98	9701
892.103	9705
892.226	9686
892.349	9686
892.471	9469
892.594	9641
892.717	9641
892.839	9572
892.962	9591
893.085	9701
893.207	9686
893.33	9473
893.452	9534
893.575	9641
893.697	9526
893.819	9690
893.941	9675
894.064	9584
894.186	9447
894.308	9443
894.43	9584
894.552	9603
894.674	9523
894.796	9412
894.918	9420
895.04	9329
895.161	9416
895.283	9340
895.405	9275
895.526	9233
895.648	9211
895.769	9211
895.891	9283
896.012	9275
896.134	9264
896.255	9184
896.376	9165
896.498	9161
896.619	9123
896.74	9070
896.861	9039
896.982	9272
897.103	9359
897.224	9176
897.345	9089
897.466	9089
897.587	9074
897.708	9093
897.828	9013
897.949	8960
898.07	8906
898.19	8883
898.311	9005
898.431	8853
898.552	8925
898.672	9036
898.792	8982
898.913	8918
899.033	8887
899.153	8762
899.273	8640
899.393	8727
899.513	8777
899.633	8769
899.753	8678
899.873	8743
899.993	8800
900.113	8758
900.232	8731
900.352	8606
900.472	8640
900.591	8556
900.711	8625
900.83	8579
900.95	8648
901.069	8701
901.189	8617
901.308	8499
901.427	8431
901.546	8442
901.665	8476
901.784	8434
901.904	8317
902.023	8396
902.141	8195
902.26	8256
902.379	8362
902.498	8206
902.617	8252
902.735	8332
902.854	8301
902.973	8282
903.091	8168
903.21	8153
903.328	8195
903.446	8084
903.565	8050
903.683	8138
903.801	8012
903.919	8126
904.038	8183
904.156	8024
904.274	8157
904.392	8081
904.51	8024
904.627	8138
904.745	8115
904.863	8145
904.981	7970
905.098	7879
905.216	7921
905.334	7902
905.451	7936
905.569	7917
905.686	7963
905.803	7928
905.921	7833
906.038	7890
906.155	7795
906.272	7696
906.389	7738
906.506	7670
906.623	7666
906.74	7628
906.857	7529
906.974	7613
907.091	7727
907.208	7700
907.324	7655
907.441	7548
907.557	7495
907.674	7460
907.79	7430
907.907	7392
908.023	7472
908.139	7438
908.256	7396
908.372	7396
908.488	7331
908.604	7278
908.72	7266
908.836	7316
908.952	7255
909.068	7206
909.184	7335
909.3	7255
909.415	7354
909.531	7244
909.647	7103
909.762	7145
909.878	7152
909.993	7221
910.108	7179
910.224	7099
910.339	7091
910.454	7095
910.57	6977
910.685	6947
910.8	7137
910.915	7088
911.03	7012
911.145	6886
911.259	6901
911.374	6924
911.489	6852
911.604	6825
911.718	6741
911.833	6722
911.947	6669
912.062	6635
912.176	6722
912.291	6741
912.405	6730
912.519	6814
912.633	6856
912.748	6741
912.862	6730
912.976	6654
913.09	6536
913.204	6612
913.318	6654
913.431	6688
913.545	6715
913.659	6749
913.772	6654
913.886	6612
914	6585
914.113	6642
914.226	6715
914.34	6608
914.453	6521
914.566	6646
914.68	6544
914.793	6540
914.906	6471
915.019	6456
915.132	6338
915.245	6445
915.358	6456
915.47	6483
915.583	6448
915.696	6460
915.809	6608
915.921	6544
916.034	6471
916.146	6388
916.259	6422
916.371	6521
916.483	6456
916.595	6407
916.708	6437
916.82	6384
916.932	6426
917.044	6388
917.156	6350
917.268	6350
917.38	6342
917.491	6376
917.603	6342
917.715	6384
917.826	6410
917.938	6323
918.049	6334
918.161	6388
918.272	6441
918.384	6403
918.495	6399
918.606	6281
918.717	6239
918.828	6273
918.939	6285
919.05	6247
919.161	6334
919.272	6125
919.383	6152
919.494	6342
919.604	6452
919.715	6308
919.826	6220
919.936	6251
920.047	6376
920.157	6285
920.267	6475
920.378	6327
920.488	6327
920.598	6494
920.708	6540
920.818	6467
920.928	6506
921.038	6570
921.148	6585
921.258	6311
921.368	6273
921.477	6224
921.587	6228
921.697	6114
921.806	6159
921.916	6098
922.025	5923
922.134	5897
922.244	5923
922.353	5939
922.462	5889
922.571	5794
922.68	5710
922.789	5695
922.898	5714
923.007	5672
923.116	5760
923.224	5748
923.333	5684
923.442	5589
923.55	5611
923.659	5581
923.767	5638
923.876	5532
923.984	5573
924.092	5570
924.201	5577
924.309	5532
924.417	5604
924.525	5554
924.633	5493
924.741	6289
924.849	5402
924.956	5520
925.064	5337
925.172	5341
925.279	5376
925.387	5387
925.494	5318
925.602	5467
925.709	5383
925.816	5288
925.924	5326
926.031	5387
926.138	5341
926.245	5341
926.352	5216
926.459	5372
926.566	5330
926.673	5261
926.779	5166
926.886	5132
926.993	5064
927.099	5014
927.206	5010
927.312	4976
927.419	5037
927.525	5018
927.631	5003
927.737	4911
927.843	4866
927.95	4835
928.056	4892
928.162	4850
928.267	4881
928.373	5273
928.479	4850
928.585	4725
928.69	4755
928.796	4797
928.901	4668
929.007	4573
929.112	4668
929.218	4637
929.323	4599
929.428	4580
929.533	4710
929.638	4504
929.743	4504
929.848	4569
929.953	4546
930.058	4466
930.163	4303
930.267	4341
930.372	4459
930.477	4318
930.581	4508
930.685	4432
930.79	4246
930.894	4306
930.998	4280
931.103	4386
931.207	4131
931.311	4101
931.415	4025
931.519	3998
931.623	3964
