Data from glass_V78500241_2326.txt Node
Date: Wed Sep 01 19:30:37 CST 2021
User: usil
Spectrometer: V785-0024
Trigger mode: 0
Integration Time (sec): 4.000000E-1
Scans to average: 1
Nonlinearity correction enabled: false
Boxcar width: 0
Storing dark spectrum: false
XAxis mode: Wavelengths
Number of Pixels in Spectrum: 1024
>>>>>Begin Spectral Data<<<<<
801.071	3667
801.214	3736
801.356	3732
801.499	3728
801.641	3736
801.783	3740
801.926	3819
802.068	3835
802.211	3880
802.353	3869
802.496	3797
802.638	3899
802.78	3823
802.923	3899
803.065	3907
803.208	3854
803.35	3884
803.492	3907
803.635	3899
803.777	3819
803.919	3869
804.061	4147
804.204	3956
804.346	3968
804.488	3899
804.63	3994
804.773	3991
804.915	4021
805.057	4169
805.199	4029
805.341	4082
805.483	4128
805.626	4116
805.768	4116
805.91	4200
806.052	4246
806.194	4188
806.336	4303
806.478	4219
806.62	4135
806.762	4162
806.904	4219
807.046	4329
807.188	4204
807.33	4131
807.472	4154
807.614	4150
807.756	4284
807.898	4188
808.04	4188
808.182	4299
808.324	4284
808.465	4333
808.607	4424
808.749	4474
808.891	4421
809.033	4527
809.174	4394
809.316	4215
809.458	4200
809.6	4166
809.741	4131
809.883	4143
810.025	4219
810.166	4219
810.308	4242
810.45	4249
810.591	4242
810.733	4261
810.875	4516
811.016	4774
811.158	5132
811.299	5269
811.441	5280
811.582	5048
811.724	4691
811.865	4474
812.007	4405
812.148	4443
812.29	4474
812.431	4443
812.573	4413
812.714	4371
812.855	4398
812.997	4383
813.138	4470
813.279	4436
813.421	4375
813.562	4413
813.703	4344
813.845	4318
813.986	4230
814.127	4242
814.268	4227
814.41	4299
814.551	4261
814.692	4287
814.833	4234
814.974	4306
815.115	4276
815.256	4284
815.397	4219
815.539	4246
815.68	4207
815.821	4181
815.962	4284
816.103	4207
816.244	4268
816.385	4223
816.526	4310
816.666	4188
816.807	4078
816.948	4207
817.089	4215
817.23	4120
817.371	4029
817.512	4048
817.653	4082
817.793	3979
817.934	4067
818.075	4101
818.216	4025
818.356	4044
818.497	3972
818.638	3884
818.778	3903
818.919	3869
819.06	3857
819.2	3869
819.341	3873
819.481	3861
819.622	3903
819.762	3968
819.903	3930
820.043	3850
820.184	3808
820.324	3781
820.465	3865
820.605	3907
820.746	3835
820.886	3789
821.026	3934
821.167	3865
821.307	3888
821.447	3972
821.588	3956
821.728	3934
821.868	3911
822.008	3865
822.149	3876
822.289	3922
822.429	3778
822.569	3774
822.709	3812
822.849	3701
822.99	3709
823.13	3762
823.27	3762
823.41	3736
823.55	3724
823.69	3740
823.83	3724
823.97	3694
824.11	3603
824.25	3584
824.389	3614
824.529	3652
824.669	3603
824.809	3709
824.949	3690
825.089	3778
825.228	3709
825.368	3538
825.508	3549
825.648	3584
825.787	3587
825.927	3641
826.067	3656
826.206	3667
826.346	3770
826.485	3819
826.625	3857
826.765	3915
826.904	3808
827.044	3625
827.183	3504
827.323	3405
827.462	3485
827.601	3454
827.741	3393
827.88	3454
828.02	3363
828.159	3439
828.298	3462
828.437	3485
828.577	3488
828.716	3603
828.855	3485
828.994	3412
829.134	3378
829.273	3359
829.412	3367
829.551	3359
829.69	3351
829.829	3409
829.968	3511
830.107	3454
830.246	3420
830.385	3386
830.524	3317
830.663	3298
830.802	3218
830.941	3157
831.08	3192
831.219	3253
831.357	3268
831.496	3370
831.635	3218
831.774	3173
831.913	3188
832.051	3104
832.19	3135
832.329	3207
832.467	3123
832.606	3112
832.744	3116
832.883	3184
833.022	3169
833.16	3218
833.299	3275
833.437	3313
833.576	3370
833.714	3401
833.852	3462
833.991	3409
834.129	3462
834.267	3386
834.406	3416
834.544	3416
834.682	3420
834.821	3439
834.959	3530
835.097	3431
835.235	3519
835.373	3492
835.511	3504
835.65	3466
835.788	3477
835.926	3355
836.064	3367
836.202	3424
836.34	3591
836.478	3603
836.615	3572
836.753	3580
836.891	3606
837.029	3610
837.167	3542
837.305	3580
837.443	3526
837.58	3473
837.718	3599
837.856	3549
837.993	3492
838.131	3557
838.269	3568
838.406	3595
838.544	3595
838.681	3511
838.819	3420
838.956	3348
839.094	3351
839.231	3450
839.369	3469
839.506	3728
839.643	3652
839.781	3511
839.918	3492
840.055	3492
840.193	3523
840.33	3511
840.467	3545
840.604	3584
840.742	3812
840.879	3526
841.016	3591
841.153	3568
841.29	3759
841.427	3713
841.564	3751
841.701	3728
841.838	3724
841.975	3637
842.112	3724
842.249	3614
842.385	3648
842.522	3823
842.659	3660
842.796	3663
842.933	3728
843.069	3698
843.206	3720
843.343	3816
843.479	3785
843.616	3816
843.752	3663
843.889	3671
844.025	3842
844.162	3720
844.298	3812
844.435	3800
844.571	3774
844.708	3915
844.844	3953
844.98	3983
845.117	3960
845.253	3979
845.389	3911
845.525	3956
845.661	3979
845.798	3945
845.934	3983
846.07	3937
846.206	4067
846.342	4147
846.478	3998
846.614	4006
846.75	3915
846.886	3915
847.022	4082
847.158	3964
847.294	3972
847.429	3960
847.565	4002
847.701	4246
847.837	3838
847.972	3819
848.108	3953
848.244	3964
848.379	3835
848.515	3789
848.65	3778
848.786	3812
848.921	3861
849.057	3899
849.192	3896
849.328	3922
849.463	3903
849.598	3876
849.734	3850
849.869	3812
850.004	3785
850.14	3785
850.275	3816
850.41	3759
850.545	3743
850.68	3774
850.815	3743
850.95	3766
851.085	3911
851.22	3865
851.355	3854
851.49	3766
851.625	3766
851.76	3793
851.895	3747
852.03	3694
852.165	3770
852.299	3831
852.434	3903
852.569	3865
852.703	3854
852.838	3926
852.973	3987
853.107	4017
853.242	3869
853.376	3808
853.511	3770
853.645	3785
853.78	3964
853.914	3869
854.048	3869
854.183	3842
854.317	3918
854.451	4086
854.585	3968
854.72	3949
854.854	4010
854.988	3869
855.122	3964
855.256	3934
855.39	4044
855.524	4093
855.658	4128
855.792	4109
855.926	4120
856.06	4131
856.194	4200
856.327	4135
856.461	4074
856.595	4185
856.729	4120
856.862	4257
856.996	4177
857.13	4261
857.263	4333
857.397	4310
857.53	4314
857.664	4337
857.797	4360
857.931	4409
858.064	4371
858.197	4447
858.331	4390
858.464	4348
858.597	4367
858.731	4459
858.864	4459
858.997	4440
859.13	4497
859.263	4508
859.396	4611
859.529	4516
859.662	4542
859.795	4519
859.928	4607
860.061	4691
860.194	4729
860.327	4668
860.46	4641
860.592	4729
860.725	4763
860.858	4767
860.99	4679
861.123	4683
861.256	4672
861.388	4820
861.521	5250
861.653	4679
861.786	4717
861.918	4736
862.05	4774
862.183	4858
862.315	4881
862.447	4965
862.58	4896
862.712	4782
862.844	4774
862.976	4843
863.108	4839
863.24	5113
863.372	4847
863.504	4923
863.636	4900
863.768	4987
863.9	4972
864.032	4942
864.164	4953
864.296	5022
864.428	5090
864.559	5071
864.691	5067
864.823	5162
864.954	5121
865.086	5094
865.217	5140
865.349	5121
865.48	5166
865.612	5174
865.743	5261
865.875	5216
866.006	5155
866.137	5197
866.269	5193
866.4	5242
866.531	5231
866.662	5220
866.793	5235
866.924	5269
867.055	5379
867.186	5296
867.317	5341
867.448	5376
867.579	5372
867.71	5349
867.841	5387
867.972	5486
868.103	5459
868.233	5520
868.364	5467
868.495	5520
868.625	5646
868.756	5775
868.886	5592
869.017	5695
869.147	5783
869.278	5863
869.408	5813
869.539	5752
869.669	5935
869.799	5863
869.929	6011
870.06	6003
870.19	6167
870.32	6178
870.45	6251
870.58	6376
870.71	6429
870.84	6422
870.97	6410
871.1	6380
871.23	6589
871.36	6696
871.489	6574
871.619	6745
871.749	6810
871.879	6852
872.008	6951
872.138	6977
872.267	6973
872.397	6977
872.526	7061
872.656	7065
872.785	7213
872.915	7396
873.044	7537
873.173	7510
873.303	7609
873.432	7750
873.561	7883
873.69	7902
873.819	8008
873.948	8134
874.077	8210
874.206	8317
874.335	8442
874.464	8651
874.593	8819
874.722	8918
874.851	9112
874.979	9195
875.108	9325
875.237	9428
875.365	9500
875.494	9698
875.623	9823
875.751	9854
875.88	9960
876.008	10158
876.136	10280
876.265	10462
876.393	10630
876.521	10698
876.65	10797
876.778	10809
876.906	10881
877.034	10919
877.162	11075
877.29	11151
877.418	11208
877.546	11322
877.674	11379
877.802	11425
877.93	11471
878.058	11604
878.185	11543
878.313	11653
878.441	11688
878.568	11604
878.696	11802
878.824	11832
878.951	11927
879.079	12072
879.206	12144
879.333	12102
879.461	11935
879.588	12011
879.715	12011
879.842	12167
879.97	12057
880.097	11805
880.224	11931
880.351	11828
880.478	11859
880.605	11836
880.732	11904
880.859	11923
880.986	11775
881.112	11741
881.239	11802
881.366	11668
881.493	11665
881.619	11520
881.746	11562
881.872	11493
881.999	11474
882.125	11509
882.252	11520
882.378	11520
882.505	11554
882.631	11391
882.757	11318
882.883	11337
883.01	11326
883.136	11231
883.262	11181
883.388	11147
883.514	11189
883.64	11220
883.766	11056
883.892	10965
884.018	10972
884.143	11079
884.269	11083
884.395	10805
884.52	10771
884.646	10736
884.772	10740
884.897	10675
885.023	10637
885.148	10698
885.274	10740
885.399	10626
885.524	10558
885.65	10668
885.775	10622
885.9	10592
886.025	10599
886.15	10504
886.275	10421
886.4	10356
886.525	10363
886.65	10310
886.775	10303
886.9	10519
887.025	10519
887.149	10356
887.274	10257
887.399	10147
887.523	10124
887.648	10158
887.773	10169
887.897	10196
888.021	10196
888.146	10147
888.27	10181
888.395	10249
888.519	10112
888.643	10112
888.767	10200
888.891	10090
889.015	9964
889.139	10036
889.263	9972
889.387	10128
889.511	10093
889.635	10048
889.759	9994
889.883	10032
890.006	9998
890.13	10059
890.254	9975
890.377	10017
890.501	9880
890.624	9907
890.748	9838
890.871	9732
890.995	9755
891.118	9785
891.241	9808
891.364	9686
891.488	9808
891.611	9705
891.734	9682
891.857	9759
891.98	9701
892.103	9819
892.226	9641
892.349	9576
892.471	9507
892.594	9614
892.717	9667
892.839	9587
892.962	9622
893.085	9679
893.207	9564
893.33	9488
893.452	9515
893.575	9507
893.697	9519
893.819	9595
893.941	9584
894.064	9584
894.186	9397
894.308	9397
894.43	9515
894.552	9568
894.674	9500
894.796	9348
894.918	9355
895.04	9332
895.161	9435
895.283	9298
895.405	9260
895.526	9230
895.648	9199
895.769	9264
895.891	9287
896.012	9192
896.134	9207
896.255	9119
896.376	9116
896.498	9119
896.619	9173
896.74	9100
896.861	9077
896.982	9283
897.103	9256
897.224	9180
897.345	9062
897.466	8933
897.587	8948
897.708	9100
897.828	8990
897.949	8975
898.07	8883
898.19	8933
898.311	9131
898.431	8933
898.552	8937
898.672	8956
898.792	8937
898.913	8921
899.033	8788
899.153	8819
899.273	8594
899.393	8697
899.513	8712
899.633	8655
899.753	8727
899.873	8674
899.993	8727
900.113	8667
900.232	8716
900.352	8686
900.472	8568
900.591	8564
900.711	8564
900.83	8568
900.95	8705
901.069	8701
901.189	8511
901.308	8412
901.427	8351
901.546	8434
901.665	8438
901.784	8499
901.904	8412
902.023	8328
902.141	8252
902.26	8210
902.379	8248
902.498	8199
902.617	8237
902.735	8370
902.854	8286
902.973	8290
903.091	8134
903.21	8157
903.328	8073
903.446	8062
903.565	8043
903.683	8119
903.801	8046
903.919	8157
904.038	8100
904.156	8012
904.274	8145
904.392	8012
904.51	8031
904.627	8016
904.745	8073
904.863	8073
904.981	7890
905.098	7864
905.216	7871
905.334	7871
905.451	7951
905.569	7845
905.686	7898
905.803	7909
905.921	7769
906.038	7849
906.155	7849
906.272	7700
906.389	7677
906.506	7586
906.623	7620
906.74	7651
906.857	7563
906.974	7556
907.091	7632
907.208	7715
907.324	7597
907.441	7548
907.557	7480
907.674	7445
907.79	7392
907.907	7373
908.023	7487
908.139	7403
908.256	7365
908.372	7388
908.488	7384
908.604	7217
908.72	7209
908.836	7266
908.952	7255
909.068	7198
909.184	7247
909.3	7255
909.415	7305
909.531	7221
909.647	7137
909.762	7110
909.878	7133
909.993	7133
910.108	7160
910.224	7046
910.339	7034
910.454	7084
910.57	7004
910.685	6993
910.8	7168
910.915	7103
911.03	6951
911.145	6871
911.259	6863
911.374	6867
911.489	6875
911.604	6757
911.718	6646
911.833	6730
911.947	6639
912.062	6601
912.176	6711
912.291	6715
912.405	6696
912.519	6871
912.633	6829
912.748	6707
912.862	6658
912.976	6601
913.09	6506
913.204	6570
913.318	6616
913.431	6703
913.545	6669
913.659	6719
913.772	6639
913.886	6521
914	6551
914.113	6604
914.226	6620
914.34	6627
914.453	6475
914.566	6578
914.68	6509
914.793	6486
914.906	6448
915.019	6429
915.132	6338
915.245	6410
915.358	6422
915.47	6448
915.583	6460
915.696	6464
915.809	6471
915.921	6509
916.034	6448
916.146	6361
916.259	6437
916.371	6452
916.483	6475
916.595	6384
916.708	6372
916.82	6384
916.932	6357
917.044	6380
917.156	6365
917.268	6289
917.38	6308
917.491	6304
917.603	6372
917.715	6407
917.826	6380
917.938	6327
918.049	6235
918.161	6251
918.272	6403
918.384	6384
918.495	6357
918.606	6285
918.717	6239
918.828	6262
918.939	6334
919.05	6205
919.161	6266
919.272	6053
919.383	6235
919.494	6247
919.604	6422
919.715	6273
919.826	6186
919.936	6209
920.047	6296
920.157	6209
920.267	6456
920.378	6285
920.488	6285
920.598	6437
920.708	6544
920.818	6422
920.928	6475
921.038	6593
921.148	6570
921.258	6319
921.368	6220
921.477	6163
921.587	6205
921.697	6019
921.806	6178
921.916	6064
922.025	5954
922.134	5920
922.244	5897
922.353	5931
922.462	5817
922.571	5851
922.68	5718
922.789	5634
922.898	5691
923.007	5642
923.116	5722
923.224	5676
923.333	5672
923.442	5611
923.55	5532
923.659	5539
923.767	5649
923.876	5592
923.984	5577
924.092	5486
924.201	5520
924.309	5566
924.417	5566
924.525	5467
924.633	5505
924.741	6197
924.849	5368
924.956	5512
925.064	5303
925.172	5360
925.279	5311
925.387	5311
925.494	5303
925.602	5406
925.709	5368
925.816	5265
925.924	5326
926.031	5330
926.138	5288
926.245	5357
926.352	5212
926.459	5284
926.566	5299
926.673	5227
926.779	5121
926.886	5105
926.993	5064
927.099	4976
927.206	4949
927.312	4915
927.419	4991
927.525	5014
927.631	4961
927.737	4862
927.843	4843
927.95	4759
928.056	4778
928.162	4771
928.267	4820
928.373	5261
928.479	4877
928.585	4645
928.69	4778
928.796	4759
928.901	4675
929.007	4622
929.112	4687
929.218	4611
929.323	4615
929.428	4546
929.533	4592
929.638	4550
929.743	4550
929.848	4561
929.953	4500
930.058	4409
930.163	4329
930.267	4325
930.372	4402
930.477	4272
930.581	4447
930.685	4341
930.79	4238
930.894	4268
930.998	4268
931.103	4371
931.207	4131
931.311	4093
931.415	4036
931.519	3926
931.623	3930
