Data from glass_V78500241_2695.txt Node
Date: Wed Sep 01 19:33:10 CST 2021
User: usil
Spectrometer: V785-0024
Trigger mode: 0
Integration Time (sec): 4.000000E-1
Scans to average: 1
Nonlinearity correction enabled: false
Boxcar width: 0
Storing dark spectrum: false
XAxis mode: Wavelengths
Number of Pixels in Spectrum: 1024
>>>>>Begin Spectral Data<<<<<
801.071	3740
801.214	3785
801.356	3732
801.499	3724
801.641	3713
801.783	3785
801.926	3838
802.068	3827
802.211	3819
802.353	3896
802.496	3842
802.638	3804
802.78	3865
802.923	3930
803.065	3846
803.208	3861
803.35	3880
803.492	3896
803.635	3861
803.777	3854
803.919	3892
804.061	4109
804.204	3956
804.346	3888
804.488	3911
804.63	4044
804.773	3956
804.915	4002
805.057	4105
805.199	4048
805.341	4090
805.483	4120
805.626	4124
805.768	4109
805.91	4215
806.052	4181
806.194	4173
806.336	4314
806.478	4158
806.62	4173
806.762	4162
806.904	4215
807.046	4356
807.188	4215
807.33	4177
807.472	4188
807.614	4188
807.756	4223
807.898	4204
808.04	4227
808.182	4287
808.324	4295
808.465	4356
808.607	4459
808.749	4447
808.891	4428
809.033	4504
809.174	4383
809.316	4280
809.458	4173
809.6	4101
809.741	4135
809.883	4109
810.025	4204
810.166	4227
810.308	4219
810.45	4234
810.591	4204
810.733	4253
810.875	4462
811.016	4809
811.158	5098
811.299	5269
811.441	5269
811.582	5064
811.724	4687
811.865	4478
812.007	4440
812.148	4432
812.29	4443
812.431	4409
812.573	4383
812.714	4398
812.855	4424
812.997	4436
813.138	4440
813.279	4386
813.421	4379
813.562	4371
813.703	4287
813.845	4322
813.986	4249
814.127	4215
814.268	4234
814.41	4238
814.551	4272
814.692	4280
814.833	4196
814.974	4257
815.115	4306
815.256	4230
815.397	4207
815.539	4211
815.68	4147
815.821	4185
815.962	4341
816.103	4257
816.244	4230
816.385	4242
816.526	4306
816.666	4223
816.807	4124
816.948	4135
817.089	4169
817.23	4139
817.371	4021
817.512	4025
817.653	4093
817.793	4013
817.934	4055
818.075	4036
818.216	4040
818.356	4071
818.497	4002
818.638	3896
818.778	3888
818.919	3907
819.06	3850
819.2	3941
819.341	3823
819.481	3831
819.622	3911
819.762	4021
819.903	3918
820.043	3842
820.184	3808
820.324	3819
820.465	3880
820.605	3823
820.746	3896
820.886	3812
821.026	3953
821.167	3915
821.307	3956
821.447	3956
821.588	3934
821.728	3956
821.868	3945
822.008	3842
822.149	3873
822.289	3903
822.429	3778
822.569	3766
822.709	3781
822.849	3698
822.99	3701
823.13	3766
823.27	3781
823.41	3690
823.55	3698
823.69	3713
823.83	3728
823.97	3682
824.11	3576
824.25	3584
824.389	3648
824.529	3648
824.669	3591
824.809	3675
824.949	3747
825.089	3713
825.228	3694
825.368	3553
825.508	3568
825.648	3542
825.787	3557
825.927	3595
826.067	3557
826.206	3709
826.346	3766
826.485	3804
826.625	3857
826.765	3918
826.904	3846
827.044	3595
827.183	3519
827.323	3401
827.462	3439
827.601	3469
827.741	3431
827.88	3473
828.02	3340
828.159	3443
828.298	3466
828.437	3530
828.577	3435
828.716	3542
828.855	3507
828.994	3363
829.134	3317
829.273	3389
829.412	3336
829.551	3329
829.69	3355
829.829	3401
829.968	3492
830.107	3416
830.246	3424
830.385	3367
830.524	3351
830.663	3310
830.802	3253
830.941	3195
831.08	3188
831.219	3268
831.357	3275
831.496	3367
831.635	3237
831.774	3173
831.913	3192
832.051	3123
832.19	3146
832.329	3173
832.467	3097
832.606	3104
832.744	3138
832.883	3173
833.022	3203
833.16	3260
833.299	3332
833.437	3321
833.576	3355
833.714	3351
833.852	3416
833.991	3450
834.129	3488
834.267	3409
834.406	3382
834.544	3397
834.682	3409
834.821	3389
834.959	3561
835.097	3386
835.235	3485
835.373	3477
835.511	3488
835.65	3447
835.788	3466
835.926	3393
836.064	3389
836.202	3363
836.34	3568
836.478	3618
836.615	3515
836.753	3557
836.891	3660
837.029	3587
837.167	3572
837.305	3542
837.443	3549
837.58	3450
837.718	3610
837.856	3519
837.993	3519
838.131	3580
838.269	3572
838.406	3553
838.544	3576
838.681	3462
838.819	3428
838.956	3378
839.094	3374
839.231	3454
839.369	3519
839.506	3675
839.643	3644
839.781	3481
839.918	3473
840.055	3511
840.193	3542
840.33	3488
840.467	3564
840.604	3587
840.742	3785
840.879	3538
841.016	3534
841.153	3599
841.29	3751
841.427	3698
841.564	3675
841.701	3720
841.838	3698
841.975	3663
842.112	3686
842.249	3614
842.385	3591
842.522	3823
842.659	3671
842.796	3625
842.933	3694
843.069	3656
843.206	3682
843.343	3797
843.479	3755
843.616	3770
843.752	3675
843.889	3652
844.025	3804
844.162	3675
844.298	3876
844.435	3797
844.571	3781
844.708	3899
844.844	3968
844.98	4036
845.117	3994
845.253	3903
845.389	3865
845.525	3953
845.661	3991
845.798	3953
845.934	3998
846.07	3949
846.206	4074
846.342	4090
846.478	4097
846.614	3934
846.75	3892
846.886	3930
847.022	3983
847.158	3960
847.294	3991
847.429	4048
847.565	3983
847.701	4249
847.837	3884
847.972	3808
848.108	3979
848.244	3975
848.379	3896
848.515	3831
848.65	3819
848.786	3781
848.921	3850
849.057	3903
849.192	3915
849.328	3915
849.463	3949
849.598	3903
849.734	3899
849.869	3827
850.004	3781
850.14	3759
850.275	3785
850.41	3698
850.545	3759
850.68	3797
850.815	3762
850.95	3766
851.085	3888
851.22	3892
851.355	3785
851.49	3800
851.625	3781
851.76	3785
851.895	3717
852.03	3694
852.165	3762
852.299	3865
852.434	3915
852.569	3876
852.703	3865
852.838	3949
852.973	3956
853.107	3960
853.242	3865
853.376	3869
853.511	3785
853.645	3816
853.78	3953
853.914	3915
854.048	3846
854.183	3838
854.317	3941
854.451	4032
854.585	3983
854.72	3975
854.854	4036
854.988	3899
855.122	3979
855.256	3934
855.39	4013
855.524	4071
855.658	4074
855.792	4105
855.926	4116
856.06	4154
856.194	4188
856.327	4139
856.461	4154
856.595	4109
856.729	4173
856.862	4242
856.996	4246
857.13	4280
857.263	4295
857.397	4360
857.53	4249
857.664	4322
857.797	4405
857.931	4383
858.064	4367
858.197	4405
858.331	4390
858.464	4333
858.597	4329
858.731	4409
858.864	4421
858.997	4474
859.13	4554
859.263	4493
859.396	4561
859.529	4512
859.662	4535
859.795	4554
859.928	4573
860.061	4672
860.194	4717
860.327	4637
860.46	4599
860.592	4740
860.725	4809
860.858	4755
860.99	4687
861.123	4710
861.256	4672
861.388	4755
861.521	5277
861.653	4691
861.786	4672
861.918	4691
862.05	4793
862.183	4816
862.315	4862
862.447	5006
862.58	4896
862.712	4820
862.844	4740
862.976	4850
863.108	4847
863.24	5204
863.372	4824
863.504	4873
863.636	4831
863.768	4972
863.9	4919
864.032	4919
864.164	4946
864.296	4995
864.428	5079
864.559	5098
864.691	5075
864.823	5117
864.954	5143
865.086	5113
865.217	5090
865.349	5052
865.48	5109
865.612	5227
865.743	5318
865.875	5151
866.006	5193
866.137	5239
866.269	5235
866.4	5242
866.531	5258
866.662	5220
866.793	5280
866.924	5265
867.055	5284
867.186	5315
867.317	5296
867.448	5277
867.579	5318
867.71	5364
867.841	5360
867.972	5471
868.103	5471
868.233	5482
868.364	5467
868.495	5505
868.625	5646
868.756	5771
868.886	5684
869.017	5722
869.147	5805
869.278	5828
869.408	5802
869.539	5832
869.669	5878
869.799	5935
869.929	5844
870.06	6011
870.19	6163
870.32	6186
870.45	6243
870.58	6300
870.71	6399
870.84	6399
870.97	6410
871.1	6426
871.23	6620
871.36	6642
871.489	6719
871.619	6658
871.749	6814
871.879	6859
872.008	6939
872.138	6920
872.267	7053
872.397	6939
872.526	7004
872.656	7164
872.785	7221
872.915	7365
873.044	7453
873.173	7563
873.303	7601
873.432	7750
873.561	7860
873.69	7875
873.819	8024
873.948	8123
874.077	8240
874.206	8290
874.335	8457
874.464	8629
874.593	8842
874.722	8910
874.851	9074
874.979	9195
875.108	9321
875.237	9424
875.365	9477
875.494	9644
875.623	9785
875.751	9808
875.88	9979
876.008	10166
876.136	10306
876.265	10500
876.393	10698
876.521	10755
876.65	10767
876.778	10843
876.906	10930
877.034	11029
877.162	11124
877.29	11117
877.418	11280
877.546	11353
877.674	11436
877.802	11535
877.93	11570
878.058	11630
878.185	11623
878.313	11688
878.441	11805
878.568	11783
878.696	11813
878.824	11847
878.951	11878
879.079	11977
879.206	12091
879.333	12049
879.461	11996
879.588	12102
879.715	12045
879.842	12220
879.97	12022
880.097	11946
880.224	11802
880.351	11813
880.478	11904
880.605	11870
880.732	11775
880.859	12007
880.986	11786
881.112	11866
881.239	11680
881.366	11630
881.493	11573
881.619	11509
881.746	11547
881.872	11543
881.999	11452
882.125	11478
882.252	11493
882.378	11395
882.505	11596
882.631	11311
882.757	11246
882.883	11318
883.01	11261
883.136	11094
883.262	11178
883.388	11079
883.514	11140
883.64	11162
883.766	11181
883.892	11025
884.018	10999
884.143	11045
884.269	11022
884.395	10797
884.52	10824
884.646	10793
884.772	10710
884.897	10603
885.023	10691
885.148	10725
885.274	10869
885.399	10645
885.524	10679
885.65	10577
885.775	10592
885.9	10550
886.025	10611
886.15	10569
886.275	10405
886.4	10333
886.525	10421
886.65	10363
886.775	10356
886.9	10497
887.025	10459
887.149	10367
887.274	10219
887.399	10177
887.523	10196
887.648	10166
887.773	10048
887.897	10291
888.021	10211
888.146	10139
888.27	10154
888.395	10257
888.519	10173
888.643	10150
888.767	10227
888.891	10055
889.015	9991
889.139	10025
889.263	9945
889.387	10032
889.511	10124
889.635	10040
889.759	9949
889.883	9953
890.006	9899
890.13	10002
890.254	9960
890.377	9956
890.501	9842
890.624	9755
890.748	9876
890.871	9857
890.995	9804
891.118	9724
891.241	9789
891.364	9747
891.488	9846
891.611	9705
891.734	9797
891.857	9770
891.98	9671
892.103	9720
892.226	9747
892.349	9652
892.471	9428
892.594	9515
892.717	9614
892.839	9557
892.962	9606
893.085	9652
893.207	9580
893.33	9530
893.452	9481
893.575	9576
893.697	9477
893.819	9549
893.941	9599
894.064	9614
894.186	9382
894.308	9363
894.43	9519
894.552	9587
894.674	9488
894.796	9397
894.918	9370
895.04	9355
895.161	9260
895.283	9294
895.405	9211
895.526	9321
895.648	9226
895.769	9157
895.891	9332
896.012	9294
896.134	9256
896.255	9161
896.376	9112
896.498	9119
896.619	9169
896.74	9081
896.861	9058
896.982	9230
897.103	9260
897.224	9195
897.345	9089
897.466	8963
897.587	9020
897.708	9097
897.828	9039
897.949	8944
898.07	8834
898.19	8899
898.311	8979
898.431	8921
898.552	8948
898.672	8948
898.792	9032
898.913	8872
899.033	8746
899.153	8746
899.273	8640
899.393	8724
899.513	8746
899.633	8716
899.753	8743
899.873	8708
899.993	8766
900.113	8735
900.232	8697
900.352	8571
900.472	8632
900.591	8492
900.711	8602
900.83	8507
900.95	8617
901.069	8697
901.189	8579
901.308	8339
901.427	8400
901.546	8457
901.665	8488
901.784	8552
901.904	8377
902.023	8294
902.141	8214
902.26	8221
902.379	8252
902.498	8225
902.617	8187
902.735	8252
902.854	8294
902.973	8320
903.091	8130
903.21	8183
903.328	8111
903.446	8126
903.565	8073
903.683	8111
903.801	8035
903.919	8149
904.038	8069
904.156	8046
904.274	8035
904.392	8058
904.51	8008
904.627	7921
904.745	8111
904.863	8119
904.981	7921
905.098	7879
905.216	7814
905.334	7868
905.451	7883
905.569	7833
905.686	7936
905.803	7871
905.921	7792
906.038	7818
906.155	7807
906.272	7651
906.389	7708
906.506	7655
906.623	7609
906.74	7605
906.857	7457
906.974	7563
907.091	7639
907.208	7632
907.324	7723
907.441	7559
907.557	7411
907.674	7411
907.79	7430
907.907	7411
908.023	7468
908.139	7441
908.256	7384
908.372	7285
908.488	7362
908.604	7263
908.72	7259
908.836	7228
908.952	7255
909.068	7152
909.184	7308
909.3	7213
909.415	7316
909.531	7213
909.647	7088
909.762	7034
909.878	7145
909.993	7141
910.108	7122
910.224	7046
910.339	7072
910.454	7027
910.57	6981
910.685	6966
910.8	7149
910.915	7164
911.03	7046
911.145	6886
911.259	6932
911.374	6894
911.489	6772
911.604	6753
911.718	6726
911.833	6654
911.947	6669
912.062	6631
912.176	6639
912.291	6662
912.405	6757
912.519	6833
912.633	6749
912.748	6700
912.862	6669
912.976	6616
913.09	6521
913.204	6593
913.318	6620
913.431	6696
913.545	6654
913.659	6688
913.772	6662
913.886	6578
914	6566
914.113	6555
914.226	6582
914.34	6582
914.453	6475
914.566	6547
914.68	6513
914.793	6460
914.906	6399
915.019	6388
915.132	6323
915.245	6391
915.358	6452
915.47	6395
915.583	6486
915.696	6490
915.809	6570
915.921	6528
916.034	6418
916.146	6346
916.259	6380
916.371	6433
916.483	6388
916.595	6384
916.708	6403
916.82	6422
916.932	6353
917.044	6399
917.156	6426
917.268	6292
917.38	6376
917.491	6304
917.603	6247
917.715	6308
917.826	6452
917.938	6350
918.049	6224
918.161	6311
918.272	6384
918.384	6388
918.495	6346
918.606	6239
918.717	6194
918.828	6220
918.939	6224
919.05	6224
919.161	6319
919.272	6117
919.383	6136
919.494	6296
919.604	6422
919.715	6296
919.826	6220
919.936	6247
920.047	6254
920.157	6213
920.267	6464
920.378	6300
920.488	6273
920.598	6418
920.708	6532
920.818	6490
920.928	6414
921.038	6597
921.148	6623
921.258	6334
921.368	6308
921.477	6178
921.587	6163
921.697	6030
921.806	6194
921.916	6098
922.025	5931
922.134	5878
922.244	5832
922.353	5927
922.462	5870
922.571	5771
922.68	5699
922.789	5695
922.898	5691
923.007	5657
923.116	5665
923.224	5714
923.333	5657
923.442	5585
923.55	5497
923.659	5562
923.767	5638
923.876	5512
923.984	5592
924.092	5509
924.201	5501
924.309	5516
924.417	5505
924.525	5524
924.633	5440
924.741	6270
924.849	5273
924.956	5452
925.064	5292
925.172	5223
925.279	5296
925.387	5353
925.494	5311
925.602	5417
925.709	5395
925.816	5288
925.924	5311
926.031	5277
926.138	5250
926.245	5353
926.352	5223
926.459	5315
926.566	5280
926.673	5193
926.779	5098
926.886	5105
926.993	4999
927.099	4999
927.206	4953
927.312	4942
927.419	5079
927.525	4953
927.631	4984
927.737	4889
927.843	4843
927.95	4729
928.056	4790
928.162	4854
928.267	4839
928.373	5261
928.479	4858
928.585	4653
928.69	4774
928.796	4786
928.901	4656
929.007	4618
929.112	4653
929.218	4618
929.323	4626
929.428	4542
929.533	4561
929.638	4508
929.743	4523
929.848	4561
929.953	4497
930.058	4459
930.163	4284
930.267	4306
930.372	4417
930.477	4303
930.581	4466
930.685	4341
930.79	4207
930.894	4295
930.998	4196
931.103	4360
931.207	4101
931.311	4051
931.415	4044
931.519	3899
931.623	3915
