Data from glass_V78500241_981.txt Node
Date: Wed Sep 01 19:21:18 CST 2021
User: usil
Spectrometer: V785-0024
Trigger mode: 0
Integration Time (sec): 4.000000E-1
Scans to average: 1
Nonlinearity correction enabled: false
Boxcar width: 0
Storing dark spectrum: false
XAxis mode: Wavelengths
Number of Pixels in Spectrum: 1024
>>>>>Begin Spectral Data<<<<<
801.071	3770
801.214	3740
801.356	3743
801.499	3732
801.641	3720
801.783	3774
801.926	3907
802.068	3808
802.211	3861
802.353	3911
802.496	3846
802.638	3865
802.78	3956
802.923	3949
803.065	3915
803.208	3842
803.35	3861
803.492	3892
803.635	3892
803.777	3793
803.919	3880
804.061	4139
804.204	3964
804.346	3991
804.488	3937
804.63	4036
804.773	4013
804.915	4044
805.057	4112
805.199	4032
805.341	4093
805.483	4158
805.626	4112
805.768	4150
805.91	4238
806.052	4253
806.194	4207
806.336	4344
806.478	4211
806.62	4204
806.762	4246
806.904	4272
807.046	4341
807.188	4242
807.33	4150
807.472	4234
807.614	4200
807.756	4234
807.898	4192
808.04	4234
808.182	4360
808.324	4344
808.465	4398
808.607	4512
808.749	4417
808.891	4516
809.033	4538
809.174	4409
809.316	4284
809.458	4257
809.6	4177
809.741	4150
809.883	4150
810.025	4234
810.166	4223
810.308	4238
810.45	4276
810.591	4249
810.733	4314
810.875	4519
811.016	4828
811.158	5201
811.299	5322
811.441	5277
811.582	5010
811.724	4721
811.865	4455
812.007	4459
812.148	4421
812.29	4398
812.431	4405
812.573	4386
812.714	4363
812.855	4409
812.997	4428
813.138	4497
813.279	4409
813.421	4363
813.562	4428
813.703	4329
813.845	4325
813.986	4246
814.127	4227
814.268	4253
814.41	4306
814.551	4268
814.692	4390
814.833	4284
814.974	4318
815.115	4310
815.256	4253
815.397	4257
815.539	4246
815.68	4230
815.821	4227
815.962	4341
816.103	4291
816.244	4249
816.385	4287
816.526	4276
816.666	4257
816.807	4131
816.948	4211
817.089	4185
817.23	4147
817.371	4059
817.512	4074
817.653	4135
817.793	4071
817.934	4048
818.075	4090
818.216	4074
818.356	4112
818.497	4010
818.638	3934
818.778	3922
818.919	3907
819.06	3876
819.2	3907
819.341	3903
819.481	3873
819.622	3930
819.762	4032
819.903	3979
820.043	3865
820.184	3835
820.324	3842
820.465	3903
820.605	3888
820.746	3861
820.886	3774
821.026	3922
821.167	3911
821.307	3983
821.447	3987
821.588	3956
821.728	3915
821.868	3968
822.008	3857
822.149	3964
822.289	3926
822.429	3789
822.569	3812
822.709	3804
822.849	3755
822.99	3740
823.13	3774
823.27	3762
823.41	3740
823.55	3755
823.69	3762
823.83	3728
823.97	3701
824.11	3622
824.25	3591
824.389	3633
824.529	3740
824.669	3614
824.809	3717
824.949	3740
825.089	3751
825.228	3751
825.368	3584
825.508	3622
825.648	3587
825.787	3599
825.927	3633
826.067	3614
826.206	3663
826.346	3800
826.485	3842
826.625	3888
826.765	3949
826.904	3838
827.044	3557
827.183	3519
827.323	3435
827.462	3500
827.601	3485
827.741	3450
827.88	3488
828.02	3397
828.159	3447
828.298	3485
828.437	3553
828.577	3504
828.716	3637
828.855	3519
828.994	3386
829.134	3412
829.273	3401
829.412	3378
829.551	3313
829.69	3389
829.829	3462
829.968	3496
830.107	3431
830.246	3462
830.385	3374
830.524	3370
830.663	3348
830.802	3214
830.941	3222
831.08	3256
831.219	3275
831.357	3275
831.496	3409
831.635	3218
831.774	3214
831.913	3214
832.051	3150
832.19	3173
832.329	3192
832.467	3119
832.606	3142
832.744	3214
832.883	3173
833.022	3192
833.16	3287
833.299	3294
833.437	3336
833.576	3367
833.714	3458
833.852	3424
833.991	3435
834.129	3488
834.267	3469
834.406	3424
834.544	3428
834.682	3428
834.821	3477
834.959	3549
835.097	3409
835.235	3568
835.373	3488
835.511	3488
835.65	3439
835.788	3504
835.926	3397
836.064	3401
836.202	3420
836.34	3545
836.478	3622
836.615	3549
836.753	3610
836.891	3625
837.029	3599
837.167	3610
837.305	3587
837.443	3557
837.58	3519
837.718	3637
837.856	3557
837.993	3538
838.131	3564
838.269	3606
838.406	3557
838.544	3572
838.681	3553
838.819	3450
838.956	3382
839.094	3359
839.231	3458
839.369	3538
839.506	3740
839.643	3671
839.781	3504
839.918	3492
840.055	3534
840.193	3572
840.33	3542
840.467	3572
840.604	3648
840.742	3804
840.879	3530
841.016	3572
841.153	3591
841.29	3819
841.427	3720
841.564	3762
841.701	3743
841.838	3732
841.975	3698
842.112	3736
842.249	3637
842.385	3637
842.522	3842
842.659	3705
842.796	3705
842.933	3728
843.069	3713
843.206	3728
843.343	3804
843.479	3766
843.616	3831
843.752	3633
843.889	3682
844.025	3846
844.162	3694
844.298	3819
844.435	3819
844.571	3808
844.708	3880
844.844	4029
844.98	4013
845.117	4010
845.253	3945
845.389	3918
845.525	3964
845.661	3983
845.798	3998
845.934	4051
846.07	3934
846.206	4086
846.342	4135
846.478	4036
846.614	3987
846.75	3953
846.886	3915
847.022	4036
847.158	4040
847.294	4040
847.429	4032
847.565	4013
847.701	4246
847.837	3888
847.972	3857
848.108	3964
848.244	3956
848.379	3854
848.515	3816
848.65	3762
848.786	3884
848.921	3865
849.057	3922
849.192	3972
849.328	3915
849.463	3930
849.598	3907
849.734	3857
849.869	3861
850.004	3816
850.14	3812
850.275	3793
850.41	3736
850.545	3755
850.68	3835
850.815	3835
850.95	3804
851.085	3907
851.22	3854
851.355	3846
851.49	3770
851.625	3812
851.76	3774
851.895	3759
852.03	3751
852.165	3838
852.299	3892
852.434	3937
852.569	3865
852.703	3934
852.838	3911
852.973	4017
853.107	3972
853.242	3880
853.376	3876
853.511	3785
853.645	3907
853.78	3998
853.914	3896
854.048	3876
854.183	3865
854.317	3956
854.451	4067
854.585	3937
854.72	3937
854.854	4055
854.988	3892
855.122	3987
855.256	3949
855.39	4017
855.524	4105
855.658	4074
855.792	4139
855.926	4177
856.06	4177
856.194	4230
856.327	4147
856.461	4093
856.595	4169
856.729	4211
856.862	4272
856.996	4246
857.13	4344
857.263	4329
857.397	4360
857.53	4310
857.664	4348
857.797	4417
857.931	4402
858.064	4360
858.197	4455
858.331	4421
858.464	4405
858.597	4383
858.731	4440
858.864	4436
858.997	4447
859.13	4504
859.263	4554
859.396	4641
859.529	4523
859.662	4550
859.795	4535
859.928	4569
860.061	4717
860.194	4752
860.327	4630
860.46	4630
860.592	4733
860.725	4793
860.858	4767
860.99	4736
861.123	4721
861.256	4771
861.388	4801
861.521	5539
861.653	4714
861.786	4767
861.918	4729
862.05	4790
862.183	4771
862.315	4881
862.447	4957
862.58	4889
862.712	4820
862.844	4790
862.976	4927
863.108	4896
863.24	5216
863.372	4805
863.504	4904
863.636	4908
863.768	4999
863.9	4991
864.032	4984
864.164	4930
864.296	4995
864.428	5098
864.559	5075
864.691	5140
864.823	5136
864.954	5136
865.086	5136
865.217	5136
865.349	5147
865.48	5124
865.612	5235
865.743	5269
865.875	5242
866.006	5185
866.137	5273
866.269	5307
866.4	5265
866.531	5220
866.662	5250
866.793	5269
866.924	5273
867.055	5322
867.186	5368
867.317	5360
867.448	5334
867.579	5421
867.71	5398
867.841	5379
867.972	5444
868.103	5478
868.233	5482
868.364	5501
868.495	5547
868.625	5665
868.756	5775
868.886	5657
869.017	5729
869.147	5859
869.278	5885
869.408	5821
869.539	5805
869.669	5942
869.799	5931
869.929	5961
870.06	5984
870.19	6194
870.32	6144
870.45	6224
870.58	6357
870.71	6433
870.84	6464
870.97	6429
871.1	6414
871.23	6639
871.36	6688
871.489	6741
871.619	6696
871.749	6818
871.879	6871
872.008	6939
872.138	6989
872.267	6981
872.397	7027
872.526	7034
872.656	7171
872.785	7160
872.915	7369
873.044	7529
873.173	7578
873.303	7639
873.432	7757
873.561	7890
873.69	7936
873.819	7963
873.948	8164
874.077	8290
874.206	8366
874.335	8492
874.464	8689
874.593	8906
874.722	8902
874.851	9097
874.979	9264
875.108	9431
875.237	9416
875.365	9519
875.494	9709
875.623	9816
875.751	9850
875.88	10093
876.008	10238
876.136	10299
876.265	10489
876.393	10694
876.521	10717
876.65	10786
876.778	10790
876.906	10847
877.034	10927
877.162	11193
877.29	11166
877.418	11235
877.546	11337
877.674	11448
877.802	11493
877.93	11497
878.058	11600
878.185	11577
878.313	11653
878.441	11703
878.568	11752
878.696	11843
878.824	11840
878.951	11897
879.079	11961
879.206	12091
879.333	12068
879.461	12007
879.588	12106
879.715	12178
879.842	12273
879.97	12064
880.097	11851
880.224	11870
880.351	11885
880.478	11942
880.605	11908
880.732	11870
880.859	12015
880.986	11843
881.112	11843
881.239	11771
881.366	11676
881.493	11646
881.619	11566
881.746	11532
881.872	11429
881.999	11581
882.125	11505
882.252	11558
882.378	11429
882.505	11558
882.631	11379
882.757	11235
882.883	11284
883.01	11284
883.136	11220
883.262	11132
883.388	11067
883.514	11201
883.64	11124
883.766	11174
883.892	10999
884.018	10927
884.143	11086
884.269	11113
884.395	10850
884.52	10793
884.646	10892
884.772	10831
884.897	10763
885.023	10702
885.148	10687
885.274	10763
885.399	10675
885.524	10733
885.65	10618
885.775	10611
885.9	10611
886.025	10607
886.15	10516
886.275	10577
886.4	10371
886.525	10382
886.65	10371
886.775	10322
886.9	10497
887.025	10584
887.149	10386
887.274	10204
887.399	10219
887.523	10143
887.648	10219
887.773	10188
887.897	10318
888.021	10246
888.146	10128
888.27	10268
888.395	10196
888.519	10154
888.643	10135
888.767	10185
888.891	10128
889.015	10067
889.139	10166
889.263	9956
889.387	10112
889.511	10086
889.635	10097
889.759	10017
889.883	9956
890.006	10017
890.13	10101
890.254	10021
890.377	9983
890.501	9835
890.624	9846
890.748	9918
890.871	9823
890.995	9701
891.118	9720
891.241	9736
891.364	9694
891.488	9876
891.611	9755
891.734	9789
891.857	9732
891.98	9724
892.103	9789
892.226	9690
892.349	9656
892.471	9523
892.594	9633
892.717	9652
892.839	9599
892.962	9713
893.085	9568
893.207	9572
893.33	9462
893.452	9610
893.575	9618
893.697	9523
893.819	9648
893.941	9648
894.064	9705
894.186	9424
894.308	9450
894.43	9568
894.552	9587
894.674	9447
894.796	9401
894.918	9424
895.04	9359
895.161	9355
895.283	9378
895.405	9245
895.526	9336
895.648	9233
895.769	9226
895.891	9294
896.012	9294
896.134	9260
896.255	9226
896.376	9146
896.498	9195
896.619	9131
896.74	9051
896.861	9131
896.982	9218
897.103	9317
897.224	9222
897.345	9070
897.466	9020
897.587	9058
897.708	9055
897.828	9100
897.949	9039
898.07	8918
898.19	8861
898.311	9036
898.431	8952
898.552	8982
898.672	8921
898.792	8960
898.913	8861
899.033	8819
899.153	8750
899.273	8663
899.393	8655
899.513	8769
899.633	8800
899.753	8739
899.873	8621
899.993	8758
900.113	8750
900.232	8785
900.352	8670
900.472	8697
900.591	8552
900.711	8682
900.83	8514
900.95	8712
901.069	8766
901.189	8556
901.308	8415
901.427	8355
901.546	8461
901.665	8495
901.784	8492
901.904	8431
902.023	8320
902.141	8263
902.26	8218
902.379	8267
902.498	8252
902.617	8279
902.735	8396
902.854	8298
902.973	8279
903.091	8069
903.21	8161
903.328	8183
903.446	8206
903.565	8100
903.683	8084
903.801	8016
903.919	8191
904.038	8176
904.156	8088
904.274	8111
904.392	8081
904.51	8005
904.627	8069
904.745	8096
904.863	8077
904.981	7940
905.098	7894
905.216	7883
905.334	7845
905.451	7898
905.569	7921
905.686	8008
905.803	7928
905.921	7772
906.038	7917
906.155	7833
906.272	7719
906.389	7700
906.506	7666
906.623	7639
906.74	7628
906.857	7567
906.974	7639
907.091	7693
907.208	7757
907.324	7689
907.441	7510
907.557	7495
907.674	7396
907.79	7411
907.907	7464
908.023	7483
908.139	7457
908.256	7419
908.372	7358
908.488	7346
908.604	7278
908.72	7190
908.836	7259
908.952	7343
909.068	7236
909.184	7419
909.3	7228
909.415	7251
909.531	7301
909.647	7187
909.762	7095
909.878	7171
909.993	7145
910.108	7110
910.224	7031
910.339	7099
910.454	7061
910.57	7027
910.685	7027
910.8	7126
910.915	7126
911.03	7031
911.145	6913
911.259	6920
911.374	6935
911.489	6848
911.604	6810
911.718	6734
911.833	6776
911.947	6642
912.062	6650
912.176	6749
912.291	6703
912.405	6738
912.519	6844
912.633	6833
912.748	6779
912.862	6726
912.976	6574
913.09	6544
913.204	6623
913.318	6627
913.431	6688
913.545	6719
913.659	6738
913.772	6677
913.886	6593
914	6608
914.113	6669
914.226	6677
914.34	6601
914.453	6475
914.566	6597
914.68	6566
914.793	6540
914.906	6429
915.019	6460
915.132	6353
915.245	6403
915.358	6471
915.47	6433
915.583	6456
915.696	6445
915.809	6525
915.921	6551
916.034	6441
916.146	6422
916.259	6388
916.371	6448
916.483	6441
916.595	6391
916.708	6410
916.82	6353
916.932	6441
917.044	6372
917.156	6422
917.268	6289
917.38	6384
917.491	6296
917.603	6342
917.715	6452
917.826	6429
917.938	6331
918.049	6251
918.161	6391
918.272	6441
918.384	6448
918.495	6365
918.606	6235
918.717	6273
918.828	6308
918.939	6281
919.05	6205
919.161	6300
919.272	6133
919.383	6129
919.494	6262
919.604	6467
919.715	6266
919.826	6232
919.936	6266
920.047	6395
920.157	6270
920.267	6433
920.378	6319
920.488	6338
920.598	6494
920.708	6593
920.818	6498
920.928	6452
921.038	6585
921.148	6593
921.258	6372
921.368	6258
921.477	6243
921.587	6228
921.697	6110
921.806	6209
921.916	6117
922.025	5992
922.134	5927
922.244	5836
922.353	5939
922.462	5836
922.571	5840
922.68	5699
922.789	5718
922.898	5710
923.007	5676
923.116	5676
923.224	5688
923.333	5668
923.442	5623
923.55	5558
923.659	5562
923.767	5665
923.876	5577
923.984	5600
924.092	5486
924.201	5570
924.309	5562
924.417	5585
924.525	5493
924.633	5554
924.741	6117
924.849	5398
924.956	5509
925.064	5341
925.172	5307
925.279	5254
925.387	5402
925.494	5383
925.602	5467
925.709	5368
925.816	5299
925.924	5349
926.031	5353
926.138	5341
926.245	5341
926.352	5258
926.459	5315
926.566	5341
926.673	5204
926.779	5155
926.886	5136
926.993	5083
927.099	5022
927.206	4949
927.312	4965
927.419	5064
927.525	4995
927.631	4949
927.737	4889
927.843	4885
927.95	4767
928.056	4839
928.162	4824
928.267	4854
928.373	5376
928.479	4862
928.585	4725
928.69	4797
928.796	4847
928.901	4797
929.007	4603
929.112	4702
929.218	4672
929.323	4645
929.428	4580
929.533	4679
929.638	4516
929.743	4504
929.848	4558
929.953	4493
930.058	4470
930.163	4341
930.267	4344
930.372	4470
930.477	4284
930.581	4478
930.685	4375
930.79	4261
930.894	4268
930.998	4299
931.103	4383
931.207	4177
931.311	4051
931.415	4074
931.519	3964
931.623	3960
