Data from glass_V78500241_1382.txt Node
Date: Wed Sep 01 19:24:04 CST 2021
User: usil
Spectrometer: V785-0024
Trigger mode: 0
Integration Time (sec): 4.000000E-1
Scans to average: 1
Nonlinearity correction enabled: false
Boxcar width: 0
Storing dark spectrum: false
XAxis mode: Wavelengths
Number of Pixels in Spectrum: 1024
>>>>>Begin Spectral Data<<<<<
801.071	3705
801.214	3751
801.356	3728
801.499	3732
801.641	3762
801.783	3743
801.926	3850
802.068	3835
802.211	3846
802.353	3937
802.496	3850
802.638	3899
802.78	3911
802.923	3937
803.065	3888
803.208	3827
803.35	3903
803.492	3880
803.635	3911
803.777	3846
803.919	3876
804.061	4227
804.204	3972
804.346	3987
804.488	3941
804.63	4036
804.773	3972
804.915	3998
805.057	4116
805.199	4032
805.341	4143
805.483	4162
805.626	4154
805.768	4120
805.91	4219
806.052	4246
806.194	4192
806.336	4310
806.478	4261
806.62	4185
806.762	4204
806.904	4272
807.046	4333
807.188	4219
807.33	4196
807.472	4268
807.614	4196
807.756	4272
807.898	4219
808.04	4181
808.182	4272
808.324	4322
808.465	4405
808.607	4462
808.749	4455
808.891	4447
809.033	4516
809.174	4470
809.316	4234
809.458	4234
809.6	4196
809.741	4173
809.883	4128
810.025	4188
810.166	4238
810.308	4284
810.45	4219
810.591	4280
810.733	4299
810.875	4504
811.016	4824
811.158	5181
811.299	5258
811.441	5250
811.582	5056
811.724	4721
811.865	4466
812.007	4447
812.148	4478
812.29	4413
812.431	4424
812.573	4394
812.714	4371
812.855	4402
812.997	4405
813.138	4451
813.279	4421
813.421	4417
813.562	4375
813.703	4367
813.845	4322
813.986	4215
814.127	4223
814.268	4299
814.41	4291
814.551	4272
814.692	4363
814.833	4261
814.974	4329
815.115	4341
815.256	4257
815.397	4246
815.539	4249
815.68	4196
815.821	4230
815.962	4325
816.103	4295
816.244	4204
816.385	4223
816.526	4265
816.666	4211
816.807	4097
816.948	4215
817.089	4150
817.23	4154
817.371	4051
817.512	4040
817.653	4112
817.793	4063
817.934	4067
818.075	4071
818.216	4105
818.356	4063
818.497	4017
818.638	3953
818.778	3911
818.919	3884
819.06	3911
819.2	3941
819.341	3888
819.481	3831
819.622	3896
819.762	4013
819.903	3964
820.043	3831
820.184	3846
820.324	3823
820.465	3854
820.605	3880
820.746	3857
820.886	3800
821.026	3918
821.167	3953
821.307	3960
821.447	3975
821.588	3956
821.728	3953
821.868	3922
822.008	3873
822.149	3941
822.289	3903
822.429	3812
822.569	3762
822.709	3793
822.849	3698
822.99	3759
823.13	3743
823.27	3785
823.41	3724
823.55	3759
823.69	3724
823.83	3770
823.97	3682
824.11	3599
824.25	3568
824.389	3656
824.529	3667
824.669	3648
824.809	3743
824.949	3759
825.089	3766
825.228	3724
825.368	3576
825.508	3587
825.648	3595
825.787	3603
825.927	3633
826.067	3584
826.206	3671
826.346	3835
826.485	3842
826.625	3846
826.765	3926
826.904	3785
827.044	3587
827.183	3545
827.323	3431
827.462	3485
827.601	3435
827.741	3447
827.88	3477
828.02	3397
828.159	3428
828.298	3492
828.437	3553
828.577	3481
828.716	3622
828.855	3530
828.994	3336
829.134	3374
829.273	3393
829.412	3359
829.551	3363
829.69	3363
829.829	3420
829.968	3523
830.107	3401
830.246	3439
830.385	3355
830.524	3306
830.663	3294
830.802	3272
830.941	3199
831.08	3207
831.219	3241
831.357	3268
831.496	3439
831.635	3226
831.774	3184
831.913	3218
832.051	3161
832.19	3188
832.329	3195
832.467	3173
832.606	3142
832.744	3180
832.883	3146
833.022	3203
833.16	3222
833.299	3321
833.437	3298
833.576	3389
833.714	3389
833.852	3450
833.991	3466
834.129	3477
834.267	3435
834.406	3435
834.544	3439
834.682	3409
834.821	3454
834.959	3584
835.097	3420
835.235	3477
835.373	3469
835.511	3496
835.65	3507
835.788	3485
835.926	3409
836.064	3382
836.202	3424
836.34	3603
836.478	3606
836.615	3534
836.753	3610
836.891	3633
837.029	3625
837.167	3614
837.305	3519
837.443	3534
837.58	3485
837.718	3629
837.856	3564
837.993	3561
838.131	3637
838.269	3591
838.406	3606
838.544	3576
838.681	3477
838.819	3481
838.956	3386
839.094	3378
839.231	3435
839.369	3534
839.506	3781
839.643	3663
839.781	3447
839.918	3488
840.055	3545
840.193	3534
840.33	3542
840.467	3549
840.604	3618
840.742	3808
840.879	3545
841.016	3576
841.153	3629
841.29	3762
841.427	3743
841.564	3751
841.701	3728
841.838	3663
841.975	3690
842.112	3698
842.249	3618
842.385	3652
842.522	3793
842.659	3694
842.796	3705
842.933	3698
843.069	3720
843.206	3717
843.343	3842
843.479	3781
843.616	3846
843.752	3660
843.889	3690
844.025	3857
844.162	3709
844.298	3865
844.435	3808
844.571	3766
844.708	3899
844.844	3956
844.98	4017
845.117	3991
845.253	3899
845.389	3896
845.525	3975
845.661	3953
845.798	3930
845.934	4002
846.07	3953
846.206	4055
846.342	4135
846.478	4059
846.614	3994
846.75	3941
846.886	3903
847.022	4013
847.158	3960
847.294	3994
847.429	4021
847.565	4017
847.701	4268
847.837	3918
847.972	3888
848.108	3960
848.244	3960
848.379	3884
848.515	3838
848.65	3827
848.786	3857
848.921	3854
849.057	3945
849.192	3945
849.328	3922
849.463	3937
849.598	3892
849.734	3854
849.869	3816
850.004	3842
850.14	3842
850.275	3797
850.41	3717
850.545	3743
850.68	3778
850.815	3804
850.95	3808
851.085	3934
851.22	3896
851.355	3816
851.49	3819
851.625	3797
851.76	3793
851.895	3713
852.03	3762
852.165	3781
852.299	3842
852.434	3937
852.569	3869
852.703	3880
852.838	3937
852.973	3998
853.107	4017
853.242	3918
853.376	3876
853.511	3766
853.645	3797
853.78	3956
853.914	3873
854.048	3850
854.183	3873
854.317	3953
854.451	4025
854.585	3956
854.72	3884
854.854	4032
854.988	3922
855.122	4029
855.256	3915
855.39	4051
855.524	4135
855.658	4074
855.792	4158
855.926	4150
856.06	4131
856.194	4211
856.327	4177
856.461	4139
856.595	4135
856.729	4181
856.862	4291
856.996	4249
857.13	4280
857.263	4318
857.397	4363
857.53	4291
857.664	4383
857.797	4386
857.931	4440
858.064	4367
858.197	4489
858.331	4405
858.464	4383
858.597	4371
858.731	4421
858.864	4459
858.997	4459
859.13	4512
859.263	4577
859.396	4592
859.529	4538
859.662	4523
859.795	4470
859.928	4577
860.061	4702
860.194	4790
860.327	4660
860.46	4687
860.592	4805
860.725	4778
860.858	4748
860.99	4683
861.123	4729
861.256	4717
861.388	4771
861.521	5357
861.653	4748
861.786	4721
861.918	4752
862.05	4816
862.183	4854
862.315	4908
862.447	4965
862.58	4854
862.712	4843
862.844	4790
862.976	4900
863.108	4900
863.24	5155
863.372	4854
863.504	4938
863.636	4919
863.768	4949
863.9	4953
864.032	4953
864.164	4911
864.296	5018
864.428	5071
864.559	5098
864.691	5140
864.823	5113
864.954	5193
865.086	5155
865.217	5132
865.349	5132
865.48	5143
865.612	5208
865.743	5322
865.875	5185
866.006	5216
866.137	5212
866.269	5235
866.4	5239
866.531	5254
866.662	5227
866.793	5292
866.924	5258
867.055	5341
867.186	5318
867.317	5307
867.448	5280
867.579	5345
867.71	5349
867.841	5360
867.972	5433
868.103	5509
868.233	5459
868.364	5501
868.495	5543
868.625	5630
868.756	5779
868.886	5688
869.017	5710
869.147	5859
869.278	5927
869.408	5802
869.539	5824
869.669	5939
869.799	5874
869.929	5992
870.06	6057
870.19	6220
870.32	6194
870.45	6235
870.58	6365
870.71	6433
870.84	6452
870.97	6414
871.1	6486
871.23	6616
871.36	6726
871.489	6692
871.619	6696
871.749	6783
871.879	6833
872.008	7008
872.138	6966
872.267	7038
872.397	6989
872.526	7050
872.656	7031
872.785	7240
872.915	7396
873.044	7506
873.173	7533
873.303	7624
873.432	7719
873.561	7803
873.69	7967
873.819	8005
873.948	8145
874.077	8221
874.206	8381
874.335	8389
874.464	8659
874.593	8792
874.722	8910
874.851	9195
874.979	9222
875.108	9473
875.237	9466
875.365	9458
875.494	9717
875.623	9823
875.751	9800
875.88	9960
876.008	10192
876.136	10238
876.265	10455
876.393	10736
876.521	10736
876.65	10828
876.778	10900
876.906	10858
877.034	10953
877.162	11124
877.29	11151
877.418	11341
877.546	11315
877.674	11459
877.802	11528
877.93	11505
878.058	11577
878.185	11562
878.313	11653
878.441	11783
878.568	11756
878.696	11809
878.824	11893
878.951	11939
879.079	12007
879.206	12144
879.333	12102
879.461	12030
879.588	12106
879.715	12011
879.842	12186
879.97	12022
880.097	11942
880.224	11912
880.351	11920
880.478	11828
880.605	11889
880.732	11779
880.859	12049
880.986	11798
881.112	11836
881.239	11703
881.366	11714
881.493	11577
881.619	11551
881.746	11497
881.872	11509
881.999	11516
882.125	11467
882.252	11615
882.378	11440
882.505	11539
882.631	11353
882.757	11349
882.883	11353
883.01	11299
883.136	11246
883.262	11128
883.388	11052
883.514	11189
883.64	11109
883.766	11064
883.892	11022
884.018	11071
884.143	10968
884.269	11155
884.395	10908
884.52	10675
884.646	10752
884.772	10752
884.897	10641
885.023	10717
885.148	10771
885.274	10759
885.399	10668
885.524	10618
885.65	10565
885.775	10584
885.9	10527
886.025	10607
886.15	10550
886.275	10375
886.4	10424
886.525	10413
886.65	10371
886.775	10306
886.9	10527
887.025	10516
887.149	10421
887.274	10204
887.399	10177
887.523	10287
887.648	10169
887.773	10105
887.897	10261
888.021	10299
888.146	10200
888.27	10196
888.395	10219
888.519	10128
888.643	10162
888.767	10215
888.891	10067
889.015	10025
889.139	10017
889.263	9930
889.387	10101
889.511	10101
889.635	10086
889.759	10010
889.883	9956
890.006	10036
890.13	10078
890.254	9964
890.377	9911
890.501	9800
890.624	9876
890.748	9922
890.871	9762
890.995	9736
891.118	9682
891.241	9797
891.364	9686
891.488	9766
891.611	9793
891.734	9679
891.857	9778
891.98	9679
892.103	9800
892.226	9652
892.349	9652
892.471	9477
892.594	9580
892.717	9580
892.839	9644
892.962	9614
893.085	9622
893.207	9576
893.33	9504
893.452	9462
893.575	9591
893.697	9458
893.819	9633
893.941	9709
894.064	9625
894.186	9439
894.308	9374
894.43	9614
894.552	9580
894.674	9530
894.796	9412
894.918	9351
895.04	9351
895.161	9462
895.283	9401
895.405	9275
895.526	9298
895.648	9233
895.769	9256
895.891	9195
896.012	9294
896.134	9249
896.255	9135
896.376	9138
896.498	9146
896.619	9138
896.74	9146
896.861	9142
896.982	9226
897.103	9344
897.224	9169
897.345	9119
897.466	9058
897.587	9112
897.708	9138
897.828	9020
897.949	8967
898.07	8921
898.19	8948
898.311	9024
898.431	8929
898.552	8891
898.672	8941
898.792	8998
898.913	8960
899.033	8857
899.153	8781
899.273	8712
899.393	8701
899.513	8762
899.633	8811
899.753	8735
899.873	8727
899.993	8762
900.113	8686
900.232	8777
900.352	8663
900.472	8621
900.591	8526
900.711	8617
900.83	8625
900.95	8625
901.069	8655
901.189	8590
901.308	8507
901.427	8370
901.546	8400
901.665	8473
901.784	8473
901.904	8415
902.023	8374
902.141	8233
902.26	8183
902.379	8286
902.498	8214
902.617	8168
902.735	8317
902.854	8355
902.973	8214
903.091	8149
903.21	8183
903.328	8218
903.446	8164
903.565	8073
903.683	8065
903.801	8073
903.919	8138
904.038	8187
904.156	8077
904.274	8039
904.392	8134
904.51	8058
904.627	8008
904.745	8073
904.863	8138
904.981	7989
905.098	7906
905.216	7818
905.334	7864
905.451	7982
905.569	7913
905.686	7868
905.803	7917
905.921	7780
906.038	7928
906.155	7750
906.272	7757
906.389	7723
906.506	7693
906.623	7639
906.74	7590
906.857	7594
906.974	7605
907.091	7719
907.208	7753
907.324	7578
907.441	7597
907.557	7400
907.674	7499
907.79	7362
907.907	7403
908.023	7449
908.139	7441
908.256	7384
908.372	7369
908.488	7362
908.604	7228
908.72	7221
908.836	7232
908.952	7228
909.068	7244
909.184	7270
909.3	7236
909.415	7308
909.531	7274
909.647	7171
909.762	7149
909.878	7118
909.993	7065
910.108	7072
910.224	7076
910.339	7046
910.454	6985
910.57	7031
910.685	6943
910.8	7168
910.915	7088
911.03	7034
911.145	6939
911.259	6920
911.374	6878
911.489	6829
911.604	6802
911.718	6726
911.833	6722
911.947	6673
912.062	6635
912.176	6662
912.291	6707
912.405	6692
912.519	6806
912.633	6791
912.748	6711
912.862	6681
912.976	6597
913.09	6578
913.204	6574
913.318	6566
913.431	6631
913.545	6658
913.659	6684
913.772	6627
913.886	6620
914	6593
914.113	6627
914.226	6658
914.34	6597
914.453	6551
914.566	6612
914.68	6559
914.793	6486
914.906	6437
915.019	6350
915.132	6399
915.245	6391
915.358	6448
915.47	6414
915.583	6464
915.696	6475
915.809	6544
915.921	6521
916.034	6407
916.146	6422
916.259	6365
916.371	6460
916.483	6357
916.595	6407
916.708	6445
916.82	6399
916.932	6334
917.044	6380
917.156	6407
917.268	6300
917.38	6292
917.491	6311
917.603	6327
917.715	6376
917.826	6395
917.938	6308
918.049	6285
918.161	6391
918.272	6414
918.384	6422
918.495	6353
918.606	6266
918.717	6155
918.828	6205
918.939	6319
919.05	6194
919.161	6247
919.272	6102
919.383	6102
919.494	6323
919.604	6452
919.715	6251
919.826	6182
919.936	6235
920.047	6391
920.157	6331
920.267	6433
920.378	6353
920.488	6331
920.598	6467
920.708	6547
920.818	6471
920.928	6441
921.038	6608
921.148	6582
921.258	6399
921.368	6262
921.477	6262
921.587	6216
921.697	6125
921.806	6175
921.916	6117
922.025	5950
922.134	5946
922.244	5847
922.353	5969
922.462	5863
922.571	5813
922.68	5695
922.789	5699
922.898	5790
923.007	5638
923.116	5703
923.224	5646
923.333	5649
923.442	5573
923.55	5570
923.659	5551
923.767	5619
923.876	5592
923.984	5615
924.092	5493
924.201	5604
924.309	5532
924.417	5562
924.525	5467
924.633	5512
924.741	6258
924.849	5376
924.956	5478
925.064	5337
925.172	5395
925.279	5269
925.387	5406
925.494	5337
925.602	5421
925.709	5318
925.816	5284
925.924	5322
926.031	5372
926.138	5292
926.245	5315
926.352	5235
926.459	5345
926.566	5235
926.673	5231
926.779	5132
926.886	5105
926.993	5052
927.099	5006
927.206	5014
927.312	4972
927.419	5045
927.525	4991
927.631	4938
927.737	4881
927.843	4831
927.95	4782
928.056	4854
928.162	4854
928.267	4915
928.373	5227
928.479	4870
928.585	4721
928.69	4778
928.796	4793
928.901	4710
929.007	4622
929.112	4683
929.218	4656
929.323	4580
929.428	4615
929.533	4683
929.638	4493
929.743	4497
929.848	4489
929.953	4523
930.058	4394
930.163	4287
930.267	4379
930.372	4413
930.477	4318
930.581	4440
930.685	4360
930.79	4268
930.894	4284
930.998	4280
931.103	4386
931.207	4154
931.311	4040
931.415	4097
931.519	3903
931.623	3945
