Data from glass_V78500241_857.txt Node
Date: Wed Sep 01 19:20:26 CST 2021
User: usil
Spectrometer: V785-0024
Trigger mode: 0
Integration Time (sec): 4.000000E-1
Scans to average: 1
Nonlinearity correction enabled: false
Boxcar width: 0
Storing dark spectrum: false
XAxis mode: Wavelengths
Number of Pixels in Spectrum: 1024
>>>>>Begin Spectral Data<<<<<
801.071	3778
801.214	3774
801.356	3705
801.499	3740
801.641	3728
801.783	3808
801.926	3869
802.068	3819
802.211	3892
802.353	3926
802.496	3823
802.638	3934
802.78	3892
802.923	3968
803.065	3915
803.208	3899
803.35	3873
803.492	3915
803.635	3896
803.777	3808
803.919	3896
804.061	4169
804.204	3991
804.346	3983
804.488	3911
804.63	4025
804.773	3998
804.915	4032
805.057	4185
805.199	4006
805.341	4150
805.483	4166
805.626	4211
805.768	4143
805.91	4188
806.052	4257
806.194	4207
806.336	4379
806.478	4234
806.62	4177
806.762	4177
806.904	4310
807.046	4371
807.188	4211
807.33	4158
807.472	4246
807.614	4215
807.756	4249
807.898	4219
808.04	4249
808.182	4329
808.324	4322
808.465	4356
808.607	4421
808.749	4481
808.891	4516
809.033	4546
809.174	4402
809.316	4261
809.458	4242
809.6	4150
809.741	4188
809.883	4177
810.025	4249
810.166	4204
810.308	4230
810.45	4257
810.591	4280
810.733	4291
810.875	4504
811.016	4862
811.158	5132
811.299	5292
811.441	5292
811.582	5056
811.724	4714
811.865	4493
812.007	4531
812.148	4432
812.29	4440
812.431	4390
812.573	4409
812.714	4390
812.855	4405
812.997	4424
813.138	4508
813.279	4413
813.421	4447
813.562	4390
813.703	4310
813.845	4371
813.986	4265
814.127	4238
814.268	4253
814.41	4272
814.551	4268
814.692	4352
814.833	4303
814.974	4303
815.115	4348
815.256	4230
815.397	4234
815.539	4246
815.68	4219
815.821	4238
815.962	4314
816.103	4261
816.244	4276
816.385	4219
816.526	4268
816.666	4223
816.807	4116
816.948	4211
817.089	4166
817.23	4147
817.371	4093
817.512	4071
817.653	4078
817.793	4029
817.934	4082
818.075	4078
818.216	4048
818.356	4143
818.497	4029
818.638	3915
818.778	3918
818.919	3869
819.06	3854
819.2	3930
819.341	3846
819.481	3827
819.622	3934
819.762	4021
819.903	3972
820.043	3915
820.184	3827
820.324	3789
820.465	3892
820.605	3892
820.746	3934
820.886	3823
821.026	3934
821.167	3907
821.307	3968
821.447	3968
821.588	3998
821.728	3953
821.868	3945
822.008	3876
822.149	3972
822.289	3915
822.429	3835
822.569	3770
822.709	3823
822.849	3701
822.99	3736
823.13	3789
823.27	3755
823.41	3717
823.55	3747
823.69	3759
823.83	3770
823.97	3717
824.11	3663
824.25	3557
824.389	3637
824.529	3675
824.669	3656
824.809	3690
824.949	3747
825.089	3778
825.228	3701
825.368	3599
825.508	3580
825.648	3557
825.787	3576
825.927	3656
826.067	3629
826.206	3694
826.346	3804
826.485	3884
826.625	3899
826.765	3983
826.904	3819
827.044	3603
827.183	3538
827.323	3443
827.462	3530
827.601	3462
827.741	3450
827.88	3462
828.02	3355
828.159	3466
828.298	3507
828.437	3523
828.577	3469
828.716	3603
828.855	3507
828.994	3435
829.134	3378
829.273	3401
829.412	3336
829.551	3310
829.69	3344
829.829	3424
829.968	3523
830.107	3435
830.246	3443
830.385	3393
830.524	3389
830.663	3359
830.802	3260
830.941	3249
831.08	3207
831.219	3272
831.357	3287
831.496	3412
831.635	3241
831.774	3195
831.913	3188
832.051	3138
832.19	3184
832.329	3245
832.467	3188
832.606	3135
832.744	3184
832.883	3211
833.022	3188
833.16	3283
833.299	3344
833.437	3374
833.576	3389
833.714	3424
833.852	3458
833.991	3416
834.129	3500
834.267	3477
834.406	3412
834.544	3458
834.682	3473
834.821	3428
834.959	3561
835.097	3412
835.235	3519
835.373	3519
835.511	3500
835.65	3447
835.788	3469
835.926	3412
836.064	3389
836.202	3401
836.34	3591
836.478	3606
836.615	3542
836.753	3614
836.891	3629
837.029	3622
837.167	3599
837.305	3595
837.443	3557
837.58	3538
837.718	3660
837.856	3591
837.993	3557
838.131	3633
838.269	3587
838.406	3599
838.544	3599
838.681	3447
838.819	3481
838.956	3370
839.094	3393
839.231	3469
839.369	3557
839.506	3740
839.643	3633
839.781	3507
839.918	3466
840.055	3511
840.193	3557
840.33	3557
840.467	3545
840.604	3591
840.742	3816
840.879	3584
841.016	3591
841.153	3637
841.29	3755
841.427	3713
841.564	3743
841.701	3736
841.838	3713
841.975	3682
842.112	3694
842.249	3629
842.385	3656
842.522	3861
842.659	3755
842.796	3690
842.933	3743
843.069	3705
843.206	3728
843.343	3789
843.479	3781
843.616	3831
843.752	3675
843.889	3679
844.025	3850
844.162	3720
844.298	3861
844.435	3774
844.571	3808
844.708	3903
844.844	3956
844.98	4059
845.117	3994
845.253	3972
845.389	3892
845.525	3987
845.661	3987
845.798	3956
845.934	3991
846.07	3972
846.206	4063
846.342	4112
846.478	4101
846.614	3994
846.75	3949
846.886	3926
847.022	4055
847.158	3975
847.294	4029
847.429	4063
847.565	4006
847.701	4310
847.837	3892
847.972	3926
848.108	4002
848.244	3972
848.379	3865
848.515	3808
848.65	3850
848.786	3816
848.921	3911
849.057	3960
849.192	3918
849.328	3956
849.463	3964
849.598	3899
849.734	3831
849.869	3899
850.004	3808
850.14	3797
850.275	3819
850.41	3747
850.545	3740
850.68	3770
850.815	3816
850.95	3800
851.085	3994
851.22	3861
851.355	3857
851.49	3797
851.625	3804
851.76	3854
851.895	3759
852.03	3743
852.165	3804
852.299	3869
852.434	3861
852.569	3842
852.703	3926
852.838	3930
852.973	4010
853.107	4010
853.242	3926
853.376	3842
853.511	3789
853.645	3819
853.78	3972
853.914	3892
854.048	3911
854.183	3880
854.317	3949
854.451	4063
854.585	3911
854.72	3934
854.854	4055
854.988	3930
855.122	4021
855.256	3918
855.39	4029
855.524	4143
855.658	4048
855.792	4078
855.926	4169
856.06	4173
856.194	4196
856.327	4162
856.461	4128
856.595	4181
856.729	4196
856.862	4272
856.996	4249
857.13	4306
857.263	4291
857.397	4390
857.53	4257
857.664	4352
857.797	4402
857.931	4432
858.064	4451
858.197	4459
858.331	4402
858.464	4390
858.597	4352
858.731	4478
858.864	4504
858.997	4470
859.13	4500
859.263	4535
859.396	4580
859.529	4500
859.662	4611
859.795	4546
859.928	4641
860.061	4710
860.194	4801
860.327	4653
860.46	4679
860.592	4710
860.725	4831
860.858	4774
860.99	4725
861.123	4729
861.256	4698
861.388	4797
861.521	5414
861.653	4771
861.786	4759
861.918	4748
862.05	4835
862.183	4919
862.315	4873
862.447	4930
862.58	4866
862.712	4809
862.844	4771
862.976	4896
863.108	4885
863.24	5261
863.372	4904
863.504	4904
863.636	4877
863.768	4995
863.9	4980
864.032	4991
864.164	4968
864.296	5060
864.428	5140
864.559	5136
864.691	5204
864.823	5132
864.954	5075
865.086	5174
865.217	5124
865.349	5060
865.48	5181
865.612	5178
865.743	5318
865.875	5193
866.006	5223
866.137	5254
866.269	5212
866.4	5204
866.531	5250
866.662	5201
866.793	5258
866.924	5315
867.055	5334
867.186	5322
867.317	5357
867.448	5349
867.579	5395
867.71	5467
867.841	5376
867.972	5440
868.103	5478
868.233	5486
868.364	5467
868.495	5592
868.625	5672
868.756	5745
868.886	5691
869.017	5836
869.147	5878
869.278	5901
869.408	5794
869.539	5878
869.669	5870
869.799	5942
869.929	6015
870.06	5980
870.19	6228
870.32	6235
870.45	6216
870.58	6327
870.71	6422
870.84	6540
870.97	6460
871.1	6388
871.23	6684
871.36	6696
871.489	6669
871.619	6776
871.749	6818
871.879	6886
872.008	7019
872.138	6977
872.267	6920
872.397	6970
872.526	7053
872.656	7095
872.785	7126
872.915	7388
873.044	7525
873.173	7552
873.303	7674
873.432	7776
873.561	7909
873.69	7940
873.819	8088
873.948	8195
874.077	8195
874.206	8400
874.335	8434
874.464	8708
874.593	8830
874.722	8948
874.851	9157
874.979	9203
875.108	9393
875.237	9443
875.365	9488
875.494	9679
875.623	9850
875.751	9854
875.88	9918
876.008	10116
876.136	10284
876.265	10474
876.393	10759
876.521	10744
876.65	10843
876.778	10862
876.906	10972
877.034	11003
877.162	11140
877.29	11113
877.418	11292
877.546	11307
877.674	11398
877.802	11444
877.93	11543
878.058	11558
878.185	11551
878.313	11668
878.441	11672
878.568	11722
878.696	11783
878.824	11851
878.951	11916
879.079	12076
879.206	12121
879.333	12136
879.461	12041
879.588	12117
879.715	12106
879.842	12182
879.97	12079
880.097	11866
880.224	11863
880.351	11927
880.478	11889
880.605	11828
880.732	11809
880.859	11961
880.986	11790
881.112	11878
881.239	11745
881.366	11611
881.493	11653
881.619	11512
881.746	11512
881.872	11528
881.999	11524
882.125	11505
882.252	11611
882.378	11474
882.505	11459
882.631	11406
882.757	11292
882.883	11387
883.01	11269
883.136	11143
883.262	11121
883.388	11048
883.514	11178
883.64	11162
883.766	11223
883.892	10984
884.018	10984
884.143	11025
884.269	11155
884.395	10869
884.52	10793
884.646	10740
884.772	10656
884.897	10660
885.023	10725
885.148	10683
885.274	10889
885.399	10717
885.524	10615
885.65	10618
885.775	10683
885.9	10592
886.025	10630
886.15	10580
886.275	10459
886.4	10371
886.525	10428
886.65	10386
886.775	10333
886.9	10542
887.025	10554
887.149	10272
887.274	10169
887.399	10196
887.523	10188
887.648	10192
887.773	10120
887.897	10188
888.021	10348
888.146	10154
888.27	10227
888.395	10223
888.519	10295
888.643	10147
888.767	10188
888.891	10055
889.015	10002
889.139	10044
889.263	9968
889.387	10040
889.511	10086
889.635	10071
889.759	9991
889.883	9991
890.006	10032
890.13	10067
890.254	9895
890.377	9964
890.501	9876
890.624	9884
890.748	9934
890.871	9816
890.995	9709
891.118	9743
891.241	9751
891.364	9747
891.488	9808
891.611	9781
891.734	9766
891.857	9808
891.98	9720
892.103	9778
892.226	9762
892.349	9652
892.471	9580
892.594	9663
892.717	9595
892.839	9557
892.962	9614
893.085	9656
893.207	9610
893.33	9382
893.452	9538
893.575	9599
893.697	9496
893.819	9663
893.941	9603
894.064	9629
894.186	9515
894.308	9462
894.43	9542
894.552	9549
894.674	9515
894.796	9348
894.918	9367
895.04	9397
895.161	9462
895.283	9340
895.405	9275
895.526	9264
895.648	9321
895.769	9245
895.891	9230
896.012	9283
896.134	9260
896.255	9154
896.376	9150
896.498	9268
896.619	9199
896.74	9116
896.861	9058
896.982	9169
897.103	9351
897.224	9188
897.345	9097
897.466	8986
897.587	8963
897.708	9089
897.828	9020
897.949	8956
898.07	8883
898.19	8906
898.311	9070
898.431	8868
898.552	8944
898.672	8918
898.792	8899
898.913	8948
899.033	8785
899.153	8754
899.273	8667
899.393	8720
899.513	8792
899.633	8750
899.753	8762
899.873	8689
899.993	8727
900.113	8701
900.232	8716
900.352	8651
900.472	8686
900.591	8507
900.711	8549
900.83	8560
900.95	8697
901.069	8724
901.189	8518
901.308	8461
901.427	8385
901.546	8434
901.665	8507
901.784	8480
901.904	8389
902.023	8377
902.141	8263
902.26	8149
902.379	8320
902.498	8202
902.617	8225
902.735	8309
902.854	8248
902.973	8221
903.091	8187
903.21	8210
903.328	8187
903.446	8123
903.565	8088
903.683	8062
903.801	8016
903.919	8153
904.038	8088
904.156	8001
904.274	8161
904.392	7925
904.51	8031
904.627	8024
904.745	8081
904.863	8130
904.981	7993
905.098	7807
905.216	7833
905.334	7913
905.451	7940
905.569	7909
905.686	7947
905.803	7902
905.921	7814
906.038	7909
906.155	7776
906.272	7689
906.389	7765
906.506	7696
906.623	7643
906.74	7658
906.857	7582
906.974	7556
907.091	7689
907.208	7750
907.324	7658
907.441	7578
907.557	7468
907.674	7491
907.79	7441
907.907	7445
908.023	7464
908.139	7491
908.256	7362
908.372	7373
908.488	7381
908.604	7240
908.72	7255
908.836	7285
908.952	7301
909.068	7217
909.184	7312
909.3	7331
909.415	7305
909.531	7312
909.647	7213
909.762	7137
909.878	7110
909.993	7118
910.108	7145
910.224	7095
910.339	7118
910.454	7076
910.57	7012
910.685	6905
910.8	7168
910.915	7129
911.03	7065
911.145	6947
911.259	6871
911.374	6905
911.489	6863
911.604	6821
911.718	6711
911.833	6760
911.947	6669
912.062	6662
912.176	6749
912.291	6726
912.405	6669
912.519	6913
912.633	6814
912.748	6768
912.862	6673
912.976	6608
913.09	6532
913.204	6582
913.318	6620
913.431	6650
913.545	6692
913.659	6734
913.772	6684
913.886	6601
914	6578
914.113	6627
914.226	6627
914.34	6585
914.453	6544
914.566	6662
914.68	6536
914.793	6525
914.906	6456
915.019	6452
915.132	6399
915.245	6380
915.358	6494
915.47	6467
915.583	6452
915.696	6506
915.809	6525
915.921	6642
916.034	6399
916.146	6399
916.259	6388
916.371	6475
916.483	6517
916.595	6388
916.708	6456
916.82	6418
916.932	6369
917.044	6391
917.156	6395
917.268	6342
917.38	6369
917.491	6395
917.603	6369
917.715	6350
917.826	6452
917.938	6319
918.049	6346
918.161	6331
918.272	6483
918.384	6486
918.495	6365
918.606	6289
918.717	6251
918.828	6251
918.939	6331
919.05	6235
919.161	6243
919.272	6152
919.383	6178
919.494	6334
919.604	6422
919.715	6273
919.826	6224
919.936	6292
920.047	6338
920.157	6342
920.267	6494
920.378	6338
920.488	6300
920.598	6445
920.708	6494
920.818	6464
920.928	6452
921.038	6540
921.148	6616
921.258	6353
921.368	6308
921.477	6228
921.587	6216
921.697	6106
921.806	6243
921.916	6060
922.025	5954
922.134	5923
922.244	5882
922.353	5961
922.462	5878
922.571	5794
922.68	5691
922.789	5657
922.898	5653
923.007	5676
923.116	5760
923.224	5665
923.333	5672
923.442	5646
923.55	5585
923.659	5604
923.767	5623
923.876	5570
923.984	5551
924.092	5497
924.201	5558
924.309	5570
924.417	5566
924.525	5516
924.633	5524
924.741	6167
924.849	5376
924.956	5486
925.064	5379
925.172	5345
925.279	5299
925.387	5391
925.494	5360
925.602	5471
925.709	5345
925.816	5277
925.924	5326
926.031	5402
926.138	5330
926.245	5357
926.352	5231
926.459	5307
926.566	5322
926.673	5223
926.779	5124
926.886	5162
926.993	5022
927.099	5086
927.206	4987
927.312	4984
927.419	5067
927.525	4984
927.631	5006
927.737	4885
927.843	4870
927.95	4801
928.056	4820
928.162	4824
928.267	4866
928.373	5334
928.479	4847
928.585	4717
928.69	4786
928.796	4805
928.901	4702
929.007	4599
929.112	4706
929.218	4668
929.323	4630
929.428	4569
929.533	4736
929.638	4497
929.743	4561
929.848	4596
929.953	4535
930.058	4447
930.163	4352
930.267	4337
930.372	4470
930.477	4284
930.581	4451
930.685	4375
930.79	4265
930.894	4261
930.998	4329
931.103	4367
931.207	4124
931.311	4082
931.415	4071
931.519	3934
931.623	3930
