Data from glass_V78500241_1650.txt Node
Date: Wed Sep 01 19:25:56 CST 2021
User: usil
Spectrometer: V785-0024
Trigger mode: 0
Integration Time (sec): 4.000000E-1
Scans to average: 1
Nonlinearity correction enabled: false
Boxcar width: 0
Storing dark spectrum: false
XAxis mode: Wavelengths
Number of Pixels in Spectrum: 1024
>>>>>Begin Spectral Data<<<<<
801.071	3743
801.214	3819
801.356	3660
801.499	3770
801.641	3743
801.783	3770
801.926	3857
802.068	3816
802.211	3835
802.353	3876
802.496	3857
802.638	3903
802.78	3876
802.923	3911
803.065	3880
803.208	3850
803.35	3857
803.492	3915
803.635	3888
803.777	3812
803.919	3922
804.061	4158
804.204	3979
804.346	3922
804.488	3892
804.63	4032
804.773	4002
804.915	3998
805.057	4150
805.199	4036
805.341	4071
805.483	4078
805.626	4150
805.768	4131
805.91	4223
806.052	4211
806.194	4192
806.336	4367
806.478	4215
806.62	4135
806.762	4238
806.904	4249
807.046	4360
807.188	4223
807.33	4185
807.472	4261
807.614	4166
807.756	4280
807.898	4196
808.04	4204
808.182	4265
808.324	4314
808.465	4356
808.607	4466
808.749	4474
808.891	4440
809.033	4443
809.174	4379
809.316	4284
809.458	4280
809.6	4109
809.741	4143
809.883	4128
810.025	4207
810.166	4223
810.308	4215
810.45	4261
810.591	4246
810.733	4280
810.875	4527
811.016	4843
811.158	5147
811.299	5254
811.441	5311
811.582	5071
811.724	4679
811.865	4474
812.007	4455
812.148	4402
812.29	4390
812.431	4405
812.573	4371
812.714	4383
812.855	4375
812.997	4402
813.138	4451
813.279	4413
813.421	4386
813.562	4352
813.703	4333
813.845	4322
813.986	4276
814.127	4272
814.268	4272
814.41	4284
814.551	4272
814.692	4337
814.833	4272
814.974	4306
815.115	4348
815.256	4265
815.397	4234
815.539	4257
815.68	4207
815.821	4200
815.962	4348
816.103	4268
816.244	4299
816.385	4253
816.526	4287
816.666	4238
816.807	4116
816.948	4204
817.089	4166
817.23	4112
817.371	4063
817.512	4090
817.653	4086
817.793	4006
817.934	4059
818.075	4162
818.216	4120
818.356	4124
818.497	3994
818.638	3907
818.778	3918
818.919	3922
819.06	3880
819.2	3884
819.341	3854
819.481	3876
819.622	3911
819.762	3991
819.903	3964
820.043	3869
820.184	3808
820.324	3785
820.465	3854
820.605	3861
820.746	3903
820.886	3785
821.026	3941
821.167	3888
821.307	3956
821.447	3968
821.588	3972
821.728	3972
821.868	3922
822.008	3903
822.149	3915
822.289	3911
822.429	3781
822.569	3762
822.709	3785
822.849	3682
822.99	3705
823.13	3759
823.27	3804
823.41	3717
823.55	3762
823.69	3743
823.83	3728
823.97	3679
824.11	3603
824.25	3625
824.389	3629
824.529	3633
824.669	3622
824.809	3671
824.949	3728
825.089	3709
825.228	3743
825.368	3572
825.508	3564
825.648	3580
825.787	3595
825.927	3660
826.067	3637
826.206	3671
826.346	3812
826.485	3816
826.625	3842
826.765	3953
826.904	3861
827.044	3584
827.183	3526
827.323	3458
827.462	3504
827.601	3431
827.741	3420
827.88	3431
828.02	3378
828.159	3454
828.298	3466
828.437	3492
828.577	3454
828.716	3652
828.855	3492
828.994	3367
829.134	3359
829.273	3416
829.412	3401
829.551	3340
829.69	3363
829.829	3416
829.968	3492
830.107	3466
830.246	3420
830.385	3374
830.524	3367
830.663	3287
830.802	3260
830.941	3188
831.08	3222
831.219	3218
831.357	3237
831.496	3412
831.635	3241
831.774	3203
831.913	3230
832.051	3116
832.19	3157
832.329	3184
832.467	3127
832.606	3104
832.744	3173
832.883	3169
833.022	3218
833.16	3279
833.299	3310
833.437	3321
833.576	3374
833.714	3397
833.852	3389
833.991	3435
834.129	3481
834.267	3466
834.406	3409
834.544	3469
834.682	3412
834.821	3428
834.959	3557
835.097	3409
835.235	3511
835.373	3511
835.511	3481
835.65	3428
835.788	3526
835.926	3389
836.064	3416
836.202	3428
836.34	3568
836.478	3545
836.615	3564
836.753	3572
836.891	3610
837.029	3633
837.167	3553
837.305	3584
837.443	3568
837.58	3492
837.718	3584
837.856	3591
837.993	3496
838.131	3584
838.269	3557
838.406	3561
838.544	3580
838.681	3477
838.819	3473
838.956	3389
839.094	3401
839.231	3428
839.369	3564
839.506	3724
839.643	3679
839.781	3469
839.918	3466
840.055	3504
840.193	3519
840.33	3553
840.467	3587
840.604	3561
840.742	3831
840.879	3530
841.016	3587
841.153	3587
841.29	3759
841.427	3755
841.564	3709
841.701	3720
841.838	3713
841.975	3679
842.112	3778
842.249	3652
842.385	3679
842.522	3838
842.659	3701
842.796	3667
842.933	3751
843.069	3686
843.206	3686
843.343	3827
843.479	3800
843.616	3793
843.752	3671
843.889	3759
844.025	3831
844.162	3724
844.298	3846
844.435	3789
844.571	3759
844.708	3857
844.844	3994
844.98	4002
845.117	4021
845.253	3907
845.389	3816
845.525	3953
845.661	3945
845.798	3918
845.934	4017
846.07	3941
846.206	4013
846.342	4120
846.478	4059
846.614	3956
846.75	3945
846.886	3949
847.022	4013
847.158	3960
847.294	3979
847.429	4032
847.565	4044
847.701	4230
847.837	3899
847.972	3915
848.108	3983
848.244	3983
848.379	3861
848.515	3819
848.65	3831
848.786	3838
848.921	3831
849.057	3941
849.192	3956
849.328	3911
849.463	3922
849.598	3846
849.734	3865
849.869	3838
850.004	3797
850.14	3804
850.275	3819
850.41	3720
850.545	3770
850.68	3793
850.815	3808
850.95	3797
851.085	3975
851.22	3922
851.355	3854
851.49	3762
851.625	3770
851.76	3835
851.895	3717
852.03	3751
852.165	3781
852.299	3819
852.434	3873
852.569	3869
852.703	3888
852.838	3949
852.973	4010
853.107	4006
853.242	3911
853.376	3846
853.511	3804
853.645	3842
853.78	3991
853.914	3892
854.048	3949
854.183	3907
854.317	3945
854.451	4048
854.585	3926
854.72	3899
854.854	4044
854.988	3915
855.122	4013
855.256	3934
855.39	4040
855.524	4078
855.658	4048
855.792	4097
855.926	4139
856.06	4128
856.194	4223
856.327	4188
856.461	4101
856.595	4188
856.729	4192
856.862	4265
856.996	4204
857.13	4261
857.263	4310
857.397	4322
857.53	4253
857.664	4356
857.797	4390
857.931	4405
858.064	4402
858.197	4478
858.331	4383
858.464	4386
858.597	4348
858.731	4428
858.864	4440
858.997	4466
859.13	4478
859.263	4459
859.396	4554
859.529	4508
859.662	4569
859.795	4508
859.928	4656
860.061	4679
860.194	4755
860.327	4637
860.46	4641
860.592	4752
860.725	4816
860.858	4725
860.99	4702
861.123	4714
861.256	4706
861.388	4763
861.521	5425
861.653	4740
861.786	4759
861.918	4721
862.05	4736
862.183	4858
862.315	4919
862.447	4957
862.58	4843
862.712	4793
862.844	4774
862.976	4824
863.108	4858
863.24	5296
863.372	4850
863.504	4919
863.636	4915
863.768	4889
863.9	4957
864.032	4942
864.164	4972
864.296	5018
864.428	5113
864.559	5109
864.691	5102
864.823	5197
864.954	5105
865.086	5185
865.217	5071
865.349	5109
865.48	5113
865.612	5197
865.743	5330
865.875	5216
866.006	5174
866.137	5296
866.269	5223
866.4	5246
866.531	5273
866.662	5212
866.793	5242
866.924	5273
867.055	5368
867.186	5357
867.317	5307
867.448	5258
867.579	5364
867.71	5364
867.841	5372
867.972	5490
868.103	5478
868.233	5478
868.364	5516
868.495	5528
868.625	5638
868.756	5764
868.886	5718
869.017	5748
869.147	5832
869.278	5821
869.408	5847
869.539	5863
869.669	5882
869.799	5912
869.929	5984
870.06	6007
870.19	6182
870.32	6178
870.45	6277
870.58	6369
870.71	6407
870.84	6502
870.97	6479
871.1	6437
871.23	6631
871.36	6726
871.489	6662
871.619	6802
871.749	6829
871.879	6856
872.008	6951
872.138	6977
872.267	6977
872.397	6951
872.526	7019
872.656	7069
872.785	7171
872.915	7331
873.044	7548
873.173	7529
873.303	7620
873.432	7655
873.561	7898
873.69	7887
873.819	7997
873.948	8134
874.077	8240
874.206	8298
874.335	8465
874.464	8606
874.593	8796
874.722	8861
874.851	9123
874.979	9253
875.108	9389
875.237	9477
875.365	9439
875.494	9614
875.623	9793
875.751	9880
875.88	9975
876.008	10211
876.136	10299
876.265	10474
876.393	10717
876.521	10736
876.65	10911
876.778	10858
876.906	10915
877.034	11025
877.162	11010
877.29	11181
877.418	11277
877.546	11322
877.674	11433
877.802	11512
877.93	11512
878.058	11516
878.185	11554
878.313	11634
878.441	11722
878.568	11718
878.696	11809
878.824	11870
878.951	11821
879.079	12011
879.206	12175
879.333	12072
879.461	12079
879.588	12003
879.715	12026
879.842	12235
879.97	12034
880.097	11863
880.224	11840
880.351	11904
880.478	11863
880.605	11790
880.732	11843
880.859	12015
880.986	11775
881.112	11958
881.239	11657
881.366	11748
881.493	11566
881.619	11562
881.746	11611
881.872	11577
881.999	11547
882.125	11478
882.252	11608
882.378	11417
882.505	11547
882.631	11334
882.757	11326
882.883	11376
883.01	11349
883.136	11155
883.262	11193
883.388	11052
883.514	11136
883.64	11170
883.766	11121
883.892	11037
884.018	11056
884.143	11041
884.269	11117
884.395	10847
884.52	10717
884.646	10725
884.772	10752
884.897	10694
885.023	10675
885.148	10714
885.274	10805
885.399	10691
885.524	10664
885.65	10592
885.775	10630
885.9	10580
886.025	10592
886.15	10554
886.275	10538
886.4	10379
886.525	10398
886.65	10424
886.775	10348
886.9	10485
887.025	10516
887.149	10462
887.274	10207
887.399	10131
887.523	10287
887.648	10082
887.773	10086
887.897	10200
888.021	10223
888.146	10116
888.27	10257
888.395	10280
888.519	10143
888.643	10169
888.767	10188
888.891	10078
889.015	10010
889.139	10112
889.263	10006
889.387	10109
889.511	10097
889.635	10063
889.759	10032
889.883	10036
890.006	10013
890.13	10074
890.254	9895
890.377	10063
890.501	9789
890.624	9816
890.748	9934
890.871	9747
890.995	9762
891.118	9789
891.241	9732
891.364	9720
891.488	9831
891.611	9732
891.734	9740
891.857	9766
891.98	9698
892.103	9816
892.226	9618
892.349	9660
892.471	9466
892.594	9549
892.717	9656
892.839	9564
892.962	9530
893.085	9610
893.207	9576
893.33	9477
893.452	9568
893.575	9523
893.697	9515
893.819	9614
893.941	9637
894.064	9568
894.186	9488
894.308	9408
894.43	9545
894.552	9568
894.674	9507
894.796	9408
894.918	9386
895.04	9321
895.161	9416
895.283	9241
895.405	9199
895.526	9302
895.648	9218
895.769	9294
895.891	9233
896.012	9226
896.134	9260
896.255	9203
896.376	9081
896.498	9184
896.619	9245
896.74	9036
896.861	9116
896.982	9294
897.103	9302
897.224	9150
897.345	9127
897.466	9001
897.587	9047
897.708	9039
897.828	9089
897.949	8918
898.07	8918
898.19	8941
898.311	8982
898.431	8880
898.552	8967
898.672	9058
898.792	9013
898.913	8895
899.033	8792
899.153	8746
899.273	8667
899.393	8731
899.513	8727
899.633	8674
899.753	8720
899.873	8766
899.993	8743
900.113	8727
900.232	8720
900.352	8625
900.472	8575
900.591	8594
900.711	8579
900.83	8495
900.95	8655
901.069	8682
901.189	8670
901.308	8457
901.427	8396
901.546	8427
901.665	8446
901.784	8469
901.904	8457
902.023	8427
902.141	8218
902.26	8130
902.379	8347
902.498	8206
902.617	8240
902.735	8317
902.854	8309
902.973	8298
903.091	8096
903.21	8073
903.328	8145
903.446	8161
903.565	8103
903.683	8088
903.801	8035
903.919	8050
904.038	8126
904.156	8020
904.274	8069
904.392	8084
904.51	8069
904.627	8050
904.745	8073
904.863	8046
904.981	7963
905.098	7856
905.216	7856
905.334	7925
905.451	7967
905.569	7894
905.686	7970
905.803	7890
905.921	7765
906.038	7871
906.155	7811
906.272	7803
906.389	7734
906.506	7632
906.623	7624
906.74	7639
906.857	7605
906.974	7571
907.091	7651
907.208	7708
907.324	7639
907.441	7582
907.557	7472
907.674	7487
907.79	7396
907.907	7407
908.023	7499
908.139	7354
908.256	7445
908.372	7293
908.488	7350
908.604	7263
908.72	7228
908.836	7274
908.952	7240
909.068	7255
909.184	7305
909.3	7270
909.415	7312
909.531	7255
909.647	7084
909.762	7084
909.878	7053
909.993	7110
910.108	7110
910.224	7057
910.339	7080
910.454	6993
910.57	6989
910.685	6993
910.8	7164
910.915	7175
911.03	6977
911.145	6825
911.259	6909
911.374	6973
911.489	6802
911.604	6825
911.718	6753
911.833	6741
911.947	6601
912.062	6612
912.176	6665
912.291	6719
912.405	6722
912.519	6829
912.633	6810
912.748	6776
912.862	6665
912.976	6585
913.09	6536
913.204	6593
913.318	6582
913.431	6719
913.545	6612
913.659	6688
913.772	6654
913.886	6574
914	6547
914.113	6597
914.226	6681
914.34	6616
914.453	6525
914.566	6631
914.68	6521
914.793	6559
914.906	6422
915.019	6422
915.132	6429
915.245	6403
915.358	6418
915.47	6448
915.583	6448
915.696	6441
915.809	6506
915.921	6532
916.034	6452
916.146	6403
916.259	6353
916.371	6494
916.483	6448
916.595	6422
916.708	6486
916.82	6399
916.932	6308
917.044	6418
917.156	6433
917.268	6311
917.38	6353
917.491	6292
917.603	6338
917.715	6403
917.826	6399
917.938	6323
918.049	6209
918.161	6308
918.272	6388
918.384	6441
918.495	6350
918.606	6270
918.717	6258
918.828	6289
918.939	6289
919.05	6228
919.161	6270
919.272	6152
919.383	6148
919.494	6315
919.604	6479
919.715	6247
919.826	6182
919.936	6220
920.047	6445
920.157	6209
920.267	6452
920.378	6300
920.488	6315
920.598	6490
920.708	6601
920.818	6475
920.928	6509
921.038	6559
921.148	6563
921.258	6380
921.368	6235
921.477	6209
921.587	6159
921.697	6155
921.806	6129
921.916	6045
922.025	5946
922.134	5885
922.244	5794
922.353	5969
922.462	5813
922.571	5798
922.68	5638
922.789	5691
922.898	5707
923.007	5630
923.116	5726
923.224	5710
923.333	5665
923.442	5634
923.55	5596
923.659	5668
923.767	5573
923.876	5528
923.984	5589
924.092	5497
924.201	5585
924.309	5528
924.417	5558
924.525	5532
924.633	5493
924.741	6182
924.849	5318
924.956	5425
925.064	5364
925.172	5284
925.279	5357
925.387	5402
925.494	5326
925.602	5425
925.709	5387
925.816	5273
925.924	5303
926.031	5387
926.138	5288
926.245	5303
926.352	5208
926.459	5334
926.566	5341
926.673	5235
926.779	5098
926.886	5098
926.993	5014
927.099	5018
927.206	4934
927.312	4908
927.419	5006
927.525	4968
927.631	5006
927.737	4873
927.843	4854
927.95	4755
928.056	4835
928.162	4831
928.267	4908
928.373	5311
928.479	4866
928.585	4664
928.69	4790
928.796	4790
928.901	4717
929.007	4584
929.112	4698
929.218	4664
929.323	4626
929.428	4558
929.533	4725
929.638	4573
929.743	4569
929.848	4622
929.953	4554
930.058	4447
930.163	4352
930.267	4310
930.372	4428
930.477	4314
930.581	4424
930.685	4322
930.79	4234
930.894	4284
930.998	4268
931.103	4379
931.207	4139
931.311	4097
931.415	4002
931.519	3915
931.623	3956
