Data from glass_V78500241_1117.txt Node
Date: Wed Sep 01 19:22:14 CST 2021
User: usil
Spectrometer: V785-0024
Trigger mode: 0
Integration Time (sec): 4.000000E-1
Scans to average: 1
Nonlinearity correction enabled: false
Boxcar width: 0
Storing dark spectrum: false
XAxis mode: Wavelengths
Number of Pixels in Spectrum: 1024
>>>>>Begin Spectral Data<<<<<
801.071	3717
801.214	3793
801.356	3694
801.499	3755
801.641	3736
801.783	3781
801.926	3880
802.068	3819
802.211	3823
802.353	3926
802.496	3835
802.638	3907
802.78	3884
802.923	3953
803.065	3903
803.208	3854
803.35	3915
803.492	3918
803.635	3918
803.777	3819
803.919	3907
804.061	4166
804.204	3937
804.346	3926
804.488	3975
804.63	4059
804.773	3941
804.915	4029
805.057	4150
805.199	4010
805.341	4067
805.483	4143
805.626	4120
805.768	4162
805.91	4192
806.052	4242
806.194	4242
806.336	4386
806.478	4230
806.62	4169
806.762	4238
806.904	4257
807.046	4371
807.188	4223
807.33	4211
807.472	4230
807.614	4196
807.756	4230
807.898	4230
808.04	4215
808.182	4284
808.324	4363
808.465	4344
808.607	4417
808.749	4466
808.891	4497
809.033	4470
809.174	4443
809.316	4284
809.458	4261
809.6	4185
809.741	4158
809.883	4154
810.025	4204
810.166	4196
810.308	4211
810.45	4211
810.591	4276
810.733	4261
810.875	4573
811.016	4828
811.158	5166
811.299	5242
811.441	5307
811.582	5041
811.724	4725
811.865	4443
812.007	4443
812.148	4447
812.29	4474
812.431	4417
812.573	4413
812.714	4367
812.855	4390
812.997	4413
813.138	4493
813.279	4440
813.421	4405
813.562	4367
813.703	4352
813.845	4310
813.986	4276
814.127	4192
814.268	4246
814.41	4284
814.551	4207
814.692	4337
814.833	4310
814.974	4329
815.115	4325
815.256	4295
815.397	4238
815.539	4219
815.68	4211
815.821	4268
815.962	4318
816.103	4287
816.244	4265
816.385	4284
816.526	4291
816.666	4249
816.807	4109
816.948	4204
817.089	4150
817.23	4147
817.371	4109
817.512	4036
817.653	4074
817.793	4078
817.934	4044
818.075	4101
818.216	4059
818.356	4109
818.497	4013
818.638	3903
818.778	3934
818.919	3896
819.06	3896
819.2	3907
819.341	3850
819.481	3865
819.622	3968
819.762	4074
819.903	3941
820.043	3876
820.184	3854
820.324	3831
820.465	3892
820.605	3865
820.746	3873
820.886	3835
821.026	3979
821.167	3907
821.307	3964
821.447	3991
821.588	3968
821.728	3960
821.868	3960
822.008	3915
822.149	3956
822.289	3915
822.429	3838
822.569	3785
822.709	3759
822.849	3728
822.99	3747
823.13	3747
823.27	3755
823.41	3720
823.55	3762
823.69	3724
823.83	3740
823.97	3663
824.11	3618
824.25	3610
824.389	3679
824.529	3698
824.669	3625
824.809	3690
824.949	3759
825.089	3766
825.228	3740
825.368	3648
825.508	3561
825.648	3587
825.787	3610
825.927	3656
826.067	3614
826.206	3644
826.346	3736
826.485	3819
826.625	3857
826.765	3964
826.904	3838
827.044	3603
827.183	3587
827.323	3462
827.462	3523
827.601	3462
827.741	3416
827.88	3450
828.02	3382
828.159	3454
828.298	3462
828.437	3534
828.577	3492
828.716	3618
828.855	3500
828.994	3397
829.134	3359
829.273	3428
829.412	3317
829.551	3386
829.69	3401
829.829	3450
829.968	3557
830.107	3416
830.246	3469
830.385	3370
830.524	3355
830.663	3306
830.802	3310
830.941	3184
831.08	3218
831.219	3245
831.357	3237
831.496	3454
831.635	3237
831.774	3180
831.913	3184
832.051	3150
832.19	3157
832.329	3207
832.467	3157
832.606	3112
832.744	3180
832.883	3226
833.022	3195
833.16	3241
833.299	3321
833.437	3321
833.576	3393
833.714	3416
833.852	3439
833.991	3462
834.129	3477
834.267	3435
834.406	3428
834.544	3424
834.682	3401
834.821	3420
834.959	3534
835.097	3473
835.235	3542
835.373	3496
835.511	3485
835.65	3466
835.788	3466
835.926	3393
836.064	3393
836.202	3428
836.34	3591
836.478	3599
836.615	3553
836.753	3622
836.891	3648
837.029	3652
837.167	3564
837.305	3526
837.443	3545
837.58	3477
837.718	3614
837.856	3580
837.993	3545
838.131	3618
838.269	3606
838.406	3606
838.544	3576
838.681	3462
838.819	3473
838.956	3370
839.094	3416
839.231	3443
839.369	3507
839.506	3762
839.643	3641
839.781	3504
839.918	3485
840.055	3526
840.193	3511
840.33	3542
840.467	3542
840.604	3637
840.742	3812
840.879	3542
841.016	3568
841.153	3576
841.29	3759
841.427	3732
841.564	3766
841.701	3774
841.838	3690
841.975	3709
842.112	3728
842.249	3648
842.385	3663
842.522	3831
842.659	3713
842.796	3682
842.933	3724
843.069	3736
843.206	3701
843.343	3850
843.479	3804
843.616	3800
843.752	3698
843.889	3709
844.025	3842
844.162	3759
844.298	3835
844.435	3804
844.571	3759
844.708	3865
844.844	4010
844.98	4032
845.117	4025
845.253	3953
845.389	3903
845.525	3975
845.661	3937
845.798	3915
845.934	4002
846.07	4021
846.206	4063
846.342	4112
846.478	4059
846.614	3968
846.75	3930
846.886	3911
847.022	4036
847.158	3975
847.294	4048
847.429	4029
847.565	4006
847.701	4280
847.837	3876
847.972	3835
848.108	4010
848.244	4036
848.379	3873
848.515	3869
848.65	3819
848.786	3869
848.921	3903
849.057	3930
849.192	3975
849.328	3926
849.463	3956
849.598	3922
849.734	3884
849.869	3835
850.004	3751
850.14	3823
850.275	3766
850.41	3751
850.545	3774
850.68	3766
850.815	3797
850.95	3778
851.085	3892
851.22	3865
851.355	3873
851.49	3789
851.625	3789
851.76	3804
851.895	3698
852.03	3720
852.165	3827
852.299	3865
852.434	3888
852.569	3835
852.703	3949
852.838	3941
852.973	4029
853.107	4002
853.242	3880
853.376	3846
853.511	3778
853.645	3808
853.78	3987
853.914	3896
854.048	3907
854.183	3903
854.317	3972
854.451	4063
854.585	3991
854.72	3926
854.854	4021
854.988	3884
855.122	3994
855.256	3949
855.39	4051
855.524	4116
855.658	4078
855.792	4090
855.926	4139
856.06	4154
856.194	4219
856.327	4143
856.461	4158
856.595	4147
856.729	4158
856.862	4257
856.996	4242
857.13	4303
857.263	4360
857.397	4371
857.53	4303
857.664	4360
857.797	4413
857.931	4409
858.064	4383
858.197	4489
858.331	4383
858.464	4409
858.597	4306
858.731	4466
858.864	4455
858.997	4462
859.13	4538
859.263	4527
859.396	4523
859.529	4466
859.662	4565
859.795	4523
859.928	4558
860.061	4740
860.194	4767
860.327	4694
860.46	4672
860.592	4744
860.725	4744
860.858	4778
860.99	4740
861.123	4653
861.256	4668
861.388	4820
861.521	5452
861.653	4759
861.786	4736
861.918	4752
862.05	4805
862.183	4809
862.315	4900
862.447	4957
862.58	4896
862.712	4809
862.844	4820
862.976	4889
863.108	4877
863.24	5197
863.372	4828
863.504	4923
863.636	4877
863.768	4953
863.9	5010
864.032	4987
864.164	4972
864.296	5064
864.428	5105
864.559	5166
864.691	5140
864.823	5143
864.954	5083
865.086	5132
865.217	5170
865.349	5166
865.48	5147
865.612	5216
865.743	5235
865.875	5216
866.006	5170
866.137	5235
866.269	5239
866.4	5239
866.531	5254
866.662	5299
866.793	5296
866.924	5357
867.055	5357
867.186	5357
867.317	5387
867.448	5387
867.579	5421
867.71	5414
867.841	5410
867.972	5421
868.103	5440
868.233	5524
868.364	5463
868.495	5554
868.625	5649
868.756	5802
868.886	5642
869.017	5809
869.147	5851
869.278	5844
869.408	5824
869.539	5802
869.669	5984
869.799	5939
869.929	5946
870.06	6003
870.19	6152
870.32	6213
870.45	6292
870.58	6395
870.71	6429
870.84	6479
870.97	6429
871.1	6471
871.23	6635
871.36	6707
871.489	6715
871.619	6734
871.749	6810
871.879	6856
872.008	6958
872.138	6935
872.267	6977
872.397	7008
872.526	7046
872.656	7031
872.785	7278
872.915	7369
873.044	7575
873.173	7613
873.303	7605
873.432	7807
873.561	7868
873.69	7913
873.819	7993
873.948	8149
874.077	8244
874.206	8252
874.335	8393
874.464	8678
874.593	8941
874.722	8861
874.851	9226
874.979	9294
875.108	9424
875.237	9420
875.365	9477
875.494	9656
875.623	9766
875.751	9804
875.88	10105
876.008	10169
876.136	10318
876.265	10500
876.393	10717
876.521	10687
876.65	10835
876.778	10896
876.906	10896
877.034	10999
877.162	11060
877.29	11102
877.418	11292
877.546	11364
877.674	11402
877.802	11478
877.93	11532
878.058	11516
878.185	11448
878.313	11714
878.441	11668
878.568	11657
878.696	11760
878.824	11847
878.951	11935
879.079	11954
879.206	12197
879.333	12106
879.461	11950
879.588	11988
879.715	12053
879.842	12133
879.97	12034
880.097	11866
880.224	11855
880.351	11958
880.478	11904
880.605	11771
880.732	11882
880.859	11988
880.986	11824
881.112	11813
881.239	11741
881.366	11608
881.493	11577
881.619	11623
881.746	11638
881.872	11570
881.999	11520
882.125	11497
882.252	11577
882.378	11573
882.505	11592
882.631	11425
882.757	11391
882.883	11311
883.01	11189
883.136	11181
883.262	11155
883.388	11048
883.514	11288
883.64	11216
883.766	11083
883.892	10938
884.018	11067
884.143	11109
884.269	11067
884.395	10889
884.52	10771
884.646	10797
884.772	10656
884.897	10744
885.023	10668
885.148	10721
885.274	10725
885.399	10721
885.524	10687
885.65	10523
885.775	10622
885.9	10588
886.025	10626
886.15	10554
886.275	10497
886.4	10386
886.525	10405
886.65	10329
886.775	10314
886.9	10508
887.025	10512
887.149	10443
887.274	10211
887.399	10234
887.523	10139
887.648	10219
887.773	10147
887.897	10291
888.021	10284
888.146	10166
888.27	10246
888.395	10272
888.519	10207
888.643	10219
888.767	10188
888.891	9994
889.015	10029
889.139	10105
889.263	9960
889.387	10105
889.511	10101
889.635	10055
889.759	10017
889.883	9937
890.006	9964
890.13	10150
890.254	9964
890.377	9994
890.501	9892
890.624	9842
890.748	9918
890.871	9789
890.995	9766
891.118	9743
891.241	9762
891.364	9701
891.488	9781
891.611	9671
891.734	9785
891.857	9789
891.98	9751
892.103	9812
892.226	9709
892.349	9667
892.471	9576
892.594	9553
892.717	9675
892.839	9614
892.962	9603
893.085	9671
893.207	9603
893.33	9477
893.452	9507
893.575	9622
893.697	9439
893.819	9644
893.941	9682
894.064	9599
894.186	9466
894.308	9466
894.43	9519
894.552	9564
894.674	9526
894.796	9447
894.918	9408
895.04	9382
895.161	9393
895.283	9291
895.405	9230
895.526	9272
895.648	9207
895.769	9294
895.891	9249
896.012	9291
896.134	9203
896.255	9195
896.376	9089
896.498	9077
896.619	9184
896.74	9184
896.861	9089
896.982	9279
897.103	9359
897.224	9203
897.345	9104
897.466	9036
897.587	9036
897.708	9127
897.828	9009
897.949	8933
898.07	8883
898.19	8937
898.311	9047
898.431	8864
898.552	8960
898.672	9024
898.792	8921
898.913	8910
899.033	8830
899.153	8830
899.273	8697
899.393	8708
899.513	8773
899.633	8754
899.753	8678
899.873	8716
899.993	8689
900.113	8731
900.232	8754
900.352	8651
900.472	8560
900.591	8617
900.711	8560
900.83	8613
900.95	8724
901.069	8712
901.189	8583
901.308	8457
901.427	8339
901.546	8427
901.665	8404
901.784	8492
901.904	8438
902.023	8362
902.141	8298
902.26	8161
902.379	8214
902.498	8248
902.617	8202
902.735	8290
902.854	8339
902.973	8298
903.091	8115
903.21	8164
903.328	8195
903.446	8161
903.565	8069
903.683	8142
903.801	8039
903.919	8096
904.038	8161
904.156	8031
904.274	8103
904.392	8005
904.51	8062
904.627	8115
904.745	8069
904.863	8149
904.981	7864
905.098	7856
905.216	7902
905.334	7944
905.451	7940
905.569	7906
905.686	7875
905.803	7959
905.921	7822
906.038	7883
906.155	7753
906.272	7681
906.389	7753
906.506	7655
906.623	7655
906.74	7571
906.857	7567
906.974	7540
907.091	7636
907.208	7696
907.324	7594
907.441	7582
907.557	7476
907.674	7441
907.79	7381
907.907	7472
908.023	7403
908.139	7377
908.256	7407
908.372	7335
908.488	7384
908.604	7225
908.72	7209
908.836	7255
908.952	7293
909.068	7225
909.184	7369
909.3	7251
909.415	7316
909.531	7244
909.647	7152
909.762	7126
909.878	7088
909.993	7149
910.108	7080
910.224	7080
910.339	7084
910.454	7027
910.57	6962
910.685	6985
910.8	7110
910.915	7107
911.03	7057
911.145	6867
911.259	6871
911.374	6875
911.489	6863
911.604	6821
911.718	6768
911.833	6703
911.947	6620
912.062	6696
912.176	6726
912.291	6715
912.405	6703
912.519	6844
912.633	6837
912.748	6745
912.862	6707
912.976	6669
913.09	6555
913.204	6540
913.318	6582
913.431	6688
913.545	6684
913.659	6741
913.772	6658
913.886	6582
914	6582
914.113	6570
914.226	6642
914.34	6665
914.453	6555
914.566	6578
914.68	6585
914.793	6551
914.906	6452
915.019	6429
915.132	6376
915.245	6384
915.358	6437
915.47	6486
915.583	6498
915.696	6494
915.809	6585
915.921	6528
916.034	6414
916.146	6441
916.259	6384
916.371	6452
916.483	6460
916.595	6403
916.708	6448
916.82	6380
916.932	6384
917.044	6380
917.156	6418
917.268	6315
917.38	6338
917.491	6292
917.603	6342
917.715	6399
917.826	6486
917.938	6342
918.049	6235
918.161	6350
918.272	6448
918.384	6429
918.495	6384
918.606	6319
918.717	6194
918.828	6258
918.939	6292
919.05	6254
919.161	6266
919.272	6117
919.383	6167
919.494	6285
919.604	6403
919.715	6353
919.826	6224
919.936	6277
920.047	6376
920.157	6308
920.267	6441
920.378	6323
920.488	6331
920.598	6486
920.708	6646
920.818	6441
920.928	6464
921.038	6601
921.148	6650
921.258	6429
921.368	6285
921.477	6273
921.587	6205
921.697	6083
921.806	6167
921.916	6068
922.025	5973
922.134	5927
922.244	5950
922.353	5939
922.462	5805
922.571	5813
922.68	5699
922.789	5680
922.898	5707
923.007	5688
923.116	5684
923.224	5703
923.333	5695
923.442	5604
923.55	5592
923.659	5566
923.767	5638
923.876	5543
923.984	5585
924.092	5524
924.201	5562
924.309	5551
924.417	5581
924.525	5501
924.633	5539
924.741	6331
924.849	5364
924.956	5543
925.064	5391
925.172	5311
925.279	5292
925.387	5398
925.494	5311
925.602	5364
925.709	5353
925.816	5311
925.924	5296
926.031	5360
926.138	5296
926.245	5337
926.352	5155
926.459	5353
926.566	5368
926.673	5166
926.779	5147
926.886	5124
926.993	5006
927.099	5041
927.206	4991
927.312	4961
927.419	5010
927.525	4953
927.631	4965
927.737	4915
927.843	4881
927.95	4752
928.056	4885
928.162	4835
928.267	4877
928.373	5334
928.479	4839
928.585	4698
928.69	4805
928.796	4816
928.901	4656
929.007	4630
929.112	4618
929.218	4691
929.323	4653
929.428	4599
929.533	4679
929.638	4493
929.743	4535
929.848	4554
929.953	4523
930.058	4436
930.163	4352
930.267	4363
930.372	4440
930.477	4287
930.581	4489
930.685	4386
930.79	4280
930.894	4268
930.998	4230
931.103	4436
931.207	4120
931.311	4105
931.415	4055
931.519	3972
931.623	3934
