Data from glass_V78500241_825.txt Node
Date: Wed Sep 01 19:20:13 CST 2021
User: usil
Spectrometer: V785-0024
Trigger mode: 0
Integration Time (sec): 4.000000E-1
Scans to average: 1
Nonlinearity correction enabled: false
Boxcar width: 0
Storing dark spectrum: false
XAxis mode: Wavelengths
Number of Pixels in Spectrum: 1024
>>>>>Begin Spectral Data<<<<<
801.071	3781
801.214	3751
801.356	3694
801.499	3759
801.641	3751
801.783	3808
801.926	3827
802.068	3827
802.211	3850
802.353	3915
802.496	3850
802.638	3861
802.78	3903
802.923	3937
803.065	3911
803.208	3896
803.35	3854
803.492	3956
803.635	3918
803.777	3861
803.919	3915
804.061	4173
804.204	3960
804.346	4013
804.488	3941
804.63	4051
804.773	3964
804.915	4010
805.057	4078
805.199	4051
805.341	4093
805.483	4131
805.626	4173
805.768	4116
805.91	4280
806.052	4268
806.194	4177
806.336	4333
806.478	4227
806.62	4219
806.762	4200
806.904	4280
807.046	4333
807.188	4234
807.33	4181
807.472	4211
807.614	4230
807.756	4280
807.898	4234
808.04	4234
808.182	4325
808.324	4367
808.465	4402
808.607	4478
808.749	4451
808.891	4432
809.033	4550
809.174	4417
809.316	4291
809.458	4268
809.6	4158
809.741	4185
809.883	4120
810.025	4295
810.166	4166
810.308	4219
810.45	4234
810.591	4253
810.733	4280
810.875	4527
811.016	4858
811.158	5067
811.299	5235
811.441	5269
811.582	5037
811.724	4706
811.865	4493
812.007	4478
812.148	4440
812.29	4379
812.431	4428
812.573	4440
812.714	4367
812.855	4394
812.997	4417
813.138	4500
813.279	4379
813.421	4383
813.562	4409
813.703	4314
813.845	4329
813.986	4287
814.127	4162
814.268	4306
814.41	4287
814.551	4253
814.692	4367
814.833	4295
814.974	4287
815.115	4314
815.256	4253
815.397	4265
815.539	4276
815.68	4230
815.821	4230
815.962	4337
816.103	4280
816.244	4253
816.385	4200
816.526	4276
816.666	4242
816.807	4074
816.948	4173
817.089	4166
817.23	4120
817.371	4093
817.512	4074
817.653	4078
817.793	4029
817.934	4029
818.075	4131
818.216	4109
818.356	4150
818.497	3991
818.638	3960
818.778	3941
818.919	3903
819.06	3835
819.2	3903
819.341	3869
819.481	3850
819.622	3896
819.762	4006
819.903	3975
820.043	3911
820.184	3827
820.324	3899
820.465	3903
820.605	3911
820.746	3857
820.886	3888
821.026	3972
821.167	3911
821.307	3972
821.447	3968
821.588	3926
821.728	4010
821.868	3945
822.008	3896
822.149	3907
822.289	3861
822.429	3800
822.569	3804
822.709	3827
822.849	3732
822.99	3740
823.13	3770
823.27	3800
823.41	3701
823.55	3762
823.69	3736
823.83	3724
823.97	3709
824.11	3629
824.25	3614
824.389	3686
824.529	3671
824.669	3599
824.809	3705
824.949	3766
825.089	3740
825.228	3701
825.368	3633
825.508	3614
825.648	3572
825.787	3652
825.927	3637
826.067	3606
826.206	3660
826.346	3838
826.485	3865
826.625	3911
826.765	3934
826.904	3846
827.044	3652
827.183	3553
827.323	3458
827.462	3477
827.601	3454
827.741	3420
827.88	3431
828.02	3378
828.159	3458
828.298	3492
828.437	3584
828.577	3473
828.716	3599
828.855	3526
828.994	3374
829.134	3359
829.273	3397
829.412	3378
829.551	3359
829.69	3382
829.829	3431
829.968	3542
830.107	3439
830.246	3466
830.385	3405
830.524	3359
830.663	3351
830.802	3275
830.941	3230
831.08	3222
831.219	3275
831.357	3264
831.496	3439
831.635	3230
831.774	3173
831.913	3184
832.051	3161
832.19	3150
832.329	3241
832.467	3142
832.606	3097
832.744	3157
832.883	3199
833.022	3192
833.16	3279
833.299	3264
833.437	3355
833.576	3397
833.714	3420
833.852	3431
833.991	3473
834.129	3488
834.267	3466
834.406	3386
834.544	3435
834.682	3420
834.821	3443
834.959	3572
835.097	3420
835.235	3530
835.373	3473
835.511	3515
835.65	3447
835.788	3458
835.926	3401
836.064	3420
836.202	3401
836.34	3584
836.478	3671
836.615	3580
836.753	3629
836.891	3622
837.029	3610
837.167	3618
837.305	3591
837.443	3576
837.58	3504
837.718	3637
837.856	3584
837.993	3542
838.131	3614
838.269	3603
838.406	3603
838.544	3610
838.681	3500
838.819	3450
838.956	3351
839.094	3389
839.231	3386
839.369	3561
839.506	3747
839.643	3625
839.781	3530
839.918	3481
840.055	3526
840.193	3534
840.33	3530
840.467	3576
840.604	3633
840.742	3838
840.879	3542
841.016	3587
841.153	3603
841.29	3781
841.427	3728
841.564	3747
841.701	3770
841.838	3660
841.975	3724
842.112	3770
842.249	3652
842.385	3606
842.522	3865
842.659	3667
842.796	3713
842.933	3728
843.069	3679
843.206	3713
843.343	3846
843.479	3808
843.616	3789
843.752	3667
843.889	3766
844.025	3930
844.162	3717
844.298	3876
844.435	3850
844.571	3812
844.708	3888
844.844	4036
844.98	4063
845.117	4067
845.253	3918
845.389	3896
845.525	3998
845.661	4002
845.798	3922
845.934	3983
846.07	3918
846.206	4044
846.342	4124
846.478	4112
846.614	3987
846.75	3960
846.886	3907
847.022	4097
847.158	3960
847.294	4036
847.429	4017
847.565	3968
847.701	4204
847.837	3876
847.972	3907
848.108	4013
848.244	4017
848.379	3869
848.515	3850
848.65	3816
848.786	3819
848.921	3899
849.057	3911
849.192	3972
849.328	3926
849.463	3941
849.598	3884
849.734	3857
849.869	3827
850.004	3812
850.14	3793
850.275	3797
850.41	3740
850.545	3759
850.68	3743
850.815	3819
850.95	3819
851.085	3987
851.22	3896
851.355	3835
851.49	3789
851.625	3793
851.76	3808
851.895	3717
852.03	3705
852.165	3816
852.299	3850
852.434	3911
852.569	3857
852.703	3926
852.838	3964
852.973	4010
853.107	4055
853.242	3888
853.376	3816
853.511	3778
853.645	3835
853.78	3964
853.914	3899
854.048	3888
854.183	3884
854.317	3941
854.451	4063
854.585	3987
854.72	3922
854.854	4059
854.988	3987
855.122	4017
855.256	3937
855.39	4032
855.524	4154
855.658	4090
855.792	4105
855.926	4139
856.06	4196
856.194	4238
856.327	4154
856.461	4090
856.595	4166
856.729	4211
856.862	4253
856.996	4253
857.13	4276
857.263	4344
857.397	4383
857.53	4318
857.664	4341
857.797	4367
857.931	4421
858.064	4394
858.197	4447
858.331	4424
858.464	4428
858.597	4299
858.731	4447
858.864	4508
858.997	4497
859.13	4519
859.263	4561
859.396	4599
859.529	4523
859.662	4535
859.795	4538
859.928	4615
860.061	4736
860.194	4805
860.327	4656
860.46	4660
860.592	4767
860.725	4755
860.858	4778
860.99	4759
861.123	4645
861.256	4694
861.388	4782
861.521	5436
861.653	4786
861.786	4733
861.918	4752
862.05	4786
862.183	4824
862.315	4904
862.447	4957
862.58	4892
862.712	4801
862.844	4752
862.976	4839
863.108	4843
863.24	5242
863.372	4805
863.504	4835
863.636	4908
863.768	5010
863.9	4934
864.032	4999
864.164	4976
864.296	5037
864.428	5060
864.559	5067
864.691	5136
864.823	5094
864.954	5105
865.086	5159
865.217	5216
865.349	5132
865.48	5159
865.612	5147
865.743	5345
865.875	5231
866.006	5235
866.137	5239
866.269	5273
866.4	5303
866.531	5227
866.662	5220
866.793	5296
866.924	5311
867.055	5353
867.186	5379
867.317	5357
867.448	5307
867.579	5364
867.71	5455
867.841	5349
867.972	5535
868.103	5505
868.233	5474
868.364	5486
868.495	5547
868.625	5672
868.756	5783
868.886	5695
869.017	5729
869.147	5866
869.278	5874
869.408	5798
869.539	5859
869.669	5939
869.799	5901
869.929	6007
870.06	6007
870.19	6152
870.32	6201
870.45	6304
870.58	6311
870.71	6464
870.84	6437
870.97	6426
871.1	6452
871.23	6700
871.36	6684
871.489	6688
871.619	6779
871.749	6772
871.879	6867
872.008	7019
872.138	7012
872.267	7042
872.397	6989
872.526	7072
872.656	7122
872.785	7171
872.915	7324
873.044	7506
873.173	7578
873.303	7719
873.432	7753
873.561	7841
873.69	7864
873.819	7967
873.948	8145
874.077	8244
874.206	8370
874.335	8446
874.464	8621
874.593	8842
874.722	8937
874.851	9123
874.979	9291
875.108	9283
875.237	9408
875.365	9435
875.494	9690
875.623	9854
875.751	9922
875.88	10036
876.008	10074
876.136	10303
876.265	10481
876.393	10710
876.521	10672
876.65	10763
876.778	10881
876.906	10900
877.034	11109
877.162	11079
877.29	11147
877.418	11345
877.546	11322
877.674	11459
877.802	11528
877.93	11516
878.058	11535
878.185	11543
878.313	11619
878.441	11733
878.568	11680
878.696	11828
878.824	11870
878.951	11893
879.079	11973
879.206	12163
879.333	12133
879.461	12022
879.588	12072
879.715	12007
879.842	12190
879.97	12053
880.097	11893
880.224	11927
880.351	11878
880.478	11901
880.605	11809
880.732	11916
880.859	12038
880.986	11794
881.112	11809
881.239	11695
881.366	11733
881.493	11649
881.619	11573
881.746	11566
881.872	11551
881.999	11547
882.125	11490
882.252	11547
882.378	11535
882.505	11646
882.631	11379
882.757	11330
882.883	11269
883.01	11360
883.136	11197
883.262	11098
883.388	11121
883.514	11216
883.64	11140
883.766	11083
883.892	11025
884.018	11056
884.143	11102
884.269	11109
884.395	10820
884.52	10782
884.646	10748
884.772	10763
884.897	10702
885.023	10637
885.148	10786
885.274	10786
885.399	10778
885.524	10702
885.65	10603
885.775	10630
885.9	10577
886.025	10618
886.15	10535
886.275	10516
886.4	10405
886.525	10413
886.65	10466
886.775	10356
886.9	10455
887.025	10485
887.149	10405
887.274	10261
887.399	10200
887.523	10207
887.648	10139
887.773	10124
887.897	10284
888.021	10261
888.146	10135
888.27	10215
888.395	10238
888.519	10196
888.643	10207
888.767	10196
888.891	10074
889.015	10048
889.139	10074
889.263	10025
889.387	10071
889.511	10082
889.635	10078
889.759	9983
889.883	9983
890.006	9960
890.13	10063
890.254	9972
890.377	9960
890.501	9873
890.624	9876
890.748	9915
890.871	9857
890.995	9793
891.118	9694
891.241	9736
891.364	9781
891.488	9789
891.611	9762
891.734	9747
891.857	9800
891.98	9800
892.103	9797
892.226	9819
892.349	9690
892.471	9568
892.594	9618
892.717	9542
892.839	9629
892.962	9633
893.085	9637
893.207	9595
893.33	9454
893.452	9526
893.575	9572
893.697	9443
893.819	9618
893.941	9591
894.064	9618
894.186	9428
894.308	9378
894.43	9526
894.552	9591
894.674	9580
894.796	9355
894.918	9359
895.04	9325
895.161	9363
895.283	9412
895.405	9154
895.526	9233
895.648	9321
895.769	9268
895.891	9245
896.012	9260
896.134	9211
896.255	9241
896.376	9135
896.498	9100
896.619	9116
896.74	9108
896.861	9097
896.982	9294
897.103	9344
897.224	9135
897.345	9081
897.466	9020
897.587	9009
897.708	9123
897.828	9020
897.949	8902
898.07	8887
898.19	8880
898.311	9036
898.431	8967
898.552	8883
898.672	8971
898.792	8982
898.913	9032
899.033	8762
899.153	8766
899.273	8651
899.393	8708
899.513	8739
899.633	8689
899.753	8712
899.873	8678
899.993	8720
900.113	8670
900.232	8746
900.352	8610
900.472	8606
900.591	8511
900.711	8590
900.83	8625
900.95	8667
901.069	8766
901.189	8606
901.308	8473
901.427	8404
901.546	8442
901.665	8488
901.784	8530
901.904	8366
902.023	8377
902.141	8168
902.26	8210
902.379	8282
902.498	8225
902.617	8187
902.735	8248
902.854	8267
902.973	8290
903.091	8134
903.21	8126
903.328	8244
903.446	8145
903.565	8039
903.683	8065
903.801	8088
903.919	8096
904.038	8161
904.156	7963
904.274	8035
904.392	8031
904.51	8073
904.627	8073
904.745	8111
904.863	8046
904.981	7890
905.098	7894
905.216	7833
905.334	7906
905.451	7921
905.569	7925
905.686	8008
905.803	7898
905.921	7814
906.038	7837
906.155	7761
906.272	7746
906.389	7818
906.506	7674
906.623	7578
906.74	7632
906.857	7578
906.974	7613
907.091	7658
907.208	7780
907.324	7651
907.441	7559
907.557	7472
907.674	7449
907.79	7400
907.907	7445
908.023	7453
908.139	7426
908.256	7362
908.372	7365
908.488	7365
908.604	7206
908.72	7187
908.836	7331
908.952	7301
909.068	7225
909.184	7354
909.3	7270
909.415	7285
909.531	7297
909.647	7179
909.762	7080
909.878	7088
909.993	7206
910.108	7126
910.224	7080
910.339	7107
910.454	7129
910.57	6954
910.685	6954
910.8	7175
910.915	7164
911.03	7034
911.145	6890
911.259	6871
911.374	6882
911.489	6897
911.604	6802
911.718	6665
911.833	6730
911.947	6620
912.062	6658
912.176	6738
912.291	6711
912.405	6730
912.519	6848
912.633	6863
912.748	6806
912.862	6688
912.976	6585
913.09	6574
913.204	6616
913.318	6582
913.431	6642
913.545	6711
913.659	6726
913.772	6658
913.886	6566
914	6532
914.113	6627
914.226	6593
914.34	6639
914.453	6498
914.566	6665
914.68	6563
914.793	6574
914.906	6456
915.019	6407
915.132	6353
915.245	6452
915.358	6418
915.47	6441
915.583	6437
915.696	6513
915.809	6555
915.921	6589
916.034	6395
916.146	6433
916.259	6350
916.371	6486
916.483	6467
916.595	6399
916.708	6410
916.82	6437
916.932	6395
917.044	6437
917.156	6395
917.268	6304
917.38	6334
917.491	6338
917.603	6388
917.715	6388
917.826	6441
917.938	6319
918.049	6235
918.161	6346
918.272	6407
918.384	6448
918.495	6365
918.606	6304
918.717	6266
918.828	6281
918.939	6258
919.05	6190
919.161	6289
919.272	6125
919.383	6148
919.494	6315
919.604	6403
919.715	6300
919.826	6254
919.936	6296
920.047	6342
920.157	6296
920.267	6475
920.378	6266
920.488	6224
920.598	6467
920.708	6570
920.818	6467
920.928	6502
921.038	6578
921.148	6608
921.258	6365
921.368	6270
921.477	6243
921.587	6159
921.697	6106
921.806	6205
921.916	6117
922.025	5958
922.134	5859
922.244	5935
922.353	5920
922.462	5889
922.571	5767
922.68	5718
922.789	5707
922.898	5741
923.007	5646
923.116	5672
923.224	5680
923.333	5672
923.442	5589
923.55	5562
923.659	5604
923.767	5611
923.876	5535
923.984	5600
924.092	5524
924.201	5547
924.309	5547
924.417	5619
924.525	5478
924.633	5528
924.741	6163
924.849	5372
924.956	5501
925.064	5307
925.172	5330
925.279	5299
925.387	5433
925.494	5357
925.602	5425
925.709	5391
925.816	5277
925.924	5368
926.031	5372
926.138	5299
926.245	5383
926.352	5220
926.459	5360
926.566	5330
926.673	5220
926.779	5121
926.886	5113
926.993	5052
927.099	5029
927.206	4957
927.312	4942
927.419	5014
927.525	4980
927.631	5014
927.737	4892
927.843	4847
927.95	4744
928.056	4782
928.162	4812
928.267	4889
928.373	5395
928.479	4896
928.585	4714
928.69	4809
928.796	4809
928.901	4694
929.007	4565
929.112	4710
929.218	4664
929.323	4653
929.428	4554
929.533	4698
929.638	4485
929.743	4565
929.848	4561
929.953	4516
930.058	4432
930.163	4322
930.267	4322
930.372	4462
930.477	4322
930.581	4451
930.685	4352
930.79	4234
930.894	4249
930.998	4242
931.103	4386
931.207	4097
931.311	4105
931.415	4059
931.519	3960
931.623	3945
