Data from glass_V78500241_1864.txt Node
Date: Wed Sep 01 19:27:25 CST 2021
User: usil
Spectrometer: V785-0024
Trigger mode: 0
Integration Time (sec): 4.000000E-1
Scans to average: 1
Nonlinearity correction enabled: false
Boxcar width: 0
Storing dark spectrum: false
XAxis mode: Wavelengths
Number of Pixels in Spectrum: 1024
>>>>>Begin Spectral Data<<<<<
801.071	3759
801.214	3720
801.356	3671
801.499	3751
801.641	3740
801.783	3823
801.926	3835
802.068	3800
802.211	3850
802.353	3861
802.496	3842
802.638	3876
802.78	3869
802.923	3949
803.065	3880
803.208	3835
803.35	3880
803.492	3937
803.635	3945
803.777	3800
803.919	3934
804.061	4143
804.204	3953
804.346	3937
804.488	3926
804.63	4048
804.773	3945
804.915	4036
805.057	4139
805.199	4048
805.341	4086
805.483	4128
805.626	4150
805.768	4116
805.91	4192
806.052	4238
806.194	4200
806.336	4318
806.478	4188
806.62	4166
806.762	4188
806.904	4230
807.046	4421
807.188	4234
807.33	4181
807.472	4238
807.614	4181
807.756	4268
807.898	4211
808.04	4223
808.182	4253
808.324	4348
808.465	4352
808.607	4451
808.749	4451
808.891	4428
809.033	4504
809.174	4375
809.316	4253
809.458	4188
809.6	4131
809.741	4162
809.883	4139
810.025	4192
810.166	4211
810.308	4192
810.45	4230
810.591	4246
810.733	4291
810.875	4497
811.016	4843
811.158	5140
811.299	5307
811.441	5258
811.582	5086
811.724	4668
811.865	4447
812.007	4497
812.148	4402
812.29	4402
812.431	4398
812.573	4386
812.714	4363
812.855	4421
812.997	4402
813.138	4421
813.279	4432
813.421	4383
813.562	4352
813.703	4303
813.845	4314
813.986	4219
814.127	4204
814.268	4230
814.41	4272
814.551	4242
814.692	4344
814.833	4253
814.974	4246
815.115	4379
815.256	4276
815.397	4227
815.539	4246
815.68	4188
815.821	4257
815.962	4356
816.103	4272
816.244	4253
816.385	4265
816.526	4253
816.666	4200
816.807	4158
816.948	4177
817.089	4177
817.23	4105
817.371	4078
817.512	4082
817.653	4071
817.793	4040
817.934	4029
818.075	4059
818.216	4071
818.356	4078
818.497	3960
818.638	3892
818.778	3945
818.919	3926
819.06	3861
819.2	3915
819.341	3888
819.481	3846
819.622	3884
819.762	4017
819.903	3903
820.043	3854
820.184	3865
820.324	3816
820.465	3899
820.605	3816
820.746	3842
820.886	3808
821.026	3918
821.167	3892
821.307	3975
821.447	3975
821.588	3949
821.728	3876
821.868	3911
822.008	3850
822.149	3911
822.289	3926
822.429	3755
822.569	3781
822.709	3759
822.849	3682
822.99	3720
823.13	3766
823.27	3774
823.41	3766
823.55	3736
823.69	3759
823.83	3728
823.97	3663
824.11	3584
824.25	3591
824.389	3648
824.529	3663
824.669	3644
824.809	3675
824.949	3759
825.089	3724
825.228	3698
825.368	3610
825.508	3568
825.648	3595
825.787	3580
825.927	3606
826.067	3644
826.206	3663
826.346	3774
826.485	3846
826.625	3892
826.765	3987
826.904	3831
827.044	3587
827.183	3530
827.323	3466
827.462	3492
827.601	3412
827.741	3389
827.88	3466
828.02	3344
828.159	3435
828.298	3488
828.437	3504
828.577	3443
828.716	3549
828.855	3519
828.994	3401
829.134	3332
829.273	3325
829.412	3378
829.551	3321
829.69	3382
829.829	3428
829.968	3515
830.107	3439
830.246	3462
830.385	3351
830.524	3367
830.663	3321
830.802	3233
830.941	3157
831.08	3214
831.219	3253
831.357	3233
831.496	3409
831.635	3237
831.774	3180
831.913	3218
832.051	3123
832.19	3161
832.329	3245
832.467	3161
832.606	3074
832.744	3169
832.883	3127
833.022	3188
833.16	3253
833.299	3298
833.437	3348
833.576	3374
833.714	3374
833.852	3405
833.991	3469
834.129	3485
834.267	3485
834.406	3401
834.544	3409
834.682	3409
834.821	3424
834.959	3587
835.097	3416
835.235	3553
835.373	3519
835.511	3481
835.65	3450
835.788	3458
835.926	3389
836.064	3424
836.202	3405
836.34	3576
836.478	3591
836.615	3549
836.753	3606
836.891	3641
837.029	3584
837.167	3549
837.305	3561
837.443	3549
837.58	3534
837.718	3610
837.856	3580
837.993	3580
838.131	3591
838.269	3564
838.406	3603
838.544	3553
838.681	3447
838.819	3420
838.956	3351
839.094	3405
839.231	3428
839.369	3504
839.506	3717
839.643	3595
839.781	3515
839.918	3443
840.055	3511
840.193	3572
840.33	3530
840.467	3572
840.604	3618
840.742	3785
840.879	3549
841.016	3519
841.153	3553
841.29	3728
841.427	3759
841.564	3743
841.701	3747
841.838	3667
841.975	3648
842.112	3705
842.249	3633
842.385	3641
842.522	3869
842.659	3675
842.796	3698
842.933	3751
843.069	3682
843.206	3682
843.343	3789
843.479	3781
843.616	3846
843.752	3641
843.889	3724
844.025	3827
844.162	3705
844.298	3827
844.435	3800
844.571	3808
844.708	3915
844.844	4010
844.98	4048
845.117	4006
845.253	3915
845.389	3907
845.525	3945
845.661	4002
845.798	3926
845.934	3975
846.07	3896
846.206	4071
846.342	4128
846.478	4055
846.614	3972
846.75	3953
846.886	3907
847.022	4010
847.158	3994
847.294	4025
847.429	4013
847.565	3987
847.701	4257
847.837	3926
847.972	3789
848.108	3991
848.244	3975
848.379	3854
848.515	3869
848.65	3812
848.786	3823
848.921	3816
849.057	3949
849.192	3934
849.328	3854
849.463	3915
849.598	3835
849.734	3831
849.869	3808
850.004	3762
850.14	3838
850.275	3755
850.41	3732
850.545	3751
850.68	3770
850.815	3789
850.95	3762
851.085	3937
851.22	3850
851.355	3804
851.49	3781
851.625	3740
851.76	3793
851.895	3740
852.03	3728
852.165	3789
852.299	3842
852.434	3854
852.569	3846
852.703	3873
852.838	3937
852.973	3983
853.107	3979
853.242	3918
853.376	3850
853.511	3812
853.645	3876
853.78	3987
853.914	3930
854.048	3903
854.183	3896
854.317	3956
854.451	4048
854.585	3956
854.72	3930
854.854	4059
854.988	3911
855.122	4010
855.256	3915
855.39	4032
855.524	4093
855.658	4090
855.792	4093
855.926	4177
856.06	4177
856.194	4177
856.327	4139
856.461	4124
856.595	4112
856.729	4192
856.862	4272
856.996	4291
857.13	4272
857.263	4356
857.397	4367
857.53	4314
857.664	4356
857.797	4352
857.931	4417
858.064	4428
858.197	4398
858.331	4443
858.464	4375
858.597	4360
858.731	4451
858.864	4413
858.997	4466
859.13	4489
859.263	4550
859.396	4588
859.529	4500
859.662	4558
859.795	4531
859.928	4641
860.061	4683
860.194	4721
860.327	4691
860.46	4653
860.592	4725
860.725	4740
860.858	4797
860.99	4649
861.123	4710
861.256	4694
861.388	4759
861.521	5395
861.653	4683
861.786	4706
861.918	4793
862.05	4782
862.183	4843
862.315	4831
862.447	4919
862.58	4850
862.712	4771
862.844	4771
862.976	4873
863.108	4786
863.24	5269
863.372	4850
863.504	4927
863.636	4873
863.768	4923
863.9	4942
864.032	4870
864.164	4930
864.296	4968
864.428	5014
864.559	5079
864.691	5124
864.823	5174
864.954	5121
865.086	5113
865.217	5094
865.349	5098
865.48	5102
865.612	5189
865.743	5307
865.875	5212
866.006	5197
866.137	5212
866.269	5239
866.4	5239
866.531	5204
866.662	5242
866.793	5288
866.924	5288
867.055	5353
867.186	5326
867.317	5280
867.448	5334
867.579	5383
867.71	5391
867.841	5368
867.972	5467
868.103	5474
868.233	5497
868.364	5543
868.495	5501
868.625	5680
868.756	5790
868.886	5703
869.017	5703
869.147	5828
869.278	5863
869.408	5805
869.539	5844
869.669	5889
869.799	5897
869.929	5920
870.06	5996
870.19	6205
870.32	6175
870.45	6209
870.58	6399
870.71	6456
870.84	6467
870.97	6357
871.1	6391
871.23	6639
871.36	6646
871.489	6669
871.619	6772
871.749	6745
871.879	6844
872.008	6932
872.138	6905
872.267	6928
872.397	6996
872.526	7027
872.656	7145
872.785	7202
872.915	7392
873.044	7468
873.173	7548
873.303	7742
873.432	7769
873.561	7887
873.69	7970
873.819	8031
873.948	8130
874.077	8252
874.206	8313
874.335	8461
874.464	8621
874.593	8826
874.722	8941
874.851	9150
874.979	9283
875.108	9370
875.237	9428
875.365	9428
875.494	9694
875.623	9804
875.751	9755
875.88	9979
876.008	10238
876.136	10325
876.265	10504
876.393	10634
876.521	10744
876.65	10843
876.778	10835
876.906	10904
877.034	10984
877.162	11067
877.29	11109
877.418	11345
877.546	11356
877.674	11395
877.802	11391
877.93	11512
878.058	11512
878.185	11520
878.313	11672
878.441	11775
878.568	11684
878.696	11851
878.824	11874
878.951	11988
879.079	11977
879.206	12136
879.333	12007
879.461	12083
879.588	12064
879.715	12125
879.842	12258
879.97	12019
880.097	11878
880.224	11904
880.351	11950
880.478	11840
880.605	11798
880.732	11817
880.859	11999
880.986	11855
881.112	11866
881.239	11756
881.366	11543
881.493	11676
881.619	11585
881.746	11543
881.872	11440
881.999	11520
882.125	11421
882.252	11577
882.378	11509
882.505	11532
882.631	11379
882.757	11216
882.883	11258
883.01	11239
883.136	11189
883.262	11132
883.388	11124
883.514	11162
883.64	11151
883.766	11159
883.892	10915
884.018	10927
884.143	11094
884.269	11105
884.395	10793
884.52	10736
884.646	10748
884.772	10675
884.897	10672
885.023	10603
885.148	10618
885.274	10752
885.399	10698
885.524	10618
885.65	10596
885.775	10603
885.9	10546
886.025	10607
886.15	10527
886.275	10443
886.4	10379
886.525	10436
886.65	10409
886.775	10390
886.9	10436
887.025	10504
887.149	10363
887.274	10192
887.399	10158
887.523	10227
887.648	10147
887.773	10063
887.897	10207
888.021	10207
888.146	10112
888.27	10249
888.395	10169
888.519	10173
888.643	10154
888.767	10181
888.891	10105
889.015	9983
889.139	9998
889.263	9945
889.387	10078
889.511	10135
889.635	10135
889.759	9949
889.883	10021
890.006	9979
890.13	10105
890.254	9941
890.377	9918
890.501	9869
890.624	9785
890.748	9873
890.871	9785
890.995	9785
891.118	9709
891.241	9785
891.364	9720
891.488	9823
891.611	9751
891.734	9682
891.857	9770
891.98	9705
892.103	9789
892.226	9717
892.349	9740
892.471	9515
892.594	9629
892.717	9614
892.839	9694
892.962	9568
893.085	9667
893.207	9511
893.33	9519
893.452	9492
893.575	9572
893.697	9481
893.819	9595
893.941	9591
894.064	9599
894.186	9450
894.308	9370
894.43	9538
894.552	9561
894.674	9523
894.796	9355
894.918	9393
895.04	9351
895.161	9260
895.283	9359
895.405	9279
895.526	9260
895.648	9264
895.769	9233
895.891	9226
896.012	9310
896.134	9142
896.255	9123
896.376	9097
896.498	9142
896.619	9070
896.74	9039
896.861	9055
896.982	9268
897.103	9302
897.224	9195
897.345	9043
897.466	9005
897.587	9036
897.708	9097
897.828	9005
897.949	8971
898.07	8811
898.19	8849
898.311	9032
898.431	8910
898.552	8849
898.672	8971
898.792	8948
898.913	8845
899.033	8788
899.153	8739
899.273	8632
899.393	8716
899.513	8796
899.633	8697
899.753	8701
899.873	8762
899.993	8750
900.113	8705
900.232	8659
900.352	8667
900.472	8629
900.591	8556
900.711	8590
900.83	8522
900.95	8598
901.069	8727
901.189	8568
901.308	8446
901.427	8374
901.546	8404
901.665	8488
901.784	8511
901.904	8400
902.023	8317
902.141	8240
902.26	8187
902.379	8317
902.498	8199
902.617	8153
902.735	8320
902.854	8309
902.973	8309
903.091	8180
903.21	8100
903.328	8221
903.446	8157
903.565	8088
903.683	8126
903.801	8058
903.919	8092
904.038	8126
904.156	8073
904.274	8081
904.392	8027
904.51	8073
904.627	8092
904.745	8088
904.863	8103
904.981	7925
905.098	7879
905.216	7902
905.334	7894
905.451	7921
905.569	7765
905.686	7936
905.803	7944
905.921	7788
906.038	7852
906.155	7818
906.272	7708
906.389	7693
906.506	7719
906.623	7609
906.74	7643
906.857	7495
906.974	7643
907.091	7696
907.208	7689
907.324	7662
907.441	7620
907.557	7468
907.674	7480
907.79	7396
907.907	7407
908.023	7407
908.139	7419
908.256	7365
908.372	7308
908.488	7312
908.604	7266
908.72	7190
908.836	7213
908.952	7221
909.068	7244
909.184	7324
909.3	7247
909.415	7274
909.531	7305
909.647	7149
909.762	7110
909.878	7110
909.993	7122
910.108	7118
910.224	7027
910.339	7103
910.454	7027
910.57	6970
910.685	6973
910.8	7137
910.915	7103
911.03	7000
911.145	6871
911.259	6833
911.374	6878
911.489	6806
911.604	6783
911.718	6719
911.833	6677
911.947	6589
912.062	6635
912.176	6726
912.291	6730
912.405	6726
912.519	6764
912.633	6825
912.748	6745
912.862	6722
912.976	6627
913.09	6582
913.204	6555
913.318	6589
913.431	6669
913.545	6673
913.659	6726
913.772	6673
913.886	6612
914	6498
914.113	6604
914.226	6589
914.34	6582
914.453	6506
914.566	6574
914.68	6555
914.793	6506
914.906	6452
915.019	6433
915.132	6384
915.245	6376
915.358	6437
915.47	6448
915.583	6479
915.696	6486
915.809	6536
915.921	6517
916.034	6376
916.146	6410
916.259	6357
916.371	6475
916.483	6460
916.595	6380
916.708	6399
916.82	6376
916.932	6395
917.044	6361
917.156	6407
917.268	6308
917.38	6311
917.491	6304
917.603	6350
917.715	6418
917.826	6391
917.938	6308
918.049	6213
918.161	6346
918.272	6414
918.384	6437
918.495	6319
918.606	6258
918.717	6201
918.828	6235
918.939	6194
919.05	6175
919.161	6266
919.272	6076
919.383	6125
919.494	6315
919.604	6414
919.715	6254
919.826	6171
919.936	6270
920.047	6323
920.157	6209
920.267	6433
920.378	6270
920.488	6372
920.598	6426
920.708	6544
920.818	6433
920.928	6399
921.038	6563
921.148	6559
921.258	6304
921.368	6262
921.477	6163
921.587	6144
921.697	6072
921.806	6190
921.916	6064
922.025	5901
922.134	5942
922.244	5931
922.353	5897
922.462	5805
922.571	5767
922.68	5688
922.789	5646
922.898	5767
923.007	5642
923.116	5699
923.224	5737
923.333	5646
923.442	5577
923.55	5592
923.659	5619
923.767	5585
923.876	5532
923.984	5589
924.092	5543
924.201	5558
924.309	5505
924.417	5539
924.525	5512
924.633	5482
924.741	6292
924.849	5368
924.956	5467
925.064	5311
925.172	5284
925.279	5315
925.387	5345
925.494	5318
925.602	5421
925.709	5360
925.816	5250
925.924	5341
926.031	5372
926.138	5341
926.245	5326
926.352	5242
926.459	5269
926.566	5273
926.673	5174
926.779	5128
926.886	5121
926.993	5003
927.099	4949
927.206	5010
927.312	4953
927.419	5037
927.525	4953
927.631	4995
927.737	4885
927.843	4911
927.95	4778
928.056	4835
928.162	4797
928.267	4839
928.373	5277
928.479	4847
928.585	4641
928.69	4755
928.796	4763
928.901	4725
929.007	4531
929.112	4660
929.218	4698
929.323	4656
929.428	4588
929.533	4664
929.638	4550
929.743	4516
929.848	4588
929.953	4497
930.058	4443
930.163	4303
930.267	4318
930.372	4348
930.477	4303
930.581	4466
930.685	4348
930.79	4230
930.894	4268
930.998	4223
931.103	4402
931.207	4128
931.311	4090
931.415	4055
931.519	3953
931.623	3949
