Data from glass_V78500241_2775.txt Node
Date: Wed Sep 01 19:33:44 CST 2021
User: usil
Spectrometer: V785-0024
Trigger mode: 0
Integration Time (sec): 4.000000E-1
Scans to average: 1
Nonlinearity correction enabled: false
Boxcar width: 0
Storing dark spectrum: false
XAxis mode: Wavelengths
Number of Pixels in Spectrum: 1024
>>>>>Begin Spectral Data<<<<<
801.071	3717
801.214	3740
801.356	3709
801.499	3740
801.641	3694
801.783	3736
801.926	3808
802.068	3789
802.211	3854
802.353	3831
802.496	3850
802.638	3865
802.78	3907
802.923	3949
803.065	3911
803.208	3827
803.35	3850
803.492	3846
803.635	3896
803.777	3800
803.919	3899
804.061	4112
804.204	3907
804.346	3903
804.488	3861
804.63	4032
804.773	3972
804.915	4013
805.057	4154
805.199	3991
805.341	4078
805.483	4116
805.626	4109
805.768	4097
805.91	4166
806.052	4207
806.194	4207
806.336	4344
806.478	4173
806.62	4124
806.762	4162
806.904	4166
807.046	4280
807.188	4196
807.33	4185
807.472	4238
807.614	4188
807.756	4249
807.898	4185
808.04	4158
808.182	4257
808.324	4333
808.465	4360
808.607	4440
808.749	4440
808.891	4455
809.033	4459
809.174	4402
809.316	4196
809.458	4246
809.6	4128
809.741	4185
809.883	4173
810.025	4177
810.166	4150
810.308	4234
810.45	4204
810.591	4181
810.733	4265
810.875	4489
811.016	4839
811.158	5151
811.299	5258
811.441	5269
811.582	5067
811.724	4694
811.865	4383
812.007	4489
812.148	4390
812.29	4417
812.431	4360
812.573	4409
812.714	4363
812.855	4394
812.997	4421
813.138	4474
813.279	4379
813.421	4390
813.562	4333
813.703	4299
813.845	4333
813.986	4223
814.127	4207
814.268	4268
814.41	4219
814.551	4215
814.692	4333
814.833	4280
814.974	4287
815.115	4314
815.256	4257
815.397	4246
815.539	4272
815.68	4173
815.821	4196
815.962	4272
816.103	4257
816.244	4188
816.385	4246
816.526	4280
816.666	4169
816.807	4101
816.948	4154
817.089	4169
817.23	4120
817.371	4025
817.512	4036
817.653	4051
817.793	3983
817.934	4025
818.075	4063
818.216	4067
818.356	4090
818.497	4002
818.638	3907
818.778	3869
818.919	3880
819.06	3861
819.2	3896
819.341	3846
819.481	3846
819.622	3869
819.762	4029
819.903	3979
820.043	3861
820.184	3835
820.324	3819
820.465	3850
820.605	3831
820.746	3804
820.886	3838
821.026	3972
821.167	3873
821.307	3975
821.447	3934
821.588	3945
821.728	3911
821.868	3937
822.008	3865
822.149	3896
822.289	3896
822.429	3797
822.569	3740
822.709	3781
822.849	3675
822.99	3709
823.13	3690
823.27	3717
823.41	3713
823.55	3713
823.69	3781
823.83	3682
823.97	3671
824.11	3606
824.25	3549
824.389	3606
824.529	3641
824.669	3629
824.809	3724
824.949	3732
825.089	3747
825.228	3675
825.368	3572
825.508	3549
825.648	3549
825.787	3595
825.927	3587
826.067	3610
826.206	3660
826.346	3774
826.485	3816
826.625	3812
826.765	3949
826.904	3835
827.044	3584
827.183	3507
827.323	3416
827.462	3500
827.601	3386
827.741	3363
827.88	3412
828.02	3382
828.159	3409
828.298	3473
828.437	3504
828.577	3458
828.716	3545
828.855	3443
828.994	3340
829.134	3359
829.273	3359
829.412	3344
829.551	3336
829.69	3359
829.829	3374
829.968	3542
830.107	3382
830.246	3439
830.385	3325
830.524	3389
830.663	3287
830.802	3260
830.941	3161
831.08	3180
831.219	3272
831.357	3226
831.496	3409
831.635	3222
831.774	3207
831.913	3188
832.051	3119
832.19	3150
832.329	3192
832.467	3127
832.606	3100
832.744	3150
832.883	3192
833.022	3211
833.16	3245
833.299	3336
833.437	3325
833.576	3370
833.714	3409
833.852	3477
833.991	3401
834.129	3443
834.267	3428
834.406	3367
834.544	3443
834.682	3397
834.821	3397
834.959	3534
835.097	3428
835.235	3477
835.373	3439
835.511	3488
835.65	3462
835.788	3469
835.926	3389
836.064	3412
836.202	3393
836.34	3545
836.478	3606
836.615	3549
836.753	3576
836.891	3610
837.029	3549
837.167	3564
837.305	3576
837.443	3515
837.58	3523
837.718	3584
837.856	3515
837.993	3523
838.131	3568
838.269	3542
838.406	3526
838.544	3534
838.681	3439
838.819	3450
838.956	3382
839.094	3359
839.231	3428
839.369	3492
839.506	3694
839.643	3618
839.781	3492
839.918	3439
840.055	3515
840.193	3507
840.33	3538
840.467	3538
840.604	3587
840.742	3823
840.879	3477
841.016	3549
841.153	3568
841.29	3736
841.427	3663
841.564	3694
841.701	3751
841.838	3679
841.975	3637
842.112	3675
842.249	3622
842.385	3629
842.522	3770
842.659	3671
842.796	3667
842.933	3686
843.069	3728
843.206	3720
843.343	3774
843.479	3778
843.616	3812
843.752	3679
843.889	3663
844.025	3838
844.162	3656
844.298	3812
844.435	3797
844.571	3747
844.708	3857
844.844	3994
844.98	4010
845.117	3998
845.253	3888
845.389	3861
845.525	3968
845.661	3945
845.798	3884
845.934	3991
846.07	3956
846.206	4032
846.342	4097
846.478	4040
846.614	3930
846.75	3918
846.886	3907
847.022	4013
847.158	3983
847.294	4010
847.429	4010
847.565	3979
847.701	4261
847.837	3854
847.972	3831
848.108	3934
848.244	3937
848.379	3838
848.515	3797
848.65	3797
848.786	3861
848.921	3842
849.057	3892
849.192	3945
849.328	3865
849.463	3907
849.598	3873
849.734	3888
849.869	3835
850.004	3774
850.14	3770
850.275	3762
850.41	3720
850.545	3709
850.68	3781
850.815	3762
850.95	3755
851.085	3949
851.22	3850
851.355	3774
851.49	3778
851.625	3766
851.76	3740
851.895	3759
852.03	3713
852.165	3797
852.299	3823
852.434	3850
852.569	3854
852.703	3876
852.838	3918
852.973	4006
853.107	4013
853.242	3907
853.376	3854
853.511	3732
853.645	3816
853.78	3983
853.914	3846
854.048	3880
854.183	3888
854.317	3972
854.451	4074
854.585	3892
854.72	3926
854.854	4055
854.988	3922
855.122	3975
855.256	3922
855.39	3972
855.524	4105
855.658	4071
855.792	4055
855.926	4071
856.06	4124
856.194	4169
856.327	4131
856.461	4082
856.595	4105
856.729	4158
856.862	4196
856.996	4219
857.13	4291
857.263	4287
857.397	4341
857.53	4268
857.664	4356
857.797	4413
857.931	4409
858.064	4386
858.197	4432
858.331	4402
858.464	4383
858.597	4352
858.731	4417
858.864	4451
858.997	4424
859.13	4497
859.263	4497
859.396	4599
859.529	4485
859.662	4527
859.795	4550
859.928	4580
860.061	4634
860.194	4694
860.327	4653
860.46	4649
860.592	4721
860.725	4771
860.858	4748
860.99	4656
861.123	4687
861.256	4672
861.388	4740
861.521	5204
861.653	4702
861.786	4710
861.918	4706
862.05	4782
862.183	4793
862.315	4889
862.447	4919
862.58	4904
862.712	4763
862.844	4717
862.976	4824
863.108	4896
863.24	5265
863.372	4809
863.504	4934
863.636	4881
863.768	4949
863.9	4976
864.032	4942
864.164	4942
864.296	5010
864.428	5041
864.559	5090
864.691	5071
864.823	5121
864.954	5094
865.086	5090
865.217	5098
865.349	5094
865.48	5132
865.612	5227
865.743	5288
865.875	5193
866.006	5216
866.137	5246
866.269	5227
866.4	5261
866.531	5181
866.662	5216
866.793	5269
866.924	5242
867.055	5414
867.186	5402
867.317	5307
867.448	5280
867.579	5326
867.71	5357
867.841	5379
867.972	5395
868.103	5505
868.233	5444
868.364	5482
868.495	5562
868.625	5695
868.756	5748
868.886	5653
869.017	5710
869.147	5824
869.278	5817
869.408	5779
869.539	5824
869.669	5885
869.799	5878
869.929	5961
870.06	6011
870.19	6133
870.32	6175
870.45	6323
870.58	6270
870.71	6388
870.84	6380
870.97	6426
871.1	6403
871.23	6658
871.36	6658
871.489	6627
871.619	6787
871.749	6779
871.879	6878
872.008	6928
872.138	6947
872.267	6977
872.397	7004
872.526	7057
872.656	7114
872.785	7217
872.915	7419
873.044	7483
873.173	7499
873.303	7674
873.432	7719
873.561	7868
873.69	7841
873.819	8039
873.948	8161
874.077	8286
874.206	8328
874.335	8400
874.464	8587
874.593	8819
874.722	8880
874.851	9051
874.979	9218
875.108	9348
875.237	9397
875.365	9447
875.494	9622
875.623	9869
875.751	9759
875.88	10002
876.008	10200
876.136	10295
876.265	10516
876.393	10744
876.521	10706
876.65	10782
876.778	10873
876.906	10869
877.034	11067
877.162	11086
877.29	11086
877.418	11318
877.546	11330
877.674	11455
877.802	11524
877.93	11448
878.058	11562
878.185	11611
878.313	11577
878.441	11745
878.568	11661
878.696	11688
878.824	11863
878.951	11836
879.079	11893
879.206	12117
879.333	12121
879.461	11973
879.588	12087
879.715	11950
879.842	12129
879.97	12098
880.097	11775
880.224	11828
880.351	11840
880.478	11897
880.605	11821
880.732	11840
880.859	11901
880.986	11779
881.112	11741
881.239	11642
881.366	11672
881.493	11604
881.619	11509
881.746	11543
881.872	11551
881.999	11570
882.125	11493
882.252	11547
882.378	11455
882.505	11539
882.631	11315
882.757	11265
882.883	11349
883.01	11216
883.136	11197
883.262	11109
883.388	11067
883.514	11216
883.64	11189
883.766	11083
883.892	10999
884.018	10946
884.143	11109
884.269	11029
884.395	10889
884.52	10755
884.646	10736
884.772	10790
884.897	10637
885.023	10656
885.148	10668
885.274	10790
885.399	10611
885.524	10641
885.65	10558
885.775	10615
885.9	10516
886.025	10565
886.15	10542
886.275	10394
886.4	10459
886.525	10375
886.65	10405
886.775	10329
886.9	10405
887.025	10428
887.149	10310
887.274	10219
887.399	10181
887.523	10162
887.648	10032
887.773	10036
887.897	10196
888.021	10219
888.146	10135
888.27	10196
888.395	10265
888.519	10109
888.643	10048
888.767	10169
888.891	10128
889.015	9998
889.139	10048
889.263	9892
889.387	10097
889.511	10074
889.635	10036
889.759	9964
889.883	9949
890.006	10002
890.13	10120
890.254	9956
890.377	9838
890.501	9838
890.624	9842
890.748	9892
890.871	9751
890.995	9755
891.118	9740
891.241	9713
891.364	9747
891.488	9857
891.611	9701
891.734	9797
891.857	9751
891.98	9751
892.103	9728
892.226	9698
892.349	9568
892.471	9439
892.594	9549
892.717	9572
892.839	9572
892.962	9686
893.085	9648
893.207	9545
893.33	9523
893.452	9511
893.575	9633
893.697	9481
893.819	9633
893.941	9519
894.064	9595
894.186	9393
894.308	9405
894.43	9542
894.552	9587
894.674	9515
894.796	9310
894.918	9382
895.04	9340
895.161	9397
895.283	9344
895.405	9302
895.526	9245
895.648	9310
895.769	9272
895.891	9203
896.012	9275
896.134	9241
896.255	9188
896.376	9135
896.498	9005
896.619	9074
896.74	9051
896.861	9089
896.982	9218
897.103	9294
897.224	9241
897.345	9112
897.466	9032
897.587	9032
897.708	9013
897.828	8986
897.949	8937
898.07	8838
898.19	8895
898.311	8960
898.431	8925
898.552	8914
898.672	8986
898.792	8921
898.913	8906
899.033	8800
899.153	8708
899.273	8636
899.393	8693
899.513	8727
899.633	8636
899.753	8739
899.873	8720
899.993	8777
900.113	8697
900.232	8651
900.352	8606
900.472	8549
900.591	8533
900.711	8568
900.83	8545
900.95	8674
901.069	8705
901.189	8545
901.308	8431
901.427	8434
901.546	8427
901.665	8480
901.784	8503
901.904	8396
902.023	8313
902.141	8248
902.26	8263
902.379	8233
902.498	8206
902.617	8244
902.735	8267
902.854	8332
902.973	8233
903.091	8123
903.21	8149
903.328	8145
903.446	8103
903.565	8111
903.683	8111
903.801	8046
903.919	8123
904.038	8153
904.156	8001
904.274	8084
904.392	8016
904.51	8081
904.627	8043
904.745	8073
904.863	8119
904.981	7887
905.098	7883
905.216	7841
905.334	7909
905.451	7913
905.569	7841
905.686	7860
905.803	7814
905.921	7727
906.038	7860
906.155	7799
906.272	7655
906.389	7674
906.506	7666
906.623	7582
906.74	7571
906.857	7483
906.974	7613
907.091	7655
907.208	7674
907.324	7578
907.441	7628
907.557	7377
907.674	7411
907.79	7388
907.907	7419
908.023	7449
908.139	7419
908.256	7369
908.372	7331
908.488	7312
908.604	7228
908.72	7240
908.836	7305
908.952	7175
909.068	7247
909.184	7324
909.3	7244
909.415	7305
909.531	7293
909.647	7156
909.762	7122
909.878	7076
909.993	7034
910.108	7038
910.224	7084
910.339	7095
910.454	6993
910.57	6905
910.685	6939
910.8	7160
910.915	7206
911.03	7000
911.145	6875
911.259	6859
911.374	6867
911.489	6810
911.604	6772
911.718	6726
911.833	6749
911.947	6681
912.062	6585
912.176	6665
912.291	6646
912.405	6726
912.519	6821
912.633	6818
912.748	6738
912.862	6635
912.976	6623
913.09	6528
913.204	6608
913.318	6616
913.431	6658
913.545	6673
913.659	6700
913.772	6620
913.886	6563
914	6498
914.113	6612
914.226	6612
914.34	6608
914.453	6464
914.566	6597
914.68	6502
914.793	6471
914.906	6403
915.019	6399
915.132	6388
915.245	6441
915.358	6422
915.47	6441
915.583	6407
915.696	6433
915.809	6509
915.921	6566
916.034	6399
916.146	6414
916.259	6372
916.371	6471
916.483	6433
916.595	6384
916.708	6441
916.82	6445
916.932	6365
917.044	6365
917.156	6380
917.268	6285
917.38	6311
917.491	6247
917.603	6315
917.715	6376
917.826	6376
917.938	6304
918.049	6228
918.161	6342
918.272	6410
918.384	6410
918.495	6273
918.606	6285
918.717	6197
918.828	6285
918.939	6308
919.05	6182
919.161	6163
919.272	6144
919.383	6095
919.494	6220
919.604	6334
919.715	6281
919.826	6243
919.936	6243
920.047	6270
920.157	6258
920.267	6391
920.378	6342
920.488	6270
920.598	6433
920.708	6593
920.818	6426
920.928	6441
921.038	6544
921.148	6544
921.258	6357
921.368	6254
921.477	6190
921.587	6182
921.697	6057
921.806	6140
921.916	6064
922.025	5939
922.134	5912
922.244	5832
922.353	5885
922.462	5779
922.571	5756
922.68	5722
922.789	5642
922.898	5684
923.007	5619
923.116	5737
923.224	5661
923.333	5672
923.442	5600
923.55	5573
923.659	5539
923.767	5623
923.876	5509
923.984	5581
924.092	5493
924.201	5573
924.309	5524
924.417	5558
924.525	5455
924.633	5474
924.741	6262
924.849	5357
924.956	5421
925.064	5307
925.172	5307
925.279	5277
925.387	5330
925.494	5284
925.602	5410
925.709	5398
925.816	5235
925.924	5273
926.031	5364
926.138	5296
926.245	5345
926.352	5193
926.459	5280
926.566	5269
926.673	5201
926.779	5128
926.886	5128
926.993	4980
927.099	4968
927.206	4930
927.312	4949
927.419	4999
927.525	4984
927.631	4984
927.737	4904
927.843	4843
927.95	4725
928.056	4812
928.162	4812
928.267	4824
928.373	5368
928.479	4812
928.585	4698
928.69	4729
928.796	4759
928.901	4653
929.007	4535
929.112	4672
929.218	4630
929.323	4588
929.428	4546
929.533	4615
929.638	4493
929.743	4519
929.848	4546
929.953	4546
930.058	4474
930.163	4284
930.267	4352
930.372	4428
930.477	4265
930.581	4443
930.685	4379
930.79	4242
930.894	4276
930.998	4246
931.103	4352
931.207	4097
931.311	4044
931.415	4017
931.519	3926
931.623	3941
