Data from glass_V78500241_2904.txt Node
Date: Wed Sep 01 19:34:37 CST 2021
User: usil
Spectrometer: V785-0024
Trigger mode: 0
Integration Time (sec): 4.000000E-1
Scans to average: 1
Nonlinearity correction enabled: false
Boxcar width: 0
Storing dark spectrum: false
XAxis mode: Wavelengths
Number of Pixels in Spectrum: 1024
>>>>>Begin Spectral Data<<<<<
801.071	3709
801.214	3740
801.356	3720
801.499	3717
801.641	3675
801.783	3713
801.926	3800
802.068	3827
802.211	3823
802.353	3857
802.496	3812
802.638	3884
802.78	3911
802.923	3945
803.065	3869
803.208	3869
803.35	3850
803.492	3857
803.635	3888
803.777	3781
803.919	3907
804.061	4090
804.204	3956
804.346	3960
804.488	3880
804.63	3991
804.773	3953
804.915	3998
805.057	4078
805.199	4002
805.341	4025
805.483	4109
805.626	4109
805.768	4063
805.91	4162
806.052	4223
806.194	4166
806.336	4367
806.478	4204
806.62	4116
806.762	4204
806.904	4211
807.046	4314
807.188	4185
807.33	4169
807.472	4200
807.614	4135
807.756	4295
807.898	4162
808.04	4242
808.182	4276
808.324	4276
808.465	4322
808.607	4462
808.749	4417
808.891	4440
809.033	4504
809.174	4352
809.316	4257
809.458	4223
809.6	4105
809.741	4124
809.883	4120
810.025	4166
810.166	4169
810.308	4181
810.45	4246
810.591	4227
810.733	4249
810.875	4478
811.016	4778
811.158	5098
811.299	5250
811.441	5288
811.582	5045
811.724	4763
811.865	4466
812.007	4432
812.148	4398
812.29	4375
812.431	4379
812.573	4394
812.714	4325
812.855	4356
812.997	4383
813.138	4409
813.279	4379
813.421	4390
813.562	4318
813.703	4333
813.845	4352
813.986	4253
814.127	4219
814.268	4181
814.41	4261
814.551	4242
814.692	4299
814.833	4242
814.974	4299
815.115	4303
815.256	4265
815.397	4219
815.539	4211
815.68	4150
815.821	4181
815.962	4299
816.103	4230
816.244	4200
816.385	4242
816.526	4246
816.666	4185
816.807	4082
816.948	4192
817.089	4109
817.23	4086
817.371	4010
817.512	4025
817.653	4040
817.793	3998
817.934	4017
818.075	4074
818.216	4055
818.356	4063
818.497	3945
818.638	3907
818.778	3896
818.919	3876
819.06	3876
819.2	3888
819.341	3884
819.481	3835
819.622	3869
819.762	3998
819.903	3941
820.043	3842
820.184	3823
820.324	3827
820.465	3899
820.605	3854
820.746	3884
820.886	3770
821.026	3903
821.167	3888
821.307	3934
821.447	3975
821.588	3930
821.728	3922
821.868	3892
822.008	3846
822.149	3876
822.289	3907
822.429	3785
822.569	3732
822.709	3759
822.849	3648
822.99	3682
823.13	3690
823.27	3736
823.41	3694
823.55	3709
823.69	3671
823.83	3755
823.97	3667
824.11	3595
824.25	3595
824.389	3614
824.529	3629
824.669	3599
824.809	3690
824.949	3709
825.089	3698
825.228	3717
825.368	3584
825.508	3519
825.648	3576
825.787	3603
825.927	3618
826.067	3614
826.206	3656
826.346	3774
826.485	3785
826.625	3876
826.765	3918
826.904	3800
827.044	3595
827.183	3481
827.323	3416
827.462	3458
827.601	3420
827.741	3367
827.88	3458
828.02	3344
828.159	3416
828.298	3450
828.437	3523
828.577	3466
828.716	3534
828.855	3443
828.994	3348
829.134	3355
829.273	3397
829.412	3329
829.551	3313
829.69	3325
829.829	3397
829.968	3519
830.107	3443
830.246	3412
830.385	3367
830.524	3321
830.663	3291
830.802	3233
830.941	3199
831.08	3123
831.219	3230
831.357	3176
831.496	3382
831.635	3241
831.774	3188
831.913	3180
832.051	3123
832.19	3161
832.329	3211
832.467	3093
832.606	3058
832.744	3207
832.883	3135
833.022	3176
833.16	3222
833.299	3264
833.437	3298
833.576	3370
833.714	3405
833.852	3393
833.991	3412
834.129	3443
834.267	3397
834.406	3355
834.544	3420
834.682	3401
834.821	3386
834.959	3542
835.097	3348
835.235	3473
835.373	3466
835.511	3450
835.65	3420
835.788	3447
835.926	3363
836.064	3367
836.202	3435
836.34	3511
836.478	3580
836.615	3519
836.753	3542
836.891	3606
837.029	3599
837.167	3576
837.305	3519
837.443	3500
837.58	3507
837.718	3568
837.856	3557
837.993	3504
838.131	3557
838.269	3561
838.406	3519
838.544	3534
838.681	3466
838.819	3481
838.956	3359
839.094	3401
839.231	3424
839.369	3447
839.506	3682
839.643	3625
839.781	3488
839.918	3450
840.055	3511
840.193	3507
840.33	3488
840.467	3519
840.604	3576
840.742	3812
840.879	3534
841.016	3530
841.153	3564
841.29	3766
841.427	3675
841.564	3698
841.701	3740
841.838	3675
841.975	3660
842.112	3671
842.249	3652
842.385	3587
842.522	3831
842.659	3660
842.796	3625
842.933	3671
843.069	3667
843.206	3671
843.343	3804
843.479	3751
843.616	3781
843.752	3671
843.889	3652
844.025	3804
844.162	3682
844.298	3785
844.435	3736
844.571	3759
844.708	3850
844.844	3964
844.98	3972
845.117	3964
845.253	3888
845.389	3854
845.525	3930
845.661	3949
845.798	3926
845.934	3975
846.07	3937
846.206	4048
846.342	4044
846.478	4025
846.614	3937
846.75	3922
846.886	3934
847.022	3987
847.158	3937
847.294	3998
847.429	3972
847.565	3930
847.701	4204
847.837	3861
847.972	3857
848.108	3975
848.244	3899
848.379	3869
848.515	3823
848.65	3812
848.786	3816
848.921	3804
849.057	3884
849.192	3972
849.328	3869
849.463	3907
849.598	3838
849.734	3804
849.869	3835
850.004	3774
850.14	3808
850.275	3819
850.41	3644
850.545	3770
850.68	3751
850.815	3800
850.95	3713
851.085	3930
851.22	3880
851.355	3800
851.49	3755
851.625	3785
851.76	3789
851.895	3690
852.03	3679
852.165	3774
852.299	3838
852.434	3876
852.569	3846
852.703	3865
852.838	3915
852.973	3998
853.107	3960
853.242	3857
853.376	3846
853.511	3766
853.645	3793
853.78	3926
853.914	3857
854.048	3876
854.183	3865
854.317	3941
854.451	4051
854.585	3934
854.72	3937
854.854	4013
854.988	3918
855.122	3949
855.256	3926
855.39	3968
855.524	4090
855.658	4040
855.792	4090
855.926	4109
856.06	4147
856.194	4150
856.327	4120
856.461	4128
856.595	4097
856.729	4139
856.862	4234
856.996	4219
857.13	4276
857.263	4276
857.397	4363
857.53	4280
857.664	4318
857.797	4367
857.931	4409
858.064	4398
858.197	4421
858.331	4371
858.464	4325
858.597	4344
858.731	4363
858.864	4424
858.997	4421
859.13	4497
859.263	4523
859.396	4584
859.529	4493
859.662	4481
859.795	4466
859.928	4592
860.061	4698
860.194	4691
860.327	4626
860.46	4660
860.592	4702
860.725	4740
860.858	4736
860.99	4683
861.123	4622
861.256	4649
861.388	4778
861.521	5280
861.653	4710
861.786	4660
861.918	4733
862.05	4763
862.183	4824
862.315	4858
862.447	4862
862.58	4881
862.712	4755
862.844	4714
862.976	4843
863.108	4866
863.24	5147
863.372	4782
863.504	4828
863.636	4870
863.768	4972
863.9	4930
864.032	4843
864.164	4942
864.296	5022
864.428	5090
864.559	5075
864.691	5071
864.823	5067
864.954	5037
865.086	5105
865.217	5147
865.349	5090
865.48	5094
865.612	5140
865.743	5277
865.875	5170
866.006	5147
866.137	5216
866.269	5239
866.4	5189
866.531	5181
866.662	5185
866.793	5254
866.924	5235
867.055	5318
867.186	5318
867.317	5288
867.448	5288
867.579	5353
867.71	5360
867.841	5376
867.972	5395
868.103	5353
868.233	5482
868.364	5444
868.495	5543
868.625	5653
868.756	5733
868.886	5646
869.017	5726
869.147	5870
869.278	5809
869.408	5802
869.539	5790
869.669	5859
869.799	5874
869.929	5939
870.06	6019
870.19	6175
870.32	6205
870.45	6194
870.58	6304
870.71	6448
870.84	6456
870.97	6448
871.1	6456
871.23	6631
871.36	6658
871.489	6604
871.619	6681
871.749	6810
871.879	6844
872.008	6981
872.138	6932
872.267	6924
872.397	6951
872.526	7038
872.656	7069
872.785	7145
872.915	7312
873.044	7464
873.173	7506
873.303	7647
873.432	7712
873.561	7818
873.69	7883
873.819	7997
873.948	8187
874.077	8183
874.206	8347
874.335	8434
874.464	8617
874.593	8830
874.722	8849
874.851	9108
874.979	9184
875.108	9405
875.237	9393
875.365	9511
875.494	9644
875.623	9793
875.751	9797
875.88	9991
876.008	10074
876.136	10227
876.265	10402
876.393	10729
876.521	10729
876.65	10752
876.778	10812
876.906	10892
877.034	10965
877.162	11014
877.29	11155
877.418	11193
877.546	11429
877.674	11433
877.802	11455
877.93	11463
878.058	11501
878.185	11547
878.313	11638
878.441	11729
878.568	11695
878.696	11748
878.824	11809
878.951	11893
879.079	12003
879.206	12102
879.333	12022
879.461	11958
879.588	12076
879.715	12003
879.842	12133
879.97	12087
880.097	11855
880.224	11813
880.351	11828
880.478	11874
880.605	11745
880.732	11748
880.859	12003
880.986	11817
881.112	11802
881.239	11688
881.366	11600
881.493	11543
881.619	11497
881.746	11589
881.872	11463
881.999	11425
882.125	11490
882.252	11512
882.378	11486
882.505	11535
882.631	11330
882.757	11269
882.883	11277
883.01	11212
883.136	11128
883.262	11067
883.388	11090
883.514	11220
883.64	11128
883.766	11090
883.892	10949
884.018	10953
884.143	11075
884.269	11033
884.395	10869
884.52	10714
884.646	10767
884.772	10725
884.897	10653
885.023	10702
885.148	10683
885.274	10755
885.399	10714
885.524	10527
885.65	10630
885.775	10516
885.9	10497
886.025	10580
886.15	10611
886.275	10474
886.4	10394
886.525	10352
886.65	10306
886.775	10344
886.9	10432
887.025	10428
887.149	10234
887.274	10135
887.399	10246
887.523	10181
887.648	10036
887.773	10071
887.897	10154
888.021	10204
888.146	10124
888.27	10234
888.395	10287
888.519	10162
888.643	10154
888.767	10139
888.891	10063
889.015	10040
889.139	10097
889.263	9964
889.387	10029
889.511	10112
889.635	9987
889.759	9854
889.883	9941
890.006	10029
890.13	9987
890.254	9903
890.377	9937
890.501	9838
890.624	9857
890.748	9850
890.871	9770
890.995	9751
891.118	9705
891.241	9762
891.364	9724
891.488	9740
891.611	9675
891.734	9701
891.857	9751
891.98	9694
892.103	9740
892.226	9686
892.349	9614
892.471	9523
892.594	9526
892.717	9603
892.839	9584
892.962	9523
893.085	9618
893.207	9500
893.33	9511
893.452	9576
893.575	9641
893.697	9405
893.819	9663
893.941	9591
894.064	9557
894.186	9389
894.308	9370
894.43	9481
894.552	9610
894.674	9519
894.796	9359
894.918	9363
895.04	9275
895.161	9332
895.283	9355
895.405	9165
895.526	9161
895.648	9233
895.769	9207
895.891	9245
896.012	9180
896.134	9211
896.255	9135
896.376	9085
896.498	9157
896.619	9055
896.74	9077
896.861	9093
896.982	9230
897.103	9203
897.224	9146
897.345	9077
897.466	8963
897.587	8941
897.708	9039
897.828	8994
897.949	8891
898.07	8883
898.19	8929
898.311	8979
898.431	8883
898.552	8883
898.672	8933
898.792	8872
898.913	8838
899.033	8773
899.153	8743
899.273	8644
899.393	8708
899.513	8708
899.633	8727
899.753	8735
899.873	8640
899.993	8667
900.113	8701
900.232	8636
900.352	8640
900.472	8590
900.591	8530
900.711	8518
900.83	8499
900.95	8644
901.069	8686
901.189	8518
901.308	8408
901.427	8385
901.546	8495
901.665	8427
901.784	8446
901.904	8347
902.023	8313
902.141	8233
902.26	8153
902.379	8279
902.498	8214
902.617	8221
902.735	8279
902.854	8256
902.973	8210
903.091	8100
903.21	8077
903.328	8103
903.446	8039
903.565	8096
903.683	8024
903.801	8058
903.919	8145
904.038	8103
904.156	7997
904.274	8077
904.392	8096
904.51	7951
904.627	8008
904.745	8054
904.863	8092
904.981	7932
905.098	7902
905.216	7898
905.334	7830
905.451	7822
905.569	7833
905.686	7879
905.803	7879
905.921	7731
906.038	7818
906.155	7761
906.272	7681
906.389	7742
906.506	7620
906.623	7590
906.74	7597
906.857	7571
906.974	7472
907.091	7620
907.208	7647
907.324	7597
907.441	7582
907.557	7434
907.674	7403
907.79	7403
907.907	7415
908.023	7400
908.139	7400
908.256	7343
908.372	7362
908.488	7320
908.604	7301
908.72	7232
908.836	7213
908.952	7206
909.068	7168
909.184	7251
909.3	7141
909.415	7297
909.531	7278
909.647	7149
909.762	7053
909.878	7084
909.993	7080
910.108	7095
910.224	7069
910.339	7088
910.454	7038
910.57	6928
910.685	6947
910.8	7145
910.915	6993
911.03	6977
911.145	6897
911.259	6818
911.374	6825
911.489	6829
911.604	6806
911.718	6684
911.833	6757
911.947	6654
912.062	6547
912.176	6650
912.291	6650
912.405	6722
912.519	6818
912.633	6818
912.748	6677
912.862	6703
912.976	6646
913.09	6471
913.204	6566
913.318	6597
913.431	6635
913.545	6646
913.659	6681
913.772	6623
913.886	6570
914	6502
914.113	6544
914.226	6597
914.34	6589
914.453	6456
914.566	6585
914.68	6441
914.793	6460
914.906	6331
915.019	6384
915.132	6342
915.245	6414
915.358	6448
915.47	6395
915.583	6479
915.696	6437
915.809	6456
915.921	6544
916.034	6380
916.146	6346
916.259	6357
916.371	6422
916.483	6426
916.595	6380
916.708	6448
916.82	6384
916.932	6361
917.044	6361
917.156	6399
917.268	6270
917.38	6323
917.491	6285
917.603	6266
917.715	6273
917.826	6391
917.938	6292
918.049	6258
918.161	6300
918.272	6372
918.384	6388
918.495	6247
918.606	6235
918.717	6239
918.828	6197
918.939	6232
919.05	6178
919.161	6216
919.272	6091
919.383	6121
919.494	6220
919.604	6334
919.715	6270
919.826	6247
919.936	6194
920.047	6285
920.157	6243
920.267	6399
920.378	6289
920.488	6228
920.598	6429
920.708	6525
920.818	6479
920.928	6388
921.038	6517
921.148	6471
921.258	6315
921.368	6262
921.477	6266
921.587	6163
921.697	6068
921.806	6209
921.916	6087
922.025	5874
922.134	5847
922.244	5901
922.353	5901
922.462	5878
922.571	5764
922.68	5710
922.789	5646
922.898	5676
923.007	5596
923.116	5684
923.224	5684
923.333	5615
923.442	5581
923.55	5535
923.659	5585
923.767	5623
923.876	5471
923.984	5566
924.092	5528
924.201	5474
924.309	5455
924.417	5535
924.525	5448
924.633	5455
924.741	6129
924.849	5391
924.956	5440
925.064	5364
925.172	5292
925.279	5277
925.387	5379
925.494	5318
925.602	5429
925.709	5360
925.816	5254
925.924	5296
926.031	5265
926.138	5265
926.245	5326
926.352	5159
926.459	5318
926.566	5318
926.673	5162
926.779	5090
926.886	5064
926.993	4980
927.099	4961
927.206	4946
927.312	4911
927.419	4976
927.525	4957
927.631	4904
927.737	4889
927.843	4850
927.95	4736
928.056	4782
928.162	4801
928.267	4805
928.373	5357
928.479	4797
928.585	4615
928.69	4771
928.796	4786
928.901	4714
929.007	4592
929.112	4618
929.218	4622
929.323	4611
929.428	4542
929.533	4672
929.638	4493
929.743	4500
929.848	4519
929.953	4546
930.058	4394
930.163	4295
930.267	4329
930.372	4436
930.477	4295
930.581	4459
930.685	4314
930.79	4272
930.894	4272
930.998	4200
931.103	4379
931.207	4090
931.311	4067
931.415	4002
931.519	3888
931.623	3937
