Data from glass_V78500241_614.txt Node
Date: Wed Sep 01 19:18:45 CST 2021
User: usil
Spectrometer: V785-0024
Trigger mode: 0
Integration Time (sec): 4.000000E-1
Scans to average: 1
Nonlinearity correction enabled: false
Boxcar width: 0
Storing dark spectrum: false
XAxis mode: Wavelengths
Number of Pixels in Spectrum: 1024
>>>>>Begin Spectral Data<<<<<
801.071	3720
801.214	3778
801.356	3751
801.499	3751
801.641	3747
801.783	3755
801.926	3880
802.068	3911
802.211	3873
802.353	3892
802.496	3857
802.638	3884
802.78	3873
802.923	3945
803.065	3896
803.208	3869
803.35	3888
803.492	3915
803.635	3926
803.777	3835
803.919	3888
804.061	4109
804.204	3956
804.346	3964
804.488	3926
804.63	4059
804.773	3934
804.915	4086
805.057	4192
805.199	4059
805.341	4105
805.483	4131
805.626	4116
805.768	4109
805.91	4219
806.052	4253
806.194	4196
806.336	4379
806.478	4227
806.62	4135
806.762	4223
806.904	4325
807.046	4386
807.188	4188
807.33	4181
807.472	4227
807.614	4207
807.756	4265
807.898	4238
808.04	4196
808.182	4291
808.324	4356
808.465	4383
808.607	4436
808.749	4436
808.891	4470
809.033	4500
809.174	4428
809.316	4253
809.458	4219
809.6	4143
809.741	4150
809.883	4147
810.025	4249
810.166	4200
810.308	4223
810.45	4265
810.591	4204
810.733	4337
810.875	4512
811.016	4774
811.158	5159
811.299	5277
811.441	5322
811.582	5090
811.724	4721
811.865	4481
812.007	4512
812.148	4436
812.29	4409
812.431	4424
812.573	4394
812.714	4409
812.855	4466
812.997	4428
813.138	4516
813.279	4402
813.421	4417
813.562	4352
813.703	4356
813.845	4371
813.986	4303
814.127	4265
814.268	4291
814.41	4322
814.551	4238
814.692	4341
814.833	4280
814.974	4318
815.115	4356
815.256	4303
815.397	4280
815.539	4280
815.68	4207
815.821	4215
815.962	4303
816.103	4249
816.244	4272
816.385	4223
816.526	4299
816.666	4242
816.807	4101
816.948	4169
817.089	4188
817.23	4150
817.371	4006
817.512	4093
817.653	4131
817.793	4051
817.934	4051
818.075	4105
818.216	4059
818.356	4112
818.497	4013
818.638	3876
818.778	3975
818.919	3918
819.06	3884
819.2	3945
819.341	3854
819.481	3873
819.622	3915
819.762	4021
819.903	3972
820.043	3892
820.184	3854
820.324	3865
820.465	3918
820.605	3857
820.746	3934
820.886	3835
821.026	3941
821.167	3888
821.307	4013
821.447	3968
821.588	3991
821.728	4002
821.868	3930
822.008	3865
822.149	3907
822.289	3941
822.429	3812
822.569	3808
822.709	3778
822.849	3701
822.99	3701
823.13	3781
823.27	3800
823.41	3751
823.55	3740
823.69	3736
823.83	3781
823.97	3694
824.11	3641
824.25	3606
824.389	3648
824.529	3671
824.669	3660
824.809	3717
824.949	3770
825.089	3720
825.228	3694
825.368	3633
825.508	3610
825.648	3545
825.787	3618
825.927	3656
826.067	3606
826.206	3671
826.346	3770
826.485	3884
826.625	3892
826.765	3896
826.904	3838
827.044	3599
827.183	3526
827.323	3477
827.462	3511
827.601	3401
827.741	3466
827.88	3458
828.02	3359
828.159	3424
828.298	3492
828.437	3580
828.577	3462
828.716	3587
828.855	3507
828.994	3401
829.134	3351
829.273	3389
829.412	3397
829.551	3378
829.69	3359
829.829	3431
829.968	3545
830.107	3447
830.246	3530
830.385	3336
830.524	3389
830.663	3306
830.802	3264
830.941	3249
831.08	3188
831.219	3272
831.357	3291
831.496	3386
831.635	3222
831.774	3203
831.913	3199
832.051	3150
832.19	3142
832.329	3233
832.467	3127
832.606	3108
832.744	3207
832.883	3161
833.022	3203
833.16	3260
833.299	3302
833.437	3348
833.576	3344
833.714	3431
833.852	3477
833.991	3431
834.129	3439
834.267	3428
834.406	3412
834.544	3405
834.682	3439
834.821	3477
834.959	3580
835.097	3405
835.235	3519
835.373	3519
835.511	3477
835.65	3454
835.788	3504
835.926	3412
836.064	3382
836.202	3386
836.34	3614
836.478	3614
836.615	3561
836.753	3618
836.891	3667
837.029	3610
837.167	3625
837.305	3564
837.443	3557
837.58	3500
837.718	3576
837.856	3564
837.993	3568
838.131	3603
838.269	3625
838.406	3606
838.544	3580
838.681	3488
838.819	3466
838.956	3386
839.094	3412
839.231	3466
839.369	3526
839.506	3751
839.643	3663
839.781	3496
839.918	3473
840.055	3538
840.193	3538
840.33	3526
840.467	3507
840.604	3599
840.742	3808
840.879	3603
841.016	3610
841.153	3603
841.29	3778
841.427	3755
841.564	3709
841.701	3747
841.838	3720
841.975	3720
842.112	3720
842.249	3629
842.385	3679
842.522	3816
842.659	3713
842.796	3679
842.933	3728
843.069	3713
843.206	3705
843.343	3842
843.479	3800
843.616	3808
843.752	3675
843.889	3679
844.025	3922
844.162	3732
844.298	3880
844.435	3827
844.571	3770
844.708	3869
844.844	3949
844.98	3968
845.117	4010
845.253	3956
845.389	3922
845.525	3964
845.661	3972
845.798	3953
845.934	4017
846.07	4021
846.206	4029
846.342	4101
846.478	4090
846.614	4006
846.75	3953
846.886	3926
847.022	4036
847.158	3998
847.294	3991
847.429	4059
847.565	4002
847.701	4249
847.837	3869
847.972	3907
848.108	4021
848.244	3998
848.379	3880
848.515	3781
848.65	3865
848.786	3804
848.921	3884
849.057	3975
849.192	3915
849.328	3907
849.463	3956
849.598	3918
849.734	3880
849.869	3831
850.004	3804
850.14	3804
850.275	3804
850.41	3732
850.545	3804
850.68	3778
850.815	3797
850.95	3800
851.085	3983
851.22	3857
851.355	3831
851.49	3774
851.625	3804
851.76	3831
851.895	3751
852.03	3732
852.165	3804
852.299	3831
852.434	3922
852.569	3876
852.703	3869
852.838	3941
852.973	4013
853.107	3987
853.242	3876
853.376	3857
853.511	3789
853.645	3835
853.78	4002
853.914	3915
854.048	3907
854.183	3884
854.317	4002
854.451	4063
854.585	3975
854.72	3956
854.854	4013
854.988	3934
855.122	4029
855.256	3956
855.39	4067
855.524	4101
855.658	4086
855.792	4105
855.926	4124
856.06	4196
856.194	4223
856.327	4166
856.461	4147
856.595	4147
856.729	4173
856.862	4299
856.996	4272
857.13	4303
857.263	4329
857.397	4367
857.53	4318
857.664	4348
857.797	4417
857.931	4417
858.064	4428
858.197	4470
858.331	4383
858.464	4379
858.597	4375
858.731	4455
858.864	4455
858.997	4462
859.13	4565
859.263	4519
859.396	4573
859.529	4542
859.662	4565
859.795	4550
859.928	4615
860.061	4733
860.194	4767
860.327	4675
860.46	4645
860.592	4736
860.725	4809
860.858	4793
860.99	4714
861.123	4706
861.256	4702
861.388	4778
861.521	5402
861.653	4725
861.786	4748
861.918	4714
862.05	4793
862.183	4843
862.315	4946
862.447	4934
862.58	4923
862.712	4812
862.844	4782
862.976	4866
863.108	4953
863.24	5181
863.372	4858
863.504	4957
863.636	4873
863.768	4980
863.9	4972
864.032	4984
864.164	4984
864.296	4949
864.428	5132
864.559	5128
864.691	5117
864.823	5124
864.954	5143
865.086	5189
865.217	5155
865.349	5136
865.48	5178
865.612	5197
865.743	5318
865.875	5235
866.006	5197
866.137	5280
866.269	5258
866.4	5269
866.531	5250
866.662	5246
866.793	5296
866.924	5315
867.055	5364
867.186	5372
867.317	5349
867.448	5322
867.579	5414
867.71	5406
867.841	5421
867.972	5417
868.103	5455
868.233	5448
868.364	5493
868.495	5486
868.625	5680
868.756	5840
868.886	5680
869.017	5726
869.147	5813
869.278	5973
869.408	5851
869.539	5802
869.669	5916
869.799	5961
869.929	5916
870.06	6072
870.19	6175
870.32	6209
870.45	6243
870.58	6353
870.71	6429
870.84	6448
870.97	6433
871.1	6502
871.23	6639
871.36	6707
871.489	6658
871.619	6757
871.749	6821
871.879	6848
872.008	7000
872.138	6947
872.267	6981
872.397	6981
872.526	7012
872.656	7137
872.785	7202
872.915	7392
873.044	7548
873.173	7601
873.303	7632
873.432	7788
873.561	7890
873.69	7947
873.819	8031
873.948	8115
874.077	8259
874.206	8400
874.335	8518
874.464	8697
874.593	8826
874.722	8960
874.851	9169
874.979	9241
875.108	9374
875.237	9428
875.365	9450
875.494	9717
875.623	9907
875.751	9869
875.88	10021
876.008	10131
876.136	10295
876.265	10527
876.393	10672
876.521	10706
876.65	10869
876.778	10984
876.906	10885
877.034	11022
877.162	11075
877.29	11060
877.418	11254
877.546	11326
877.674	11410
877.802	11547
877.93	11532
878.058	11554
878.185	11596
878.313	11668
878.441	11718
878.568	11722
878.696	11824
878.824	11832
878.951	11973
879.079	12068
879.206	12182
879.333	12064
879.461	12030
879.588	12049
879.715	12087
879.842	12281
879.97	12209
880.097	11794
880.224	11859
880.351	11942
880.478	11817
880.605	11821
880.732	11790
880.859	12106
880.986	11912
881.112	11863
881.239	11771
881.366	11627
881.493	11627
881.619	11642
881.746	11585
881.872	11501
881.999	11532
882.125	11547
882.252	11672
882.378	11558
882.505	11558
882.631	11364
882.757	11296
882.883	11322
883.01	11231
883.136	11166
883.262	11136
883.388	11117
883.514	11178
883.64	11242
883.766	11162
883.892	11006
884.018	11079
884.143	11090
884.269	11075
884.395	10896
884.52	10771
884.646	10824
884.772	10733
884.897	10687
885.023	10691
885.148	10694
885.274	10797
885.399	10687
885.524	10611
885.65	10607
885.775	10618
885.9	10519
886.025	10599
886.15	10618
886.275	10497
886.4	10424
886.525	10424
886.65	10386
886.775	10314
886.9	10462
887.025	10542
887.149	10394
887.274	10238
887.399	10227
887.523	10211
887.648	10169
887.773	10071
887.897	10341
888.021	10188
888.146	10147
888.27	10272
888.395	10128
888.519	10268
888.643	10196
888.767	10230
888.891	10158
889.015	10040
889.139	10105
889.263	10048
889.387	10101
889.511	10128
889.635	10131
889.759	10006
889.883	10010
890.006	9956
890.13	10124
890.254	10002
890.377	9968
890.501	9937
890.624	9922
890.748	9846
890.871	9751
890.995	9774
891.118	9759
891.241	9800
891.364	9720
891.488	9888
891.611	9679
891.734	9762
891.857	9816
891.98	9667
892.103	9785
892.226	9717
892.349	9663
892.471	9584
892.594	9614
892.717	9705
892.839	9629
892.962	9644
893.085	9785
893.207	9614
893.33	9538
893.452	9549
893.575	9595
893.697	9549
893.819	9622
893.941	9679
894.064	9663
894.186	9428
894.308	9397
894.43	9526
894.552	9580
894.674	9534
894.796	9359
894.918	9363
895.04	9344
895.161	9382
895.283	9374
895.405	9241
895.526	9256
895.648	9256
895.769	9351
895.891	9253
896.012	9283
896.134	9249
896.255	9173
896.376	9100
896.498	9176
896.619	9127
896.74	9081
896.861	9127
896.982	9275
897.103	9355
897.224	9112
897.345	9142
897.466	9066
897.587	9070
897.708	9036
897.828	9024
897.949	9036
898.07	8918
898.19	8902
898.311	9047
898.431	8902
898.552	8960
898.672	9043
898.792	8906
898.913	8937
899.033	8834
899.153	8796
899.273	8693
899.393	8716
899.513	8769
899.633	8670
899.753	8743
899.873	8727
899.993	8758
900.113	8686
900.232	8739
900.352	8617
900.472	8659
900.591	8632
900.711	8594
900.83	8564
900.95	8651
901.069	8705
901.189	8583
901.308	8457
901.427	8427
901.546	8431
901.665	8511
901.784	8560
901.904	8396
902.023	8393
902.141	8248
902.26	8252
902.379	8355
902.498	8221
902.617	8202
902.735	8263
902.854	8271
902.973	8263
903.091	8088
903.21	8096
903.328	8218
903.446	8164
903.565	8100
903.683	8096
903.801	8062
903.919	8088
904.038	8164
904.156	7986
904.274	8065
904.392	8043
904.51	8046
904.627	8100
904.745	8065
904.863	8130
904.981	7909
905.098	7871
905.216	7890
905.334	7883
905.451	7856
905.569	7856
905.686	7932
905.803	7925
905.921	7780
906.038	7879
906.155	7811
906.272	7734
906.389	7757
906.506	7677
906.623	7677
906.74	7643
906.857	7506
906.974	7616
907.091	7632
907.208	7712
907.324	7655
907.441	7552
907.557	7552
907.674	7476
907.79	7388
907.907	7464
908.023	7419
908.139	7480
908.256	7400
908.372	7388
908.488	7331
908.604	7308
908.72	7251
908.836	7339
908.952	7213
909.068	7198
909.184	7324
909.3	7297
909.415	7346
909.531	7354
909.647	7091
909.762	7095
909.878	7129
909.993	7156
910.108	7107
910.224	7080
910.339	7149
910.454	7038
910.57	7038
910.685	7000
910.8	7247
910.915	7171
911.03	7050
911.145	6932
911.259	6875
911.374	6875
911.489	6894
911.604	6897
911.718	6764
911.833	6795
911.947	6707
912.062	6646
912.176	6703
912.291	6738
912.405	6715
912.519	6837
912.633	6821
912.748	6753
912.862	6764
912.976	6604
913.09	6612
913.204	6582
913.318	6635
913.431	6665
913.545	6734
913.659	6719
913.772	6650
913.886	6563
914	6563
914.113	6639
914.226	6658
914.34	6582
914.453	6525
914.566	6631
914.68	6547
914.793	6547
914.906	6433
915.019	6403
915.132	6403
915.245	6418
915.358	6490
915.47	6418
915.583	6498
915.696	6498
915.809	6513
915.921	6578
916.034	6456
916.146	6369
916.259	6407
916.371	6471
916.483	6407
916.595	6407
916.708	6369
916.82	6407
916.932	6399
917.044	6429
917.156	6407
917.268	6338
917.38	6418
917.491	6372
917.603	6361
917.715	6418
917.826	6410
917.938	6342
918.049	6289
918.161	6304
918.272	6429
918.384	6441
918.495	6338
918.606	6258
918.717	6190
918.828	6228
918.939	6266
919.05	6228
919.161	6201
919.272	6209
919.383	6209
919.494	6292
919.604	6418
919.715	6277
919.826	6186
919.936	6273
920.047	6418
920.157	6243
920.267	6479
920.378	6300
920.488	6292
920.598	6418
920.708	6547
920.818	6506
920.928	6433
921.038	6627
921.148	6566
921.258	6418
921.368	6327
921.477	6224
921.587	6197
921.697	6129
921.806	6155
921.916	6064
922.025	5965
922.134	5920
922.244	5923
922.353	5954
922.462	5832
922.571	5828
922.68	5809
922.789	5714
922.898	5741
923.007	5688
923.116	5764
923.224	5691
923.333	5608
923.442	5611
923.55	5551
923.659	5589
923.767	5611
923.876	5585
923.984	5634
924.092	5573
924.201	5551
924.309	5570
924.417	5619
924.525	5497
924.633	5520
924.741	6281
924.849	5414
924.956	5444
925.064	5402
925.172	5341
925.279	5303
925.387	5364
925.494	5337
925.602	5421
925.709	5414
925.816	5273
925.924	5296
926.031	5368
926.138	5318
926.245	5311
926.352	5223
926.459	5330
926.566	5357
926.673	5223
926.779	5193
926.886	5132
926.993	5071
927.099	4961
927.206	4972
927.312	4942
927.419	5025
927.525	5029
927.631	5003
927.737	4919
927.843	4911
927.95	4786
928.056	4812
928.162	4873
928.267	4908
928.373	5261
928.479	4873
928.585	4721
928.69	4831
928.796	4740
928.901	4702
929.007	4615
929.112	4683
929.218	4664
929.323	4565
929.428	4611
929.533	4672
929.638	4554
929.743	4535
929.848	4580
929.953	4519
930.058	4485
930.163	4352
930.267	4360
930.372	4455
930.477	4303
930.581	4485
930.685	4344
930.79	4272
930.894	4314
930.998	4249
931.103	4383
931.207	4116
931.311	4143
931.415	4090
931.519	3937
931.623	3949
