Data from glass_V78500241_2209.txt Node
Date: Wed Sep 01 19:29:48 CST 2021
User: usil
Spectrometer: V785-0024
Trigger mode: 0
Integration Time (sec): 4.000000E-1
Scans to average: 1
Nonlinearity correction enabled: false
Boxcar width: 0
Storing dark spectrum: false
XAxis mode: Wavelengths
Number of Pixels in Spectrum: 1024
>>>>>Begin Spectral Data<<<<<
801.071	3728
801.214	3717
801.356	3698
801.499	3720
801.641	3740
801.783	3747
801.926	3880
802.068	3812
802.211	3842
802.353	3896
802.496	3800
802.638	3869
802.78	3857
802.923	3880
803.065	3869
803.208	3816
803.35	3819
803.492	3876
803.635	3922
803.777	3819
803.919	3857
804.061	4154
804.204	3949
804.346	3911
804.488	3926
804.63	4067
804.773	3998
804.915	4040
805.057	4120
805.199	4010
805.341	4059
805.483	4124
805.626	4139
805.768	4128
805.91	4215
806.052	4227
806.194	4219
806.336	4333
806.478	4207
806.62	4185
806.762	4181
806.904	4280
807.046	4329
807.188	4200
807.33	4131
807.472	4268
807.614	4143
807.756	4284
807.898	4230
808.04	4257
808.182	4375
808.324	4310
808.465	4363
808.607	4481
808.749	4447
808.891	4447
809.033	4470
809.174	4398
809.316	4223
809.458	4253
809.6	4143
809.741	4112
809.883	4150
810.025	4204
810.166	4158
810.308	4227
810.45	4223
810.591	4253
810.733	4265
810.875	4523
811.016	4839
811.158	5155
811.299	5277
811.441	5296
811.582	5048
811.724	4721
811.865	4432
812.007	4421
812.148	4394
812.29	4405
812.431	4390
812.573	4432
812.714	4329
812.855	4421
812.997	4363
813.138	4470
813.279	4409
813.421	4375
813.562	4352
813.703	4295
813.845	4295
813.986	4234
814.127	4280
814.268	4230
814.41	4310
814.551	4268
814.692	4337
814.833	4257
814.974	4318
815.115	4318
815.256	4211
815.397	4265
815.539	4238
815.68	4162
815.821	4234
815.962	4261
816.103	4287
816.244	4188
816.385	4230
816.526	4299
816.666	4196
816.807	4051
816.948	4166
817.089	4223
817.23	4097
817.371	4067
817.512	4044
817.653	4086
817.793	3983
817.934	4036
818.075	4063
818.216	4040
818.356	4059
818.497	3987
818.638	3934
818.778	3937
818.919	3861
819.06	3907
819.2	3918
819.341	3850
819.481	3827
819.622	3896
819.762	4029
819.903	3915
820.043	3838
820.184	3873
820.324	3800
820.465	3857
820.605	3892
820.746	3854
820.886	3770
821.026	3918
821.167	3911
821.307	3953
821.447	3991
821.588	3930
821.728	3915
821.868	3941
822.008	3892
822.149	3907
822.289	3922
822.429	3781
822.569	3793
822.709	3778
822.849	3698
822.99	3682
823.13	3751
823.27	3751
823.41	3717
823.55	3743
823.69	3675
823.83	3736
823.97	3641
824.11	3641
824.25	3576
824.389	3660
824.529	3698
824.669	3652
824.809	3679
824.949	3785
825.089	3724
825.228	3686
825.368	3561
825.508	3572
825.648	3538
825.787	3629
825.927	3622
826.067	3637
826.206	3660
826.346	3766
826.485	3793
826.625	3842
826.765	3960
826.904	3838
827.044	3603
827.183	3526
827.323	3416
827.462	3458
827.601	3393
827.741	3450
827.88	3481
828.02	3397
828.159	3447
828.298	3477
828.437	3515
828.577	3485
828.716	3622
828.855	3473
828.994	3321
829.134	3340
829.273	3389
829.412	3389
829.551	3332
829.69	3374
829.829	3412
829.968	3511
830.107	3428
830.246	3431
830.385	3363
830.524	3344
830.663	3329
830.802	3249
830.941	3157
831.08	3214
831.219	3275
831.357	3256
831.496	3386
831.635	3241
831.774	3199
831.913	3161
832.051	3123
832.19	3108
832.329	3233
832.467	3150
832.606	3112
832.744	3135
832.883	3211
833.022	3173
833.16	3256
833.299	3310
833.437	3310
833.576	3386
833.714	3374
833.852	3397
833.991	3450
834.129	3447
834.267	3412
834.406	3374
834.544	3405
834.682	3431
834.821	3374
834.959	3622
835.097	3412
835.235	3545
835.373	3500
835.511	3504
835.65	3431
835.788	3500
835.926	3367
836.064	3393
836.202	3397
836.34	3545
836.478	3610
836.615	3504
836.753	3603
836.891	3637
837.029	3591
837.167	3580
837.305	3568
837.443	3553
837.58	3511
837.718	3610
837.856	3519
837.993	3526
838.131	3557
838.269	3553
838.406	3603
838.544	3580
838.681	3458
838.819	3496
838.956	3317
839.094	3363
839.231	3420
839.369	3511
839.506	3732
839.643	3606
839.781	3466
839.918	3424
840.055	3488
840.193	3523
840.33	3534
840.467	3568
840.604	3606
840.742	3797
840.879	3538
841.016	3576
841.153	3595
841.29	3720
841.427	3717
841.564	3720
841.701	3724
841.838	3671
841.975	3671
842.112	3690
842.249	3618
842.385	3622
842.522	3831
842.659	3686
842.796	3660
842.933	3709
843.069	3717
843.206	3698
843.343	3793
843.479	3778
843.616	3831
843.752	3652
843.889	3686
844.025	3876
844.162	3728
844.298	3846
844.435	3774
844.571	3785
844.708	3911
844.844	3972
844.98	4017
845.117	3987
845.253	3941
845.389	3941
845.525	3991
845.661	3953
845.798	3953
845.934	4017
846.07	3934
846.206	4086
846.342	4051
846.478	4086
846.614	3941
846.75	3922
846.886	3918
847.022	4006
847.158	3953
847.294	4048
847.429	4051
847.565	3975
847.701	4215
847.837	3892
847.972	3850
848.108	3972
848.244	3911
848.379	3857
848.515	3846
848.65	3781
848.786	3842
848.921	3907
849.057	3869
849.192	3964
849.328	3880
849.463	3888
849.598	3842
849.734	3884
849.869	3846
850.004	3793
850.14	3812
850.275	3766
850.41	3705
850.545	3732
850.68	3800
850.815	3823
850.95	3823
851.085	3975
851.22	3827
851.355	3804
851.49	3774
851.625	3789
851.76	3778
851.895	3762
852.03	3705
852.165	3774
852.299	3857
852.434	3949
852.569	3869
852.703	3930
852.838	3941
852.973	3994
853.107	3972
853.242	3850
853.376	3838
853.511	3720
853.645	3808
853.78	3960
853.914	3922
854.048	3922
854.183	3888
854.317	3949
854.451	4067
854.585	3964
854.72	3941
854.854	4044
854.988	3930
855.122	3987
855.256	3960
855.39	4021
855.524	4112
855.658	4101
855.792	4059
855.926	4128
856.06	4154
856.194	4177
856.327	4139
856.461	4105
856.595	4135
856.729	4196
856.862	4242
856.996	4268
857.13	4242
857.263	4318
857.397	4325
857.53	4249
857.664	4314
857.797	4405
857.931	4436
858.064	4398
858.197	4455
858.331	4417
858.464	4379
858.597	4322
858.731	4398
858.864	4466
858.997	4451
859.13	4493
859.263	4558
859.396	4577
859.529	4527
859.662	4497
859.795	4546
859.928	4573
860.061	4641
860.194	4710
860.327	4714
860.46	4660
860.592	4706
860.725	4725
860.858	4763
860.99	4687
861.123	4675
861.256	4706
861.388	4774
861.521	5379
861.653	4725
861.786	4736
861.918	4793
862.05	4790
862.183	4816
862.315	4831
862.447	4911
862.58	4889
862.712	4774
862.844	4782
862.976	4843
863.108	4892
863.24	5140
863.372	4831
863.504	4908
863.636	4896
863.768	4957
863.9	4949
864.032	4965
864.164	4911
864.296	4980
864.428	5113
864.559	5064
864.691	5155
864.823	5071
864.954	5105
865.086	5117
865.217	5140
865.349	5090
865.48	5140
865.612	5216
865.743	5269
865.875	5151
866.006	5216
866.137	5242
866.269	5239
866.4	5265
866.531	5197
866.662	5227
866.793	5273
866.924	5284
867.055	5326
867.186	5296
867.317	5318
867.448	5311
867.579	5376
867.71	5345
867.841	5364
867.972	5463
868.103	5474
868.233	5524
868.364	5459
868.495	5547
868.625	5634
868.756	5783
868.886	5684
869.017	5710
869.147	5790
869.278	5882
869.408	5813
869.539	5821
869.669	5923
869.799	5897
869.929	5950
870.06	6015
870.19	6190
870.32	6220
870.45	6266
870.58	6350
870.71	6445
870.84	6426
870.97	6407
871.1	6422
871.23	6688
871.36	6692
871.489	6642
871.619	6745
871.749	6768
871.879	6840
872.008	7031
872.138	6947
872.267	7034
872.397	7008
872.526	7042
872.656	7095
872.785	7190
872.915	7324
873.044	7537
873.173	7556
873.303	7643
873.432	7746
873.561	7868
873.69	7932
873.819	8001
873.948	8172
874.077	8202
874.206	8317
874.335	8457
874.464	8705
874.593	8823
874.722	8967
874.851	9119
874.979	9332
875.108	9332
875.237	9428
875.365	9428
875.494	9629
875.623	9800
875.751	9804
875.88	9930
876.008	10086
876.136	10261
876.265	10523
876.393	10733
876.521	10649
876.65	10786
876.778	10869
876.906	10877
877.034	11018
877.162	11090
877.29	11181
877.418	11280
877.546	11417
877.674	11417
877.802	11444
877.93	11490
878.058	11551
878.185	11570
878.313	11710
878.441	11771
878.568	11676
878.696	11714
878.824	11832
878.951	11908
879.079	11984
879.206	12038
879.333	11999
879.461	11946
879.588	12057
879.715	12045
879.842	12182
879.97	12068
880.097	11847
880.224	11961
880.351	11901
880.478	11935
880.605	11817
880.732	11707
880.859	12053
880.986	11783
881.112	11836
881.239	11726
881.366	11684
881.493	11562
881.619	11516
881.746	11532
881.872	11551
881.999	11452
882.125	11417
882.252	11532
882.378	11379
882.505	11562
882.631	11406
882.757	11284
882.883	11364
883.01	11170
883.136	11117
883.262	11136
883.388	11151
883.514	11113
883.64	11064
883.766	11086
883.892	10976
884.018	10987
884.143	11048
884.269	11045
884.395	10828
884.52	10748
884.646	10702
884.772	10660
884.897	10721
885.023	10694
885.148	10797
885.274	10763
885.399	10687
885.524	10641
885.65	10554
885.775	10668
885.9	10603
886.025	10653
886.15	10569
886.275	10500
886.4	10375
886.525	10417
886.65	10405
886.775	10246
886.9	10440
887.025	10542
887.149	10371
887.274	10261
887.399	10204
887.523	10143
887.648	10196
887.773	10078
887.897	10310
888.021	10158
888.146	10128
888.27	10196
888.395	10185
888.519	10185
888.643	10169
888.767	10169
888.891	10032
889.015	9964
889.139	10006
889.263	9975
889.387	10101
889.511	9991
889.635	10082
889.759	9983
889.883	9941
890.006	10013
890.13	10032
890.254	9926
890.377	9998
890.501	9895
890.624	9876
890.748	9915
890.871	9812
890.995	9759
891.118	9743
891.241	9804
891.364	9793
891.488	9842
891.611	9679
891.734	9743
891.857	9717
891.98	9698
892.103	9747
892.226	9740
892.349	9724
892.471	9526
892.594	9557
892.717	9580
892.839	9572
892.962	9606
893.085	9622
893.207	9580
893.33	9450
893.452	9534
893.575	9591
893.697	9443
893.819	9595
893.941	9606
894.064	9603
894.186	9431
894.308	9405
894.43	9576
894.552	9473
894.674	9488
894.796	9389
894.918	9382
895.04	9355
895.161	9447
895.283	9317
895.405	9195
895.526	9302
895.648	9237
895.769	9195
895.891	9180
896.012	9260
896.134	9203
896.255	9214
896.376	9119
896.498	9169
896.619	9138
896.74	8990
896.861	8979
896.982	9279
897.103	9192
897.224	9192
897.345	9093
897.466	8956
897.587	9032
897.708	8998
897.828	9062
897.949	8971
898.07	8830
898.19	8834
898.311	8982
898.431	8963
898.552	8895
898.672	8918
898.792	8937
898.913	8872
899.033	8773
899.153	8746
899.273	8663
899.393	8663
899.513	8750
899.633	8705
899.753	8739
899.873	8682
899.993	8716
900.113	8727
900.232	8712
900.352	8575
900.472	8552
900.591	8533
900.711	8560
900.83	8533
900.95	8644
901.069	8651
901.189	8530
901.308	8362
901.427	8336
901.546	8423
901.665	8423
901.784	8503
901.904	8377
902.023	8339
902.141	8256
902.26	8221
902.379	8282
902.498	8187
902.617	8199
902.735	8237
902.854	8240
902.973	8259
903.091	8149
903.21	8157
903.328	8172
903.446	8046
903.565	8142
903.683	8054
903.801	8035
903.919	8058
904.038	8126
904.156	7955
904.274	8115
904.392	8024
904.51	7982
904.627	8069
904.745	8050
904.863	8039
904.981	7936
905.098	7841
905.216	7860
905.334	7967
905.451	7883
905.569	7928
905.686	7959
905.803	7913
905.921	7723
906.038	7833
906.155	7742
906.272	7792
906.389	7670
906.506	7689
906.623	7609
906.74	7586
906.857	7540
906.974	7563
907.091	7712
907.208	7734
907.324	7616
907.441	7575
907.557	7422
907.674	7441
907.79	7381
907.907	7396
908.023	7430
908.139	7483
908.256	7407
908.372	7350
908.488	7422
908.604	7270
908.72	7183
908.836	7213
908.952	7213
909.068	7263
909.184	7259
909.3	7232
909.415	7187
909.531	7225
909.647	7080
909.762	7057
909.878	7023
909.993	7152
910.108	7099
910.224	7050
910.339	7080
910.454	7107
910.57	6939
910.685	6920
910.8	7126
910.915	7008
911.03	7031
911.145	6886
911.259	6871
911.374	6886
911.489	6821
911.604	6802
911.718	6669
911.833	6711
911.947	6650
912.062	6582
912.176	6677
912.291	6711
912.405	6749
912.519	6806
912.633	6768
912.748	6677
912.862	6696
912.976	6612
913.09	6506
913.204	6551
913.318	6559
913.431	6700
913.545	6635
913.659	6669
913.772	6642
913.886	6570
914	6608
914.113	6654
914.226	6620
914.34	6601
914.453	6517
914.566	6551
914.68	6452
914.793	6509
914.906	6407
915.019	6422
915.132	6391
915.245	6426
915.358	6429
915.47	6471
915.583	6452
915.696	6460
915.809	6494
915.921	6544
916.034	6471
916.146	6407
916.259	6380
916.371	6418
916.483	6464
916.595	6460
916.708	6388
916.82	6361
916.932	6410
917.044	6418
917.156	6407
917.268	6273
917.38	6353
917.491	6239
917.603	6384
917.715	6414
917.826	6422
917.938	6403
918.049	6273
918.161	6353
918.272	6384
918.384	6433
918.495	6315
918.606	6232
918.717	6190
918.828	6289
918.939	6289
919.05	6197
919.161	6190
919.272	6083
919.383	6159
919.494	6273
919.604	6369
919.715	6308
919.826	6201
919.936	6251
920.047	6365
920.157	6232
920.267	6433
920.378	6319
920.488	6292
920.598	6509
920.708	6593
920.818	6471
920.928	6422
921.038	6639
921.148	6566
921.258	6311
921.368	6319
921.477	6243
921.587	6136
921.697	6125
921.806	6159
921.916	6087
922.025	5935
922.134	5859
922.244	5851
922.353	5969
922.462	5805
922.571	5748
922.68	5722
922.789	5672
922.898	5688
923.007	5638
923.116	5710
923.224	5642
923.333	5623
923.442	5592
923.55	5535
923.659	5611
923.767	5615
923.876	5535
923.984	5604
924.092	5554
924.201	5486
924.309	5524
924.417	5554
924.525	5497
924.633	5516
924.741	6220
924.849	5292
924.956	5455
925.064	5360
925.172	5277
925.279	5349
925.387	5414
925.494	5326
925.602	5391
925.709	5379
925.816	5265
925.924	5299
926.031	5372
926.138	5303
926.245	5292
926.352	5250
926.459	5273
926.566	5337
926.673	5220
926.779	5121
926.886	5098
926.993	5041
927.099	4987
927.206	4949
927.312	4965
927.419	5003
927.525	4934
927.631	4968
927.737	4915
927.843	4835
927.95	4759
928.056	4812
928.162	4850
928.267	4812
928.373	5284
928.479	4877
928.585	4660
928.69	4755
928.796	4736
928.901	4668
929.007	4542
929.112	4714
929.218	4626
929.323	4618
929.428	4538
929.533	4656
929.638	4493
929.743	4527
929.848	4519
929.953	4485
930.058	4424
930.163	4318
930.267	4352
930.372	4398
930.477	4276
930.581	4421
930.685	4367
930.79	4246
930.894	4291
930.998	4234
931.103	4394
931.207	4120
931.311	4048
931.415	4002
931.519	3922
931.623	3907
