Data from glass_V78500241_585.txt Node
Date: Wed Sep 01 19:18:33 CST 2021
User: usil
Spectrometer: V785-0024
Trigger mode: 0
Integration Time (sec): 4.000000E-1
Scans to average: 1
Nonlinearity correction enabled: false
Boxcar width: 0
Storing dark spectrum: false
XAxis mode: Wavelengths
Number of Pixels in Spectrum: 1024
>>>>>Begin Spectral Data<<<<<
801.071	3781
801.214	3793
801.356	3724
801.499	3762
801.641	3736
801.783	3774
801.926	3861
802.068	3869
802.211	3854
802.353	3861
802.496	3846
802.638	3934
802.78	3880
802.923	3960
803.065	3888
803.208	3846
803.35	3846
803.492	3869
803.635	3907
803.777	3797
803.919	3911
804.061	4166
804.204	3964
804.346	3975
804.488	3903
804.63	4029
804.773	3987
804.915	4029
805.057	4147
805.199	4036
805.341	4097
805.483	4158
805.626	4154
805.768	4162
805.91	4227
806.052	4242
806.194	4253
806.336	4360
806.478	4242
806.62	4158
806.762	4166
806.904	4287
807.046	4356
807.188	4246
807.33	4200
807.472	4291
807.614	4234
807.756	4303
807.898	4215
808.04	4249
808.182	4272
808.324	4344
808.465	4398
808.607	4481
808.749	4455
808.891	4523
809.033	4516
809.174	4440
809.316	4223
809.458	4249
809.6	4181
809.741	4150
809.883	4192
810.025	4234
810.166	4219
810.308	4223
810.45	4253
810.591	4204
810.733	4268
810.875	4508
811.016	4877
811.158	5098
811.299	5277
811.441	5273
811.582	5060
811.724	4763
811.865	4535
812.007	4432
812.148	4447
812.29	4451
812.431	4409
812.573	4424
812.714	4405
812.855	4459
812.997	4421
813.138	4500
813.279	4428
813.421	4413
813.562	4383
813.703	4371
813.845	4310
813.986	4284
814.127	4211
814.268	4314
814.41	4318
814.551	4261
814.692	4329
814.833	4276
814.974	4310
815.115	4329
815.256	4272
815.397	4253
815.539	4200
815.68	4246
815.821	4249
815.962	4344
816.103	4325
816.244	4261
816.385	4227
816.526	4306
816.666	4223
816.807	4120
816.948	4185
817.089	4173
817.23	4120
817.371	4067
817.512	4063
817.653	4071
817.793	4055
817.934	4032
818.075	4101
818.216	4101
818.356	4063
818.497	3968
818.638	3903
818.778	3911
818.919	3915
819.06	3884
819.2	3915
819.341	3857
819.481	3857
819.622	3934
819.762	4078
819.903	3972
820.043	3869
820.184	3819
820.324	3846
820.465	3903
820.605	3873
820.746	3861
820.886	3831
821.026	3918
821.167	3930
821.307	3975
821.447	4021
821.588	3930
821.728	3949
821.868	3960
822.008	3865
822.149	3941
822.289	3949
822.429	3766
822.569	3762
822.709	3812
822.849	3663
822.99	3740
823.13	3751
823.27	3778
823.41	3709
823.55	3762
823.69	3736
823.83	3759
823.97	3679
824.11	3633
824.25	3603
824.389	3698
824.529	3644
824.669	3622
824.809	3728
824.949	3755
825.089	3755
825.228	3720
825.368	3599
825.508	3568
825.648	3580
825.787	3614
825.927	3641
826.067	3629
826.206	3682
826.346	3823
826.485	3835
826.625	3899
826.765	3972
826.904	3835
827.044	3652
827.183	3500
827.323	3424
827.462	3504
827.601	3431
827.741	3450
827.88	3466
828.02	3378
828.159	3469
828.298	3458
828.437	3530
828.577	3504
828.716	3606
828.855	3526
828.994	3405
829.134	3378
829.273	3389
829.412	3401
829.551	3363
829.69	3393
829.829	3420
829.968	3523
830.107	3443
830.246	3462
830.385	3412
830.524	3359
830.663	3306
830.802	3237
830.941	3249
831.08	3199
831.219	3256
831.357	3272
831.496	3454
831.635	3279
831.774	3173
831.913	3211
832.051	3138
832.19	3154
832.329	3233
832.467	3138
832.606	3135
832.744	3211
832.883	3157
833.022	3180
833.16	3279
833.299	3291
833.437	3348
833.576	3367
833.714	3428
833.852	3439
833.991	3481
834.129	3504
834.267	3481
834.406	3367
834.544	3447
834.682	3458
834.821	3409
834.959	3553
835.097	3439
835.235	3534
835.373	3507
835.511	3538
835.65	3458
835.788	3504
835.926	3405
836.064	3420
836.202	3386
836.34	3625
836.478	3633
836.615	3538
836.753	3591
836.891	3682
837.029	3663
837.167	3591
837.305	3564
837.443	3534
837.58	3488
837.718	3580
837.856	3568
837.993	3538
838.131	3610
838.269	3641
838.406	3610
838.544	3610
838.681	3462
838.819	3507
838.956	3389
839.094	3397
839.231	3466
839.369	3519
839.506	3743
839.643	3660
839.781	3458
839.918	3454
840.055	3549
840.193	3568
840.33	3538
840.467	3576
840.604	3606
840.742	3812
840.879	3580
841.016	3542
841.153	3622
841.29	3759
841.427	3694
841.564	3740
841.701	3724
841.838	3755
841.975	3751
842.112	3675
842.249	3686
842.385	3641
842.522	3854
842.659	3713
842.796	3667
842.933	3724
843.069	3698
843.206	3743
843.343	3812
843.479	3808
843.616	3812
843.752	3705
843.889	3679
844.025	3903
844.162	3701
844.298	3880
844.435	3797
844.571	3823
844.708	3960
844.844	3972
844.98	4040
845.117	4059
845.253	3918
845.389	3892
845.525	3941
845.661	3956
845.798	3964
845.934	3987
846.07	3972
846.206	4097
846.342	4139
846.478	4025
846.614	4010
846.75	3987
846.886	3941
847.022	4071
847.158	3964
847.294	3987
847.429	4040
847.565	4002
847.701	4280
847.837	3899
847.972	3861
848.108	4025
848.244	3956
848.379	3842
848.515	3800
848.65	3816
848.786	3831
848.921	3876
849.057	3956
849.192	3964
849.328	3899
849.463	3975
849.598	3892
849.734	3850
849.869	3785
850.004	3770
850.14	3823
850.275	3812
850.41	3781
850.545	3743
850.68	3755
850.815	3808
850.95	3793
851.085	3949
851.22	3835
851.355	3892
851.49	3747
851.625	3781
851.76	3850
851.895	3755
852.03	3755
852.165	3789
852.299	3842
852.434	3907
852.569	3846
852.703	3899
852.838	3945
852.973	3998
853.107	3964
853.242	3911
853.376	3831
853.511	3804
853.645	3861
853.78	3987
853.914	3926
854.048	3941
854.183	3861
854.317	3972
854.451	4051
854.585	3987
854.72	3953
854.854	4032
854.988	3911
855.122	4021
855.256	3907
855.39	4017
855.524	4120
855.658	4090
855.792	4150
855.926	4112
856.06	4211
856.194	4204
856.327	4173
856.461	4135
856.595	4162
856.729	4215
856.862	4310
856.996	4272
857.13	4303
857.263	4344
857.397	4371
857.53	4299
857.664	4386
857.797	4348
857.931	4462
858.064	4428
858.197	4489
858.331	4421
858.464	4421
858.597	4379
858.731	4443
858.864	4497
858.997	4447
859.13	4527
859.263	4546
859.396	4584
859.529	4542
859.662	4561
859.795	4516
859.928	4592
860.061	4725
860.194	4767
860.327	4675
860.46	4603
860.592	4733
860.725	4786
860.858	4744
860.99	4755
861.123	4744
861.256	4706
861.388	4809
861.521	5402
861.653	4771
861.786	4740
861.918	4763
862.05	4763
862.183	4873
862.315	4934
862.447	4904
862.58	4961
862.712	4820
862.844	4801
862.976	4915
863.108	4915
863.24	5178
863.372	4896
863.504	4919
863.636	4908
863.768	5029
863.9	4949
864.032	4965
864.164	4965
864.296	4999
864.428	5102
864.559	5162
864.691	5140
864.823	5124
864.954	5117
865.086	5178
865.217	5185
865.349	5124
865.48	5162
865.612	5159
865.743	5299
865.875	5212
866.006	5170
866.137	5223
866.269	5212
866.4	5269
866.531	5258
866.662	5322
866.793	5296
866.924	5383
867.055	5307
867.186	5303
867.317	5360
867.448	5292
867.579	5417
867.71	5402
867.841	5353
867.972	5497
868.103	5509
868.233	5524
868.364	5532
868.495	5501
868.625	5642
868.756	5779
868.886	5680
869.017	5786
869.147	5874
869.278	5855
869.408	5821
869.539	5866
869.669	5935
869.799	5885
869.929	6011
870.06	6026
870.19	6273
870.32	6232
870.45	6247
870.58	6399
870.71	6433
870.84	6452
870.97	6418
871.1	6445
871.23	6665
871.36	6753
871.489	6669
871.619	6753
871.749	6821
871.879	6897
872.008	7000
872.138	7004
872.267	7031
872.397	7000
872.526	6981
872.656	7050
872.785	7206
872.915	7324
873.044	7464
873.173	7552
873.303	7647
873.432	7822
873.561	7906
873.69	7936
873.819	7978
873.948	8168
874.077	8298
874.206	8358
874.335	8450
874.464	8655
874.593	8891
874.722	8960
874.851	9138
874.979	9245
875.108	9439
875.237	9492
875.365	9511
875.494	9610
875.623	9823
875.751	9873
875.88	9949
876.008	10124
876.136	10348
876.265	10561
876.393	10714
876.521	10736
876.65	10774
876.778	10831
876.906	10885
877.034	11003
877.162	11155
877.29	11143
877.418	11307
877.546	11337
877.674	11478
877.802	11425
877.93	11528
878.058	11509
878.185	11520
878.313	11672
878.441	11775
878.568	11680
878.696	11870
878.824	11878
878.951	12007
879.079	11992
879.206	12182
879.333	12045
879.461	11980
879.588	12098
879.715	12175
879.842	12239
879.97	12038
880.097	11847
880.224	11840
880.351	11870
880.478	11942
880.605	11836
880.732	11805
880.859	11984
880.986	11836
881.112	11878
881.239	11764
881.366	11665
881.493	11642
881.619	11585
881.746	11573
881.872	11638
881.999	11566
882.125	11547
882.252	11501
882.378	11547
882.505	11566
882.631	11379
882.757	11254
882.883	11376
883.01	11284
883.136	11212
883.262	11121
883.388	11166
883.514	11151
883.64	11284
883.766	11193
883.892	11006
884.018	10915
884.143	11067
884.269	11117
884.395	10869
884.52	10805
884.646	10812
884.772	10725
884.897	10687
885.023	10683
885.148	10717
885.274	10702
885.399	10793
885.524	10702
885.65	10626
885.775	10554
885.9	10565
886.025	10668
886.15	10516
886.275	10455
886.4	10325
886.525	10443
886.65	10314
886.775	10409
886.9	10462
887.025	10580
887.149	10394
887.274	10314
887.399	10242
887.523	10207
887.648	10131
887.773	10025
887.897	10154
888.021	10284
888.146	10223
888.27	10211
888.395	10234
888.519	10173
888.643	10112
888.767	10261
888.891	10112
889.015	10021
889.139	10067
889.263	9956
889.387	10010
889.511	10090
889.635	10048
889.759	9991
889.883	10006
890.006	9956
890.13	10147
890.254	10029
890.377	9964
890.501	9857
890.624	9861
890.748	9998
890.871	9789
890.995	9724
891.118	9728
891.241	9800
891.364	9736
891.488	9808
891.611	9759
891.734	9797
891.857	9740
891.98	9713
892.103	9789
892.226	9732
892.349	9682
892.471	9534
892.594	9580
892.717	9675
892.839	9591
892.962	9637
893.085	9717
893.207	9641
893.33	9519
893.452	9526
893.575	9618
893.697	9526
893.819	9682
893.941	9564
894.064	9637
894.186	9488
894.308	9420
894.43	9572
894.552	9564
894.674	9576
894.796	9359
894.918	9412
895.04	9355
895.161	9363
895.283	9363
895.405	9260
895.526	9287
895.648	9211
895.769	9249
895.891	9310
896.012	9272
896.134	9268
896.255	9218
896.376	9108
896.498	9195
896.619	9074
896.74	9039
896.861	9070
896.982	9214
897.103	9272
897.224	9230
897.345	9066
897.466	8994
897.587	9077
897.708	9131
897.828	9058
897.949	8982
898.07	8883
898.19	8933
898.311	9062
898.431	8941
898.552	8899
898.672	8906
898.792	8982
898.913	8899
899.033	8804
899.153	8716
899.273	8621
899.393	8750
899.513	8773
899.633	8750
899.753	8792
899.873	8720
899.993	8750
900.113	8708
900.232	8697
900.352	8659
900.472	8590
900.591	8590
900.711	8526
900.83	8552
900.95	8632
901.069	8705
901.189	8579
901.308	8457
901.427	8396
901.546	8450
901.665	8385
901.784	8488
901.904	8427
902.023	8336
902.141	8221
902.26	8199
902.379	8275
902.498	8191
902.617	8218
902.735	8377
902.854	8298
902.973	8252
903.091	8096
903.21	8153
903.328	8153
903.446	8069
903.565	8123
903.683	8024
903.801	8077
903.919	8107
904.038	8168
904.156	8077
904.274	8046
904.392	7997
904.51	8065
904.627	8046
904.745	8123
904.863	8100
904.981	7909
905.098	7856
905.216	7894
905.334	7947
905.451	7925
905.569	7902
905.686	7913
905.803	7898
905.921	7727
906.038	7879
906.155	7784
906.272	7708
906.389	7693
906.506	7651
906.623	7636
906.74	7647
906.857	7548
906.974	7586
907.091	7662
907.208	7693
907.324	7575
907.441	7582
907.557	7480
907.674	7480
907.79	7388
907.907	7350
908.023	7438
908.139	7453
908.256	7407
908.372	7316
908.488	7381
908.604	7312
908.72	7228
908.836	7247
908.952	7255
909.068	7217
909.184	7331
909.3	7301
909.415	7312
909.531	7339
909.647	7168
909.762	7152
909.878	7084
909.993	7164
910.108	7061
910.224	7080
910.339	7088
910.454	7053
910.57	7008
910.685	6993
910.8	7118
910.915	7114
911.03	7038
911.145	6894
911.259	6901
911.374	6897
911.489	6787
911.604	6882
911.718	6753
911.833	6730
911.947	6604
912.062	6608
912.176	6692
912.291	6669
912.405	6703
912.519	6810
912.633	6867
912.748	6757
912.862	6684
912.976	6642
913.09	6532
913.204	6555
913.318	6604
913.431	6726
913.545	6665
913.659	6764
913.772	6688
913.886	6620
914	6589
914.113	6635
914.226	6669
914.34	6631
914.453	6429
914.566	6597
914.68	6593
914.793	6585
914.906	6494
915.019	6426
915.132	6353
915.245	6498
915.358	6429
915.47	6448
915.583	6448
915.696	6566
915.809	6566
915.921	6544
916.034	6464
916.146	6429
916.259	6346
916.371	6498
916.483	6563
916.595	6426
916.708	6437
916.82	6350
916.932	6365
917.044	6365
917.156	6426
917.268	6277
917.38	6376
917.491	6292
917.603	6376
917.715	6445
917.826	6445
917.938	6266
918.049	6281
918.161	6353
918.272	6471
918.384	6536
918.495	6342
918.606	6277
918.717	6243
918.828	6331
918.939	6327
919.05	6251
919.161	6353
919.272	6125
919.383	6190
919.494	6296
919.604	6426
919.715	6315
919.826	6289
919.936	6346
920.047	6296
920.157	6243
920.267	6513
920.378	6311
920.488	6281
920.598	6460
920.708	6601
920.818	6486
920.928	6441
921.038	6646
921.148	6616
921.258	6342
921.368	6266
921.477	6220
921.587	6239
921.697	6110
921.806	6171
921.916	6068
922.025	5946
922.134	5916
922.244	5866
922.353	5973
922.462	5859
922.571	5840
922.68	5722
922.789	5665
922.898	5699
923.007	5646
923.116	5726
923.224	5699
923.333	5695
923.442	5615
923.55	5577
923.659	5608
923.767	5649
923.876	5566
923.984	5657
924.092	5573
924.201	5551
924.309	5592
924.417	5554
924.525	5497
924.633	5493
924.741	6311
924.849	5379
924.956	5558
925.064	5372
925.172	5341
925.279	5288
925.387	5387
925.494	5337
925.602	5421
925.709	5368
925.816	5349
925.924	5334
926.031	5387
926.138	5353
926.245	5334
926.352	5216
926.459	5299
926.566	5379
926.673	5185
926.779	5170
926.886	5151
926.993	5029
927.099	4999
927.206	4972
927.312	4991
927.419	5067
927.525	5025
927.631	4984
927.737	4896
927.843	4900
927.95	4820
928.056	4835
928.162	4858
928.267	4896
928.373	5269
928.479	4809
928.585	4683
928.69	4752
928.796	4793
928.901	4717
929.007	4634
929.112	4725
929.218	4717
929.323	4637
929.428	4569
929.533	4668
929.638	4580
929.743	4577
929.848	4550
929.953	4561
930.058	4470
930.163	4295
930.267	4360
930.372	4421
930.477	4306
930.581	4512
930.685	4386
930.79	4265
930.894	4299
930.998	4303
931.103	4409
931.207	4093
931.311	4078
931.415	4040
931.519	3972
931.623	3964
