Data from glass_V78500241_44.txt Node
Date: Wed Sep 01 19:14:48 CST 2021
User: usil
Spectrometer: V785-0024
Trigger mode: 0
Integration Time (sec): 4.000000E-1
Scans to average: 1
Nonlinearity correction enabled: false
Boxcar width: 0
Storing dark spectrum: false
XAxis mode: Wavelengths
Number of Pixels in Spectrum: 1024
>>>>>Begin Spectral Data<<<<<
801.071	3755
801.214	3800
801.356	3785
801.499	3766
801.641	3747
801.783	3793
801.926	3884
802.068	3835
802.211	3876
802.353	3941
802.496	3876
802.638	3918
802.78	3888
802.923	3896
803.065	3918
803.208	3884
803.35	3899
803.492	3903
803.635	3937
803.777	3816
803.919	3915
804.061	4192
804.204	3949
804.346	3949
804.488	3949
804.63	3991
804.773	3972
804.915	4074
805.057	4181
805.199	4059
805.341	4128
805.483	4139
805.626	4158
805.768	4109
805.91	4230
806.052	4207
806.194	4207
806.336	4344
806.478	4234
806.62	4177
806.762	4185
806.904	4268
807.046	4394
807.188	4223
807.33	4162
807.472	4227
807.614	4211
807.756	4287
807.898	4261
808.04	4280
808.182	4257
808.324	4352
808.465	4386
808.607	4481
808.749	4470
808.891	4489
809.033	4516
809.174	4428
809.316	4318
809.458	4253
809.6	4169
809.741	4211
809.883	4147
810.025	4238
810.166	4211
810.308	4253
810.45	4284
810.591	4242
810.733	4257
810.875	4523
811.016	4850
811.158	5132
811.299	5250
811.441	5284
811.582	5109
811.724	4672
811.865	4519
812.007	4470
812.148	4470
812.29	4424
812.431	4402
812.573	4417
812.714	4363
812.855	4447
812.997	4440
813.138	4504
813.279	4436
813.421	4398
813.562	4363
813.703	4337
813.845	4314
813.986	4249
814.127	4261
814.268	4257
814.41	4303
814.551	4295
814.692	4371
814.833	4280
814.974	4253
815.115	4356
815.256	4306
815.397	4272
815.539	4287
815.68	4223
815.821	4192
815.962	4337
816.103	4230
816.244	4227
816.385	4230
816.526	4299
816.666	4249
816.807	4139
816.948	4188
817.089	4211
817.23	4131
817.371	4059
817.512	4097
817.653	4101
817.793	4074
817.934	4032
818.075	4124
818.216	4082
818.356	4109
818.497	3991
818.638	3956
818.778	3960
818.919	3975
819.06	3873
819.2	3911
819.341	3884
819.481	3903
819.622	3918
819.762	4071
819.903	4002
820.043	3888
820.184	3850
820.324	3816
820.465	3903
820.605	3831
820.746	3911
820.886	3819
821.026	3968
821.167	3911
821.307	4002
821.447	3991
821.588	3975
821.728	3994
821.868	3934
822.008	3903
822.149	3945
822.289	3918
822.429	3804
822.569	3778
822.709	3804
822.849	3747
822.99	3705
823.13	3797
823.27	3808
823.41	3762
823.55	3755
823.69	3720
823.83	3781
823.97	3720
824.11	3667
824.25	3610
824.389	3610
824.529	3724
824.669	3637
824.809	3705
824.949	3816
825.089	3778
825.228	3740
825.368	3637
825.508	3599
825.648	3576
825.787	3587
825.927	3675
826.067	3641
826.206	3663
826.346	3831
826.485	3838
826.625	3884
826.765	3937
826.904	3876
827.044	3614
827.183	3549
827.323	3450
827.462	3496
827.601	3435
827.741	3469
827.88	3485
828.02	3409
828.159	3458
828.298	3485
828.437	3530
828.577	3515
828.716	3599
828.855	3523
828.994	3363
829.134	3329
829.273	3374
829.412	3355
829.551	3359
829.69	3325
829.829	3447
829.968	3538
830.107	3466
830.246	3439
830.385	3405
830.524	3367
830.663	3317
830.802	3264
830.941	3211
831.08	3237
831.219	3317
831.357	3249
831.496	3420
831.635	3237
831.774	3230
831.913	3192
832.051	3138
832.19	3176
832.329	3260
832.467	3131
832.606	3116
832.744	3176
832.883	3173
833.022	3207
833.16	3279
833.299	3287
833.437	3351
833.576	3389
833.714	3405
833.852	3424
833.991	3492
834.129	3504
834.267	3477
834.406	3435
834.544	3416
834.682	3439
834.821	3424
834.959	3584
835.097	3431
835.235	3526
835.373	3511
835.511	3485
835.65	3454
835.788	3450
835.926	3397
836.064	3424
836.202	3409
836.34	3610
836.478	3614
836.615	3564
836.753	3587
836.891	3732
837.029	3625
837.167	3587
837.305	3652
837.443	3496
837.58	3515
837.718	3625
837.856	3538
837.993	3553
838.131	3622
838.269	3591
838.406	3614
838.544	3599
838.681	3523
838.819	3462
838.956	3378
839.094	3420
839.231	3428
839.369	3511
839.506	3762
839.643	3622
839.781	3530
839.918	3443
840.055	3538
840.193	3549
840.33	3496
840.467	3538
840.604	3576
840.742	3816
840.879	3549
841.016	3568
841.153	3603
841.29	3781
841.427	3751
841.564	3751
841.701	3747
841.838	3682
841.975	3698
842.112	3755
842.249	3641
842.385	3606
842.522	3850
842.659	3686
842.796	3701
842.933	3690
843.069	3701
843.206	3694
843.343	3838
843.479	3800
843.616	3842
843.752	3671
843.889	3690
844.025	3831
844.162	3705
844.298	3819
844.435	3804
844.571	3770
844.708	3896
844.844	3956
844.98	4055
845.117	4048
845.253	3956
845.389	3926
845.525	3987
845.661	3991
845.798	3918
845.934	4029
846.07	3991
846.206	4078
846.342	4200
846.478	4090
846.614	3991
846.75	3907
846.886	3983
847.022	4067
847.158	4013
847.294	4010
847.429	4017
847.565	4055
847.701	4223
847.837	3873
847.972	3896
848.108	3964
848.244	4002
848.379	3884
848.515	3781
848.65	3827
848.786	3880
848.921	3884
849.057	3945
849.192	3953
849.328	3949
849.463	3926
849.598	3888
849.734	3892
849.869	3861
850.004	3812
850.14	3838
850.275	3854
850.41	3759
850.545	3831
850.68	3789
850.815	3823
850.95	3808
851.085	3960
851.22	3880
851.355	3857
851.49	3800
851.625	3842
851.76	3793
851.895	3743
852.03	3770
852.165	3846
852.299	3869
852.434	3941
852.569	3861
852.703	3907
852.838	4002
852.973	4006
853.107	3998
853.242	3899
853.376	3854
853.511	3762
853.645	3884
853.78	4006
853.914	3922
854.048	3911
854.183	3918
854.317	4002
854.451	4067
854.585	3964
854.72	3941
854.854	4063
854.988	3937
855.122	4032
855.256	3930
855.39	4032
855.524	4131
855.658	4166
855.792	4154
855.926	4177
856.06	4154
856.194	4215
856.327	4128
856.461	4120
856.595	4166
856.729	4185
856.862	4306
856.996	4238
857.13	4344
857.263	4333
857.397	4386
857.53	4291
857.664	4329
857.797	4413
857.931	4386
858.064	4390
858.197	4538
858.331	4402
858.464	4383
858.597	4383
858.731	4451
858.864	4497
858.997	4462
859.13	4535
859.263	4561
859.396	4596
859.529	4538
859.662	4584
859.795	4535
859.928	4630
860.061	4763
860.194	4752
860.327	4675
860.46	4637
860.592	4763
860.725	4755
860.858	4786
860.99	4672
861.123	4733
861.256	4694
861.388	4759
861.521	5406
861.653	4740
861.786	4725
861.918	4782
862.05	4797
862.183	4858
862.315	4908
862.447	4930
862.58	4896
862.712	4828
862.844	4824
862.976	4896
863.108	4885
863.24	5223
863.372	4824
863.504	4885
863.636	4919
863.768	4957
863.9	4930
864.032	4934
864.164	4999
864.296	5025
864.428	5121
864.559	5113
864.691	5170
864.823	5109
864.954	5117
865.086	5136
865.217	5170
865.349	5155
865.48	5159
865.612	5189
865.743	5273
865.875	5212
866.006	5201
866.137	5250
866.269	5242
866.4	5235
866.531	5258
866.662	5242
866.793	5273
866.924	5303
867.055	5341
867.186	5307
867.317	5387
867.448	5303
867.579	5414
867.71	5425
867.841	5387
867.972	5414
868.103	5440
868.233	5509
868.364	5535
868.495	5543
868.625	5741
868.756	5840
868.886	5703
869.017	5699
869.147	5870
869.278	5840
869.408	5828
869.539	5847
869.669	5961
869.799	5878
869.929	6026
870.06	6053
870.19	6216
870.32	6175
870.45	6247
870.58	6365
870.71	6410
870.84	6483
870.97	6433
871.1	6517
871.23	6635
871.36	6757
871.489	6665
871.619	6772
871.749	6837
871.879	6844
872.008	6977
872.138	7042
872.267	7019
872.397	7061
872.526	7023
872.656	7160
872.785	7202
872.915	7422
873.044	7571
873.173	7594
873.303	7700
873.432	7784
873.561	7890
873.69	7906
873.819	7997
873.948	8138
874.077	8294
874.206	8412
874.335	8442
874.464	8682
874.593	8918
874.722	8948
874.851	9173
874.979	9211
875.108	9405
875.237	9370
875.365	9469
875.494	9648
875.623	9884
875.751	9880
875.88	10013
876.008	10181
876.136	10341
876.265	10550
876.393	10767
876.521	10615
876.65	10873
876.778	10930
876.906	10938
877.034	10987
877.162	11113
877.29	11189
877.418	11307
877.546	11307
877.674	11387
877.802	11501
877.93	11585
878.058	11532
878.185	11528
878.313	11653
878.441	11828
878.568	11627
878.696	11783
878.824	11836
878.951	11954
879.079	12072
879.206	12175
879.333	12049
879.461	11939
879.588	12117
879.715	12049
879.842	12350
879.97	12076
880.097	11889
880.224	11946
880.351	11901
880.478	12003
880.605	11817
880.732	11920
880.859	12007
880.986	11798
881.112	11901
881.239	11707
881.366	11581
881.493	11649
881.619	11573
881.746	11558
881.872	11554
881.999	11486
882.125	11528
882.252	11543
882.378	11585
882.505	11589
882.631	11379
882.757	11368
882.883	11322
883.01	11246
883.136	11174
883.262	11136
883.388	11170
883.514	11261
883.64	11124
883.766	11075
883.892	11067
884.018	10946
884.143	11045
884.269	11193
884.395	10847
884.52	10812
884.646	10843
884.772	10679
884.897	10637
885.023	10679
885.148	10702
885.274	10793
885.399	10710
885.524	10698
885.65	10596
885.775	10527
885.9	10596
886.025	10637
886.15	10546
886.275	10470
886.4	10341
886.525	10386
886.65	10329
886.775	10314
886.9	10481
887.025	10531
887.149	10352
887.274	10333
887.399	10207
887.523	10112
887.648	10177
887.773	10185
887.897	10238
888.021	10257
888.146	10109
888.27	10303
888.395	10215
888.519	10177
888.643	10086
888.767	10124
888.891	10086
889.015	10025
889.139	10048
889.263	10029
889.387	10086
889.511	10120
889.635	10044
889.759	10013
889.883	9979
890.006	10055
890.13	10131
890.254	9949
890.377	9987
890.501	9850
890.624	9884
890.748	9941
890.871	9846
890.995	9701
891.118	9736
891.241	9804
891.364	9743
891.488	9880
891.611	9743
891.734	9797
891.857	9759
891.98	9717
892.103	9713
892.226	9713
892.349	9686
892.471	9614
892.594	9614
892.717	9698
892.839	9538
892.962	9614
893.085	9690
893.207	9648
893.33	9542
893.452	9553
893.575	9679
893.697	9557
893.819	9591
893.941	9656
894.064	9644
894.186	9420
894.308	9393
894.43	9557
894.552	9561
894.674	9519
894.796	9370
894.918	9450
895.04	9340
895.161	9382
895.283	9386
895.405	9245
895.526	9287
895.648	9218
895.769	9275
895.891	9272
896.012	9241
896.134	9214
896.255	9256
896.376	9138
896.498	9150
896.619	9184
896.74	9116
896.861	9131
896.982	9264
897.103	9279
897.224	9188
897.345	9142
897.466	9047
897.587	9089
897.708	9108
897.828	9036
897.949	8933
898.07	8868
898.19	8986
898.311	9001
898.431	8918
898.552	8982
898.672	9020
898.792	8944
898.913	8910
899.033	8811
899.153	8777
899.273	8678
899.393	8754
899.513	8777
899.633	8804
899.753	8701
899.873	8743
899.993	8724
900.113	8663
900.232	8724
900.352	8659
900.472	8594
900.591	8651
900.711	8560
900.83	8533
900.95	8659
901.069	8625
901.189	8530
901.308	8431
901.427	8434
901.546	8438
901.665	8434
901.784	8518
901.904	8438
902.023	8366
902.141	8214
902.26	8263
902.379	8332
902.498	8237
902.617	8214
902.735	8237
902.854	8275
902.973	8248
903.091	8161
903.21	8183
903.328	8138
903.446	8145
903.565	8107
903.683	8062
903.801	8138
903.919	8088
904.038	8130
904.156	8081
904.274	8115
904.392	8008
904.51	7997
904.627	8096
904.745	8107
904.863	8107
904.981	7936
905.098	7841
905.216	7928
905.334	7906
905.451	7906
905.569	7868
905.686	7947
905.803	7921
905.921	7830
906.038	7944
906.155	7864
906.272	7677
906.389	7734
906.506	7693
906.623	7647
906.74	7609
906.857	7639
906.974	7643
907.091	7655
907.208	7696
907.324	7715
907.441	7559
907.557	7476
907.674	7495
907.79	7400
907.907	7419
908.023	7457
908.139	7438
908.256	7430
908.372	7377
908.488	7350
908.604	7346
908.72	7225
908.836	7285
908.952	7278
909.068	7255
909.184	7324
909.3	7251
909.415	7274
909.531	7274
909.647	7088
909.762	7152
909.878	7069
909.993	7171
910.108	7095
910.224	7061
910.339	7103
910.454	7080
910.57	7065
910.685	6932
910.8	7175
910.915	7122
911.03	7031
911.145	6894
911.259	6852
911.374	6932
911.489	6852
911.604	6856
911.718	6749
911.833	6753
911.947	6635
912.062	6612
912.176	6745
912.291	6707
912.405	6772
912.519	6833
912.633	6878
912.748	6700
912.862	6764
912.976	6639
913.09	6578
913.204	6650
913.318	6593
913.431	6677
913.545	6703
913.659	6741
913.772	6684
913.886	6589
914	6528
914.113	6639
914.226	6696
914.34	6665
914.453	6445
914.566	6616
914.68	6544
914.793	6566
914.906	6471
915.019	6490
915.132	6426
915.245	6410
915.358	6407
915.47	6475
915.583	6578
915.696	6506
915.809	6563
915.921	6593
916.034	6437
916.146	6429
916.259	6365
916.371	6456
916.483	6407
916.595	6448
916.708	6437
916.82	6445
916.932	6407
917.044	6422
917.156	6460
917.268	6372
917.38	6391
917.491	6262
917.603	6357
917.715	6498
917.826	6399
917.938	6372
918.049	6273
918.161	6384
918.272	6395
918.384	6407
918.495	6357
918.606	6262
918.717	6213
918.828	6281
918.939	6273
919.05	6228
919.161	6289
919.272	6133
919.383	6175
919.494	6285
919.604	6426
919.715	6292
919.826	6304
919.936	6281
920.047	6365
920.157	6285
920.267	6456
920.378	6331
920.488	6270
920.598	6407
920.708	6551
920.818	6467
920.928	6479
921.038	6654
921.148	6570
921.258	6426
921.368	6334
921.477	6216
921.587	6186
921.697	6091
921.806	6152
921.916	6015
922.025	5965
922.134	5908
922.244	5927
922.353	5961
922.462	5885
922.571	5821
922.68	5733
922.789	5680
922.898	5718
923.007	5703
923.116	5714
923.224	5672
923.333	5703
923.442	5695
923.55	5604
923.659	5619
923.767	5634
923.876	5604
923.984	5604
924.092	5554
924.201	5562
924.309	5562
924.417	5596
924.525	5520
924.633	5467
924.741	6323
924.849	5410
924.956	5501
925.064	5398
925.172	5292
925.279	5326
925.387	5349
925.494	5349
925.602	5417
925.709	5383
925.816	5261
925.924	5318
926.031	5391
926.138	5318
926.245	5307
926.352	5239
926.459	5307
926.566	5341
926.673	5212
926.779	5181
926.886	5086
926.993	5033
927.099	5041
927.206	4991
927.312	4980
927.419	5037
927.525	4991
927.631	5010
927.737	4904
927.843	4904
927.95	4790
928.056	4858
928.162	4831
928.267	4862
928.373	5364
928.479	4877
928.585	4721
928.69	4835
928.796	4759
928.901	4702
929.007	4672
929.112	4729
929.218	4668
929.323	4599
929.428	4561
929.533	4710
929.638	4500
929.743	4592
929.848	4542
929.953	4531
930.058	4470
930.163	4344
930.267	4360
930.372	4447
930.477	4299
930.581	4470
930.685	4402
930.79	4261
930.894	4280
930.998	4215
931.103	4341
931.207	4082
931.311	4086
931.415	4078
931.519	3953
931.623	3964
