Data from glass_V78500241_539.txt Node
Date: Wed Sep 01 19:18:14 CST 2021
User: usil
Spectrometer: V785-0024
Trigger mode: 0
Integration Time (sec): 4.000000E-1
Scans to average: 1
Nonlinearity correction enabled: false
Boxcar width: 0
Storing dark spectrum: false
XAxis mode: Wavelengths
Number of Pixels in Spectrum: 1024
>>>>>Begin Spectral Data<<<<<
801.071	3736
801.214	3778
801.356	3743
801.499	3774
801.641	3732
801.783	3789
801.926	3823
802.068	3854
802.211	3850
802.353	3899
802.496	3819
802.638	3896
802.78	3915
802.923	3930
803.065	3888
803.208	3846
803.35	3888
803.492	3907
803.635	3953
803.777	3808
803.919	3899
804.061	4196
804.204	3987
804.346	3949
804.488	3922
804.63	4036
804.773	4006
804.915	4032
805.057	4150
805.199	4021
805.341	4124
805.483	4124
805.626	4124
805.768	4139
805.91	4234
806.052	4291
806.194	4211
806.336	4329
806.478	4219
806.62	4188
806.762	4196
806.904	4234
807.046	4333
807.188	4238
807.33	4200
807.472	4261
807.614	4185
807.756	4253
807.898	4242
808.04	4242
808.182	4272
808.324	4348
808.465	4386
808.607	4504
808.749	4405
808.891	4474
809.033	4519
809.174	4447
809.316	4276
809.458	4253
809.6	4116
809.741	4143
809.883	4147
810.025	4223
810.166	4230
810.308	4265
810.45	4265
810.591	4265
810.733	4306
810.875	4554
811.016	4850
811.158	5140
811.299	5277
811.441	5239
811.582	5105
811.724	4702
811.865	4455
812.007	4508
812.148	4432
812.29	4428
812.431	4413
812.573	4451
812.714	4379
812.855	4421
812.997	4455
813.138	4481
813.279	4462
813.421	4398
813.562	4424
813.703	4310
813.845	4303
813.986	4257
814.127	4223
814.268	4272
814.41	4329
814.551	4249
814.692	4363
814.833	4284
814.974	4314
815.115	4337
815.256	4219
815.397	4287
815.539	4306
815.68	4185
815.821	4200
815.962	4352
816.103	4325
816.244	4223
816.385	4219
816.526	4337
816.666	4253
816.807	4093
816.948	4211
817.089	4215
817.23	4154
817.371	4078
817.512	4082
817.653	4067
817.793	4055
817.934	4029
818.075	4109
818.216	4090
818.356	4093
818.497	3994
818.638	3873
818.778	3937
818.919	3876
819.06	3896
819.2	3918
819.341	3941
819.481	3823
819.622	3899
819.762	4051
819.903	4013
820.043	3831
820.184	3896
820.324	3838
820.465	3896
820.605	3865
820.746	3941
820.886	3793
821.026	3949
821.167	3915
821.307	3991
821.447	3975
821.588	3949
821.728	3949
821.868	3945
822.008	3903
822.149	3888
822.289	3899
822.429	3800
822.569	3762
822.709	3842
822.849	3717
822.99	3751
823.13	3812
823.27	3800
823.41	3720
823.55	3732
823.69	3720
823.83	3781
823.97	3667
824.11	3637
824.25	3595
824.389	3633
824.529	3663
824.669	3629
824.809	3724
824.949	3770
825.089	3740
825.228	3709
825.368	3580
825.508	3633
825.648	3622
825.787	3652
825.927	3637
826.067	3656
826.206	3667
826.346	3755
826.485	3800
826.625	3846
826.765	3918
826.904	3838
827.044	3652
827.183	3507
827.323	3481
827.462	3496
827.601	3477
827.741	3409
827.88	3428
828.02	3367
828.159	3458
828.298	3492
828.437	3538
828.577	3485
828.716	3599
828.855	3511
828.994	3439
829.134	3367
829.273	3389
829.412	3378
829.551	3370
829.69	3412
829.829	3431
829.968	3519
830.107	3447
830.246	3428
830.385	3416
830.524	3355
830.663	3332
830.802	3279
830.941	3268
831.08	3188
831.219	3275
831.357	3279
831.496	3412
831.635	3218
831.774	3222
831.913	3188
832.051	3180
832.19	3135
832.329	3260
832.467	3165
832.606	3146
832.744	3203
832.883	3203
833.022	3214
833.16	3275
833.299	3332
833.437	3317
833.576	3397
833.714	3458
833.852	3435
833.991	3469
834.129	3435
834.267	3435
834.406	3409
834.544	3450
834.682	3416
834.821	3435
834.959	3595
835.097	3458
835.235	3504
835.373	3500
835.511	3526
835.65	3450
835.788	3496
835.926	3401
836.064	3397
836.202	3386
836.34	3534
836.478	3603
836.615	3557
836.753	3637
836.891	3660
837.029	3618
837.167	3618
837.305	3542
837.443	3523
837.58	3515
837.718	3591
837.856	3584
837.993	3545
838.131	3629
838.269	3591
838.406	3564
838.544	3576
838.681	3526
838.819	3481
838.956	3393
839.094	3420
839.231	3481
839.369	3523
839.506	3736
839.643	3629
839.781	3488
839.918	3469
840.055	3545
840.193	3549
840.33	3530
840.467	3553
840.604	3618
840.742	3831
840.879	3564
841.016	3576
841.153	3633
841.29	3743
841.427	3667
841.564	3755
841.701	3740
841.838	3720
841.975	3724
842.112	3747
842.249	3660
842.385	3633
842.522	3819
842.659	3713
842.796	3701
842.933	3728
843.069	3717
843.206	3717
843.343	3869
843.479	3827
843.616	3835
843.752	3690
843.889	3694
844.025	3884
844.162	3740
844.298	3876
844.435	3770
844.571	3797
844.708	3915
844.844	3960
844.98	4017
845.117	4010
845.253	3934
845.389	3903
845.525	3987
845.661	3979
845.798	3945
845.934	4013
846.07	3960
846.206	4090
846.342	4101
846.478	4090
846.614	3960
846.75	3956
846.886	3880
847.022	4067
847.158	3987
847.294	3998
847.429	4059
847.565	4002
847.701	4265
847.837	3903
847.972	3888
848.108	3968
848.244	3949
848.379	3827
848.515	3804
848.65	3850
848.786	3876
848.921	3842
849.057	3956
849.192	3945
849.328	3888
849.463	3907
849.598	3907
849.734	3888
849.869	3808
850.004	3804
850.14	3816
850.275	3823
850.41	3740
850.545	3793
850.68	3793
850.815	3800
850.95	3766
851.085	3956
851.22	3857
851.355	3797
851.49	3827
851.625	3850
851.76	3797
851.895	3762
852.03	3740
852.165	3804
852.299	3880
852.434	3926
852.569	3884
852.703	3880
852.838	3907
852.973	4032
853.107	4051
853.242	3918
853.376	3876
853.511	3819
853.645	3899
853.78	3991
853.914	3899
854.048	3915
854.183	3892
854.317	3979
854.451	4078
854.585	3994
854.72	3941
854.854	4029
854.988	3949
855.122	4013
855.256	3968
855.39	4036
855.524	4086
855.658	4116
855.792	4109
855.926	4147
856.06	4219
856.194	4196
856.327	4173
856.461	4188
856.595	4162
856.729	4181
856.862	4280
856.996	4276
857.13	4284
857.263	4348
857.397	4363
857.53	4303
857.664	4337
857.797	4440
857.931	4398
858.064	4348
858.197	4436
858.331	4398
858.464	4386
858.597	4379
858.731	4478
858.864	4432
858.997	4459
859.13	4523
859.263	4523
859.396	4607
859.529	4516
859.662	4538
859.795	4504
859.928	4618
860.061	4702
860.194	4763
860.327	4660
860.46	4611
860.592	4721
860.725	4771
860.858	4771
860.99	4759
861.123	4679
861.256	4702
861.388	4816
861.521	5493
861.653	4752
861.786	4694
861.918	4717
862.05	4790
862.183	4889
862.315	4892
862.447	4965
862.58	4911
862.712	4801
862.844	4809
862.976	4839
863.108	4892
863.24	5185
863.372	4892
863.504	4957
863.636	4881
863.768	5018
863.9	4946
864.032	4911
864.164	4949
864.296	5022
864.428	5109
864.559	5094
864.691	5132
864.823	5090
864.954	5105
865.086	5181
865.217	5132
865.349	5136
865.48	5136
865.612	5166
865.743	5315
865.875	5166
866.006	5223
866.137	5220
866.269	5231
866.4	5315
866.531	5254
866.662	5265
866.793	5258
866.924	5292
867.055	5379
867.186	5360
867.317	5299
867.448	5311
867.579	5433
867.71	5387
867.841	5395
867.972	5467
868.103	5463
868.233	5509
868.364	5512
868.495	5577
868.625	5703
868.756	5779
868.886	5646
869.017	5741
869.147	5923
869.278	5901
869.408	5802
869.539	5813
869.669	5912
869.799	5923
869.929	6019
870.06	6011
870.19	6213
870.32	6194
870.45	6262
870.58	6410
870.71	6467
870.84	6498
870.97	6422
871.1	6460
871.23	6662
871.36	6703
871.489	6707
871.619	6772
871.749	6837
871.879	6878
872.008	7004
872.138	6947
872.267	7019
872.397	7000
872.526	7091
872.656	7114
872.785	7221
872.915	7400
873.044	7502
873.173	7537
873.303	7674
873.432	7753
873.561	7913
873.69	7928
873.819	8012
873.948	8195
874.077	8221
874.206	8317
874.335	8412
874.464	8640
874.593	8857
874.722	8887
874.851	9169
874.979	9207
875.108	9340
875.237	9439
875.365	9439
875.494	9564
875.623	9850
875.751	9880
875.88	9960
876.008	10093
876.136	10173
876.265	10561
876.393	10672
876.521	10736
876.65	10782
876.778	10877
876.906	10911
877.034	10984
877.162	11079
877.29	11117
877.418	11353
877.546	11356
877.674	11444
877.802	11436
877.93	11501
878.058	11600
878.185	11554
878.313	11665
878.441	11703
878.568	11710
878.696	11752
878.824	11904
878.951	11901
879.079	12034
879.206	12148
879.333	12057
879.461	12007
879.588	12114
879.715	12110
879.842	12239
879.97	12057
880.097	11855
880.224	11946
880.351	11897
880.478	11878
880.605	11843
880.732	11748
880.859	12026
880.986	11790
881.112	11885
881.239	11665
881.366	11623
881.493	11684
881.619	11581
881.746	11562
881.872	11474
881.999	11532
882.125	11490
882.252	11604
882.378	11551
882.505	11592
882.631	11379
882.757	11273
882.883	11383
883.01	11292
883.136	11231
883.262	11105
883.388	11090
883.514	11242
883.64	11166
883.766	11128
883.892	11014
884.018	10953
884.143	11037
884.269	11045
884.395	10862
884.52	10771
884.646	10812
884.772	10733
884.897	10668
885.023	10736
885.148	10820
885.274	10831
885.399	10664
885.524	10649
885.65	10561
885.775	10596
885.9	10531
886.025	10573
886.15	10626
886.275	10500
886.4	10451
886.525	10375
886.65	10436
886.775	10390
886.9	10481
887.025	10550
887.149	10344
887.274	10306
887.399	10265
887.523	10173
887.648	10143
887.773	10082
887.897	10284
888.021	10238
888.146	10097
888.27	10177
888.395	10272
888.519	10204
888.643	10181
888.767	10166
888.891	10112
889.015	9979
889.139	10128
889.263	9930
889.387	10090
889.511	10112
889.635	10112
889.759	9915
889.883	9956
890.006	10048
890.13	10074
890.254	10010
890.377	9972
890.501	9831
890.624	9842
890.748	9884
890.871	9831
890.995	9800
891.118	9797
891.241	9800
891.364	9694
891.488	9819
891.611	9774
891.734	9774
891.857	9778
891.98	9709
892.103	9732
892.226	9698
892.349	9751
892.471	9561
892.594	9637
892.717	9701
892.839	9625
892.962	9644
893.085	9690
893.207	9637
893.33	9447
893.452	9549
893.575	9614
893.697	9500
893.819	9587
893.941	9606
894.064	9641
894.186	9458
894.308	9416
894.43	9580
894.552	9576
894.674	9488
894.796	9401
894.918	9367
895.04	9294
895.161	9355
895.283	9313
895.405	9245
895.526	9264
895.648	9249
895.769	9260
895.891	9241
896.012	9218
896.134	9138
896.255	9154
896.376	9127
896.498	9066
896.619	9131
896.74	9119
896.861	9180
896.982	9294
897.103	9344
897.224	9176
897.345	9100
897.466	8979
897.587	9028
897.708	9135
897.828	9020
897.949	8902
898.07	8906
898.19	8899
898.311	9020
898.431	8883
898.552	8925
898.672	8956
898.792	8963
898.913	8960
899.033	8876
899.153	8796
899.273	8644
899.393	8655
899.513	8708
899.633	8754
899.753	8758
899.873	8773
899.993	8689
900.113	8705
900.232	8727
900.352	8686
900.472	8575
900.591	8541
900.711	8571
900.83	8571
900.95	8644
901.069	8724
901.189	8590
901.308	8503
901.427	8381
901.546	8393
901.665	8495
901.784	8488
901.904	8370
902.023	8362
902.141	8187
902.26	8202
902.379	8271
902.498	8180
902.617	8172
902.735	8290
902.854	8328
902.973	8290
903.091	8107
903.21	8119
903.328	8142
903.446	8111
903.565	8069
903.683	8084
903.801	8100
903.919	8149
904.038	8161
904.156	8001
904.274	8092
904.392	8084
904.51	8062
904.627	8054
904.745	8115
904.863	7982
904.981	7917
905.098	7887
905.216	7841
905.334	7909
905.451	7932
905.569	7944
905.686	7902
905.803	7967
905.921	7799
906.038	7871
906.155	7849
906.272	7769
906.389	7712
906.506	7708
906.623	7582
906.74	7647
906.857	7533
906.974	7582
907.091	7693
907.208	7738
907.324	7594
907.441	7506
907.557	7529
907.674	7434
907.79	7377
907.907	7422
908.023	7491
908.139	7438
908.256	7464
908.372	7274
908.488	7400
908.604	7327
908.72	7240
908.836	7324
908.952	7247
909.068	7225
909.184	7316
909.3	7228
909.415	7346
909.531	7308
909.647	7133
909.762	7080
909.878	7099
909.993	7149
910.108	7152
910.224	7156
910.339	7126
910.454	7046
910.57	7004
910.685	6970
910.8	7187
910.915	7156
911.03	7053
911.145	6932
911.259	6886
911.374	6954
911.489	6863
911.604	6814
911.718	6760
911.833	6787
911.947	6642
912.062	6627
912.176	6696
912.291	6738
912.405	6764
912.519	6795
912.633	6810
912.748	6654
912.862	6688
912.976	6608
913.09	6585
913.204	6616
913.318	6623
913.431	6654
913.545	6684
913.659	6707
913.772	6665
913.886	6521
914	6616
914.113	6631
914.226	6608
914.34	6593
914.453	6513
914.566	6665
914.68	6509
914.793	6536
914.906	6486
915.019	6422
915.132	6372
915.245	6433
915.358	6467
915.47	6471
915.583	6433
915.696	6551
915.809	6509
915.921	6574
916.034	6441
916.146	6418
916.259	6365
916.371	6471
916.483	6448
916.595	6452
916.708	6445
916.82	6380
916.932	6460
917.044	6441
917.156	6346
917.268	6384
917.38	6388
917.491	6346
917.603	6391
917.715	6441
917.826	6399
917.938	6338
918.049	6308
918.161	6357
918.272	6426
918.384	6506
918.495	6410
918.606	6258
918.717	6224
918.828	6327
918.939	6285
919.05	6216
919.161	6270
919.272	6136
919.383	6194
919.494	6327
919.604	6441
919.715	6273
919.826	6220
919.936	6243
920.047	6304
920.157	6254
920.267	6460
920.378	6361
920.488	6285
920.598	6528
920.708	6566
920.818	6525
920.928	6448
921.038	6616
921.148	6578
921.258	6365
921.368	6331
921.477	6308
921.587	6251
921.697	6136
921.806	6190
921.916	6098
922.025	5973
922.134	5923
922.244	5923
922.353	5927
922.462	5870
922.571	5840
922.68	5707
922.789	5665
922.898	5726
923.007	5638
923.116	5707
923.224	5699
923.333	5710
923.442	5653
923.55	5589
923.659	5585
923.767	5573
923.876	5566
923.984	5619
924.092	5486
924.201	5562
924.309	5562
924.417	5551
924.525	5482
924.633	5524
924.741	6262
924.849	5417
924.956	5448
925.064	5406
925.172	5315
925.279	5299
925.387	5376
925.494	5318
925.602	5406
925.709	5402
925.816	5315
925.924	5337
926.031	5372
926.138	5269
926.245	5288
926.352	5204
926.459	5357
926.566	5345
926.673	5189
926.779	5151
926.886	5174
926.993	5075
927.099	5056
927.206	4984
927.312	4930
927.419	4968
927.525	5022
927.631	5010
927.737	4908
927.843	4877
927.95	4801
928.056	4824
928.162	4900
928.267	4858
928.373	5277
928.479	4831
928.585	4698
928.69	4744
928.796	4816
928.901	4698
929.007	4596
929.112	4706
929.218	4626
929.323	4645
929.428	4538
929.533	4687
929.638	4546
929.743	4523
929.848	4588
929.953	4550
930.058	4493
930.163	4360
930.267	4322
930.372	4493
930.477	4306
930.581	4489
930.685	4352
930.79	4257
930.894	4310
930.998	4261
931.103	4409
931.207	4128
931.311	4135
931.415	4044
931.519	3949
931.623	3972
