Data from glass_V78500241_255.txt Node
Date: Wed Sep 01 19:16:16 CST 2021
User: usil
Spectrometer: V785-0024
Trigger mode: 0
Integration Time (sec): 4.000000E-1
Scans to average: 1
Nonlinearity correction enabled: false
Boxcar width: 0
Storing dark spectrum: false
XAxis mode: Wavelengths
Number of Pixels in Spectrum: 1024
>>>>>Begin Spectral Data<<<<<
801.071	3785
801.214	3762
801.356	3720
801.499	3751
801.641	3762
801.783	3789
801.926	3854
802.068	3838
802.211	3857
802.353	3876
802.496	3888
802.638	3896
802.78	3915
802.923	3960
803.065	3903
803.208	3899
803.35	3865
803.492	3888
803.635	3926
803.777	3823
803.919	3918
804.061	4169
804.204	3972
804.346	3915
804.488	3907
804.63	4032
804.773	3998
804.915	4071
805.057	4181
805.199	4036
805.341	4116
805.483	4139
805.626	4158
805.768	4101
805.91	4169
806.052	4223
806.194	4173
806.336	4367
806.478	4234
806.62	4150
806.762	4207
806.904	4268
807.046	4375
807.188	4219
807.33	4188
807.472	4257
807.614	4207
807.756	4200
807.898	4227
808.04	4223
808.182	4303
808.324	4329
808.465	4424
808.607	4451
808.749	4489
808.891	4538
809.033	4538
809.174	4417
809.316	4249
809.458	4261
809.6	4166
809.741	4177
809.883	4139
810.025	4265
810.166	4238
810.308	4265
810.45	4287
810.591	4257
810.733	4348
810.875	4531
811.016	4828
811.158	5178
811.299	5269
811.441	5284
811.582	5048
811.724	4717
811.865	4516
812.007	4489
812.148	4451
812.29	4447
812.431	4409
812.573	4394
812.714	4371
812.855	4413
812.997	4451
813.138	4519
813.279	4451
813.421	4360
813.562	4367
813.703	4341
813.845	4337
813.986	4280
814.127	4223
814.268	4253
814.41	4325
814.551	4227
814.692	4299
814.833	4284
814.974	4341
815.115	4314
815.256	4234
815.397	4219
815.539	4249
815.68	4211
815.821	4207
815.962	4360
816.103	4322
816.244	4253
816.385	4238
816.526	4333
816.666	4234
816.807	4135
816.948	4204
817.089	4192
817.23	4097
817.371	4032
817.512	4101
817.653	4105
817.793	4063
817.934	4063
818.075	4143
818.216	4067
818.356	4101
818.497	4029
818.638	3892
818.778	3922
818.919	3876
819.06	3918
819.2	3934
819.341	3892
819.481	3865
819.622	3934
819.762	4025
819.903	3953
820.043	3892
820.184	3876
820.324	3827
820.465	3869
820.605	3876
820.746	3922
820.886	3804
821.026	3934
821.167	3934
821.307	3972
821.447	3987
821.588	3972
821.728	3945
821.868	3949
822.008	3896
822.149	3915
822.289	3964
822.429	3812
822.569	3778
822.709	3823
822.849	3705
822.99	3759
823.13	3797
823.27	3816
823.41	3705
823.55	3759
823.69	3732
823.83	3751
823.97	3682
824.11	3671
824.25	3618
824.389	3690
824.529	3732
824.669	3701
824.809	3720
824.949	3747
825.089	3717
825.228	3747
825.368	3606
825.508	3591
825.648	3595
825.787	3580
825.927	3637
826.067	3652
826.206	3701
826.346	3838
826.485	3793
826.625	3892
826.765	3930
826.904	3876
827.044	3660
827.183	3507
827.323	3458
827.462	3485
827.601	3496
827.741	3477
827.88	3424
828.02	3393
828.159	3462
828.298	3530
828.437	3572
828.577	3473
828.716	3599
828.855	3496
828.994	3409
829.134	3370
829.273	3412
829.412	3344
829.551	3344
829.69	3393
829.829	3485
829.968	3572
830.107	3443
830.246	3428
830.385	3393
830.524	3374
830.663	3344
830.802	3260
830.941	3222
831.08	3249
831.219	3321
831.357	3264
831.496	3424
831.635	3233
831.774	3184
831.913	3207
832.051	3150
832.19	3161
832.329	3203
832.467	3123
832.606	3116
832.744	3119
832.883	3184
833.022	3230
833.16	3291
833.299	3329
833.437	3374
833.576	3405
833.714	3424
833.852	3409
833.991	3458
834.129	3469
834.267	3420
834.406	3424
834.544	3420
834.682	3431
834.821	3424
834.959	3584
835.097	3450
835.235	3542
835.373	3530
835.511	3538
835.65	3469
835.788	3462
835.926	3435
836.064	3378
836.202	3405
836.34	3587
836.478	3641
836.615	3568
836.753	3606
836.891	3625
837.029	3603
837.167	3580
837.305	3587
837.443	3568
837.58	3504
837.718	3656
837.856	3568
837.993	3507
838.131	3603
838.269	3610
838.406	3614
838.544	3584
838.681	3511
838.819	3447
838.956	3363
839.094	3409
839.231	3454
839.369	3538
839.506	3778
839.643	3610
839.781	3519
839.918	3458
840.055	3534
840.193	3545
840.33	3515
840.467	3568
840.604	3622
840.742	3804
840.879	3584
841.016	3606
841.153	3625
841.29	3797
841.427	3747
841.564	3736
841.701	3785
841.838	3724
841.975	3682
842.112	3701
842.249	3625
842.385	3648
842.522	3831
842.659	3728
842.796	3720
842.933	3755
843.069	3720
843.206	3724
843.343	3789
843.479	3846
843.616	3846
843.752	3679
843.889	3694
844.025	3880
844.162	3717
844.298	3854
844.435	3842
844.571	3770
844.708	3949
844.844	3972
844.98	4055
845.117	4006
845.253	3937
845.389	3926
845.525	4036
845.661	3968
845.798	3915
845.934	4017
846.07	3972
846.206	4048
846.342	4154
846.478	4097
846.614	3983
846.75	3930
846.886	3911
847.022	4078
847.158	3964
847.294	4032
847.429	4021
847.565	4025
847.701	4284
847.837	3899
847.972	3876
848.108	3994
848.244	3983
848.379	3888
848.515	3861
848.65	3816
848.786	3865
848.921	3854
849.057	3960
849.192	3956
849.328	3903
849.463	3994
849.598	3896
849.734	3873
849.869	3861
850.004	3808
850.14	3831
850.275	3770
850.41	3762
850.545	3774
850.68	3812
850.815	3808
850.95	3838
851.085	3934
851.22	3873
851.355	3808
851.49	3819
851.625	3846
851.76	3857
851.895	3747
852.03	3778
852.165	3789
852.299	3838
852.434	3934
852.569	3896
852.703	3960
852.838	3975
852.973	3991
853.107	4036
853.242	3899
853.376	3869
853.511	3781
853.645	3854
853.78	4010
853.914	3911
854.048	3926
854.183	3915
854.317	3975
854.451	4059
854.585	3987
854.72	3907
854.854	4051
854.988	3960
855.122	4044
855.256	3903
855.39	4044
855.524	4105
855.658	4097
855.792	4135
855.926	4150
856.06	4154
856.194	4257
856.327	4109
856.461	4135
856.595	4131
856.729	4173
856.862	4272
856.996	4276
857.13	4299
857.263	4325
857.397	4375
857.53	4325
857.664	4333
857.797	4424
857.931	4409
858.064	4405
858.197	4436
858.331	4409
858.464	4432
858.597	4390
858.731	4455
858.864	4512
858.997	4462
859.13	4542
859.263	4546
859.396	4592
859.529	4531
859.662	4561
859.795	4531
859.928	4611
860.061	4683
860.194	4725
860.327	4687
860.46	4664
860.592	4767
860.725	4763
860.858	4755
860.99	4691
861.123	4702
861.256	4733
861.388	4782
861.521	5341
861.653	4748
861.786	4672
861.918	4740
862.05	4805
862.183	4839
862.315	4896
862.447	4949
862.58	4870
862.712	4858
862.844	4793
862.976	4889
863.108	4877
863.24	5284
863.372	4881
863.504	4923
863.636	4934
863.768	4949
863.9	5003
864.032	4972
864.164	5014
864.296	5052
864.428	5098
864.559	5121
864.691	5170
864.823	5178
864.954	5124
865.086	5136
865.217	5174
865.349	5117
865.48	5140
865.612	5170
865.743	5292
865.875	5231
866.006	5220
866.137	5193
866.269	5277
866.4	5216
866.531	5273
866.662	5242
866.793	5311
866.924	5280
867.055	5345
867.186	5341
867.317	5364
867.448	5322
867.579	5376
867.71	5379
867.841	5391
867.972	5421
868.103	5433
868.233	5493
868.364	5516
868.495	5532
868.625	5665
868.756	5794
868.886	5718
869.017	5733
869.147	5821
869.278	5847
869.408	5779
869.539	5866
869.669	5931
869.799	5897
869.929	5996
870.06	6064
870.19	6254
870.32	6140
870.45	6281
870.58	6372
870.71	6448
870.84	6475
870.97	6445
871.1	6479
871.23	6578
871.36	6719
871.489	6631
871.619	6806
871.749	6814
871.879	6890
872.008	6989
872.138	6993
872.267	7027
872.397	6951
872.526	7122
872.656	7076
872.785	7202
872.915	7392
873.044	7499
873.173	7533
873.303	7643
873.432	7708
873.561	7951
873.69	7887
873.819	8039
873.948	8214
874.077	8263
874.206	8336
874.335	8465
874.464	8674
874.593	8880
874.722	8880
874.851	9074
874.979	9310
875.108	9401
875.237	9416
875.365	9519
875.494	9625
875.623	9892
875.751	9857
875.88	10055
876.008	10143
876.136	10306
876.265	10516
876.393	10752
876.521	10691
876.65	10831
876.778	10854
876.906	10930
877.034	11041
877.162	11143
877.29	11162
877.418	11307
877.546	11379
877.674	11478
877.802	11414
877.93	11490
878.058	11589
878.185	11535
878.313	11646
878.441	11798
878.568	11642
878.696	11889
878.824	11836
878.951	11923
879.079	12011
879.206	12167
879.333	11999
879.461	12030
879.588	12087
879.715	12076
879.842	12228
879.97	12114
880.097	11817
880.224	11885
880.351	11935
880.478	11847
880.605	11824
880.732	11836
880.859	11950
880.986	11851
881.112	11836
881.239	11756
881.366	11634
881.493	11680
881.619	11570
881.746	11535
881.872	11554
881.999	11520
882.125	11474
882.252	11497
882.378	11520
882.505	11539
882.631	11410
882.757	11235
882.883	11376
883.01	11231
883.136	11254
883.262	11223
883.388	11079
883.514	11197
883.64	11128
883.766	11201
883.892	11022
884.018	10938
884.143	11025
884.269	11094
884.395	10908
884.52	10816
884.646	10767
884.772	10721
884.897	10611
885.023	10725
885.148	10698
885.274	10729
885.399	10687
885.524	10630
885.65	10675
885.775	10538
885.9	10508
886.025	10687
886.15	10550
886.275	10497
886.4	10455
886.525	10398
886.65	10379
886.775	10360
886.9	10493
887.025	10554
887.149	10363
887.274	10139
887.399	10242
887.523	10143
887.648	10173
887.773	10158
887.897	10200
888.021	10169
888.146	10147
888.27	10185
888.395	10192
888.519	10166
888.643	10272
888.767	10242
888.891	10029
889.015	9972
889.139	10055
889.263	9968
889.387	10071
889.511	10093
889.635	10067
889.759	9979
889.883	9983
890.006	10017
890.13	10131
890.254	9979
890.377	9964
890.501	9838
890.624	9941
890.748	9884
890.871	9823
890.995	9827
891.118	9701
891.241	9793
891.364	9759
891.488	9873
891.611	9747
891.734	9800
891.857	9743
891.98	9675
892.103	9789
892.226	9641
892.349	9682
892.471	9576
892.594	9549
892.717	9561
892.839	9488
892.962	9675
893.085	9618
893.207	9572
893.33	9587
893.452	9542
893.575	9656
893.697	9477
893.819	9561
893.941	9675
894.064	9675
894.186	9397
894.308	9431
894.43	9534
894.552	9564
894.674	9454
894.796	9458
894.918	9466
895.04	9397
895.161	9408
895.283	9374
895.405	9275
895.526	9321
895.648	9279
895.769	9218
895.891	9268
896.012	9275
896.134	9207
896.255	9180
896.376	9173
896.498	9169
896.619	9184
896.74	9165
896.861	9085
896.982	9329
897.103	9344
897.224	9173
897.345	9081
897.466	9036
897.587	9062
897.708	9047
897.828	9066
897.949	9017
898.07	8910
898.19	8971
898.311	9081
898.431	8963
898.552	8933
898.672	8990
898.792	9028
898.913	8975
899.033	8804
899.153	8773
899.273	8678
899.393	8769
899.513	8758
899.633	8720
899.753	8701
899.873	8651
899.993	8731
900.113	8708
900.232	8766
900.352	8621
900.472	8640
900.591	8511
900.711	8594
900.83	8526
900.95	8659
901.069	8689
901.189	8560
901.308	8484
901.427	8332
901.546	8438
901.665	8427
901.784	8514
901.904	8423
902.023	8404
902.141	8294
902.26	8229
902.379	8336
902.498	8275
902.617	8237
902.735	8370
902.854	8328
902.973	8298
903.091	8145
903.21	8111
903.328	8130
903.446	8092
903.565	8008
903.683	8164
903.801	8100
903.919	8161
904.038	8016
904.156	8111
904.274	8138
904.392	8111
904.51	8103
904.627	8027
904.745	8115
904.863	8077
904.981	7951
905.098	7856
905.216	7925
905.334	7917
905.451	7890
905.569	7830
905.686	7970
905.803	7944
905.921	7822
906.038	7856
906.155	7784
906.272	7727
906.389	7712
906.506	7655
906.623	7662
906.74	7628
906.857	7571
906.974	7556
907.091	7651
907.208	7727
907.324	7628
907.441	7609
907.557	7468
907.674	7415
907.79	7369
907.907	7343
908.023	7388
908.139	7445
908.256	7362
908.372	7354
908.488	7362
908.604	7266
908.72	7244
908.836	7285
908.952	7217
909.068	7285
909.184	7270
909.3	7316
909.415	7335
909.531	7240
909.647	7072
909.762	7088
909.878	7152
909.993	7126
910.108	7065
910.224	7129
910.339	7053
910.454	7034
910.57	6993
910.685	7004
910.8	7247
910.915	7175
911.03	6966
911.145	6939
911.259	6890
911.374	6916
911.489	6894
911.604	6852
911.718	6749
911.833	6722
911.947	6669
912.062	6684
912.176	6753
912.291	6722
912.405	6703
912.519	6825
912.633	6947
912.748	6745
912.862	6673
912.976	6589
913.09	6517
913.204	6650
913.318	6665
913.431	6696
913.545	6741
913.659	6650
913.772	6601
913.886	6585
914	6555
914.113	6593
914.226	6623
914.34	6650
914.453	6536
914.566	6566
914.68	6540
914.793	6574
914.906	6498
915.019	6403
915.132	6380
915.245	6452
915.358	6464
915.47	6391
915.583	6483
915.696	6346
915.809	6486
915.921	6540
916.034	6445
916.146	6369
916.259	6403
916.371	6464
916.483	6498
916.595	6361
916.708	6399
916.82	6433
916.932	6391
917.044	6460
917.156	6372
917.268	6281
917.38	6342
917.491	6361
917.603	6319
917.715	6441
917.826	6372
917.938	6342
918.049	6262
918.161	6331
918.272	6414
918.384	6452
918.495	6308
918.606	6224
918.717	6205
918.828	6331
918.939	6247
919.05	6190
919.161	6285
919.272	6171
919.383	6178
919.494	6270
919.604	6437
919.715	6292
919.826	6254
919.936	6292
920.047	6395
920.157	6243
920.267	6437
920.378	6422
920.488	6270
920.598	6464
920.708	6563
920.818	6464
920.928	6517
921.038	6616
921.148	6593
921.258	6418
921.368	6319
921.477	6251
921.587	6106
921.697	6110
921.806	6216
921.916	6133
922.025	5980
922.134	5920
922.244	5954
922.353	5965
922.462	5805
922.571	5798
922.68	5737
922.789	5642
922.898	5676
923.007	5642
923.116	5680
923.224	5752
923.333	5657
923.442	5566
923.55	5581
923.659	5528
923.767	5657
923.876	5573
923.984	5596
924.092	5467
924.201	5592
924.309	5577
924.417	5615
924.525	5532
924.633	5497
924.741	6262
924.849	5406
924.956	5505
925.064	5395
925.172	5299
925.279	5334
925.387	5368
925.494	5360
925.602	5398
925.709	5360
925.816	5311
925.924	5353
926.031	5398
926.138	5284
926.245	5357
926.352	5231
926.459	5296
926.566	5357
926.673	5250
926.779	5201
926.886	5098
926.993	4999
927.099	5037
927.206	5045
927.312	4968
927.419	5029
927.525	4984
927.631	5010
927.737	4900
927.843	4900
927.95	4820
928.056	4805
928.162	4828
928.267	4877
928.373	5254
928.479	4854
928.585	4706
928.69	4782
928.796	4752
928.901	4755
929.007	4607
929.112	4668
929.218	4660
929.323	4580
929.428	4546
929.533	4698
929.638	4519
929.743	4569
929.848	4580
929.953	4481
930.058	4470
930.163	4367
930.267	4291
930.372	4432
930.477	4318
930.581	4455
930.685	4405
930.79	4242
930.894	4333
930.998	4223
931.103	4386
931.207	4082
931.311	4074
931.415	4078
931.519	3956
931.623	3941
