Data from glass_V78500241_1693.txt Node
Date: Wed Sep 01 19:26:14 CST 2021
User: usil
Spectrometer: V785-0024
Trigger mode: 0
Integration Time (sec): 4.000000E-1
Scans to average: 1
Nonlinearity correction enabled: false
Boxcar width: 0
Storing dark spectrum: false
XAxis mode: Wavelengths
Number of Pixels in Spectrum: 1024
>>>>>Begin Spectral Data<<<<<
801.071	3694
801.214	3762
801.356	3713
801.499	3778
801.641	3717
801.783	3762
801.926	3861
802.068	3831
802.211	3896
802.353	3907
802.496	3816
802.638	3880
802.78	3903
802.923	3949
803.065	3899
803.208	3869
803.35	3846
803.492	3922
803.635	3884
803.777	3789
803.919	3884
804.061	4120
804.204	4006
804.346	3930
804.488	3903
804.63	4044
804.773	3953
804.915	4036
805.057	4158
805.199	4044
805.341	4105
805.483	4097
805.626	4131
805.768	4112
805.91	4230
806.052	4238
806.194	4185
806.336	4344
806.478	4207
806.62	4204
806.762	4219
806.904	4219
807.046	4379
807.188	4249
807.33	4188
807.472	4204
807.614	4185
807.756	4227
807.898	4211
808.04	4238
808.182	4284
808.324	4363
808.465	4398
808.607	4451
808.749	4440
808.891	4451
809.033	4527
809.174	4390
809.316	4265
809.458	4227
809.6	4139
809.741	4196
809.883	4150
810.025	4188
810.166	4185
810.308	4246
810.45	4234
810.591	4219
810.733	4303
810.875	4516
811.016	4843
811.158	5128
811.299	5307
811.441	5250
811.582	5071
811.724	4748
811.865	4497
812.007	4466
812.148	4421
812.29	4447
812.431	4367
812.573	4379
812.714	4440
812.855	4409
812.997	4413
813.138	4481
813.279	4428
813.421	4402
813.562	4363
813.703	4325
813.845	4363
813.986	4223
814.127	4234
814.268	4295
814.41	4268
814.551	4268
814.692	4268
814.833	4265
814.974	4287
815.115	4375
815.256	4265
815.397	4227
815.539	4261
815.68	4192
815.821	4173
815.962	4314
816.103	4287
816.244	4284
816.385	4227
816.526	4242
816.666	4238
816.807	4082
816.948	4162
817.089	4188
817.23	4124
817.371	4093
817.512	4051
817.653	4120
817.793	4029
817.934	4093
818.075	4074
818.216	4097
818.356	4101
818.497	4010
818.638	3884
818.778	3915
818.919	3899
819.06	3873
819.2	3869
819.341	3888
819.481	3857
819.622	3926
819.762	4006
819.903	3945
820.043	3857
820.184	3816
820.324	3827
820.465	3854
820.605	3892
820.746	3865
820.886	3819
821.026	3960
821.167	3896
821.307	3956
821.447	4002
821.588	3991
821.728	3945
821.868	3903
822.008	3880
822.149	3930
822.289	3934
822.429	3755
822.569	3770
822.709	3823
822.849	3686
822.99	3728
823.13	3732
823.27	3797
823.41	3671
823.55	3762
823.69	3724
823.83	3740
823.97	3713
824.11	3637
824.25	3625
824.389	3584
824.529	3686
824.669	3603
824.809	3679
824.949	3740
825.089	3705
825.228	3690
825.368	3610
825.508	3511
825.648	3568
825.787	3591
825.927	3652
826.067	3618
826.206	3633
826.346	3785
826.485	3816
826.625	3831
826.765	3945
826.904	3854
827.044	3660
827.183	3515
827.323	3466
827.462	3511
827.601	3397
827.741	3397
827.88	3424
828.02	3355
828.159	3485
828.298	3435
828.437	3538
828.577	3428
828.716	3564
828.855	3519
828.994	3386
829.134	3348
829.273	3348
829.412	3332
829.551	3370
829.69	3382
829.829	3416
829.968	3504
830.107	3393
830.246	3481
830.385	3397
830.524	3344
830.663	3321
830.802	3249
830.941	3188
831.08	3150
831.219	3249
831.357	3230
831.496	3462
831.635	3249
831.774	3192
831.913	3233
832.051	3135
832.19	3127
832.329	3222
832.467	3157
832.606	3119
832.744	3199
832.883	3176
833.022	3203
833.16	3260
833.299	3332
833.437	3317
833.576	3401
833.714	3420
833.852	3393
833.991	3477
834.129	3473
834.267	3447
834.406	3386
834.544	3412
834.682	3401
834.821	3378
834.959	3553
835.097	3405
835.235	3523
835.373	3488
835.511	3526
835.65	3462
835.788	3500
835.926	3378
836.064	3363
836.202	3420
836.34	3580
836.478	3629
836.615	3568
836.753	3576
836.891	3629
837.029	3625
837.167	3595
837.305	3523
837.443	3576
837.58	3519
837.718	3603
837.856	3568
837.993	3530
838.131	3549
838.269	3568
838.406	3568
838.544	3561
838.681	3481
838.819	3473
838.956	3355
839.094	3389
839.231	3431
839.369	3492
839.506	3747
839.643	3686
839.781	3507
839.918	3469
840.055	3549
840.193	3504
840.33	3553
840.467	3580
840.604	3568
840.742	3804
840.879	3591
841.016	3545
841.153	3603
841.29	3724
841.427	3724
841.564	3709
841.701	3736
841.838	3720
841.975	3694
842.112	3717
842.249	3641
842.385	3622
842.522	3823
842.659	3694
842.796	3660
842.933	3667
843.069	3686
843.206	3682
843.343	3831
843.479	3759
843.616	3812
843.752	3652
843.889	3641
844.025	3876
844.162	3682
844.298	3838
844.435	3785
844.571	3797
844.708	3941
844.844	3960
844.98	4036
845.117	4021
845.253	3926
845.389	3880
845.525	3998
845.661	3964
845.798	3911
845.934	3998
846.07	3945
846.206	4032
846.342	4128
846.478	4093
846.614	3975
846.75	3907
846.886	3911
847.022	4021
847.158	4006
847.294	4013
847.429	4017
847.565	4013
847.701	4253
847.837	3842
847.972	3888
848.108	3968
848.244	3922
848.379	3857
848.515	3808
848.65	3823
848.786	3812
848.921	3857
849.057	3903
849.192	3937
849.328	3918
849.463	3926
849.598	3873
849.734	3823
849.869	3854
850.004	3766
850.14	3804
850.275	3804
850.41	3747
850.545	3819
850.68	3751
850.815	3770
850.95	3789
851.085	3941
851.22	3854
851.355	3880
851.49	3800
851.625	3797
851.76	3816
851.895	3755
852.03	3717
852.165	3755
852.299	3861
852.434	3896
852.569	3899
852.703	3888
852.838	3941
852.973	3968
853.107	4002
853.242	3865
853.376	3842
853.511	3797
853.645	3812
853.78	3949
853.914	3892
854.048	3876
854.183	3911
854.317	3918
854.451	4067
854.585	3979
854.72	3941
854.854	4025
854.988	3953
855.122	4017
855.256	3945
855.39	3979
855.524	4139
855.658	4078
855.792	4071
855.926	4139
856.06	4177
856.194	4185
856.327	4177
856.461	4124
856.595	4128
856.729	4188
856.862	4276
856.996	4249
857.13	4276
857.263	4299
857.397	4352
857.53	4295
857.664	4356
857.797	4356
857.931	4417
858.064	4329
858.197	4443
858.331	4386
858.464	4402
858.597	4363
858.731	4462
858.864	4466
858.997	4409
859.13	4478
859.263	4527
859.396	4561
859.529	4508
859.662	4516
859.795	4550
859.928	4565
860.061	4729
860.194	4710
860.327	4660
860.46	4634
860.592	4748
860.725	4782
860.858	4809
860.99	4683
861.123	4637
861.256	4675
861.388	4774
861.521	5368
861.653	4717
861.786	4698
861.918	4744
862.05	4839
862.183	4862
862.315	4877
862.447	4896
862.58	4919
862.712	4809
862.844	4763
862.976	4824
863.108	4854
863.24	5223
863.372	4858
863.504	4858
863.636	4911
863.768	5041
863.9	4961
864.032	4904
864.164	4923
864.296	5037
864.428	5048
864.559	5094
864.691	5094
864.823	5128
864.954	5102
865.086	5151
865.217	5140
865.349	5121
865.48	5178
865.612	5189
865.743	5284
865.875	5235
866.006	5189
866.137	5223
866.269	5235
866.4	5189
866.531	5258
866.662	5231
866.793	5284
866.924	5322
867.055	5307
867.186	5307
867.317	5330
867.448	5269
867.579	5357
867.71	5379
867.841	5372
867.972	5436
868.103	5471
868.233	5532
868.364	5532
868.495	5566
868.625	5653
868.756	5737
868.886	5657
869.017	5733
869.147	5790
869.278	5855
869.408	5794
869.539	5828
869.669	5927
869.799	5908
869.929	5992
870.06	6026
870.19	6228
870.32	6194
870.45	6273
870.58	6369
870.71	6479
870.84	6433
870.97	6445
871.1	6414
871.23	6658
871.36	6711
871.489	6757
871.619	6753
871.749	6810
871.879	6863
872.008	6947
872.138	6958
872.267	7057
872.397	7027
872.526	6993
872.656	7091
872.785	7225
872.915	7384
873.044	7491
873.173	7594
873.303	7582
873.432	7734
873.561	7860
873.69	7917
873.819	8001
873.948	8172
874.077	8225
874.206	8294
874.335	8415
874.464	8693
874.593	8883
874.722	8921
874.851	9165
874.979	9192
875.108	9344
875.237	9485
875.365	9504
875.494	9561
875.623	9827
875.751	9804
875.88	9987
876.008	10158
876.136	10249
876.265	10516
876.393	10694
876.521	10615
876.65	10824
876.778	10831
876.906	10858
877.034	11014
877.162	11006
877.29	11216
877.418	11254
877.546	11349
877.674	11455
877.802	11471
877.93	11528
878.058	11558
878.185	11551
878.313	11680
878.441	11722
878.568	11547
878.696	11752
878.824	11767
878.951	11897
879.079	11942
879.206	12129
879.333	12034
879.461	12026
879.588	12163
879.715	12053
879.842	12266
879.97	11984
880.097	11889
880.224	11878
880.351	11992
880.478	11950
880.605	11760
880.732	11897
880.859	12079
880.986	11794
881.112	11843
881.239	11630
881.366	11714
881.493	11630
881.619	11585
881.746	11532
881.872	11539
881.999	11558
882.125	11490
882.252	11516
882.378	11448
882.505	11630
882.631	11341
882.757	11235
882.883	11208
883.01	11201
883.136	11181
883.262	11010
883.388	11067
883.514	11231
883.64	11181
883.766	11102
883.892	11098
884.018	11018
884.143	11086
884.269	11056
884.395	10858
884.52	10824
884.646	10774
884.772	10691
884.897	10683
885.023	10687
885.148	10774
885.274	10752
885.399	10710
885.524	10561
885.65	10653
885.775	10538
885.9	10538
886.025	10603
886.15	10592
886.275	10481
886.4	10287
886.525	10447
886.65	10428
886.775	10337
886.9	10478
887.025	10554
887.149	10375
887.274	10238
887.399	10139
887.523	10192
887.648	10169
887.773	10021
887.897	10268
888.021	10215
888.146	10158
888.27	10238
888.395	10234
888.519	10215
888.643	10185
888.767	10196
888.891	10029
889.015	10025
889.139	10025
889.263	9918
889.387	10101
889.511	10093
889.635	10055
889.759	9960
889.883	9983
890.006	10010
890.13	10109
890.254	9918
890.377	9972
890.501	9873
890.624	9907
890.748	9854
890.871	9785
890.995	9762
891.118	9652
891.241	9724
891.364	9797
891.488	9770
891.611	9781
891.734	9759
891.857	9732
891.98	9728
892.103	9720
892.226	9690
892.349	9720
892.471	9557
892.594	9576
892.717	9660
892.839	9591
892.962	9637
893.085	9618
893.207	9603
893.33	9519
893.452	9534
893.575	9690
893.697	9500
893.819	9572
893.941	9618
894.064	9606
894.186	9405
894.308	9416
894.43	9557
894.552	9587
894.674	9564
894.796	9336
894.918	9458
895.04	9298
895.161	9378
895.283	9344
895.405	9325
895.526	9275
895.648	9249
895.769	9272
895.891	9203
896.012	9344
896.134	9214
896.255	9192
896.376	9157
896.498	9127
896.619	9154
896.74	9097
896.861	9119
896.982	9237
897.103	9279
897.224	9161
897.345	9024
897.466	8956
897.587	8998
897.708	9146
897.828	9009
897.949	8963
898.07	8872
898.19	8857
898.311	8982
898.431	8883
898.552	8906
898.672	8975
898.792	8914
898.913	8948
899.033	8804
899.153	8830
899.273	8682
899.393	8724
899.513	8785
899.633	8746
899.753	8731
899.873	8670
899.993	8708
900.113	8716
900.232	8693
900.352	8682
900.472	8644
900.591	8632
900.711	8625
900.83	8579
900.95	8602
901.069	8697
901.189	8552
901.308	8457
901.427	8389
901.546	8381
901.665	8404
901.784	8488
901.904	8473
902.023	8385
902.141	8149
902.26	8229
902.379	8328
902.498	8237
902.617	8142
902.735	8275
902.854	8290
902.973	8256
903.091	8149
903.21	8130
903.328	8123
903.446	8134
903.565	8077
903.683	8084
903.801	8054
903.919	8100
904.038	8062
904.156	8039
904.274	8046
904.392	7951
904.51	8077
904.627	8103
904.745	8043
904.863	8043
904.981	7936
905.098	7887
905.216	7883
905.334	7887
905.451	7906
905.569	7849
905.686	7909
905.803	7833
905.921	7807
906.038	7887
906.155	7799
906.272	7674
906.389	7742
906.506	7658
906.623	7693
906.74	7613
906.857	7544
906.974	7544
907.091	7597
907.208	7742
907.324	7704
907.441	7590
907.557	7407
907.674	7434
907.79	7396
907.907	7483
908.023	7407
908.139	7449
908.256	7373
908.372	7354
908.488	7312
908.604	7266
908.72	7171
908.836	7240
908.952	7255
909.068	7240
909.184	7305
909.3	7297
909.415	7255
909.531	7266
909.647	7133
909.762	7069
909.878	7031
909.993	7122
910.108	7088
910.224	7019
910.339	7103
910.454	7023
910.57	6966
910.685	6973
910.8	7133
910.915	7091
911.03	7038
911.145	6905
911.259	6886
911.374	6882
911.489	6856
911.604	6791
911.718	6696
911.833	6749
911.947	6726
912.062	6604
912.176	6703
912.291	6779
912.405	6719
912.519	6833
912.633	6810
912.748	6692
912.862	6684
912.976	6597
913.09	6494
913.204	6604
913.318	6612
913.431	6707
913.545	6658
913.659	6760
913.772	6642
913.886	6620
914	6608
914.113	6623
914.226	6707
914.34	6669
914.453	6479
914.566	6662
914.68	6570
914.793	6540
914.906	6448
915.019	6395
915.132	6357
915.245	6407
915.358	6471
915.47	6403
915.583	6494
915.696	6460
915.809	6479
915.921	6582
916.034	6429
916.146	6414
916.259	6418
916.371	6498
916.483	6384
916.595	6414
916.708	6372
916.82	6426
916.932	6380
917.044	6372
917.156	6418
917.268	6315
917.38	6403
917.491	6361
917.603	6331
917.715	6342
917.826	6407
917.938	6410
918.049	6228
918.161	6270
918.272	6376
918.384	6429
918.495	6372
918.606	6262
918.717	6224
918.828	6270
918.939	6285
919.05	6159
919.161	6277
919.272	6148
919.383	6117
919.494	6319
919.604	6391
919.715	6270
919.826	6232
919.936	6239
920.047	6353
920.157	6304
920.267	6410
920.378	6300
920.488	6327
920.598	6410
920.708	6574
920.818	6475
920.928	6422
921.038	6665
921.148	6623
921.258	6334
921.368	6254
921.477	6209
921.587	6197
921.697	6079
921.806	6167
921.916	6041
922.025	5893
922.134	5935
922.244	5889
922.353	5927
922.462	5817
922.571	5794
922.68	5695
922.789	5665
922.898	5699
923.007	5646
923.116	5707
923.224	5703
923.333	5688
923.442	5642
923.55	5600
923.659	5535
923.767	5680
923.876	5532
923.984	5627
924.092	5512
924.201	5585
924.309	5577
924.417	5535
924.525	5490
924.633	5490
924.741	6289
924.849	5345
924.956	5490
925.064	5330
925.172	5216
925.279	5273
925.387	5349
925.494	5322
925.602	5410
925.709	5395
925.816	5307
925.924	5334
926.031	5334
926.138	5273
926.245	5273
926.352	5254
926.459	5258
926.566	5318
926.673	5201
926.779	5113
926.886	5113
926.993	5052
927.099	5006
927.206	4961
927.312	4942
927.419	5075
927.525	4968
927.631	5018
927.737	4896
927.843	4824
927.95	4767
928.056	4824
928.162	4809
928.267	4870
928.373	5315
928.479	4854
928.585	4748
928.69	4755
928.796	4748
928.901	4656
929.007	4607
929.112	4668
929.218	4653
929.323	4611
929.428	4569
929.533	4687
929.638	4470
929.743	4512
929.848	4550
929.953	4485
930.058	4413
930.163	4344
930.267	4333
930.372	4405
930.477	4314
930.581	4474
930.685	4333
930.79	4249
930.894	4276
930.998	4261
931.103	4371
931.207	4109
931.311	4090
931.415	4029
931.519	3941
931.623	3960
