Data from glass_V78500241_491.txt Node
Date: Wed Sep 01 19:17:54 CST 2021
User: usil
Spectrometer: V785-0024
Trigger mode: 0
Integration Time (sec): 4.000000E-1
Scans to average: 1
Nonlinearity correction enabled: false
Boxcar width: 0
Storing dark spectrum: false
XAxis mode: Wavelengths
Number of Pixels in Spectrum: 1024
>>>>>Begin Spectral Data<<<<<
801.071	3740
801.214	3789
801.356	3762
801.499	3789
801.641	3743
801.783	3766
801.926	3873
802.068	3880
802.211	3896
802.353	3880
802.496	3838
802.638	3873
802.78	3960
802.923	3926
803.065	3850
803.208	3884
803.35	3857
803.492	3915
803.635	3911
803.777	3793
803.919	3930
804.061	4192
804.204	3972
804.346	3949
804.488	3918
804.63	4029
804.773	3964
804.915	4002
805.057	4120
805.199	4055
805.341	4139
805.483	4120
805.626	4154
805.768	4093
805.91	4268
806.052	4242
806.194	4265
806.336	4375
806.478	4249
806.62	4188
806.762	4215
806.904	4227
807.046	4341
807.188	4238
807.33	4192
807.472	4196
807.614	4185
807.756	4276
807.898	4173
808.04	4295
808.182	4314
808.324	4295
808.465	4363
808.607	4489
808.749	4512
808.891	4500
809.033	4485
809.174	4405
809.316	4272
809.458	4280
809.6	4143
809.741	4185
809.883	4169
810.025	4211
810.166	4204
810.308	4192
810.45	4268
810.591	4238
810.733	4284
810.875	4504
811.016	4835
811.158	5121
811.299	5322
811.441	5254
811.582	5052
811.724	4710
811.865	4497
812.007	4436
812.148	4470
812.29	4413
812.431	4428
812.573	4451
812.714	4443
812.855	4394
812.997	4398
813.138	4481
813.279	4409
813.421	4394
813.562	4344
813.703	4360
813.845	4379
813.986	4280
814.127	4211
814.268	4295
814.41	4276
814.551	4249
814.692	4333
814.833	4268
814.974	4329
815.115	4341
815.256	4257
815.397	4246
815.539	4284
815.68	4207
815.821	4265
815.962	4314
816.103	4295
816.244	4215
816.385	4242
816.526	4276
816.666	4207
816.807	4071
816.948	4219
817.089	4181
817.23	4097
817.371	4078
817.512	4032
817.653	4105
817.793	4048
817.934	4017
818.075	4097
818.216	4071
818.356	4082
818.497	3960
818.638	3926
818.778	3907
818.919	3918
819.06	3896
819.2	4002
819.341	3922
819.481	3899
819.622	3964
819.762	3991
819.903	3968
820.043	3892
820.184	3819
820.324	3827
820.465	3922
820.605	3888
820.746	3838
820.886	3846
821.026	3922
821.167	3930
821.307	3956
821.447	3987
821.588	3956
821.728	3979
821.868	3964
822.008	3884
822.149	3915
822.289	3956
822.429	3762
822.569	3774
822.709	3827
822.849	3656
822.99	3743
823.13	3781
823.27	3789
823.41	3759
823.55	3770
823.69	3728
823.83	3785
823.97	3694
824.11	3580
824.25	3625
824.389	3667
824.529	3682
824.669	3694
824.809	3686
824.949	3747
825.089	3743
825.228	3690
825.368	3576
825.508	3553
825.648	3599
825.787	3629
825.927	3641
826.067	3618
826.206	3667
826.346	3793
826.485	3823
826.625	3903
826.765	3983
826.904	3816
827.044	3660
827.183	3561
827.323	3424
827.462	3492
827.601	3431
827.741	3405
827.88	3443
828.02	3348
828.159	3450
828.298	3519
828.437	3519
828.577	3431
828.716	3599
828.855	3496
828.994	3401
829.134	3367
829.273	3420
829.412	3370
829.551	3336
829.69	3374
829.829	3424
829.968	3534
830.107	3454
830.246	3473
830.385	3439
830.524	3351
830.663	3340
830.802	3272
830.941	3211
831.08	3192
831.219	3332
831.357	3233
831.496	3435
831.635	3226
831.774	3249
831.913	3260
832.051	3116
832.19	3131
832.329	3203
832.467	3127
832.606	3127
832.744	3184
832.883	3146
833.022	3218
833.16	3302
833.299	3336
833.437	3389
833.576	3355
833.714	3428
833.852	3450
833.991	3466
834.129	3507
834.267	3435
834.406	3416
834.544	3443
834.682	3401
834.821	3428
834.959	3591
835.097	3462
835.235	3515
835.373	3504
835.511	3507
835.65	3485
835.788	3496
835.926	3386
836.064	3374
836.202	3393
836.34	3595
836.478	3610
836.615	3538
836.753	3603
836.891	3641
837.029	3595
837.167	3625
837.305	3568
837.443	3580
837.58	3496
837.718	3576
837.856	3568
837.993	3553
838.131	3641
838.269	3599
838.406	3603
838.544	3561
838.681	3507
838.819	3409
838.956	3409
839.094	3443
839.231	3458
839.369	3568
839.506	3770
839.643	3660
839.781	3511
839.918	3443
840.055	3534
840.193	3538
840.33	3568
840.467	3572
840.604	3599
840.742	3774
840.879	3564
841.016	3603
841.153	3656
841.29	3747
841.427	3720
841.564	3728
841.701	3732
841.838	3736
841.975	3720
842.112	3747
842.249	3652
842.385	3625
842.522	3819
842.659	3720
842.796	3690
842.933	3724
843.069	3724
843.206	3747
843.343	3766
843.479	3789
843.616	3816
843.752	3652
843.889	3728
844.025	3865
844.162	3690
844.298	3797
844.435	3781
844.571	3869
844.708	3896
844.844	3979
844.98	4036
845.117	4055
845.253	3972
845.389	3918
845.525	3975
845.661	3968
845.798	3968
845.934	4025
846.07	3998
846.206	4143
846.342	4154
846.478	4074
846.614	3987
846.75	3949
846.886	3915
847.022	4025
847.158	3964
847.294	4029
847.429	4036
847.565	4002
847.701	4227
847.837	3903
847.972	3865
848.108	3998
848.244	3941
848.379	3930
848.515	3876
848.65	3812
848.786	3827
848.921	3857
849.057	3945
849.192	3956
849.328	3926
849.463	3915
849.598	3926
849.734	3880
849.869	3800
850.004	3800
850.14	3854
850.275	3808
850.41	3743
850.545	3785
850.68	3838
850.815	3781
850.95	3827
851.085	3934
851.22	3888
851.355	3846
851.49	3804
851.625	3800
851.76	3793
851.895	3778
852.03	3747
852.165	3816
852.299	3869
852.434	3892
852.569	3861
852.703	3953
852.838	3975
852.973	4044
853.107	3975
853.242	3911
853.376	3850
853.511	3785
853.645	3804
853.78	4006
853.914	3896
854.048	3945
854.183	3880
854.317	4025
854.451	4048
854.585	3964
854.72	3960
854.854	4055
854.988	3960
855.122	3991
855.256	3918
855.39	3994
855.524	4143
855.658	4116
855.792	4143
855.926	4185
856.06	4185
856.194	4181
856.327	4169
856.461	4150
856.595	4139
856.729	4211
856.862	4303
856.996	4265
857.13	4306
857.263	4356
857.397	4390
857.53	4360
857.664	4375
857.797	4394
857.931	4474
858.064	4398
858.197	4462
858.331	4413
858.464	4371
858.597	4325
858.731	4443
858.864	4462
858.997	4481
859.13	4527
859.263	4550
859.396	4603
859.529	4558
859.662	4527
859.795	4580
859.928	4580
860.061	4721
860.194	4721
860.327	4683
860.46	4641
860.592	4763
860.725	4774
860.858	4771
860.99	4706
861.123	4717
861.256	4675
861.388	4824
861.521	5516
861.653	4782
861.786	4675
861.918	4714
862.05	4820
862.183	4858
862.315	4896
862.447	4934
862.58	4889
862.712	4809
862.844	4725
862.976	4915
863.108	4911
863.24	5174
863.372	4866
863.504	4927
863.636	4904
863.768	4949
863.9	4987
864.032	4946
864.164	4946
864.296	5022
864.428	5128
864.559	5109
864.691	5128
864.823	5102
864.954	5113
865.086	5121
865.217	5124
865.349	5105
865.48	5246
865.612	5174
865.743	5326
865.875	5216
866.006	5162
866.137	5189
866.269	5239
866.4	5273
866.531	5246
866.662	5239
866.793	5277
866.924	5330
867.055	5330
867.186	5318
867.317	5299
867.448	5307
867.579	5402
867.71	5322
867.841	5425
867.972	5471
868.103	5501
868.233	5524
868.364	5501
868.495	5520
868.625	5710
868.756	5779
868.886	5668
869.017	5733
869.147	5908
869.278	5840
869.408	5805
869.539	5844
869.669	5897
869.799	5920
869.929	6022
870.06	6053
870.19	6190
870.32	6228
870.45	6273
870.58	6331
870.71	6475
870.84	6456
870.97	6395
871.1	6433
871.23	6654
871.36	6730
871.489	6681
871.619	6783
871.749	6772
871.879	6897
872.008	7004
872.138	6939
872.267	6989
872.397	7031
872.526	7057
872.656	7183
872.785	7198
872.915	7346
873.044	7521
873.173	7613
873.303	7708
873.432	7757
873.561	7928
873.69	7978
873.819	7978
873.948	8119
874.077	8218
874.206	8317
874.335	8431
874.464	8678
874.593	8868
874.722	8891
874.851	9146
874.979	9302
875.108	9370
875.237	9386
875.365	9416
875.494	9667
875.623	9865
875.751	9804
875.88	9983
876.008	10211
876.136	10280
876.265	10447
876.393	10763
876.521	10786
876.65	10801
876.778	10862
876.906	10858
877.034	10976
877.162	11060
877.29	11208
877.418	11292
877.546	11326
877.674	11490
877.802	11471
877.93	11482
878.058	11520
878.185	11528
878.313	11554
878.441	11847
878.568	11695
878.696	11813
878.824	11836
878.951	11916
879.079	12038
879.206	12072
879.333	12079
879.461	12034
879.588	12091
879.715	12083
879.842	12258
879.97	12125
880.097	11855
880.224	11916
880.351	11920
880.478	11954
880.605	11813
880.732	11863
880.859	12041
880.986	11794
881.112	11824
881.239	11718
881.366	11714
881.493	11665
881.619	11505
881.746	11672
881.872	11524
881.999	11570
882.125	11467
882.252	11467
882.378	11486
882.505	11554
882.631	11395
882.757	11307
882.883	11326
883.01	11303
883.136	11071
883.262	11079
883.388	11121
883.514	11181
883.64	11235
883.766	11174
883.892	10934
884.018	11022
884.143	11025
884.269	11086
884.395	10881
884.52	10839
884.646	10790
884.772	10714
884.897	10694
885.023	10717
885.148	10679
885.274	10733
885.399	10653
885.524	10622
885.65	10634
885.775	10637
885.9	10603
886.025	10634
886.15	10493
886.275	10523
886.4	10329
886.525	10325
886.65	10367
886.775	10360
886.9	10542
887.025	10603
887.149	10371
887.274	10230
887.399	10196
887.523	10219
887.648	10109
887.773	10120
887.897	10223
888.021	10227
888.146	10219
888.27	10261
888.395	10249
888.519	10124
888.643	10162
888.767	10261
888.891	10105
889.015	10086
889.139	9987
889.263	9991
889.387	10032
889.511	10101
889.635	10131
889.759	10017
889.883	9975
890.006	10040
890.13	10101
890.254	9953
890.377	9956
890.501	9888
890.624	9857
890.748	9873
890.871	9778
890.995	9720
891.118	9732
891.241	9686
891.364	9785
891.488	9911
891.611	9751
891.734	9743
891.857	9800
891.98	9759
892.103	9755
892.226	9728
892.349	9732
892.471	9561
892.594	9561
892.717	9656
892.839	9625
892.962	9580
893.085	9606
893.207	9629
893.33	9557
893.452	9545
893.575	9599
893.697	9488
893.819	9663
893.941	9675
894.064	9591
894.186	9458
894.308	9374
894.43	9576
894.552	9580
894.674	9564
894.796	9363
894.918	9389
895.04	9348
895.161	9340
895.283	9382
895.405	9245
895.526	9272
895.648	9275
895.769	9283
895.891	9310
896.012	9294
896.134	9272
896.255	9203
896.376	9127
896.498	9188
896.619	9192
896.74	8975
896.861	9135
896.982	9325
897.103	9359
897.224	9211
897.345	9104
897.466	9036
897.587	9089
897.708	9085
897.828	9036
897.949	9085
898.07	8819
898.19	8952
898.311	8994
898.431	8899
898.552	8960
898.672	8971
898.792	8921
898.913	8921
899.033	8834
899.153	8739
899.273	8754
899.393	8750
899.513	8796
899.633	8731
899.753	8815
899.873	8632
899.993	8716
900.113	8629
900.232	8735
900.352	8701
900.472	8571
900.591	8522
900.711	8583
900.83	8571
900.95	8720
901.069	8674
901.189	8499
901.308	8465
901.427	8393
901.546	8442
901.665	8438
901.784	8495
901.904	8381
902.023	8347
902.141	8244
902.26	8271
902.379	8282
902.498	8187
902.617	8252
902.735	8355
902.854	8355
902.973	8286
903.091	8164
903.21	8073
903.328	8183
903.446	8119
903.565	8100
903.683	8157
903.801	8103
903.919	8119
904.038	8164
904.156	8050
904.274	8115
904.392	7951
904.51	7986
904.627	8039
904.745	8161
904.863	8096
904.981	7944
905.098	7875
905.216	7845
905.334	7890
905.451	7906
905.569	7963
905.686	7970
905.803	7913
905.921	7811
906.038	7906
906.155	7837
906.272	7708
906.389	7776
906.506	7624
906.623	7594
906.74	7613
906.857	7567
906.974	7601
907.091	7685
907.208	7742
907.324	7662
907.441	7609
907.557	7453
907.674	7483
907.79	7362
907.907	7434
908.023	7441
908.139	7415
908.256	7403
908.372	7419
908.488	7343
908.604	7392
908.72	7225
908.836	7251
908.952	7244
909.068	7221
909.184	7244
909.3	7240
909.415	7278
909.531	7301
909.647	7084
909.762	7137
909.878	7084
909.993	7171
910.108	7126
910.224	7164
910.339	7126
910.454	7057
910.57	7076
910.685	6954
910.8	7221
910.915	7095
911.03	6989
911.145	6932
911.259	6920
911.374	6886
911.489	6840
911.604	6837
911.718	6707
911.833	6749
911.947	6601
912.062	6582
912.176	6688
912.291	6734
912.405	6681
912.519	6791
912.633	6863
912.748	6749
912.862	6757
912.976	6631
913.09	6566
913.204	6486
913.318	6642
913.431	6639
913.545	6673
913.659	6818
913.772	6658
913.886	6578
914	6563
914.113	6601
914.226	6627
914.34	6597
914.453	6540
914.566	6620
914.68	6559
914.793	6513
914.906	6448
915.019	6456
915.132	6372
915.245	6441
915.358	6498
915.47	6441
915.583	6418
915.696	6452
915.809	6551
915.921	6589
916.034	6441
916.146	6422
916.259	6391
916.371	6456
916.483	6464
916.595	6452
916.708	6403
916.82	6452
916.932	6391
917.044	6346
917.156	6395
917.268	6315
917.38	6399
917.491	6315
917.603	6399
917.715	6426
917.826	6456
917.938	6266
918.049	6254
918.161	6342
918.272	6380
918.384	6384
918.495	6391
918.606	6323
918.717	6251
918.828	6277
918.939	6369
919.05	6201
919.161	6209
919.272	6129
919.383	6178
919.494	6239
919.604	6445
919.715	6338
919.826	6258
919.936	6270
920.047	6399
920.157	6292
920.267	6448
920.378	6380
920.488	6262
920.598	6464
920.708	6566
920.818	6445
920.928	6445
921.038	6646
921.148	6597
921.258	6395
921.368	6334
921.477	6232
921.587	6270
921.697	6079
921.806	6197
921.916	6072
922.025	5980
922.134	5969
922.244	5939
922.353	5901
922.462	5882
922.571	5824
922.68	5707
922.789	5767
922.898	5680
923.007	5691
923.116	5676
923.224	5699
923.333	5680
923.442	5630
923.55	5562
923.659	5581
923.767	5676
923.876	5585
923.984	5661
924.092	5505
924.201	5516
924.309	5596
924.417	5554
924.525	5539
924.633	5501
924.741	6262
924.849	5383
924.956	5509
925.064	5368
925.172	5303
925.279	5322
925.387	5292
925.494	5383
925.602	5417
925.709	5417
925.816	5280
925.924	5311
926.031	5395
926.138	5318
926.245	5341
926.352	5242
926.459	5341
926.566	5349
926.673	5208
926.779	5132
926.886	5124
926.993	5048
927.099	5052
927.206	4881
927.312	4976
927.419	5079
927.525	4949
927.631	5022
927.737	4927
927.843	4881
927.95	4782
928.056	4828
928.162	4839
928.267	4801
928.373	5254
928.479	4847
928.585	4752
928.69	4801
928.796	4801
928.901	4675
929.007	4584
929.112	4691
929.218	4634
929.323	4641
929.428	4630
929.533	4675
929.638	4535
929.743	4519
929.848	4554
929.953	4504
930.058	4459
930.163	4371
930.267	4337
930.372	4394
930.477	4360
930.581	4459
930.685	4337
930.79	4242
930.894	4276
930.998	4272
931.103	4379
931.207	4147
931.311	4124
931.415	4074
931.519	3934
931.623	4013
