Data from glass_V78500241_766.txt Node
Date: Wed Sep 01 19:19:48 CST 2021
User: usil
Spectrometer: V785-0024
Trigger mode: 0
Integration Time (sec): 4.000000E-1
Scans to average: 1
Nonlinearity correction enabled: false
Boxcar width: 0
Storing dark spectrum: false
XAxis mode: Wavelengths
Number of Pixels in Spectrum: 1024
>>>>>Begin Spectral Data<<<<<
801.071	3736
801.214	3816
801.356	3713
801.499	3823
801.641	3751
801.783	3804
801.926	3880
802.068	3880
802.211	3903
802.353	3918
802.496	3869
802.638	3876
802.78	3926
802.923	3972
803.065	3903
803.208	3888
803.35	3884
803.492	3896
803.635	3934
803.777	3869
803.919	3907
804.061	4135
804.204	3998
804.346	3975
804.488	3907
804.63	4021
804.773	3968
804.915	4055
805.057	4120
805.199	4055
805.341	4124
805.483	4200
805.626	4150
805.768	4181
805.91	4227
806.052	4238
806.194	4169
806.336	4356
806.478	4253
806.62	4204
806.762	4185
806.904	4310
807.046	4344
807.188	4268
807.33	4181
807.472	4211
807.614	4211
807.756	4257
807.898	4223
808.04	4246
808.182	4284
808.324	4367
808.465	4348
808.607	4451
808.749	4512
808.891	4516
809.033	4497
809.174	4383
809.316	4276
809.458	4272
809.6	4173
809.741	4139
809.883	4150
810.025	4200
810.166	4230
810.308	4223
810.45	4227
810.591	4200
810.733	4261
810.875	4535
811.016	4866
811.158	5113
811.299	5292
811.441	5265
811.582	5075
811.724	4714
811.865	4497
812.007	4481
812.148	4497
812.29	4424
812.431	4413
812.573	4405
812.714	4390
812.855	4417
812.997	4402
813.138	4512
813.279	4417
813.421	4424
813.562	4413
813.703	4386
813.845	4348
813.986	4242
814.127	4249
814.268	4215
814.41	4276
814.551	4284
814.692	4363
814.833	4291
814.974	4284
815.115	4314
815.256	4337
815.397	4287
815.539	4276
815.68	4238
815.821	4166
815.962	4329
816.103	4303
816.244	4249
816.385	4242
816.526	4276
816.666	4204
816.807	4097
816.948	4185
817.089	4169
817.23	4116
817.371	4055
817.512	4074
817.653	4051
817.793	4025
817.934	4063
818.075	4093
818.216	4093
818.356	4093
818.497	4010
818.638	3911
818.778	3918
818.919	3884
819.06	3816
819.2	3941
819.341	3899
819.481	3876
819.622	3922
819.762	4032
819.903	3930
820.043	3876
820.184	3808
820.324	3842
820.465	3926
820.605	3876
820.746	3911
820.886	3785
821.026	3960
821.167	3930
821.307	3956
821.447	4010
821.588	3953
821.728	3937
821.868	3911
822.008	3922
822.149	3911
822.289	3949
822.429	3800
822.569	3816
822.709	3808
822.849	3705
822.99	3747
823.13	3766
823.27	3823
823.41	3736
823.55	3713
823.69	3732
823.83	3755
823.97	3686
824.11	3641
824.25	3587
824.389	3667
824.529	3694
824.669	3618
824.809	3747
824.949	3793
825.089	3720
825.228	3751
825.368	3610
825.508	3572
825.648	3587
825.787	3644
825.927	3690
826.067	3652
826.206	3663
826.346	3816
826.485	3846
826.625	3876
826.765	3899
826.904	3793
827.044	3591
827.183	3507
827.323	3454
827.462	3492
827.601	3450
827.741	3435
827.88	3477
828.02	3389
828.159	3473
828.298	3488
828.437	3549
828.577	3466
828.716	3633
828.855	3534
828.994	3363
829.134	3412
829.273	3424
829.412	3325
829.551	3363
829.69	3382
829.829	3397
829.968	3507
830.107	3458
830.246	3431
830.385	3382
830.524	3386
830.663	3233
830.802	3268
830.941	3180
831.08	3180
831.219	3256
831.357	3279
831.496	3405
831.635	3249
831.774	3161
831.913	3188
832.051	3150
832.19	3157
832.329	3233
832.467	3146
832.606	3127
832.744	3150
832.883	3169
833.022	3218
833.16	3294
833.299	3298
833.437	3370
833.576	3378
833.714	3424
833.852	3386
833.991	3439
834.129	3454
834.267	3481
834.406	3435
834.544	3420
834.682	3435
834.821	3401
834.959	3564
835.097	3424
835.235	3545
835.373	3500
835.511	3507
835.65	3481
835.788	3496
835.926	3351
836.064	3409
836.202	3454
836.34	3568
836.478	3633
836.615	3545
836.753	3652
836.891	3679
837.029	3629
837.167	3572
837.305	3614
837.443	3530
837.58	3542
837.718	3625
837.856	3568
837.993	3538
838.131	3625
838.269	3610
838.406	3534
838.544	3526
838.681	3488
838.819	3443
838.956	3420
839.094	3409
839.231	3447
839.369	3549
839.506	3740
839.643	3618
839.781	3523
839.918	3492
840.055	3523
840.193	3534
840.33	3530
840.467	3595
840.604	3625
840.742	3831
840.879	3572
841.016	3557
841.153	3622
841.29	3789
841.427	3698
841.564	3694
841.701	3762
841.838	3705
841.975	3713
842.112	3709
842.249	3641
842.385	3648
842.522	3861
842.659	3717
842.796	3713
842.933	3740
843.069	3713
843.206	3720
843.343	3789
843.479	3797
843.616	3842
843.752	3728
843.889	3705
844.025	3854
844.162	3759
844.298	3850
844.435	3812
844.571	3812
844.708	3930
844.844	4013
844.98	4074
845.117	4048
845.253	3960
845.389	3911
845.525	4010
845.661	3991
845.798	3918
845.934	4036
846.07	3934
846.206	4055
846.342	4124
846.478	4074
846.614	4013
846.75	3934
846.886	3896
847.022	4017
847.158	3983
847.294	4029
847.429	4044
847.565	3968
847.701	4238
847.837	3915
847.972	3907
848.108	3972
848.244	4006
848.379	3876
848.515	3808
848.65	3850
848.786	3819
848.921	3880
849.057	3941
849.192	3953
849.328	3907
849.463	3956
849.598	3907
849.734	3842
849.869	3838
850.004	3831
850.14	3819
850.275	3793
850.41	3743
850.545	3774
850.68	3759
850.815	3819
850.95	3819
851.085	3911
851.22	3861
851.355	3823
851.49	3762
851.625	3797
851.76	3816
851.895	3793
852.03	3698
852.165	3846
852.299	3869
852.434	3918
852.569	3854
852.703	3926
852.838	3926
852.973	4002
853.107	4029
853.242	3918
853.376	3865
853.511	3781
853.645	3838
853.78	4002
853.914	3896
854.048	3915
854.183	3903
854.317	3983
854.451	4093
854.585	3953
854.72	3945
854.854	4071
854.988	3918
855.122	4017
855.256	3983
855.39	4021
855.524	4101
855.658	4101
855.792	4112
855.926	4188
856.06	4185
856.194	4207
856.327	4139
856.461	4082
856.595	4219
856.729	4188
856.862	4284
856.996	4242
857.13	4329
857.263	4341
857.397	4386
857.53	4333
857.664	4383
857.797	4405
857.931	4428
858.064	4451
858.197	4470
858.331	4421
858.464	4386
858.597	4341
858.731	4409
858.864	4432
858.997	4504
859.13	4546
859.263	4554
859.396	4611
859.529	4569
859.662	4489
859.795	4527
859.928	4634
860.061	4706
860.194	4706
860.327	4714
860.46	4672
860.592	4759
860.725	4782
860.858	4790
860.99	4752
861.123	4702
861.256	4736
861.388	4809
861.521	5395
861.653	4736
861.786	4672
861.918	4759
862.05	4835
862.183	4854
862.315	4885
862.447	4934
862.58	4908
862.712	4847
862.844	4755
862.976	4900
863.108	4904
863.24	5284
863.372	4881
863.504	4927
863.636	4923
863.768	5025
863.9	5006
864.032	4980
864.164	4972
864.296	5060
864.428	5094
864.559	5140
864.691	5143
864.823	5105
864.954	5124
865.086	5185
865.217	5136
865.349	5121
865.48	5216
865.612	5189
865.743	5303
865.875	5197
866.006	5208
866.137	5250
866.269	5307
866.4	5261
866.531	5280
866.662	5284
866.793	5265
866.924	5345
867.055	5364
867.186	5387
867.317	5353
867.448	5288
867.579	5376
867.71	5402
867.841	5395
867.972	5455
868.103	5486
868.233	5482
868.364	5512
868.495	5562
868.625	5691
868.756	5817
868.886	5695
869.017	5760
869.147	5836
869.278	5840
869.408	5805
869.539	5878
869.669	5882
869.799	5901
869.929	6019
870.06	6057
870.19	6228
870.32	6194
870.45	6304
870.58	6395
870.71	6498
870.84	6498
870.97	6441
871.1	6467
871.23	6601
871.36	6749
871.489	6662
871.619	6783
871.749	6776
871.879	6867
872.008	6977
872.138	7027
872.267	7061
872.397	7012
872.526	6989
872.656	7107
872.785	7266
872.915	7354
873.044	7510
873.173	7533
873.303	7662
873.432	7792
873.561	7894
873.69	7917
873.819	7982
873.948	8130
874.077	8248
874.206	8404
874.335	8514
874.464	8705
874.593	8849
874.722	8925
874.851	9093
874.979	9260
875.108	9363
875.237	9393
875.365	9504
875.494	9587
875.623	9873
875.751	9842
875.88	10021
876.008	10227
876.136	10303
876.265	10538
876.393	10740
876.521	10759
876.65	10866
876.778	10896
876.906	10930
877.034	10995
877.162	11117
877.29	11143
877.418	11330
877.546	11429
877.674	11493
877.802	11471
877.93	11528
878.058	11539
878.185	11512
878.313	11680
878.441	11779
878.568	11718
878.696	11851
878.824	11870
878.951	11904
879.079	12041
879.206	12114
879.333	12053
879.461	12060
879.588	12087
879.715	12098
879.842	12224
879.97	12110
880.097	11939
880.224	11889
880.351	11805
880.478	11904
880.605	11832
880.732	11733
880.859	12083
880.986	11767
881.112	11859
881.239	11684
881.366	11710
881.493	11585
881.619	11509
881.746	11528
881.872	11463
881.999	11497
882.125	11581
882.252	11570
882.378	11467
882.505	11532
882.631	11410
882.757	11299
882.883	11307
883.01	11235
883.136	11208
883.262	11174
883.388	11071
883.514	11189
883.64	11162
883.766	11193
883.892	10991
884.018	10949
884.143	11006
884.269	11079
884.395	10820
884.52	10790
884.646	10809
884.772	10736
884.897	10634
885.023	10744
885.148	10748
885.274	10824
885.399	10714
885.524	10603
885.65	10573
885.775	10573
885.9	10599
886.025	10588
886.15	10618
886.275	10443
886.4	10447
886.525	10348
886.65	10421
886.775	10352
886.9	10500
887.025	10470
887.149	10421
887.274	10265
887.399	10192
887.523	10154
887.648	10162
887.773	10055
887.897	10322
888.021	10238
888.146	10139
888.27	10261
888.395	10238
888.519	10234
888.643	10200
888.767	10219
888.891	10071
889.015	10067
889.139	10090
889.263	10067
889.387	10128
889.511	10055
889.635	10143
889.759	9956
889.883	9953
890.006	9968
890.13	10109
890.254	9964
890.377	9915
890.501	9827
890.624	9884
890.748	9876
890.871	9854
890.995	9793
891.118	9724
891.241	9759
891.364	9740
891.488	9922
891.611	9671
891.734	9793
891.857	9789
891.98	9736
892.103	9751
892.226	9747
892.349	9682
892.471	9549
892.594	9614
892.717	9614
892.839	9648
892.962	9667
893.085	9720
893.207	9538
893.33	9519
893.452	9553
893.575	9561
893.697	9534
893.819	9606
893.941	9660
894.064	9568
894.186	9382
894.308	9416
894.43	9603
894.552	9682
894.674	9542
894.796	9351
894.918	9466
895.04	9344
895.161	9367
895.283	9386
895.405	9237
895.526	9260
895.648	9264
895.769	9245
895.891	9294
896.012	9253
896.134	9226
896.255	9165
896.376	9150
896.498	9214
896.619	9142
896.74	9051
896.861	9100
896.982	9355
897.103	9207
897.224	9169
897.345	9112
897.466	9009
897.587	9013
897.708	9146
897.828	9097
897.949	8967
898.07	8880
898.19	8967
898.311	9077
898.431	8883
898.552	9009
898.672	8963
898.792	8986
898.913	8929
899.033	8857
899.153	8754
899.273	8648
899.393	8701
899.513	8792
899.633	8758
899.753	8785
899.873	8659
899.993	8834
900.113	8651
900.232	8727
900.352	8606
900.472	8648
900.591	8564
900.711	8564
900.83	8533
900.95	8716
901.069	8640
901.189	8579
901.308	8492
901.427	8415
901.546	8446
901.665	8476
901.784	8404
901.904	8427
902.023	8336
902.141	8259
902.26	8221
902.379	8244
902.498	8202
902.617	8225
902.735	8324
902.854	8336
902.973	8324
903.091	8191
903.21	8126
903.328	8138
903.446	8153
903.565	8081
903.683	8084
903.801	8107
903.919	8115
904.038	8134
904.156	8054
904.274	8107
904.392	7928
904.51	8065
904.627	8054
904.745	8096
904.863	8119
904.981	7879
905.098	7852
905.216	7788
905.334	7883
905.451	7898
905.569	7875
905.686	8008
905.803	7951
905.921	7833
906.038	7860
906.155	7757
906.272	7689
906.389	7742
906.506	7666
906.623	7605
906.74	7662
906.857	7582
906.974	7552
907.091	7609
907.208	7792
907.324	7651
907.441	7567
907.557	7449
907.674	7514
907.79	7415
907.907	7384
908.023	7449
908.139	7411
908.256	7377
908.372	7312
908.488	7308
908.604	7259
908.72	7236
908.836	7217
908.952	7190
909.068	7289
909.184	7324
909.3	7206
909.415	7324
909.531	7274
909.647	7129
909.762	7137
909.878	7080
909.993	7118
910.108	7118
910.224	7099
910.339	7091
910.454	7072
910.57	7008
910.685	6947
910.8	7171
910.915	7107
911.03	7023
911.145	6970
911.259	6837
911.374	6894
911.489	6840
911.604	6818
911.718	6719
911.833	6753
911.947	6658
912.062	6646
912.176	6658
912.291	6722
912.405	6700
912.519	6856
912.633	6924
912.748	6787
912.862	6745
912.976	6635
913.09	6544
913.204	6578
913.318	6650
913.431	6703
913.545	6662
913.659	6700
913.772	6688
913.886	6563
914	6612
914.113	6608
914.226	6593
914.34	6631
914.453	6528
914.566	6585
914.68	6525
914.793	6521
914.906	6452
915.019	6441
915.132	6319
915.245	6426
915.358	6479
915.47	6391
915.583	6464
915.696	6471
915.809	6563
915.921	6563
916.034	6445
916.146	6486
916.259	6334
916.371	6452
916.483	6437
916.595	6429
916.708	6418
916.82	6456
916.932	6418
917.044	6361
917.156	6388
917.268	6319
917.38	6319
917.491	6281
917.603	6342
917.715	6426
917.826	6361
917.938	6315
918.049	6270
918.161	6357
918.272	6471
918.384	6456
918.495	6353
918.606	6247
918.717	6239
918.828	6346
918.939	6342
919.05	6251
919.161	6228
919.272	6110
919.383	6155
919.494	6235
919.604	6429
919.715	6281
919.826	6300
919.936	6270
920.047	6285
920.157	6300
920.267	6483
920.378	6365
920.488	6281
920.598	6494
920.708	6547
920.818	6494
920.928	6448
921.038	6593
921.148	6559
921.258	6346
921.368	6338
921.477	6247
921.587	6213
921.697	6140
921.806	6243
921.916	6095
922.025	5946
922.134	5973
922.244	5912
922.353	5977
922.462	5859
922.571	5771
922.68	5714
922.789	5680
922.898	5722
923.007	5608
923.116	5676
923.224	5688
923.333	5695
923.442	5585
923.55	5585
923.659	5634
923.767	5596
923.876	5604
923.984	5623
924.092	5501
924.201	5551
924.309	5562
924.417	5554
924.525	5482
924.633	5535
924.741	6117
924.849	5410
924.956	5493
925.064	5398
925.172	5349
925.279	5357
925.387	5345
925.494	5357
925.602	5452
925.709	5429
925.816	5258
925.924	5273
926.031	5398
926.138	5273
926.245	5376
926.352	5280
926.459	5315
926.566	5330
926.673	5227
926.779	5124
926.886	5124
926.993	5029
927.099	5048
927.206	4934
927.312	4938
927.419	4995
927.525	4984
927.631	4991
927.737	4873
927.843	4828
927.95	4790
928.056	4812
928.162	4835
928.267	4850
928.373	5414
928.479	4812
928.585	4691
928.69	4786
928.796	4736
928.901	4740
929.007	4626
929.112	4691
929.218	4702
929.323	4649
929.428	4573
929.533	4668
929.638	4550
929.743	4573
929.848	4565
929.953	4523
930.058	4428
930.163	4318
930.267	4413
930.372	4466
930.477	4318
930.581	4512
930.685	4348
930.79	4272
930.894	4272
930.998	4257
931.103	4417
931.207	4177
931.311	4074
931.415	4017
931.519	3953
931.623	3987
