Data from glass_V78500241_63.txt Node
Date: Wed Sep 01 19:14:56 CST 2021
User: usil
Spectrometer: V785-0024
Trigger mode: 0
Integration Time (sec): 4.000000E-1
Scans to average: 1
Nonlinearity correction enabled: false
Boxcar width: 0
Storing dark spectrum: false
XAxis mode: Wavelengths
Number of Pixels in Spectrum: 1024
>>>>>Begin Spectral Data<<<<<
801.071	3728
801.214	3766
801.356	3720
801.499	3793
801.641	3785
801.783	3793
801.926	3880
802.068	3800
802.211	3884
802.353	3911
802.496	3861
802.638	3907
802.78	3918
802.923	3941
803.065	3869
803.208	3880
803.35	3884
803.492	3937
803.635	3934
803.777	3850
803.919	3926
804.061	4128
804.204	4013
804.346	3930
804.488	3892
804.63	4101
804.773	3994
804.915	4010
805.057	4169
805.199	4078
805.341	4097
805.483	4135
805.626	4128
805.768	4116
805.91	4219
806.052	4246
806.194	4230
806.336	4383
806.478	4242
806.62	4143
806.762	4147
806.904	4329
807.046	4360
807.188	4246
807.33	4173
807.472	4261
807.614	4230
807.756	4265
807.898	4211
808.04	4200
808.182	4284
808.324	4333
808.465	4428
808.607	4531
808.749	4462
808.891	4485
809.033	4523
809.174	4413
809.316	4291
809.458	4230
809.6	4200
809.741	4105
809.883	4169
810.025	4238
810.166	4230
810.308	4265
810.45	4242
810.591	4223
810.733	4284
810.875	4569
811.016	4828
811.158	5098
811.299	5280
811.441	5277
811.582	5086
811.724	4702
811.865	4538
812.007	4462
812.148	4485
812.29	4451
812.431	4367
812.573	4405
812.714	4398
812.855	4466
812.997	4443
813.138	4516
813.279	4462
813.421	4405
813.562	4379
813.703	4314
813.845	4344
813.986	4303
814.127	4234
814.268	4329
814.41	4329
814.551	4265
814.692	4325
814.833	4287
814.974	4394
815.115	4325
815.256	4249
815.397	4230
815.539	4265
815.68	4242
815.821	4181
815.962	4314
816.103	4303
816.244	4268
816.385	4230
816.526	4318
816.666	4238
816.807	4082
816.948	4143
817.089	4181
817.23	4143
817.371	4078
817.512	4051
817.653	4074
817.793	4017
817.934	4063
818.075	4101
818.216	4082
818.356	4116
818.497	4013
818.638	3907
818.778	3922
818.919	3896
819.06	3918
819.2	3915
819.341	3854
819.481	3835
819.622	3888
819.762	4051
819.903	3979
820.043	3823
820.184	3850
820.324	3835
820.465	3880
820.605	3884
820.746	3903
820.886	3838
821.026	3945
821.167	3918
821.307	4048
821.447	3975
821.588	3953
821.728	3960
821.868	3930
822.008	3911
822.149	3911
822.289	3934
822.429	3797
822.569	3770
822.709	3812
822.849	3694
822.99	3766
823.13	3808
823.27	3816
823.41	3732
823.55	3785
823.69	3720
823.83	3789
823.97	3679
824.11	3629
824.25	3580
824.389	3637
824.529	3705
824.669	3656
824.809	3732
824.949	3740
825.089	3774
825.228	3698
825.368	3599
825.508	3572
825.648	3584
825.787	3599
825.927	3648
826.067	3629
826.206	3709
826.346	3762
826.485	3831
826.625	3956
826.765	3941
826.904	3857
827.044	3667
827.183	3538
827.323	3412
827.462	3477
827.601	3469
827.741	3473
827.88	3477
828.02	3386
828.159	3523
828.298	3477
828.437	3618
828.577	3504
828.716	3595
828.855	3500
828.994	3367
829.134	3370
829.273	3401
829.412	3332
829.551	3336
829.69	3401
829.829	3469
829.968	3504
830.107	3458
830.246	3435
830.385	3420
830.524	3325
830.663	3336
830.802	3283
830.941	3180
831.08	3203
831.219	3291
831.357	3272
831.496	3401
831.635	3249
831.774	3253
831.913	3195
832.051	3108
832.19	3173
832.329	3218
832.467	3123
832.606	3093
832.744	3176
832.883	3176
833.022	3222
833.16	3264
833.299	3321
833.437	3332
833.576	3405
833.714	3439
833.852	3454
833.991	3466
834.129	3515
834.267	3496
834.406	3409
834.544	3428
834.682	3409
834.821	3428
834.959	3599
835.097	3401
835.235	3500
835.373	3500
835.511	3511
835.65	3466
835.788	3496
835.926	3420
836.064	3431
836.202	3447
836.34	3610
836.478	3610
836.615	3572
836.753	3580
836.891	3698
837.029	3595
837.167	3614
837.305	3591
837.443	3557
837.58	3519
837.718	3637
837.856	3587
837.993	3568
838.131	3618
838.269	3622
838.406	3584
838.544	3568
838.681	3481
838.819	3485
838.956	3416
839.094	3382
839.231	3492
839.369	3538
839.506	3747
839.643	3637
839.781	3545
839.918	3523
840.055	3542
840.193	3557
840.33	3561
840.467	3568
840.604	3595
840.742	3842
840.879	3549
841.016	3587
841.153	3622
841.29	3747
841.427	3778
841.564	3740
841.701	3717
841.838	3694
841.975	3728
842.112	3743
842.249	3648
842.385	3644
842.522	3823
842.659	3747
842.796	3679
842.933	3724
843.069	3705
843.206	3717
843.343	3835
843.479	3835
843.616	3831
843.752	3694
843.889	3736
844.025	3842
844.162	3743
844.298	3819
844.435	3819
844.571	3823
844.708	3934
844.844	4044
844.98	3994
845.117	4013
845.253	3922
845.389	3945
845.525	3956
845.661	3953
845.798	3972
845.934	4025
846.07	3991
846.206	4059
846.342	4139
846.478	4044
846.614	4002
846.75	3953
846.886	3907
847.022	4013
847.158	3949
847.294	4021
847.429	4032
847.565	3998
847.701	4268
847.837	3922
847.972	3873
848.108	4006
848.244	3987
848.379	3842
848.515	3804
848.65	3846
848.786	3888
848.921	3861
849.057	3979
849.192	3968
849.328	3899
849.463	3941
849.598	3922
849.734	3869
849.869	3888
850.004	3827
850.14	3835
850.275	3785
850.41	3774
850.545	3816
850.68	3789
850.815	3823
850.95	3800
851.085	3896
851.22	3930
851.355	3873
851.49	3800
851.625	3827
851.76	3838
851.895	3736
852.03	3709
852.165	3827
852.299	3892
852.434	3964
852.569	3857
852.703	3880
852.838	3937
852.973	4021
853.107	3972
853.242	3922
853.376	3854
853.511	3762
853.645	3850
853.78	4013
853.914	3934
854.048	3949
854.183	3911
854.317	3956
854.451	4074
854.585	3964
854.72	3956
854.854	4090
854.988	3953
855.122	3994
855.256	3960
855.39	4101
855.524	4150
855.658	4116
855.792	4139
855.926	4162
856.06	4173
856.194	4227
856.327	4162
856.461	4105
856.595	4162
856.729	4192
856.862	4337
856.996	4249
857.13	4329
857.263	4341
857.397	4344
857.53	4322
857.664	4405
857.797	4390
857.931	4421
858.064	4402
858.197	4481
858.331	4398
858.464	4375
858.597	4386
858.731	4481
858.864	4447
858.997	4455
859.13	4519
859.263	4558
859.396	4622
859.529	4523
859.662	4546
859.795	4478
859.928	4691
860.061	4710
860.194	4755
860.327	4683
860.46	4683
860.592	4748
860.725	4824
860.858	4790
860.99	4683
861.123	4710
861.256	4691
861.388	4786
861.521	5357
861.653	4725
861.786	4702
861.918	4793
862.05	4866
862.183	4877
862.315	4889
862.447	4927
862.58	4919
862.712	4820
862.844	4801
862.976	4862
863.108	4896
863.24	5277
863.372	4896
863.504	4908
863.636	4892
863.768	5033
863.9	4927
864.032	4881
864.164	5048
864.296	5006
864.428	5098
864.559	5090
864.691	5136
864.823	5090
864.954	5151
865.086	5151
865.217	5140
865.349	5117
865.48	5166
865.612	5208
865.743	5288
865.875	5155
866.006	5178
866.137	5265
866.269	5258
866.4	5303
866.531	5223
866.662	5231
866.793	5261
866.924	5292
867.055	5353
867.186	5311
867.317	5368
867.448	5341
867.579	5383
867.71	5395
867.841	5379
867.972	5467
868.103	5482
868.233	5459
868.364	5505
868.495	5577
868.625	5710
868.756	5737
868.886	5661
869.017	5733
869.147	5840
869.278	5828
869.408	5790
869.539	5844
869.669	5920
869.799	5878
869.929	5965
870.06	6003
870.19	6216
870.32	6205
870.45	6262
870.58	6342
870.71	6448
870.84	6456
870.97	6407
871.1	6506
871.23	6658
871.36	6745
871.489	6684
871.619	6745
871.749	6798
871.879	6890
872.008	6989
872.138	7004
872.267	7008
872.397	7004
872.526	7076
872.656	7038
872.785	7236
872.915	7369
873.044	7571
873.173	7552
873.303	7651
873.432	7715
873.561	7913
873.69	7959
873.819	8046
873.948	8237
874.077	8279
874.206	8385
874.335	8473
874.464	8678
874.593	8933
874.722	8933
874.851	9142
874.979	9214
875.108	9439
875.237	9454
875.365	9576
875.494	9644
875.623	9880
875.751	9736
875.88	9975
876.008	10135
876.136	10310
876.265	10451
876.393	10687
876.521	10714
876.65	10847
876.778	10889
876.906	10908
877.034	10930
877.162	11166
877.29	11181
877.418	11356
877.546	11311
877.674	11493
877.802	11474
877.93	11657
878.058	11501
878.185	11600
878.313	11649
878.441	11870
878.568	11646
878.696	11840
878.824	11821
878.951	11916
879.079	12019
879.206	12209
879.333	12022
879.461	11999
879.588	12155
879.715	12121
879.842	12262
879.97	12117
880.097	11863
880.224	11965
880.351	11996
880.478	11885
880.605	11798
880.732	11824
880.859	12064
880.986	11832
881.112	11946
881.239	11802
881.366	11714
881.493	11649
881.619	11528
881.746	11585
881.872	11505
881.999	11551
882.125	11509
882.252	11592
882.378	11505
882.505	11630
882.631	11368
882.757	11280
882.883	11353
883.01	11292
883.136	11193
883.262	11067
883.388	11090
883.514	11254
883.64	11128
883.766	11136
883.892	10995
884.018	10987
884.143	11045
884.269	11128
884.395	10866
884.52	10790
884.646	10774
884.772	10653
884.897	10691
885.023	10672
885.148	10714
885.274	10763
885.399	10763
885.524	10588
885.65	10588
885.775	10637
885.9	10592
886.025	10683
886.15	10497
886.275	10470
886.4	10413
886.525	10436
886.65	10436
886.775	10325
886.9	10516
887.025	10538
887.149	10413
887.274	10230
887.399	10242
887.523	10223
887.648	10177
887.773	10078
887.897	10192
888.021	10299
888.146	10188
888.27	10181
888.395	10234
888.519	10227
888.643	10181
888.767	10219
888.891	10036
889.015	9983
889.139	10128
889.263	9975
889.387	10116
889.511	10090
889.635	10074
889.759	9991
889.883	9983
890.006	10036
890.13	10139
890.254	9953
890.377	9983
890.501	9949
890.624	9861
890.748	9907
890.871	9766
890.995	9770
891.118	9740
891.241	9717
891.364	9800
891.488	9892
891.611	9785
891.734	9709
891.857	9736
891.98	9682
892.103	9781
892.226	9675
892.349	9675
892.471	9526
892.594	9618
892.717	9534
892.839	9637
892.962	9660
893.085	9599
893.207	9584
893.33	9511
893.452	9572
893.575	9530
893.697	9462
893.819	9656
893.941	9675
894.064	9614
894.186	9450
894.308	9496
894.43	9534
894.552	9534
894.674	9511
894.796	9443
894.918	9473
895.04	9336
895.161	9382
895.283	9367
895.405	9199
895.526	9272
895.648	9329
895.769	9351
895.891	9294
896.012	9302
896.134	9230
896.255	9218
896.376	9173
896.498	9150
896.619	9165
896.74	9055
896.861	9154
896.982	9272
897.103	9336
897.224	9150
897.345	9047
897.466	9028
897.587	9058
897.708	9062
897.828	9028
897.949	8921
898.07	8921
898.19	8944
898.311	9028
898.431	8811
898.552	8910
898.672	9032
898.792	8967
898.913	8937
899.033	8762
899.153	8754
899.273	8686
899.393	8701
899.513	8773
899.633	8708
899.753	8750
899.873	8731
899.993	8754
900.113	8670
900.232	8766
900.352	8682
900.472	8602
900.591	8575
900.711	8678
900.83	8533
900.95	8735
901.069	8610
901.189	8594
901.308	8484
901.427	8434
901.546	8454
901.665	8492
901.784	8457
901.904	8412
902.023	8328
902.141	8180
902.26	8187
902.379	8320
902.498	8214
902.617	8244
902.735	8336
902.854	8298
902.973	8229
903.091	8161
903.21	8088
903.328	8145
903.446	8081
903.565	8088
903.683	8142
903.801	8058
903.919	8229
904.038	8138
904.156	8092
904.274	8115
904.392	8043
904.51	8050
904.627	8062
904.745	8157
904.863	8077
904.981	7951
905.098	7868
905.216	7837
905.334	7883
905.451	7917
905.569	7871
905.686	7932
905.803	7947
905.921	7822
906.038	7909
906.155	7826
906.272	7788
906.389	7731
906.506	7636
906.623	7670
906.74	7575
906.857	7480
906.974	7613
907.091	7655
907.208	7693
907.324	7662
907.441	7636
907.557	7510
907.674	7495
907.79	7430
907.907	7438
908.023	7422
908.139	7460
908.256	7365
908.372	7434
908.488	7354
908.604	7278
908.72	7236
908.836	7251
908.952	7266
909.068	7278
909.184	7316
909.3	7308
909.415	7247
909.531	7308
909.647	7080
909.762	7122
909.878	7110
909.993	7141
910.108	7129
910.224	7057
910.339	7137
910.454	7065
910.57	7019
910.685	6962
910.8	7179
910.915	7149
911.03	7084
911.145	6913
911.259	6935
911.374	6928
911.489	6810
911.604	6802
911.718	6707
911.833	6787
911.947	6639
912.062	6703
912.176	6688
912.291	6726
912.405	6749
912.519	6901
912.633	6829
912.748	6806
912.862	6692
912.976	6650
913.09	6578
913.204	6601
913.318	6677
913.431	6639
913.545	6635
913.659	6757
913.772	6650
913.886	6585
914	6563
914.113	6631
914.226	6665
914.34	6627
914.453	6566
914.566	6662
914.68	6475
914.793	6437
914.906	6441
915.019	6410
915.132	6445
915.245	6448
915.358	6433
915.47	6490
915.583	6410
915.696	6464
915.809	6574
915.921	6521
916.034	6410
916.146	6448
916.259	6369
916.371	6509
916.483	6422
916.595	6418
916.708	6441
916.82	6471
916.932	6422
917.044	6429
917.156	6388
917.268	6315
917.38	6426
917.491	6365
917.603	6342
917.715	6380
917.826	6433
917.938	6308
918.049	6281
918.161	6311
918.272	6407
918.384	6502
918.495	6391
918.606	6289
918.717	6220
918.828	6289
918.939	6365
919.05	6232
919.161	6228
919.272	6213
919.383	6129
919.494	6289
919.604	6391
919.715	6292
919.826	6182
919.936	6266
920.047	6357
920.157	6270
920.267	6479
920.378	6334
920.488	6273
920.598	6471
920.708	6570
920.818	6502
920.928	6426
921.038	6623
921.148	6547
921.258	6407
921.368	6327
921.477	6289
921.587	6133
921.697	6140
921.806	6091
921.916	6083
922.025	5999
922.134	5908
922.244	5935
922.353	5973
922.462	5863
922.571	5836
922.68	5775
922.789	5646
922.898	5809
923.007	5649
923.116	5745
923.224	5741
923.333	5649
923.442	5634
923.55	5570
923.659	5653
923.767	5714
923.876	5577
923.984	5615
924.092	5474
924.201	5570
924.309	5608
924.417	5585
924.525	5505
924.633	5547
924.741	6319
924.849	5391
924.956	5497
925.064	5360
925.172	5368
925.279	5353
925.387	5429
925.494	5326
925.602	5455
925.709	5376
925.816	5204
925.924	5357
926.031	5330
926.138	5284
926.245	5364
926.352	5277
926.459	5353
926.566	5376
926.673	5235
926.779	5159
926.886	5151
926.993	5090
927.099	5045
927.206	5010
927.312	4987
927.419	5083
927.525	4976
927.631	5010
927.737	4911
927.843	4877
927.95	4793
928.056	4835
928.162	4831
928.267	4877
928.373	5364
928.479	4847
928.585	4683
928.69	4805
928.796	4790
928.901	4679
929.007	4622
929.112	4733
929.218	4687
929.323	4607
929.428	4641
929.533	4660
929.638	4512
929.743	4607
929.848	4569
929.953	4542
930.058	4500
930.163	4337
930.267	4379
930.372	4432
930.477	4303
930.581	4417
930.685	4379
930.79	4257
930.894	4253
930.998	4272
931.103	4402
931.207	4090
931.311	4074
931.415	4067
931.519	3968
931.623	3949
