Data from glass_V78500241_16.txt Node
Date: Wed Sep 01 19:14:36 CST 2021
User: usil
Spectrometer: V785-0024
Trigger mode: 0
Integration Time (sec): 4.000000E-1
Scans to average: 1
Nonlinearity correction enabled: false
Boxcar width: 0
Storing dark spectrum: false
XAxis mode: Wavelengths
Number of Pixels in Spectrum: 1024
>>>>>Begin Spectral Data<<<<<
801.071	3736
801.214	3747
801.356	3713
801.499	3781
801.641	3781
801.783	3804
801.926	3880
802.068	3835
802.211	3850
802.353	3918
802.496	3873
802.638	3873
802.78	3945
802.923	3937
803.065	3941
803.208	3865
803.35	3861
803.492	3884
803.635	3945
803.777	3797
803.919	3903
804.061	4135
804.204	3972
804.346	3941
804.488	3941
804.63	4051
804.773	4025
804.915	4017
805.057	4139
805.199	4086
805.341	4109
805.483	4192
805.626	4131
805.768	4131
805.91	4265
806.052	4246
806.194	4207
806.336	4398
806.478	4227
806.62	4200
806.762	4173
806.904	4299
807.046	4383
807.188	4230
807.33	4181
807.472	4246
807.614	4234
807.756	4295
807.898	4215
808.04	4249
808.182	4325
808.324	4291
808.465	4325
808.607	4451
808.749	4497
808.891	4478
809.033	4580
809.174	4394
809.316	4276
809.458	4284
809.6	4128
809.741	4230
809.883	4200
810.025	4227
810.166	4242
810.308	4219
810.45	4246
810.591	4238
810.733	4310
810.875	4504
811.016	4854
811.158	5159
811.299	5334
811.441	5269
811.582	5071
811.724	4706
811.865	4428
812.007	4466
812.148	4500
812.29	4436
812.431	4443
812.573	4386
812.714	4424
812.855	4421
812.997	4417
813.138	4523
813.279	4436
813.421	4383
813.562	4386
813.703	4409
813.845	4337
813.986	4272
814.127	4196
814.268	4284
814.41	4265
814.551	4276
814.692	4344
814.833	4314
814.974	4249
815.115	4356
815.256	4268
815.397	4249
815.539	4242
815.68	4207
815.821	4219
815.962	4337
816.103	4291
816.244	4299
816.385	4204
816.526	4287
816.666	4188
816.807	4131
816.948	4162
817.089	4211
817.23	4112
817.371	4051
817.512	4090
817.653	4116
817.793	4063
817.934	4078
818.075	4109
818.216	4090
818.356	4135
818.497	4025
818.638	3922
818.778	3915
818.919	3911
819.06	3865
819.2	3949
819.341	3911
819.481	3854
819.622	3911
819.762	4021
819.903	3979
820.043	3857
820.184	3831
820.324	3857
820.465	3903
820.605	3915
820.746	3953
820.886	3819
821.026	3956
821.167	3918
821.307	4010
821.447	3987
821.588	3968
821.728	4021
821.868	3983
822.008	3922
822.149	3896
822.289	3907
822.429	3793
822.569	3812
822.709	3846
822.849	3755
822.99	3743
823.13	3770
823.27	3835
823.41	3774
823.55	3743
823.69	3736
823.83	3781
823.97	3671
824.11	3614
824.25	3606
824.389	3648
824.529	3675
824.669	3637
824.809	3755
824.949	3774
825.089	3778
825.228	3682
825.368	3568
825.508	3584
825.648	3572
825.787	3644
825.927	3641
826.067	3633
826.206	3663
826.346	3762
826.485	3884
826.625	3922
826.765	4013
826.904	3861
827.044	3641
827.183	3557
827.323	3458
827.462	3473
827.601	3469
827.741	3450
827.88	3485
828.02	3389
828.159	3431
828.298	3496
828.437	3553
828.577	3492
828.716	3610
828.855	3534
828.994	3393
829.134	3443
829.273	3401
829.412	3363
829.551	3393
829.69	3363
829.829	3424
829.968	3542
830.107	3462
830.246	3447
830.385	3389
830.524	3344
830.663	3264
830.802	3230
830.941	3256
831.08	3233
831.219	3302
831.357	3268
831.496	3397
831.635	3249
831.774	3211
831.913	3264
832.051	3161
832.19	3154
832.329	3195
832.467	3161
832.606	3135
832.744	3199
832.883	3195
833.022	3211
833.16	3256
833.299	3298
833.437	3332
833.576	3405
833.714	3428
833.852	3454
833.991	3462
834.129	3466
834.267	3488
834.406	3412
834.544	3466
834.682	3447
834.821	3458
834.959	3584
835.097	3447
835.235	3584
835.373	3481
835.511	3511
835.65	3469
835.788	3481
835.926	3420
836.064	3428
836.202	3401
836.34	3614
836.478	3625
836.615	3542
836.753	3603
836.891	3660
837.029	3622
837.167	3671
837.305	3553
837.443	3610
837.58	3542
837.718	3610
837.856	3587
837.993	3580
838.131	3614
838.269	3603
838.406	3584
838.544	3641
838.681	3500
838.819	3462
838.956	3412
839.094	3401
839.231	3439
839.369	3549
839.506	3740
839.643	3648
839.781	3504
839.918	3500
840.055	3553
840.193	3545
840.33	3561
840.467	3603
840.604	3622
840.742	3823
840.879	3561
841.016	3595
841.153	3576
841.29	3755
841.427	3728
841.564	3774
841.701	3747
841.838	3728
841.975	3698
842.112	3759
842.249	3660
842.385	3633
842.522	3850
842.659	3751
842.796	3705
842.933	3762
843.069	3694
843.206	3720
843.343	3755
843.479	3838
843.616	3835
843.752	3671
843.889	3698
844.025	3861
844.162	3732
844.298	3892
844.435	3816
844.571	3804
844.708	3911
844.844	3994
844.98	4010
845.117	4059
845.253	3937
845.389	3903
845.525	3994
845.661	3960
845.798	3953
845.934	4021
846.07	3987
846.206	4086
846.342	4131
846.478	4048
846.614	3945
846.75	3975
846.886	3903
847.022	4067
847.158	3964
847.294	4017
847.429	4036
847.565	3964
847.701	4272
847.837	3918
847.972	3884
848.108	4036
848.244	4002
848.379	3857
848.515	3842
848.65	3850
848.786	3854
848.921	3835
849.057	3949
849.192	3975
849.328	3934
849.463	3937
849.598	3949
849.734	3888
849.869	3823
850.004	3831
850.14	3842
850.275	3831
850.41	3724
850.545	3819
850.68	3819
850.815	3816
850.95	3838
851.085	3964
851.22	3899
851.355	3823
851.49	3850
851.625	3827
851.76	3831
851.895	3705
852.03	3762
852.165	3850
852.299	3857
852.434	3915
852.569	3854
852.703	3846
852.838	3975
852.973	3979
853.107	4013
853.242	3869
853.376	3854
853.511	3766
853.645	3835
853.78	4032
853.914	3907
854.048	3857
854.183	3903
854.317	3975
854.451	4071
854.585	3994
854.72	3979
854.854	4040
854.988	3949
855.122	4017
855.256	3907
855.39	3953
855.524	4128
855.658	4048
855.792	4147
855.926	4120
856.06	4188
856.194	4257
856.327	4128
856.461	4192
856.595	4181
856.729	4185
856.862	4284
856.996	4227
857.13	4306
857.263	4371
857.397	4371
857.53	4291
857.664	4379
857.797	4409
857.931	4421
858.064	4421
858.197	4462
858.331	4405
858.464	4443
858.597	4363
858.731	4462
858.864	4531
858.997	4523
859.13	4512
859.263	4538
859.396	4618
859.529	4512
859.662	4599
859.795	4493
859.928	4607
860.061	4752
860.194	4767
860.327	4736
860.46	4698
860.592	4786
860.725	4782
860.858	4782
860.99	4656
861.123	4710
861.256	4683
861.388	4835
861.521	5425
861.653	4748
861.786	4679
861.918	4786
862.05	4793
862.183	4862
862.315	4870
862.447	4915
862.58	4904
862.712	4797
862.844	4744
862.976	4915
863.108	4877
863.24	5212
863.372	4847
863.504	4900
863.636	4930
863.768	4972
863.9	4968
864.032	4885
864.164	4942
864.296	5029
864.428	5140
864.559	5162
864.691	5132
864.823	5181
864.954	5067
865.086	5174
865.217	5151
865.349	5166
865.48	5204
865.612	5197
865.743	5288
865.875	5220
866.006	5197
866.137	5235
866.269	5261
866.4	5280
866.531	5223
866.662	5235
866.793	5280
866.924	5303
867.055	5364
867.186	5376
867.317	5341
867.448	5341
867.579	5398
867.71	5379
867.841	5414
867.972	5455
868.103	5452
868.233	5452
868.364	5516
868.495	5577
868.625	5668
868.756	5813
868.886	5680
869.017	5798
869.147	5889
869.278	5901
869.408	5809
869.539	5866
869.669	5927
869.799	5908
869.929	6019
870.06	5999
870.19	6266
870.32	6129
870.45	6357
870.58	6319
870.71	6452
870.84	6456
870.97	6395
871.1	6506
871.23	6570
871.36	6673
871.489	6688
871.619	6776
871.749	6787
871.879	6894
872.008	7034
872.138	7004
872.267	7046
872.397	7015
872.526	7088
872.656	7076
872.785	7251
872.915	7396
873.044	7525
873.173	7575
873.303	7647
873.432	7776
873.561	7928
873.69	7890
873.819	8039
873.948	8138
874.077	8225
874.206	8275
874.335	8457
874.464	8697
874.593	8838
874.722	8994
874.851	9169
874.979	9169
875.108	9313
875.237	9481
875.365	9488
875.494	9637
875.623	9926
875.751	9918
875.88	9975
876.008	10166
876.136	10291
876.265	10519
876.393	10698
876.521	10786
876.65	10831
876.778	10930
876.906	10881
877.034	10972
877.162	11048
877.29	11113
877.418	11459
877.546	11387
877.674	11429
877.802	11421
877.93	11589
878.058	11581
878.185	11577
878.313	11688
878.441	11710
878.568	11661
878.696	11771
878.824	11859
878.951	11954
879.079	11996
879.206	12171
879.333	12114
879.461	11999
879.588	12110
879.715	12163
879.842	12270
879.97	12117
880.097	11893
880.224	11916
880.351	11893
880.478	11893
880.605	11756
880.732	11786
880.859	11980
880.986	11794
881.112	11798
881.239	11718
881.366	11608
881.493	11665
881.619	11539
881.746	11630
881.872	11516
881.999	11562
882.125	11478
882.252	11554
882.378	11474
882.505	11619
882.631	11349
882.757	11299
882.883	11204
883.01	11288
883.136	11220
883.262	11067
883.388	11056
883.514	11159
883.64	11288
883.766	11189
883.892	11029
884.018	11006
884.143	11033
884.269	11075
884.395	10771
884.52	10820
884.646	10778
884.772	10786
884.897	10596
885.023	10630
885.148	10740
885.274	10683
885.399	10675
885.524	10664
885.65	10558
885.775	10603
885.9	10531
886.025	10630
886.15	10538
886.275	10462
886.4	10447
886.525	10443
886.65	10371
886.775	10363
886.9	10535
887.025	10584
887.149	10314
887.274	10249
887.399	10234
887.523	10173
887.648	10192
887.773	10143
887.897	10257
888.021	10177
888.146	10143
888.27	10242
888.395	10246
888.519	10211
888.643	10181
888.767	10124
888.891	10124
889.015	10135
889.139	10082
889.263	9987
889.387	10097
889.511	10124
889.635	10112
889.759	9983
889.883	10029
890.006	10051
890.13	10063
890.254	10010
890.377	9964
890.501	9842
890.624	9953
890.748	9895
890.871	9770
890.995	9686
891.118	9709
891.241	9804
891.364	9759
891.488	9835
891.611	9819
891.734	9720
891.857	9774
891.98	9660
892.103	9774
892.226	9705
892.349	9675
892.471	9561
892.594	9641
892.717	9637
892.839	9580
892.962	9633
893.085	9686
893.207	9614
893.33	9610
893.452	9545
893.575	9675
893.697	9549
893.819	9709
893.941	9606
894.064	9633
894.186	9435
894.308	9416
894.43	9519
894.552	9591
894.674	9507
894.796	9382
894.918	9485
895.04	9268
895.161	9393
895.283	9370
895.405	9195
895.526	9351
895.648	9249
895.769	9264
895.891	9294
896.012	9268
896.134	9264
896.255	9165
896.376	9142
896.498	9127
896.619	9192
896.74	9074
896.861	9093
896.982	9245
897.103	9294
897.224	9211
897.345	9108
897.466	9066
897.587	9047
897.708	9097
897.828	9051
897.949	9017
898.07	8834
898.19	9009
898.311	9055
898.431	8944
898.552	8956
898.672	8979
898.792	8883
898.913	8990
899.033	8807
899.153	8739
899.273	8708
899.393	8716
899.513	8788
899.633	8659
899.753	8754
899.873	8754
899.993	8720
900.113	8762
900.232	8743
900.352	8682
900.472	8640
900.591	8552
900.711	8625
900.83	8556
900.95	8720
901.069	8708
901.189	8568
901.308	8434
901.427	8438
901.546	8454
901.665	8461
901.784	8541
901.904	8404
902.023	8309
902.141	8183
902.26	8244
902.379	8286
902.498	8233
902.617	8294
902.735	8301
902.854	8324
902.973	8248
903.091	8107
903.21	8149
903.328	8183
903.446	8134
903.565	8073
903.683	8233
903.801	8077
903.919	8088
904.038	8096
904.156	8100
904.274	8107
904.392	8069
904.51	8103
904.627	8073
904.745	8126
904.863	8134
904.981	7925
905.098	7883
905.216	7883
905.334	7906
905.451	7921
905.569	7925
905.686	7947
905.803	7902
905.921	7833
906.038	7868
906.155	7860
906.272	7841
906.389	7700
906.506	7689
906.623	7643
906.74	7647
906.857	7521
906.974	7620
907.091	7674
907.208	7750
907.324	7708
907.441	7544
907.557	7449
907.674	7506
907.79	7460
907.907	7415
908.023	7381
908.139	7411
908.256	7392
908.372	7377
908.488	7362
908.604	7266
908.72	7324
908.836	7285
908.952	7240
909.068	7312
909.184	7335
909.3	7278
909.415	7270
909.531	7297
909.647	7137
909.762	7107
909.878	7084
909.993	7156
910.108	7107
910.224	7095
910.339	7149
910.454	7076
910.57	7069
910.685	6981
910.8	7141
910.915	7160
911.03	7012
911.145	6947
911.259	6935
911.374	6905
911.489	6859
911.604	6837
911.718	6749
911.833	6837
911.947	6662
912.062	6589
912.176	6684
912.291	6715
912.405	6726
912.519	6802
912.633	6840
912.748	6741
912.862	6673
912.976	6684
913.09	6574
913.204	6635
913.318	6658
913.431	6696
913.545	6688
913.659	6760
913.772	6692
913.886	6525
914	6532
914.113	6623
914.226	6612
914.34	6623
914.453	6506
914.566	6650
914.68	6570
914.793	6582
914.906	6403
915.019	6414
915.132	6361
915.245	6460
915.358	6441
915.47	6544
915.583	6441
915.696	6460
915.809	6547
915.921	6566
916.034	6456
916.146	6479
916.259	6410
916.371	6479
916.483	6502
916.595	6460
916.708	6418
916.82	6429
916.932	6391
917.044	6433
917.156	6403
917.268	6399
917.38	6308
917.491	6338
917.603	6315
917.715	6426
917.826	6464
917.938	6350
918.049	6304
918.161	6384
918.272	6426
918.384	6456
918.495	6403
918.606	6262
918.717	6216
918.828	6292
918.939	6334
919.05	6239
919.161	6277
919.272	6148
919.383	6144
919.494	6262
919.604	6395
919.715	6350
919.826	6247
919.936	6300
920.047	6391
920.157	6323
920.267	6464
920.378	6403
920.488	6346
920.598	6506
920.708	6547
920.818	6460
920.928	6509
921.038	6585
921.148	6631
921.258	6395
921.368	6266
921.477	6251
921.587	6171
921.697	6121
921.806	6121
921.916	6087
922.025	5870
922.134	5958
922.244	5942
922.353	5965
922.462	5828
922.571	5824
922.68	5729
922.789	5691
922.898	5752
923.007	5668
923.116	5707
923.224	5657
923.333	5722
923.442	5581
923.55	5562
923.659	5604
923.767	5630
923.876	5554
923.984	5596
924.092	5520
924.201	5539
924.309	5543
924.417	5596
924.525	5501
924.633	5558
924.741	6251
924.849	5353
924.956	5478
925.064	5379
925.172	5345
925.279	5311
925.387	5353
925.494	5379
925.602	5433
925.709	5429
925.816	5288
925.924	5292
926.031	5383
926.138	5303
926.245	5360
926.352	5250
926.459	5379
926.566	5364
926.673	5242
926.779	5155
926.886	5048
926.993	5033
927.099	4968
927.206	5025
927.312	4953
927.419	5018
927.525	4953
927.631	4999
927.737	4927
927.843	4831
927.95	4759
928.056	4831
928.162	4881
928.267	4828
928.373	5353
928.479	4858
928.585	4694
928.69	4782
928.796	4740
928.901	4744
929.007	4626
929.112	4660
929.218	4672
929.323	4622
929.428	4603
929.533	4675
929.638	4538
929.743	4546
929.848	4569
929.953	4500
930.058	4440
930.163	4352
930.267	4386
930.372	4436
930.477	4265
930.581	4462
930.685	4344
930.79	4314
930.894	4310
930.998	4246
931.103	4409
931.207	4169
931.311	4071
931.415	4055
931.519	3934
931.623	3987
