Data from glass_V78500241_1562.txt Node
Date: Wed Sep 01 19:25:19 CST 2021
User: usil
Spectrometer: V785-0024
Trigger mode: 0
Integration Time (sec): 4.000000E-1
Scans to average: 1
Nonlinearity correction enabled: false
Boxcar width: 0
Storing dark spectrum: false
XAxis mode: Wavelengths
Number of Pixels in Spectrum: 1024
>>>>>Begin Spectral Data<<<<<
801.071	3709
801.214	3713
801.356	3637
801.499	3774
801.641	3728
801.783	3819
801.926	3823
802.068	3823
802.211	3876
802.353	3854
802.496	3819
802.638	3838
802.78	3907
802.923	3903
803.065	3911
803.208	3903
803.35	3899
803.492	3892
803.635	3918
803.777	3804
803.919	3903
804.061	4147
804.204	3956
804.346	3949
804.488	3956
804.63	4044
804.773	3987
804.915	3979
805.057	4124
805.199	4032
805.341	4101
805.483	4128
805.626	4109
805.768	4112
805.91	4219
806.052	4188
806.194	4230
806.336	4363
806.478	4207
806.62	4185
806.762	4207
806.904	4272
807.046	4341
807.188	4200
807.33	4150
807.472	4227
807.614	4196
807.756	4257
807.898	4192
808.04	4223
808.182	4299
808.324	4318
808.465	4390
808.607	4481
808.749	4466
808.891	4500
809.033	4535
809.174	4409
809.316	4280
809.458	4280
809.6	4173
809.741	4128
809.883	4131
810.025	4200
810.166	4211
810.308	4219
810.45	4215
810.591	4284
810.733	4265
810.875	4516
811.016	4805
811.158	5189
811.299	5273
811.441	5284
811.582	5064
811.724	4702
811.865	4500
812.007	4478
812.148	4474
812.29	4417
812.431	4386
812.573	4394
812.714	4421
812.855	4432
812.997	4413
813.138	4470
813.279	4394
813.421	4371
813.562	4375
813.703	4284
813.845	4337
813.986	4249
814.127	4249
814.268	4249
814.41	4299
814.551	4272
814.692	4337
814.833	4299
814.974	4284
815.115	4360
815.256	4265
815.397	4200
815.539	4253
815.68	4219
815.821	4211
815.962	4341
816.103	4287
816.244	4242
816.385	4265
816.526	4284
816.666	4188
816.807	4105
816.948	4139
817.089	4150
817.23	4101
817.371	4063
817.512	3983
817.653	4074
817.793	3975
817.934	4051
818.075	4120
818.216	4078
818.356	4086
818.497	3998
818.638	3922
818.778	3892
818.919	3915
819.06	3888
819.2	3941
819.341	3899
819.481	3816
819.622	3915
819.762	3991
819.903	3937
820.043	3880
820.184	3846
820.324	3854
820.465	3880
820.605	3876
820.746	3861
820.886	3800
821.026	3953
821.167	3941
821.307	4002
821.447	4002
821.588	3930
821.728	3937
821.868	3930
822.008	3846
822.149	3907
822.289	3911
822.429	3778
822.569	3732
822.709	3766
822.849	3698
822.99	3690
823.13	3755
823.27	3762
823.41	3709
823.55	3762
823.69	3732
823.83	3789
823.97	3709
824.11	3637
824.25	3610
824.389	3622
824.529	3671
824.669	3633
824.809	3736
824.949	3762
825.089	3717
825.228	3755
825.368	3599
825.508	3572
825.648	3557
825.787	3606
825.927	3606
826.067	3606
826.206	3610
826.346	3774
826.485	3842
826.625	3861
826.765	3937
826.904	3838
827.044	3614
827.183	3500
827.323	3424
827.462	3488
827.601	3439
827.741	3454
827.88	3443
828.02	3374
828.159	3447
828.298	3485
828.437	3519
828.577	3473
828.716	3572
828.855	3515
828.994	3378
829.134	3359
829.273	3363
829.412	3321
829.551	3317
829.69	3370
829.829	3439
829.968	3523
830.107	3428
830.246	3488
830.385	3378
830.524	3420
830.663	3302
830.802	3245
830.941	3173
831.08	3176
831.219	3272
831.357	3287
831.496	3435
831.635	3230
831.774	3211
831.913	3192
832.051	3154
832.19	3142
832.329	3203
832.467	3161
832.606	3123
832.744	3176
832.883	3173
833.022	3161
833.16	3249
833.299	3294
833.437	3348
833.576	3374
833.714	3424
833.852	3420
833.991	3428
834.129	3466
834.267	3439
834.406	3420
834.544	3466
834.682	3431
834.821	3420
834.959	3561
835.097	3431
835.235	3534
835.373	3542
835.511	3466
835.65	3447
835.788	3462
835.926	3355
836.064	3393
836.202	3428
836.34	3580
836.478	3625
836.615	3545
836.753	3618
836.891	3648
837.029	3572
837.167	3622
837.305	3545
837.443	3492
837.58	3511
837.718	3576
837.856	3561
837.993	3557
838.131	3610
838.269	3572
838.406	3587
838.544	3591
838.681	3454
838.819	3462
838.956	3409
839.094	3374
839.231	3420
839.369	3542
839.506	3720
839.643	3667
839.781	3504
839.918	3435
840.055	3523
840.193	3549
840.33	3526
840.467	3576
840.604	3622
840.742	3804
840.879	3538
841.016	3572
841.153	3587
841.29	3751
841.427	3679
841.564	3736
841.701	3728
841.838	3701
841.975	3671
842.112	3720
842.249	3625
842.385	3584
842.522	3835
842.659	3701
842.796	3705
842.933	3701
843.069	3701
843.206	3717
843.343	3800
843.479	3816
843.616	3816
843.752	3675
843.889	3713
844.025	3892
844.162	3770
844.298	3816
844.435	3823
844.571	3804
844.708	3915
844.844	4017
844.98	4036
845.117	4029
845.253	3934
845.389	3930
845.525	3983
845.661	3964
845.798	3911
845.934	4010
846.07	3953
846.206	4059
846.342	4124
846.478	4044
846.614	3972
846.75	3945
846.886	3884
847.022	3983
847.158	4006
847.294	3991
847.429	4006
847.565	4010
847.701	4227
847.837	3911
847.972	3884
848.108	3937
848.244	3968
848.379	3873
848.515	3808
848.65	3838
848.786	3842
848.921	3911
849.057	3846
849.192	3968
849.328	3915
849.463	3934
849.598	3861
849.734	3812
849.869	3846
850.004	3770
850.14	3846
850.275	3823
850.41	3759
850.545	3705
850.68	3789
850.815	3774
850.95	3831
851.085	3937
851.22	3922
851.355	3842
851.49	3800
851.625	3755
851.76	3804
851.895	3766
852.03	3720
852.165	3819
852.299	3793
852.434	3926
852.569	3911
852.703	3857
852.838	3937
852.973	3983
853.107	4010
853.242	3876
853.376	3808
853.511	3709
853.645	3827
853.78	4006
853.914	3892
854.048	3876
854.183	3857
854.317	3915
854.451	4040
854.585	3983
854.72	3937
854.854	4013
854.988	3953
855.122	4006
855.256	3907
855.39	4059
855.524	4116
855.658	4071
855.792	4097
855.926	4120
856.06	4154
856.194	4188
856.327	4131
856.461	4078
856.595	4150
856.729	4204
856.862	4344
856.996	4227
857.13	4284
857.263	4325
857.397	4363
857.53	4265
857.664	4383
857.797	4390
857.931	4405
858.064	4337
858.197	4470
858.331	4421
858.464	4371
858.597	4363
858.731	4436
858.864	4447
858.997	4424
859.13	4535
859.263	4558
859.396	4592
859.529	4504
859.662	4538
859.795	4535
859.928	4584
860.061	4664
860.194	4729
860.327	4645
860.46	4653
860.592	4721
860.725	4733
860.858	4771
860.99	4733
861.123	4683
861.256	4668
861.388	4767
861.521	5554
861.653	4687
861.786	4664
861.918	4721
862.05	4828
862.183	4873
862.315	4839
862.447	4896
862.58	4930
862.712	4805
862.844	4763
862.976	4915
863.108	4885
863.24	5239
863.372	4793
863.504	4885
863.636	4873
863.768	4976
863.9	5037
864.032	4949
864.164	4930
864.296	4999
864.428	5128
864.559	5128
864.691	5159
864.823	5083
864.954	5086
865.086	5128
865.217	5132
865.349	5143
865.48	5178
865.612	5151
865.743	5250
865.875	5242
866.006	5185
866.137	5231
866.269	5261
866.4	5246
866.531	5261
866.662	5193
866.793	5318
866.924	5288
867.055	5379
867.186	5353
867.317	5307
867.448	5368
867.579	5360
867.71	5368
867.841	5334
867.972	5448
868.103	5501
868.233	5478
868.364	5505
868.495	5562
868.625	5634
868.756	5767
868.886	5680
869.017	5726
869.147	5863
869.278	5878
869.408	5847
869.539	5847
869.669	5893
869.799	5946
869.929	5999
870.06	5973
870.19	6213
870.32	6190
870.45	6220
870.58	6308
870.71	6464
870.84	6483
870.97	6483
871.1	6475
871.23	6646
871.36	6673
871.489	6688
871.619	6726
871.749	6821
871.879	6871
872.008	6962
872.138	6981
872.267	6962
872.397	6996
872.526	7046
872.656	7065
872.785	7225
872.915	7388
873.044	7499
873.173	7537
873.303	7666
873.432	7723
873.561	7871
873.69	7974
873.819	8054
873.948	8115
874.077	8233
874.206	8366
874.335	8488
874.464	8663
874.593	8807
874.722	8933
874.851	9222
874.979	9272
875.108	9355
875.237	9412
875.365	9500
875.494	9629
875.623	9778
875.751	9869
875.88	10036
876.008	10090
876.136	10348
876.265	10588
876.393	10641
876.521	10710
876.65	10763
876.778	10812
876.906	10828
877.034	11003
877.162	11083
877.29	11136
877.418	11288
877.546	11398
877.674	11421
877.802	11501
877.93	11592
878.058	11554
878.185	11562
878.313	11684
878.441	11733
878.568	11684
878.696	11855
878.824	11817
878.951	12015
879.079	12003
879.206	12060
879.333	12007
879.461	11980
879.588	12011
879.715	12064
879.842	12125
879.97	12133
880.097	11889
880.224	11847
880.351	11927
880.478	11935
880.605	11882
880.732	11821
880.859	11992
880.986	11824
881.112	11855
881.239	11729
881.366	11726
881.493	11611
881.619	11623
881.746	11509
881.872	11623
881.999	11543
882.125	11478
882.252	11619
882.378	11512
882.505	11585
882.631	11417
882.757	11296
882.883	11322
883.01	11284
883.136	11189
883.262	11128
883.388	11105
883.514	11212
883.64	11193
883.766	11121
883.892	11018
884.018	10991
884.143	11048
884.269	11098
884.395	10805
884.52	10714
884.646	10748
884.772	10740
884.897	10615
885.023	10679
885.148	10706
885.274	10774
885.399	10679
885.524	10641
885.65	10569
885.775	10653
885.9	10618
886.025	10584
886.15	10580
886.275	10436
886.4	10398
886.525	10432
886.65	10322
886.775	10295
886.9	10531
887.025	10497
887.149	10337
887.274	10196
887.399	10211
887.523	10227
887.648	10173
887.773	10090
887.897	10204
888.021	10249
888.146	10116
888.27	10234
888.395	10280
888.519	10173
888.643	10185
888.767	10188
888.891	10101
889.015	10036
889.139	10025
889.263	9899
889.387	10074
889.511	10131
889.635	10097
889.759	9991
889.883	9899
890.006	9945
890.13	10067
890.254	9968
890.377	9979
890.501	9873
890.624	9880
890.748	9945
890.871	9781
890.995	9751
891.118	9732
891.241	9724
891.364	9709
891.488	9846
891.611	9679
891.734	9740
891.857	9770
891.98	9740
892.103	9759
892.226	9766
892.349	9610
892.471	9488
892.594	9644
892.717	9622
892.839	9614
892.962	9591
893.085	9625
893.207	9572
893.33	9519
893.452	9561
893.575	9584
893.697	9473
893.819	9603
893.941	9618
894.064	9610
894.186	9443
894.308	9329
894.43	9526
894.552	9488
894.674	9564
894.796	9374
894.918	9401
895.04	9420
895.161	9370
895.283	9382
895.405	9211
895.526	9302
895.648	9264
895.769	9184
895.891	9241
896.012	9279
896.134	9253
896.255	9203
896.376	9154
896.498	9207
896.619	9119
896.74	9051
896.861	9081
896.982	9249
897.103	9374
897.224	9150
897.345	9058
897.466	8960
897.587	8963
897.708	9085
897.828	9013
897.949	8883
898.07	8868
898.19	8925
898.311	9085
898.431	8967
898.552	8948
898.672	8986
898.792	8937
898.913	8929
899.033	8811
899.153	8735
899.273	8655
899.393	8693
899.513	8735
899.633	8682
899.753	8796
899.873	8674
899.993	8727
900.113	8617
900.232	8651
900.352	8659
900.472	8541
900.591	8556
900.711	8530
900.83	8511
900.95	8693
901.069	8762
901.189	8568
901.308	8381
901.427	8461
901.546	8446
901.665	8450
901.784	8514
901.904	8377
902.023	8301
902.141	8259
902.26	8161
902.379	8259
902.498	8237
902.617	8248
902.735	8240
902.854	8298
902.973	8279
903.091	8123
903.21	8176
903.328	8123
903.446	8119
903.565	8043
903.683	8115
903.801	8084
903.919	8062
904.038	8153
904.156	8031
904.274	8050
904.392	8073
904.51	8008
904.627	8005
904.745	8069
904.863	8100
904.981	7940
905.098	7871
905.216	7792
905.334	7925
905.451	7967
905.569	7814
905.686	7978
905.803	7951
905.921	7784
906.038	7849
906.155	7833
906.272	7765
906.389	7693
906.506	7628
906.623	7647
906.74	7651
906.857	7552
906.974	7544
907.091	7677
907.208	7677
907.324	7700
907.441	7620
907.557	7499
907.674	7411
907.79	7396
907.907	7419
908.023	7403
908.139	7422
908.256	7464
908.372	7343
908.488	7384
908.604	7301
908.72	7213
908.836	7289
908.952	7225
909.068	7270
909.184	7358
909.3	7213
909.415	7297
909.531	7255
909.647	7156
909.762	7194
909.878	7126
909.993	7145
910.108	7080
910.224	7046
910.339	7118
910.454	7046
910.57	7046
910.685	6993
910.8	7175
910.915	7099
911.03	7027
911.145	6867
911.259	6852
911.374	6871
911.489	6837
911.604	6806
911.718	6776
911.833	6760
911.947	6662
912.062	6623
912.176	6658
912.291	6741
912.405	6688
912.519	6821
912.633	6806
912.748	6730
912.862	6707
912.976	6654
913.09	6509
913.204	6559
913.318	6604
913.431	6642
913.545	6738
913.659	6703
913.772	6627
913.886	6555
914	6525
914.113	6639
914.226	6601
914.34	6604
914.453	6525
914.566	6650
914.68	6536
914.793	6536
914.906	6429
915.019	6388
915.132	6433
915.245	6388
915.358	6445
915.47	6441
915.583	6456
915.696	6471
915.809	6559
915.921	6471
916.034	6414
916.146	6365
916.259	6395
916.371	6490
916.483	6445
916.595	6418
916.708	6426
916.82	6376
916.932	6376
917.044	6429
917.156	6437
917.268	6300
917.38	6365
917.491	6346
917.603	6369
917.715	6353
917.826	6448
917.938	6388
918.049	6270
918.161	6388
918.272	6460
918.384	6391
918.495	6350
918.606	6235
918.717	6258
918.828	6296
918.939	6311
919.05	6209
919.161	6258
919.272	6114
919.383	6152
919.494	6289
919.604	6422
919.715	6262
919.826	6232
919.936	6239
920.047	6361
920.157	6289
920.267	6429
920.378	6376
920.488	6254
920.598	6388
920.708	6574
920.818	6547
920.928	6540
921.038	6604
921.148	6608
921.258	6388
921.368	6270
921.477	6197
921.587	6232
921.697	6159
921.806	6201
921.916	6072
922.025	5988
922.134	5893
922.244	5878
922.353	6003
922.462	5859
922.571	5729
922.68	5688
922.789	5707
922.898	5714
923.007	5634
923.116	5707
923.224	5649
923.333	5623
923.442	5672
923.55	5566
923.659	5577
923.767	5684
923.876	5524
923.984	5611
924.092	5467
924.201	5547
924.309	5509
924.417	5585
924.525	5501
924.633	5486
924.741	6091
924.849	5337
924.956	5524
925.064	5330
925.172	5292
925.279	5284
925.387	5349
925.494	5326
925.602	5398
925.709	5444
925.816	5296
925.924	5337
926.031	5337
926.138	5296
926.245	5284
926.352	5254
926.459	5311
926.566	5303
926.673	5220
926.779	5159
926.886	5140
926.993	5045
927.099	5041
927.206	5018
927.312	4942
927.419	5018
927.525	5033
927.631	4980
927.737	4919
927.843	4870
927.95	4839
928.056	4831
928.162	4805
928.267	4873
928.373	5357
928.479	4820
928.585	4672
928.69	4733
928.796	4786
928.901	4729
929.007	4599
929.112	4702
929.218	4668
929.323	4599
929.428	4573
929.533	4664
929.638	4523
929.743	4538
929.848	4535
929.953	4455
930.058	4470
930.163	4322
930.267	4322
930.372	4443
930.477	4322
930.581	4432
930.685	4318
930.79	4291
930.894	4272
930.998	4227
931.103	4379
931.207	4128
931.311	4082
931.415	4013
931.519	3941
931.623	3934
