Data from glass_V78500241_37.txt Node
Date: Wed Sep 01 19:14:45 CST 2021
User: usil
Spectrometer: V785-0024
Trigger mode: 0
Integration Time (sec): 4.000000E-1
Scans to average: 1
Nonlinearity correction enabled: false
Boxcar width: 0
Storing dark spectrum: false
XAxis mode: Wavelengths
Number of Pixels in Spectrum: 1024
>>>>>Begin Spectral Data<<<<<
801.071	3774
801.214	3762
801.356	3709
801.499	3785
801.641	3751
801.783	3785
801.926	3911
802.068	3831
802.211	3869
802.353	3888
802.496	3816
802.638	3876
802.78	3934
802.923	3972
803.065	3896
803.208	3869
803.35	3869
803.492	3899
803.635	3960
803.777	3880
803.919	3892
804.061	4131
804.204	3983
804.346	3987
804.488	3934
804.63	4071
804.773	3998
804.915	4063
805.057	4192
805.199	4074
805.341	4101
805.483	4124
805.626	4147
805.768	4158
805.91	4268
806.052	4299
806.194	4211
806.336	4341
806.478	4227
806.62	4139
806.762	4234
806.904	4306
807.046	4367
807.188	4242
807.33	4204
807.472	4253
807.614	4173
807.756	4272
807.898	4249
808.04	4234
808.182	4272
808.324	4318
808.465	4371
808.607	4481
808.749	4443
808.891	4516
809.033	4489
809.174	4417
809.316	4284
809.458	4246
809.6	4150
809.741	4166
809.883	4169
810.025	4223
810.166	4188
810.308	4253
810.45	4227
810.591	4249
810.733	4287
810.875	4497
811.016	4828
811.158	5159
811.299	5254
811.441	5296
811.582	5079
811.724	4717
811.865	4485
812.007	4508
812.148	4485
812.29	4424
812.431	4383
812.573	4424
812.714	4375
812.855	4390
812.997	4436
813.138	4512
813.279	4436
813.421	4421
813.562	4409
813.703	4337
813.845	4356
813.986	4257
814.127	4257
814.268	4238
814.41	4314
814.551	4276
814.692	4325
814.833	4280
814.974	4344
815.115	4390
815.256	4261
815.397	4261
815.539	4291
815.68	4204
815.821	4207
815.962	4337
816.103	4348
816.244	4261
816.385	4261
816.526	4306
816.666	4230
816.807	4090
816.948	4200
817.089	4154
817.23	4093
817.371	4071
817.512	4051
817.653	4105
817.793	4078
817.934	4021
818.075	4124
818.216	4112
818.356	4109
818.497	4006
818.638	3896
818.778	3930
818.919	3915
819.06	3819
819.2	3953
819.341	3884
819.481	3827
819.622	3899
819.762	4017
819.903	3949
820.043	3880
820.184	3854
820.324	3884
820.465	3918
820.605	3861
820.746	3903
820.886	3827
821.026	3899
821.167	3926
821.307	3983
821.447	3998
821.588	3998
821.728	3960
821.868	3903
822.008	3896
822.149	3907
822.289	4013
822.429	3789
822.569	3774
822.709	3804
822.849	3709
822.99	3770
823.13	3785
823.27	3827
823.41	3717
823.55	3743
823.69	3698
823.83	3766
823.97	3690
824.11	3629
824.25	3656
824.389	3701
824.529	3709
824.669	3641
824.809	3705
824.949	3781
825.089	3755
825.228	3774
825.368	3641
825.508	3572
825.648	3599
825.787	3625
825.927	3667
826.067	3637
826.206	3663
826.346	3800
826.485	3880
826.625	3884
826.765	3979
826.904	3838
827.044	3610
827.183	3542
827.323	3450
827.462	3542
827.601	3454
827.741	3443
827.88	3447
828.02	3389
828.159	3416
828.298	3492
828.437	3553
828.577	3507
828.716	3610
828.855	3507
828.994	3405
829.134	3344
829.273	3412
829.412	3348
829.551	3344
829.69	3405
829.829	3473
829.968	3549
830.107	3447
830.246	3458
830.385	3424
830.524	3351
830.663	3336
830.802	3256
830.941	3264
831.08	3199
831.219	3298
831.357	3287
831.496	3412
831.635	3260
831.774	3176
831.913	3165
832.051	3146
832.19	3131
832.329	3192
832.467	3150
832.606	3123
832.744	3184
832.883	3214
833.022	3214
833.16	3233
833.299	3294
833.437	3340
833.576	3363
833.714	3401
833.852	3420
833.991	3473
834.129	3504
834.267	3443
834.406	3420
834.544	3454
834.682	3416
834.821	3393
834.959	3564
835.097	3397
835.235	3542
835.373	3492
835.511	3519
835.65	3504
835.788	3534
835.926	3431
836.064	3374
836.202	3420
836.34	3606
836.478	3660
836.615	3538
836.753	3618
836.891	3663
837.029	3625
837.167	3599
837.305	3587
837.443	3603
837.58	3557
837.718	3629
837.856	3561
837.993	3576
838.131	3603
838.269	3591
838.406	3576
838.544	3618
838.681	3462
838.819	3481
838.956	3382
839.094	3428
839.231	3443
839.369	3584
839.506	3740
839.643	3641
839.781	3496
839.918	3488
840.055	3534
840.193	3549
840.33	3542
840.467	3629
840.604	3622
840.742	3819
840.879	3580
841.016	3561
841.153	3648
841.29	3743
841.427	3766
841.564	3751
841.701	3781
841.838	3694
841.975	3679
842.112	3701
842.249	3656
842.385	3656
842.522	3873
842.659	3732
842.796	3709
842.933	3766
843.069	3717
843.206	3720
843.343	3846
843.479	3816
843.616	3850
843.752	3709
843.889	3682
844.025	3880
844.162	3789
844.298	3880
844.435	3789
844.571	3808
844.708	3937
844.844	4063
844.98	4032
845.117	4021
845.253	3899
845.389	3930
845.525	4002
845.661	3987
845.798	3949
845.934	4055
846.07	4013
846.206	4055
846.342	4169
846.478	4044
846.614	3994
846.75	3937
846.886	3907
847.022	4040
847.158	3949
847.294	4040
847.429	4051
847.565	4010
847.701	4234
847.837	3915
847.972	3892
848.108	4013
848.244	3956
848.379	3861
848.515	3842
848.65	3842
848.786	3827
848.921	3869
849.057	3934
849.192	3983
849.328	3884
849.463	3945
849.598	3873
849.734	3831
849.869	3854
850.004	3823
850.14	3842
850.275	3827
850.41	3766
850.545	3797
850.68	3797
850.815	3804
850.95	3781
851.085	3949
851.22	3869
851.355	3880
851.49	3785
851.625	3808
851.76	3785
851.895	3728
852.03	3766
852.165	3804
852.299	3876
852.434	3926
852.569	3854
852.703	3880
852.838	3926
852.973	4036
853.107	3998
853.242	3869
853.376	3854
853.511	3747
853.645	3876
853.78	3983
853.914	3892
854.048	3926
854.183	3937
854.317	3964
854.451	4101
854.585	3991
854.72	3922
854.854	4036
854.988	3930
855.122	4010
855.256	3911
855.39	4044
855.524	4143
855.658	4086
855.792	4128
855.926	4120
856.06	4150
856.194	4238
856.327	4131
856.461	4166
856.595	4169
856.729	4162
856.862	4306
856.996	4223
857.13	4303
857.263	4386
857.397	4417
857.53	4333
857.664	4360
857.797	4413
857.931	4481
858.064	4447
858.197	4447
858.331	4421
858.464	4459
858.597	4325
858.731	4451
858.864	4516
858.997	4466
859.13	4489
859.263	4527
859.396	4611
859.529	4542
859.662	4580
859.795	4519
859.928	4630
860.061	4683
860.194	4744
860.327	4641
860.46	4649
860.592	4744
860.725	4733
860.858	4805
860.99	4702
861.123	4740
861.256	4752
861.388	4790
861.521	5360
861.653	4717
861.786	4736
861.918	4801
862.05	4824
862.183	4850
862.315	4953
862.447	4980
862.58	4953
862.712	4771
862.844	4778
862.976	4896
863.108	4965
863.24	5181
863.372	4870
863.504	4938
863.636	4927
863.768	4930
863.9	4995
864.032	4953
864.164	4965
864.296	5014
864.428	5067
864.559	5079
864.691	5136
864.823	5121
864.954	5174
865.086	5189
865.217	5132
865.349	5098
865.48	5178
865.612	5201
865.743	5303
865.875	5250
866.006	5162
866.137	5223
866.269	5288
866.4	5235
866.531	5280
866.662	5227
866.793	5280
866.924	5349
867.055	5311
867.186	5383
867.317	5364
867.448	5307
867.579	5368
867.71	5417
867.841	5391
867.972	5414
868.103	5486
868.233	5516
868.364	5547
868.495	5566
868.625	5665
868.756	5767
868.886	5714
869.017	5752
869.147	5866
869.278	5844
869.408	5809
869.539	5824
869.669	5939
869.799	5935
869.929	5996
870.06	6026
870.19	6232
870.32	6224
870.45	6273
870.58	6338
870.71	6429
870.84	6525
870.97	6433
871.1	6475
871.23	6654
871.36	6726
871.489	6631
871.619	6738
871.749	6757
871.879	6920
872.008	7008
872.138	7000
872.267	7019
872.397	6993
872.526	7088
872.656	7080
872.785	7240
872.915	7419
873.044	7487
873.173	7552
873.303	7658
873.432	7689
873.561	7883
873.69	7932
873.819	8035
873.948	8123
874.077	8263
874.206	8313
874.335	8423
874.464	8636
874.593	8845
874.722	8971
874.851	9150
874.979	9207
875.108	9408
875.237	9405
875.365	9435
875.494	9686
875.623	9854
875.751	9876
875.88	9979
876.008	10109
876.136	10276
876.265	10546
876.393	10649
876.521	10710
876.65	10873
876.778	10946
876.906	10866
877.034	11018
877.162	11067
877.29	11140
877.418	11273
877.546	11395
877.674	11486
877.802	11509
877.93	11532
878.058	11490
878.185	11551
878.313	11668
878.441	11714
878.568	11699
878.696	11824
878.824	11832
878.951	11996
879.079	12011
879.206	12205
879.333	12148
879.461	12007
879.588	12057
879.715	12152
879.842	12273
879.97	12087
880.097	11889
880.224	11817
880.351	11855
880.478	11824
880.605	11885
880.732	11847
880.859	12041
880.986	11863
881.112	11859
881.239	11729
881.366	11722
881.493	11623
881.619	11608
881.746	11558
881.872	11577
881.999	11478
882.125	11539
882.252	11532
882.378	11505
882.505	11554
882.631	11337
882.757	11246
882.883	11341
883.01	11318
883.136	11227
883.262	11212
883.388	11022
883.514	11159
883.64	11197
883.766	11132
883.892	11006
884.018	10972
884.143	11140
884.269	11124
884.395	10824
884.52	10786
884.646	10736
884.772	10698
884.897	10668
885.023	10733
885.148	10729
885.274	10748
885.399	10721
885.524	10596
885.65	10626
885.775	10645
885.9	10603
886.025	10550
886.15	10546
886.275	10485
886.4	10371
886.525	10451
886.65	10440
886.775	10459
886.9	10565
887.025	10504
887.149	10436
887.274	10249
887.399	10109
887.523	10200
887.648	10223
887.773	10147
887.897	10246
888.021	10246
888.146	10109
888.27	10188
888.395	10211
888.519	10246
888.643	10192
888.767	10207
888.891	10120
889.015	10074
889.139	10097
889.263	10021
889.387	10097
889.511	10090
889.635	10051
889.759	10029
889.883	9941
890.006	9953
890.13	10082
890.254	9937
890.377	9975
890.501	9850
890.624	9888
890.748	9888
890.871	9861
890.995	9816
891.118	9663
891.241	9846
891.364	9751
891.488	9827
891.611	9720
891.734	9720
891.857	9797
891.98	9682
892.103	9804
892.226	9698
892.349	9595
892.471	9584
892.594	9587
892.717	9603
892.839	9709
892.962	9576
893.085	9713
893.207	9603
893.33	9572
893.452	9564
893.575	9644
893.697	9477
893.819	9660
893.941	9652
894.064	9538
894.186	9389
894.308	9435
894.43	9557
894.552	9534
894.674	9622
894.796	9389
894.918	9416
895.04	9389
895.161	9458
895.283	9363
895.405	9211
895.526	9253
895.648	9237
895.769	9275
895.891	9291
896.012	9249
896.134	9260
896.255	9226
896.376	9165
896.498	9085
896.619	9123
896.74	9119
896.861	9070
896.982	9237
897.103	9348
897.224	9214
897.345	9051
897.466	9047
897.587	9036
897.708	9119
897.828	9123
897.949	8960
898.07	8861
898.19	8872
898.311	9032
898.431	8933
898.552	8994
898.672	8902
898.792	8914
898.913	8906
899.033	8758
899.153	8720
899.273	8701
899.393	8788
899.513	8735
899.633	8766
899.753	8716
899.873	8735
899.993	8781
900.113	8724
900.232	8720
900.352	8724
900.472	8678
900.591	8564
900.711	8625
900.83	8568
900.95	8735
901.069	8739
901.189	8564
901.308	8454
901.427	8358
901.546	8393
901.665	8419
901.784	8457
901.904	8370
902.023	8332
902.141	8290
902.26	8244
902.379	8328
902.498	8275
902.617	8180
902.735	8320
902.854	8332
902.973	8347
903.091	8176
903.21	8176
903.328	8134
903.446	8077
903.565	8111
903.683	8081
903.801	8092
903.919	8130
904.038	8149
904.156	8046
904.274	8153
904.392	8050
904.51	8096
904.627	8084
904.745	8130
904.863	8084
904.981	7913
905.098	7871
905.216	7864
905.334	7909
905.451	7936
905.569	7913
905.686	7913
905.803	7967
905.921	7792
906.038	7860
906.155	7814
906.272	7765
906.389	7742
906.506	7662
906.623	7685
906.74	7636
906.857	7537
906.974	7556
907.091	7761
907.208	7712
907.324	7578
907.441	7632
907.557	7422
907.674	7495
907.79	7350
907.907	7381
908.023	7457
908.139	7438
908.256	7369
908.372	7426
908.488	7301
908.604	7297
908.72	7312
908.836	7240
908.952	7255
909.068	7312
909.184	7301
909.3	7289
909.415	7293
909.531	7316
909.647	7133
909.762	7171
909.878	7107
909.993	7179
910.108	7168
910.224	7065
910.339	7114
910.454	7042
910.57	7008
910.685	6985
910.8	7209
910.915	7126
911.03	7046
911.145	6951
911.259	6939
911.374	6905
911.489	6848
911.604	6840
911.718	6726
911.833	6787
911.947	6654
912.062	6639
912.176	6669
912.291	6783
912.405	6757
912.519	6818
912.633	6875
912.748	6738
912.862	6726
912.976	6601
913.09	6547
913.204	6566
913.318	6604
913.431	6707
913.545	6658
913.659	6707
913.772	6669
913.886	6585
914	6559
914.113	6654
914.226	6673
914.34	6635
914.453	6517
914.566	6608
914.68	6566
914.793	6563
914.906	6452
915.019	6384
915.132	6422
915.245	6399
915.358	6448
915.47	6471
915.583	6433
915.696	6410
915.809	6528
915.921	6589
916.034	6422
916.146	6399
916.259	6403
916.371	6517
916.483	6498
916.595	6380
916.708	6399
916.82	6460
916.932	6414
917.044	6437
917.156	6395
917.268	6338
917.38	6361
917.491	6357
917.603	6346
917.715	6353
917.826	6502
917.938	6342
918.049	6251
918.161	6395
918.272	6426
918.384	6441
918.495	6346
918.606	6308
918.717	6251
918.828	6243
918.939	6304
919.05	6224
919.161	6247
919.272	6095
919.383	6178
919.494	6311
919.604	6429
919.715	6292
919.826	6273
919.936	6270
920.047	6285
920.157	6232
920.267	6486
920.378	6350
920.488	6254
920.598	6460
920.708	6612
920.818	6506
920.928	6498
921.038	6601
921.148	6608
921.258	6353
921.368	6289
921.477	6251
921.587	6216
921.697	6110
921.806	6194
921.916	6041
922.025	5958
922.134	5927
922.244	5904
922.353	5961
922.462	5836
922.571	5783
922.68	5760
922.789	5684
922.898	5661
923.007	5638
923.116	5710
923.224	5680
923.333	5657
923.442	5638
923.55	5524
923.659	5608
923.767	5646
923.876	5551
923.984	5653
924.092	5547
924.201	5547
924.309	5589
924.417	5547
924.525	5512
924.633	5547
924.741	6308
924.849	5372
924.956	5585
925.064	5368
925.172	5330
925.279	5292
925.387	5402
925.494	5296
925.602	5433
925.709	5440
925.816	5265
925.924	5318
926.031	5402
926.138	5330
926.245	5379
926.352	5189
926.459	5288
926.566	5345
926.673	5220
926.779	5159
926.886	5155
926.993	5083
927.099	5056
927.206	5006
927.312	4938
927.419	5018
927.525	5010
927.631	4938
927.737	4889
927.843	4858
927.95	4797
928.056	4820
928.162	4862
928.267	4904
928.373	5368
928.479	4854
928.585	4683
928.69	4820
928.796	4809
928.901	4687
929.007	4592
929.112	4710
929.218	4656
929.323	4607
929.428	4573
929.533	4660
929.638	4550
929.743	4584
929.848	4577
929.953	4512
930.058	4462
930.163	4360
930.267	4394
930.372	4379
930.477	4268
930.581	4474
930.685	4394
930.79	4295
930.894	4337
930.998	4261
931.103	4409
931.207	4166
931.311	4093
931.415	4074
931.519	3949
931.623	3930
