Data from glass_V78500241_1925.txt Node
Date: Wed Sep 01 19:27:50 CST 2021
User: usil
Spectrometer: V785-0024
Trigger mode: 0
Integration Time (sec): 4.000000E-1
Scans to average: 1
Nonlinearity correction enabled: false
Boxcar width: 0
Storing dark spectrum: false
XAxis mode: Wavelengths
Number of Pixels in Spectrum: 1024
>>>>>Begin Spectral Data<<<<<
801.071	3713
801.214	3736
801.356	3713
801.499	3751
801.641	3679
801.783	3709
801.926	3865
802.068	3819
802.211	3899
802.353	3899
802.496	3850
802.638	3876
802.78	3888
802.923	3911
803.065	3880
803.208	3842
803.35	3888
803.492	3892
803.635	3937
803.777	3846
803.919	3873
804.061	4139
804.204	3945
804.346	3880
804.488	3930
804.63	4013
804.773	4010
804.915	4032
805.057	4169
805.199	4013
805.341	4040
805.483	4124
805.626	4097
805.768	4093
805.91	4207
806.052	4211
806.194	4204
806.336	4344
806.478	4207
806.62	4181
806.762	4177
806.904	4246
807.046	4287
807.188	4246
807.33	4166
807.472	4253
807.614	4207
807.756	4265
807.898	4246
808.04	4261
808.182	4284
808.324	4341
808.465	4375
808.607	4462
808.749	4371
808.891	4474
809.033	4504
809.174	4371
809.316	4227
809.458	4238
809.6	4131
809.741	4116
809.883	4147
810.025	4158
810.166	4185
810.308	4207
810.45	4215
810.591	4272
810.733	4348
810.875	4546
811.016	4835
811.158	5117
811.299	5269
811.441	5303
811.582	5064
811.724	4717
811.865	4489
812.007	4421
812.148	4413
812.29	4333
812.431	4386
812.573	4409
812.714	4371
812.855	4386
812.997	4390
813.138	4409
813.279	4356
813.421	4432
813.562	4356
813.703	4322
813.845	4337
813.986	4257
814.127	4223
814.268	4265
814.41	4299
814.551	4261
814.692	4295
814.833	4299
814.974	4291
815.115	4341
815.256	4284
815.397	4238
815.539	4265
815.68	4223
815.821	4253
815.962	4325
816.103	4329
816.244	4234
816.385	4196
816.526	4227
816.666	4207
816.807	4112
816.948	4204
817.089	4185
817.23	4131
817.371	3994
817.512	4051
817.653	4086
817.793	4017
817.934	4017
818.075	4112
818.216	4097
818.356	4078
818.497	4006
818.638	3896
818.778	3880
818.919	3888
819.06	3861
819.2	3907
819.341	3896
819.481	3800
819.622	3873
819.762	3994
819.903	3926
820.043	3876
820.184	3842
820.324	3816
820.465	3907
820.605	3838
820.746	3861
820.886	3800
821.026	3937
821.167	3975
821.307	3960
821.447	3994
821.588	3934
821.728	3934
821.868	3953
822.008	3903
822.149	3915
822.289	3884
822.429	3755
822.569	3724
822.709	3785
822.849	3701
822.99	3713
823.13	3747
823.27	3819
823.41	3705
823.55	3717
823.69	3698
823.83	3736
823.97	3686
824.11	3633
824.25	3606
824.389	3663
824.529	3671
824.669	3625
824.809	3713
824.949	3743
825.089	3698
825.228	3698
825.368	3530
825.508	3584
825.648	3572
825.787	3606
825.927	3614
826.067	3618
826.206	3667
826.346	3762
826.485	3800
826.625	3846
826.765	3918
826.904	3827
827.044	3622
827.183	3519
827.323	3500
827.462	3447
827.601	3469
827.741	3424
827.88	3439
828.02	3374
828.159	3435
828.298	3485
828.437	3534
828.577	3481
828.716	3614
828.855	3515
828.994	3378
829.134	3374
829.273	3397
829.412	3351
829.551	3340
829.69	3370
829.829	3378
829.968	3545
830.107	3431
830.246	3454
830.385	3405
830.524	3329
830.663	3287
830.802	3272
830.941	3173
831.08	3203
831.219	3233
831.357	3298
831.496	3424
831.635	3230
831.774	3169
831.913	3184
832.051	3097
832.19	3146
832.329	3233
832.467	3169
832.606	3097
832.744	3207
832.883	3157
833.022	3199
833.16	3268
833.299	3313
833.437	3287
833.576	3401
833.714	3389
833.852	3397
833.991	3416
834.129	3496
834.267	3458
834.406	3386
834.544	3412
834.682	3424
834.821	3401
834.959	3496
835.097	3435
835.235	3515
835.373	3458
835.511	3462
835.65	3428
835.788	3458
835.926	3370
836.064	3397
836.202	3386
836.34	3576
836.478	3614
836.615	3530
836.753	3561
836.891	3667
837.029	3614
837.167	3564
837.305	3523
837.443	3534
837.58	3519
837.718	3603
837.856	3564
837.993	3538
838.131	3603
838.269	3572
838.406	3584
838.544	3595
838.681	3431
838.819	3454
838.956	3348
839.094	3435
839.231	3454
839.369	3523
839.506	3740
839.643	3614
839.781	3519
839.918	3458
840.055	3534
840.193	3519
840.33	3549
840.467	3553
840.604	3633
840.742	3800
840.879	3523
841.016	3576
841.153	3584
841.29	3774
841.427	3720
841.564	3705
841.701	3770
841.838	3705
841.975	3701
842.112	3732
842.249	3633
842.385	3644
842.522	3797
842.659	3690
842.796	3686
842.933	3701
843.069	3709
843.206	3736
843.343	3800
843.479	3751
843.616	3850
843.752	3694
843.889	3671
844.025	3880
844.162	3709
844.298	3816
844.435	3762
844.571	3854
844.708	3903
844.844	3994
844.98	4025
845.117	3991
845.253	3907
845.389	3903
845.525	3941
845.661	3956
845.798	3903
845.934	3937
846.07	3956
846.206	3964
846.342	4105
846.478	4040
846.614	3953
846.75	3918
846.886	3915
847.022	4036
847.158	3945
847.294	4017
847.429	3987
847.565	3983
847.701	4246
847.837	3880
847.972	3880
848.108	3949
848.244	3934
848.379	3857
848.515	3804
848.65	3793
848.786	3800
848.921	3873
849.057	3880
849.192	3896
849.328	3880
849.463	3937
849.598	3896
849.734	3873
849.869	3804
850.004	3759
850.14	3819
850.275	3819
850.41	3709
850.545	3762
850.68	3781
850.815	3808
850.95	3755
851.085	3918
851.22	3850
851.355	3823
851.49	3808
851.625	3797
851.76	3770
851.895	3736
852.03	3709
852.165	3759
852.299	3857
852.434	3892
852.569	3865
852.703	3865
852.838	3918
852.973	3998
853.107	4017
853.242	3857
853.376	3819
853.511	3770
853.645	3816
853.78	3968
853.914	3918
854.048	3918
854.183	3831
854.317	3949
854.451	4051
854.585	3945
854.72	3949
854.854	4013
854.988	3911
855.122	3994
855.256	3911
855.39	3998
855.524	4090
855.658	4093
855.792	4158
855.926	4162
856.06	4139
856.194	4177
856.327	4128
856.461	4116
856.595	4143
856.729	4135
856.862	4276
856.996	4268
857.13	4310
857.263	4348
857.397	4394
857.53	4303
857.664	4337
857.797	4383
857.931	4405
858.064	4352
858.197	4443
858.331	4405
858.464	4344
858.597	4295
858.731	4428
858.864	4432
858.997	4474
859.13	4516
859.263	4535
859.396	4615
859.529	4489
859.662	4603
859.795	4516
859.928	4580
860.061	4672
860.194	4710
860.327	4656
860.46	4634
860.592	4717
860.725	4786
860.858	4752
860.99	4653
861.123	4694
861.256	4714
861.388	4733
861.521	5433
861.653	4725
861.786	4721
861.918	4744
862.05	4786
862.183	4862
862.315	4862
862.447	4946
862.58	4847
862.712	4801
862.844	4725
862.976	4881
863.108	4831
863.24	5147
863.372	4809
863.504	4919
863.636	4877
863.768	4968
863.9	4908
864.032	4896
864.164	4949
864.296	4991
864.428	5067
864.559	5064
864.691	5155
864.823	5102
864.954	5143
865.086	5121
865.217	5140
865.349	5098
865.48	5155
865.612	5140
865.743	5303
865.875	5147
866.006	5216
866.137	5220
866.269	5235
866.4	5246
866.531	5242
866.662	5189
866.793	5296
866.924	5273
867.055	5307
867.186	5296
867.317	5299
867.448	5337
867.579	5349
867.71	5307
867.841	5391
867.972	5505
868.103	5471
868.233	5490
868.364	5493
868.495	5528
868.625	5680
868.756	5813
868.886	5661
869.017	5729
869.147	5901
869.278	5794
869.408	5794
869.539	5840
869.669	5897
869.799	5870
869.929	5923
870.06	5965
870.19	6216
870.32	6167
870.45	6266
870.58	6353
870.71	6437
870.84	6475
870.97	6369
871.1	6456
871.23	6612
871.36	6646
871.489	6707
871.619	6749
871.749	6882
871.879	6867
872.008	7000
872.138	6943
872.267	7008
872.397	6985
872.526	7050
872.656	7118
872.785	7190
872.915	7331
873.044	7510
873.173	7590
873.303	7700
873.432	7670
873.561	7902
873.69	7883
873.819	7944
873.948	8142
874.077	8244
874.206	8317
874.335	8362
874.464	8716
874.593	8914
874.722	8902
874.851	9089
874.979	9253
875.108	9389
875.237	9393
875.365	9523
875.494	9610
875.623	9770
875.751	9747
875.88	9991
876.008	10124
876.136	10329
876.265	10508
876.393	10653
876.521	10771
876.65	10873
876.778	10828
876.906	10923
877.034	11041
877.162	11124
877.29	11117
877.418	11181
877.546	11330
877.674	11463
877.802	11505
877.93	11512
878.058	11577
878.185	11505
878.313	11653
878.441	11805
878.568	11577
878.696	11775
878.824	11847
878.951	11923
879.079	12015
879.206	12266
879.333	12003
879.461	11901
879.588	12091
879.715	12076
879.842	12167
879.97	11999
880.097	11935
880.224	11889
880.351	11908
880.478	11870
880.605	11885
880.732	11809
880.859	11897
880.986	11802
881.112	11863
881.239	11722
881.366	11726
881.493	11630
881.619	11646
881.746	11577
881.872	11585
881.999	11455
882.125	11528
882.252	11547
882.378	11524
882.505	11528
882.631	11406
882.757	11288
882.883	11273
883.01	11212
883.136	11208
883.262	11227
883.388	11022
883.514	11197
883.64	11140
883.766	11178
883.892	11090
884.018	10942
884.143	11029
884.269	11124
884.395	10869
884.52	10786
884.646	10820
884.772	10656
884.897	10637
885.023	10782
885.148	10714
885.274	10634
885.399	10672
885.524	10622
885.65	10577
885.775	10474
885.9	10474
886.025	10497
886.15	10538
886.275	10493
886.4	10352
886.525	10314
886.65	10261
886.775	10318
886.9	10428
887.025	10599
887.149	10348
887.274	10169
887.399	10223
887.523	10124
887.648	10124
887.773	10116
887.897	10234
888.021	10299
888.146	10154
888.27	10204
888.395	10150
888.519	10173
888.643	10192
888.767	10204
888.891	10071
889.015	9975
889.139	10013
889.263	9972
889.387	10006
889.511	10112
889.635	9998
889.759	9949
889.883	9930
890.006	9975
890.13	10059
890.254	9956
890.377	9941
890.501	9915
890.624	9846
890.748	9816
890.871	9732
890.995	9740
891.118	9728
891.241	9743
891.364	9740
891.488	9800
891.611	9648
891.734	9728
891.857	9827
891.98	9709
892.103	9778
892.226	9705
892.349	9698
892.471	9530
892.594	9644
892.717	9648
892.839	9629
892.962	9530
893.085	9606
893.207	9561
893.33	9523
893.452	9515
893.575	9587
893.697	9545
893.819	9641
893.941	9606
894.064	9580
894.186	9500
894.308	9397
894.43	9473
894.552	9557
894.674	9500
894.796	9397
894.918	9439
895.04	9321
895.161	9329
895.283	9336
895.405	9176
895.526	9321
895.648	9184
895.769	9188
895.891	9253
896.012	9245
896.134	9188
896.255	9055
896.376	9161
896.498	9203
896.619	9142
896.74	9161
896.861	9081
896.982	9298
897.103	9344
897.224	9192
897.345	9123
897.466	9058
897.587	9013
897.708	9154
897.828	9077
897.949	8876
898.07	8891
898.19	8952
898.311	8891
898.431	8921
898.552	8906
898.672	9024
898.792	8921
898.913	8899
899.033	8796
899.153	8796
899.273	8720
899.393	8792
899.513	8716
899.633	8766
899.753	8693
899.873	8708
899.993	8678
900.113	8651
900.232	8708
900.352	8670
900.472	8625
900.591	8556
900.711	8583
900.83	8545
900.95	8670
901.069	8708
901.189	8571
901.308	8427
901.427	8358
901.546	8419
901.665	8461
901.784	8488
901.904	8404
902.023	8267
902.141	8187
902.26	8161
902.379	8259
902.498	8199
902.617	8221
902.735	8332
902.854	8275
902.973	8252
903.091	8111
903.21	8119
903.328	8134
903.446	8115
903.565	8016
903.683	8088
903.801	8016
903.919	8176
904.038	8145
904.156	8096
904.274	8088
904.392	8073
904.51	8039
904.627	8077
904.745	8016
904.863	8073
904.981	7906
905.098	7921
905.216	7879
905.334	7898
905.451	7898
905.569	7860
905.686	7921
905.803	7902
905.921	7757
906.038	7841
906.155	7742
906.272	7681
906.389	7658
906.506	7594
906.623	7647
906.74	7670
906.857	7499
906.974	7632
907.091	7734
907.208	7708
907.324	7597
907.441	7571
907.557	7419
907.674	7487
907.79	7362
907.907	7426
908.023	7468
908.139	7415
908.256	7403
908.372	7293
908.488	7297
908.604	7236
908.72	7240
908.836	7266
908.952	7228
909.068	7312
909.184	7289
909.3	7259
909.415	7316
909.531	7247
909.647	7110
909.762	7072
909.878	7076
909.993	7202
910.108	7076
910.224	7084
910.339	7080
910.454	7038
910.57	7034
910.685	6916
910.8	7160
910.915	7133
911.03	7053
911.145	6837
911.259	6840
911.374	6818
911.489	6779
911.604	6791
911.718	6730
911.833	6783
911.947	6662
912.062	6566
912.176	6662
912.291	6776
912.405	6707
912.519	6798
912.633	6802
912.748	6696
912.862	6662
912.976	6612
913.09	6532
913.204	6574
913.318	6635
913.431	6684
913.545	6665
913.659	6719
913.772	6692
913.886	6506
914	6589
914.113	6601
914.226	6658
914.34	6612
914.453	6506
914.566	6612
914.68	6517
914.793	6506
914.906	6365
915.019	6414
915.132	6437
915.245	6452
915.358	6426
915.47	6391
915.583	6448
915.696	6483
915.809	6479
915.921	6494
916.034	6452
916.146	6395
916.259	6342
916.371	6502
916.483	6475
916.595	6369
916.708	6429
916.82	6353
916.932	6350
917.044	6350
917.156	6403
917.268	6323
917.38	6403
917.491	6304
917.603	6342
917.715	6403
917.826	6407
917.938	6319
918.049	6209
918.161	6388
918.272	6414
918.384	6426
918.495	6353
918.606	6258
918.717	6194
918.828	6216
918.939	6262
919.05	6178
919.161	6228
919.272	6114
919.383	6171
919.494	6319
919.604	6403
919.715	6254
919.826	6171
919.936	6205
920.047	6327
920.157	6277
920.267	6448
920.378	6311
920.488	6262
920.598	6513
920.708	6585
920.818	6452
920.928	6460
921.038	6631
921.148	6582
921.258	6353
921.368	6308
921.477	6159
921.587	6209
921.697	6068
921.806	6167
921.916	6053
922.025	5931
922.134	5901
922.244	5851
922.353	5923
922.462	5824
922.571	5779
922.68	5684
922.789	5680
922.898	5684
923.007	5649
923.116	5722
923.224	5691
923.333	5619
923.442	5581
923.55	5558
923.659	5577
923.767	5676
923.876	5501
923.984	5589
924.092	5539
924.201	5532
924.309	5573
924.417	5535
924.525	5505
924.633	5539
924.741	6224
924.849	5406
924.956	5463
925.064	5357
925.172	5269
925.279	5296
925.387	5349
925.494	5360
925.602	5455
925.709	5315
925.816	5330
925.924	5299
926.031	5326
926.138	5242
926.245	5311
926.352	5178
926.459	5330
926.566	5292
926.673	5227
926.779	5117
926.886	5075
926.993	5090
927.099	5006
927.206	4938
927.312	4942
927.419	5045
927.525	4987
927.631	4972
927.737	4889
927.843	4889
927.95	4763
928.056	4759
928.162	4805
928.267	4793
928.373	5303
928.479	4858
928.585	4649
928.69	4771
928.796	4736
928.901	4672
929.007	4592
929.112	4637
929.218	4706
929.323	4603
929.428	4558
929.533	4679
929.638	4516
929.743	4519
929.848	4554
929.953	4500
930.058	4424
930.163	4299
930.267	4337
930.372	4428
930.477	4322
930.581	4421
930.685	4337
930.79	4238
930.894	4261
930.998	4204
931.103	4379
931.207	4109
931.311	4101
931.415	4017
931.519	3949
931.623	3934
