Data from glass_V78500241_2012.txt Node
Date: Wed Sep 01 19:28:26 CST 2021
User: usil
Spectrometer: V785-0024
Trigger mode: 0
Integration Time (sec): 4.000000E-1
Scans to average: 1
Nonlinearity correction enabled: false
Boxcar width: 0
Storing dark spectrum: false
XAxis mode: Wavelengths
Number of Pixels in Spectrum: 1024
>>>>>Begin Spectral Data<<<<<
801.071	3732
801.214	3781
801.356	3751
801.499	3720
801.641	3740
801.783	3766
801.926	3823
802.068	3827
802.211	3854
802.353	3873
802.496	3808
802.638	3880
802.78	3922
802.923	3915
803.065	3884
803.208	3846
803.35	3846
803.492	3896
803.635	3926
803.777	3823
803.919	3884
804.061	4150
804.204	3991
804.346	3941
804.488	3911
804.63	4017
804.773	3994
804.915	4021
805.057	4097
805.199	4010
805.341	4078
805.483	4128
805.626	4143
805.768	4090
805.91	4219
806.052	4246
806.194	4204
806.336	4367
806.478	4238
806.62	4192
806.762	4177
806.904	4253
807.046	4299
807.188	4207
807.33	4162
807.472	4230
807.614	4181
807.756	4242
807.898	4211
808.04	4219
808.182	4291
808.324	4276
808.465	4363
808.607	4459
808.749	4466
808.891	4459
809.033	4497
809.174	4398
809.316	4261
809.458	4253
809.6	4097
809.741	4147
809.883	4090
810.025	4211
810.166	4177
810.308	4261
810.45	4223
810.591	4249
810.733	4306
810.875	4519
811.016	4801
811.158	5155
811.299	5299
811.441	5273
811.582	4999
811.724	4698
811.865	4413
812.007	4424
812.148	4405
812.29	4409
812.431	4417
812.573	4383
812.714	4375
812.855	4375
812.997	4390
813.138	4470
813.279	4436
813.421	4402
813.562	4352
813.703	4272
813.845	4318
813.986	4344
814.127	4242
814.268	4230
814.41	4322
814.551	4234
814.692	4272
814.833	4253
814.974	4287
815.115	4310
815.256	4215
815.397	4219
815.539	4238
815.68	4188
815.821	4139
815.962	4348
816.103	4234
816.244	4238
816.385	4230
816.526	4272
816.666	4200
816.807	4086
816.948	4173
817.089	4154
817.23	4131
817.371	4059
817.512	4097
817.653	4071
817.793	4055
817.934	4116
818.075	4063
818.216	4093
818.356	4093
818.497	3972
818.638	3888
818.778	3884
818.919	3907
819.06	3876
819.2	3915
819.341	3835
819.481	3819
819.622	3888
819.762	4029
819.903	3968
820.043	3846
820.184	3835
820.324	3800
820.465	3899
820.605	3911
820.746	3800
820.886	3819
821.026	3960
821.167	3918
821.307	3991
821.447	3956
821.588	3918
821.728	3949
821.868	3880
822.008	3876
822.149	3934
822.289	3899
822.429	3781
822.569	3793
822.709	3838
822.849	3686
822.99	3720
823.13	3759
823.27	3732
823.41	3713
823.55	3755
823.69	3701
823.83	3690
823.97	3671
824.11	3584
824.25	3561
824.389	3629
824.529	3633
824.669	3610
824.809	3736
824.949	3705
825.089	3774
825.228	3690
825.368	3561
825.508	3557
825.648	3557
825.787	3576
825.927	3648
826.067	3667
826.206	3663
826.346	3774
826.485	3831
826.625	3846
826.765	3972
826.904	3846
827.044	3580
827.183	3500
827.323	3439
827.462	3485
827.601	3416
827.741	3450
827.88	3458
828.02	3355
828.159	3428
828.298	3462
828.437	3545
828.577	3450
828.716	3618
828.855	3454
828.994	3340
829.134	3359
829.273	3382
829.412	3306
829.551	3329
829.69	3355
829.829	3447
829.968	3507
830.107	3428
830.246	3439
830.385	3351
830.524	3332
830.663	3279
830.802	3249
830.941	3176
831.08	3173
831.219	3253
831.357	3230
831.496	3405
831.635	3256
831.774	3176
831.913	3199
832.051	3085
832.19	3146
832.329	3199
832.467	3131
832.606	3085
832.744	3192
832.883	3199
833.022	3192
833.16	3241
833.299	3272
833.437	3344
833.576	3340
833.714	3389
833.852	3420
833.991	3428
834.129	3477
834.267	3428
834.406	3420
834.544	3439
834.682	3435
834.821	3340
834.959	3549
835.097	3439
835.235	3492
835.373	3507
835.511	3515
835.65	3447
835.788	3500
835.926	3424
836.064	3370
836.202	3389
836.34	3561
836.478	3644
836.615	3519
836.753	3606
836.891	3644
837.029	3572
837.167	3572
837.305	3568
837.443	3538
837.58	3526
837.718	3622
837.856	3523
837.993	3481
838.131	3599
838.269	3553
838.406	3614
838.544	3572
838.681	3477
838.819	3450
838.956	3348
839.094	3378
839.231	3435
839.369	3481
839.506	3671
839.643	3633
839.781	3511
839.918	3447
840.055	3526
840.193	3511
840.33	3504
840.467	3534
840.604	3553
840.742	3785
840.879	3526
841.016	3603
841.153	3572
841.29	3743
841.427	3743
841.564	3686
841.701	3709
841.838	3682
841.975	3701
842.112	3690
842.249	3637
842.385	3652
842.522	3838
842.659	3694
842.796	3679
842.933	3686
843.069	3701
843.206	3717
843.343	3800
843.479	3766
843.616	3808
843.752	3637
843.889	3675
844.025	3861
844.162	3713
844.298	3819
844.435	3781
844.571	3770
844.708	3892
844.844	3994
844.98	3991
845.117	4025
845.253	3960
845.389	3888
845.525	3960
845.661	3964
845.798	3930
845.934	3964
846.07	3975
846.206	4055
846.342	4059
846.478	4040
846.614	3949
846.75	3941
846.886	3899
847.022	4002
847.158	3979
847.294	4006
847.429	4048
847.565	3972
847.701	4257
847.837	3888
847.972	3865
848.108	3964
848.244	3953
848.379	3812
848.515	3861
848.65	3819
848.786	3793
848.921	3835
849.057	3907
849.192	3934
849.328	3907
849.463	3915
849.598	3869
849.734	3873
849.869	3808
850.004	3797
850.14	3823
850.275	3762
850.41	3747
850.545	3774
850.68	3755
850.815	3781
850.95	3831
851.085	3918
851.22	3857
851.355	3797
851.49	3785
851.625	3751
851.76	3793
851.895	3690
852.03	3698
852.165	3789
852.299	3819
852.434	3869
852.569	3838
852.703	3854
852.838	3915
852.973	3975
853.107	3934
853.242	3930
853.376	3873
853.511	3736
853.645	3850
853.78	3960
853.914	3896
854.048	3854
854.183	3857
854.317	3994
854.451	4048
854.585	3899
854.72	3896
854.854	4067
854.988	3911
855.122	3979
855.256	3956
855.39	4036
855.524	4120
855.658	4044
855.792	4101
855.926	4105
856.06	4124
856.194	4188
856.327	4169
856.461	4078
856.595	4135
856.729	4169
856.862	4280
856.996	4223
857.13	4291
857.263	4333
857.397	4344
857.53	4249
857.664	4333
857.797	4314
857.931	4405
858.064	4386
858.197	4379
858.331	4379
858.464	4383
858.597	4367
858.731	4432
858.864	4459
858.997	4459
859.13	4462
859.263	4512
859.396	4592
859.529	4474
859.662	4542
859.795	4485
859.928	4607
860.061	4679
860.194	4778
860.327	4702
860.46	4668
860.592	4729
860.725	4778
860.858	4733
860.99	4710
861.123	4660
861.256	4725
861.388	4778
861.521	5406
861.653	4759
861.786	4706
861.918	4771
862.05	4774
862.183	4801
862.315	4889
862.447	4930
862.58	4904
862.712	4812
862.844	4805
862.976	4858
863.108	4862
863.24	5166
863.372	4820
863.504	4873
863.636	4892
863.768	4987
863.9	4957
864.032	4934
864.164	4942
864.296	5075
864.428	5067
864.559	5079
864.691	5105
864.823	5102
864.954	5136
865.086	5151
865.217	5159
865.349	5155
865.48	5147
865.612	5189
865.743	5296
865.875	5197
866.006	5189
866.137	5197
866.269	5235
866.4	5254
866.531	5235
866.662	5242
866.793	5250
866.924	5307
867.055	5322
867.186	5280
867.317	5383
867.448	5318
867.579	5360
867.71	5429
867.841	5391
867.972	5463
868.103	5471
868.233	5512
868.364	5486
868.495	5516
868.625	5623
868.756	5786
868.886	5707
869.017	5718
869.147	5855
869.278	5893
869.408	5790
869.539	5813
869.669	5889
869.799	5908
869.929	5996
870.06	6026
870.19	6251
870.32	6175
870.45	6201
870.58	6262
870.71	6452
870.84	6445
870.97	6422
871.1	6372
871.23	6620
871.36	6673
871.489	6627
871.619	6764
871.749	6818
871.879	6848
872.008	6935
872.138	7012
872.267	6939
872.397	6985
872.526	7038
872.656	7141
872.785	7187
872.915	7384
873.044	7499
873.173	7525
873.303	7639
873.432	7727
873.561	7830
873.69	7955
873.819	7955
873.948	8123
874.077	8191
874.206	8351
874.335	8385
874.464	8686
874.593	8887
874.722	8876
874.851	9127
874.979	9173
875.108	9386
875.237	9443
875.365	9519
875.494	9591
875.623	9831
875.751	9846
875.88	9998
876.008	10143
876.136	10234
876.265	10478
876.393	10733
876.521	10748
876.65	10801
876.778	10900
876.906	10892
877.034	10984
877.162	11109
877.29	11143
877.418	11277
877.546	11379
877.674	11410
877.802	11414
877.93	11486
878.058	11543
878.185	11604
878.313	11608
878.441	11779
878.568	11619
878.696	11752
878.824	11897
878.951	11927
879.079	12095
879.206	12064
879.333	12053
879.461	12022
879.588	11992
879.715	11965
879.842	12144
879.97	12057
880.097	11889
880.224	11878
880.351	11866
880.478	11942
880.605	11813
880.732	11764
880.859	11980
880.986	11790
881.112	11885
881.239	11805
881.366	11703
881.493	11642
881.619	11554
881.746	11551
881.872	11452
881.999	11535
882.125	11535
882.252	11577
882.378	11482
882.505	11509
882.631	11364
882.757	11288
882.883	11402
883.01	11303
883.136	11185
883.262	11071
883.388	11071
883.514	11132
883.64	11155
883.766	11151
883.892	10995
884.018	10961
884.143	11067
884.269	11086
884.395	10812
884.52	10812
884.646	10797
884.772	10725
884.897	10641
885.023	10592
885.148	10618
885.274	10759
885.399	10660
885.524	10592
885.65	10615
885.775	10588
885.9	10607
886.025	10584
886.15	10462
886.275	10421
886.4	10325
886.525	10466
886.65	10413
886.775	10303
886.9	10535
887.025	10428
887.149	10356
887.274	10257
887.399	10135
887.523	10188
887.648	10154
887.773	10150
887.897	10265
888.021	10215
888.146	10124
888.27	10280
888.395	10234
888.519	10234
888.643	10090
888.767	10188
888.891	9991
889.015	10071
889.139	10063
889.263	10059
889.387	10071
889.511	10055
889.635	10006
889.759	9953
889.883	9953
890.006	9972
890.13	10128
890.254	9987
890.377	9892
890.501	9819
890.624	9899
890.748	9857
890.871	9804
890.995	9656
891.118	9698
891.241	9785
891.364	9701
891.488	9857
891.611	9740
891.734	9736
891.857	9808
891.98	9755
892.103	9816
892.226	9656
892.349	9694
892.471	9515
892.594	9618
892.717	9584
892.839	9576
892.962	9576
893.085	9637
893.207	9610
893.33	9500
893.452	9462
893.575	9618
893.697	9519
893.819	9572
893.941	9644
894.064	9603
894.186	9412
894.308	9382
894.43	9519
894.552	9561
894.674	9485
894.796	9370
894.918	9405
895.04	9367
895.161	9370
895.283	9260
895.405	9241
895.526	9218
895.648	9237
895.769	9275
895.891	9272
896.012	9272
896.134	9195
896.255	9165
896.376	9161
896.498	9093
896.619	9062
896.74	9097
896.861	9097
896.982	9283
897.103	9275
897.224	9138
897.345	9001
897.466	8967
897.587	9001
897.708	9058
897.828	9013
897.949	8902
898.07	8868
898.19	8914
898.311	8975
898.431	9024
898.552	9005
898.672	9005
898.792	8876
898.913	8876
899.033	8853
899.153	8746
899.273	8610
899.393	8735
899.513	8705
899.633	8701
899.753	8739
899.873	8689
899.993	8781
900.113	8724
900.232	8667
900.352	8621
900.472	8541
900.591	8606
900.711	8530
900.83	8621
900.95	8648
901.069	8712
901.189	8552
901.308	8408
901.427	8404
901.546	8457
901.665	8400
901.784	8556
901.904	8366
902.023	8298
902.141	8206
902.26	8180
902.379	8320
902.498	8221
902.617	8252
902.735	8256
902.854	8214
902.973	8267
903.091	8115
903.21	8100
903.328	8180
903.446	8123
903.565	8115
903.683	8096
903.801	8153
903.919	8157
904.038	8126
904.156	8050
904.274	8046
904.392	8050
904.51	8065
904.627	8065
904.745	8103
904.863	8100
904.981	7898
905.098	7788
905.216	7932
905.334	7864
905.451	7856
905.569	7856
905.686	7967
905.803	7917
905.921	7761
906.038	7795
906.155	7788
906.272	7689
906.389	7765
906.506	7643
906.623	7605
906.74	7628
906.857	7518
906.974	7590
907.091	7674
907.208	7677
907.324	7601
907.441	7567
907.557	7468
907.674	7441
907.79	7407
907.907	7411
908.023	7441
908.139	7460
908.256	7407
908.372	7381
908.488	7339
908.604	7244
908.72	7175
908.836	7255
908.952	7221
909.068	7263
909.184	7282
909.3	7293
909.415	7274
909.531	7308
909.647	7095
909.762	7126
909.878	7099
909.993	7141
910.108	7110
910.224	7118
910.339	7103
910.454	7019
910.57	6989
910.685	6977
910.8	7095
910.915	7126
911.03	7038
911.145	6856
911.259	6882
911.374	6856
911.489	6916
911.604	6829
911.718	6692
911.833	6719
911.947	6620
912.062	6566
912.176	6715
912.291	6662
912.405	6753
912.519	6802
912.633	6859
912.748	6719
912.862	6741
912.976	6631
913.09	6506
913.204	6566
913.318	6608
913.431	6627
913.545	6650
913.659	6688
913.772	6642
913.886	6551
914	6582
914.113	6684
914.226	6616
914.34	6639
914.453	6517
914.566	6627
914.68	6509
914.793	6513
914.906	6414
915.019	6471
915.132	6376
915.245	6399
915.358	6403
915.47	6475
915.583	6467
915.696	6494
915.809	6540
915.921	6570
916.034	6433
916.146	6448
916.259	6407
916.371	6540
916.483	6422
916.595	6433
916.708	6456
916.82	6380
916.932	6372
917.044	6369
917.156	6395
917.268	6353
917.38	6414
917.491	6311
917.603	6353
917.715	6403
917.826	6490
917.938	6296
918.049	6262
918.161	6289
918.272	6426
918.384	6357
918.495	6369
918.606	6247
918.717	6167
918.828	6331
918.939	6277
919.05	6243
919.161	6247
919.272	6087
919.383	6125
919.494	6251
919.604	6448
919.715	6319
919.826	6228
919.936	6266
920.047	6304
920.157	6232
920.267	6502
920.378	6350
920.488	6266
920.598	6467
920.708	6551
920.818	6494
920.928	6456
921.038	6604
921.148	6574
921.258	6353
921.368	6262
921.477	6182
921.587	6175
921.697	6110
921.806	6182
921.916	6019
922.025	5939
922.134	5950
922.244	5866
922.353	5950
922.462	5809
922.571	5794
922.68	5684
922.789	5657
922.898	5657
923.007	5649
923.116	5653
923.224	5710
923.333	5653
923.442	5592
923.55	5566
923.659	5596
923.767	5623
923.876	5524
923.984	5627
924.092	5512
924.201	5585
924.309	5577
924.417	5505
924.525	5482
924.633	5501
924.741	6292
924.849	5357
924.956	5486
925.064	5372
925.172	5318
925.279	5326
925.387	5368
925.494	5364
925.602	5353
925.709	5337
925.816	5277
925.924	5277
926.031	5402
926.138	5288
926.245	5368
926.352	5178
926.459	5303
926.566	5315
926.673	5162
926.779	5105
926.886	5136
926.993	5029
927.099	5022
927.206	4953
927.312	4934
927.419	5018
927.525	5022
927.631	4976
927.737	4896
927.843	4831
927.95	4767
928.056	4786
928.162	4812
928.267	4828
928.373	5242
928.479	4816
928.585	4679
928.69	4752
928.796	4805
928.901	4748
929.007	4630
929.112	4664
929.218	4630
929.323	4554
929.428	4550
929.533	4656
929.638	4508
929.743	4497
929.848	4531
929.953	4508
930.058	4459
930.163	4268
930.267	4367
930.372	4440
930.477	4318
930.581	4481
930.685	4325
930.79	4249
930.894	4314
930.998	4265
931.103	4352
931.207	4128
931.311	4059
931.415	4036
931.519	3876
931.623	3934
