Data from glass_V78500241_1407.txt Node
Date: Wed Sep 01 19:24:15 CST 2021
User: usil
Spectrometer: V785-0024
Trigger mode: 0
Integration Time (sec): 4.000000E-1
Scans to average: 1
Nonlinearity correction enabled: false
Boxcar width: 0
Storing dark spectrum: false
XAxis mode: Wavelengths
Number of Pixels in Spectrum: 1024
>>>>>Begin Spectral Data<<<<<
801.071	3728
801.214	3770
801.356	3713
801.499	3728
801.641	3736
801.783	3778
801.926	3880
802.068	3854
802.211	3819
802.353	3876
802.496	3800
802.638	3892
802.78	3896
802.923	3934
803.065	3869
803.208	3888
803.35	3861
803.492	3861
803.635	3930
803.777	3816
803.919	3911
804.061	4215
804.204	3968
804.346	3937
804.488	3937
804.63	4063
804.773	3949
804.915	4067
805.057	4128
805.199	4074
805.341	4090
805.483	4166
805.626	4120
805.768	4166
805.91	4200
806.052	4257
806.194	4185
806.336	4325
806.478	4215
806.62	4192
806.762	4234
806.904	4227
807.046	4329
807.188	4230
807.33	4158
807.472	4249
807.614	4192
807.756	4249
807.898	4196
808.04	4234
808.182	4265
808.324	4299
808.465	4344
808.607	4481
808.749	4432
808.891	4474
809.033	4485
809.174	4409
809.316	4249
809.458	4291
809.6	4158
809.741	4120
809.883	4150
810.025	4173
810.166	4223
810.308	4242
810.45	4211
810.591	4223
810.733	4295
810.875	4535
811.016	4786
811.158	5121
811.299	5265
811.441	5288
811.582	5071
811.724	4698
811.865	4440
812.007	4489
812.148	4455
812.29	4447
812.431	4390
812.573	4459
812.714	4344
812.855	4424
812.997	4383
813.138	4474
813.279	4405
813.421	4405
813.562	4379
813.703	4329
813.845	4329
813.986	4268
814.127	4215
814.268	4223
814.41	4261
814.551	4268
814.692	4303
814.833	4299
814.974	4287
815.115	4318
815.256	4246
815.397	4215
815.539	4223
815.68	4158
815.821	4223
815.962	4272
816.103	4238
816.244	4246
816.385	4249
816.526	4284
816.666	4215
816.807	4143
816.948	4169
817.089	4185
817.23	4154
817.371	4067
817.512	4059
817.653	4074
817.793	4010
817.934	4036
818.075	4109
818.216	4074
818.356	4082
818.497	3994
818.638	3888
818.778	3903
818.919	3876
819.06	3865
819.2	3911
819.341	3884
819.481	3846
819.622	3888
819.762	4040
819.903	3922
820.043	3888
820.184	3831
820.324	3808
820.465	3884
820.605	3873
820.746	3861
820.886	3774
821.026	3949
821.167	3884
821.307	3964
821.447	3998
821.588	3922
821.728	3907
821.868	3915
822.008	3854
822.149	3903
822.289	3892
822.429	3759
822.569	3762
822.709	3816
822.849	3694
822.99	3732
823.13	3720
823.27	3812
823.41	3709
823.55	3732
823.69	3724
823.83	3774
823.97	3682
824.11	3599
824.25	3587
824.389	3637
824.529	3686
824.669	3637
824.809	3690
824.949	3759
825.089	3728
825.228	3732
825.368	3610
825.508	3538
825.648	3618
825.787	3603
825.927	3637
826.067	3614
826.206	3648
826.346	3823
826.485	3835
826.625	3876
826.765	3949
826.904	3812
827.044	3633
827.183	3549
827.323	3412
827.462	3469
827.601	3439
827.741	3431
827.88	3477
828.02	3405
828.159	3416
828.298	3504
828.437	3538
828.577	3481
828.716	3595
828.855	3469
828.994	3393
829.134	3313
829.273	3355
829.412	3344
829.551	3363
829.69	3386
829.829	3458
829.968	3519
830.107	3401
830.246	3439
830.385	3378
830.524	3370
830.663	3283
830.802	3264
830.941	3203
831.08	3188
831.219	3268
831.357	3260
831.496	3397
831.635	3230
831.774	3203
831.913	3230
832.051	3123
832.19	3116
832.329	3233
832.467	3165
832.606	3112
832.744	3173
832.883	3203
833.022	3218
833.16	3253
833.299	3302
833.437	3355
833.576	3363
833.714	3405
833.852	3393
833.991	3469
834.129	3485
834.267	3443
834.406	3355
834.544	3462
834.682	3466
834.821	3389
834.959	3557
835.097	3443
835.235	3542
835.373	3450
835.511	3507
835.65	3431
835.788	3485
835.926	3397
836.064	3374
836.202	3409
836.34	3587
836.478	3591
836.615	3564
836.753	3587
836.891	3629
837.029	3637
837.167	3545
837.305	3610
837.443	3568
837.58	3534
837.718	3587
837.856	3561
837.993	3553
838.131	3580
838.269	3603
838.406	3572
838.544	3557
838.681	3473
838.819	3462
838.956	3382
839.094	3428
839.231	3443
839.369	3515
839.506	3759
839.643	3629
839.781	3492
839.918	3466
840.055	3530
840.193	3557
840.33	3523
840.467	3584
840.604	3633
840.742	3793
840.879	3557
841.016	3564
841.153	3584
841.29	3740
841.427	3724
841.564	3732
841.701	3766
841.838	3663
841.975	3675
842.112	3762
842.249	3629
842.385	3641
842.522	3819
842.659	3690
842.796	3667
842.933	3732
843.069	3705
843.206	3682
843.343	3819
843.479	3728
843.616	3838
843.752	3724
843.889	3701
844.025	3838
844.162	3720
844.298	3899
844.435	3812
844.571	3800
844.708	3892
844.844	3972
844.98	4013
845.117	4010
845.253	3953
845.389	3892
845.525	3975
845.661	3953
845.798	3888
845.934	4010
846.07	4013
846.206	4074
846.342	4055
846.478	4071
846.614	3979
846.75	3930
846.886	3915
847.022	4059
847.158	3998
847.294	4013
847.429	4021
847.565	3975
847.701	4268
847.837	3854
847.972	3861
848.108	4032
848.244	3972
848.379	3869
848.515	3831
848.65	3816
848.786	3842
848.921	3865
849.057	3972
849.192	3930
849.328	3892
849.463	3911
849.598	3873
849.734	3876
849.869	3842
850.004	3774
850.14	3865
850.275	3781
850.41	3732
850.545	3736
850.68	3793
850.815	3793
850.95	3793
851.085	3975
851.22	3899
851.355	3808
851.49	3816
851.625	3816
851.76	3778
851.895	3759
852.03	3759
852.165	3831
852.299	3865
852.434	3880
852.569	3869
852.703	3903
852.838	3884
852.973	3994
853.107	3987
853.242	3903
853.376	3854
853.511	3808
853.645	3797
853.78	3941
853.914	3865
854.048	3915
854.183	3880
854.317	3960
854.451	4036
854.585	3918
854.72	3972
854.854	4021
854.988	3972
855.122	4006
855.256	3926
855.39	4036
855.524	4120
855.658	4093
855.792	4147
855.926	4158
856.06	4177
856.194	4238
856.327	4128
856.461	4109
856.595	4158
856.729	4162
856.862	4265
856.996	4265
857.13	4291
857.263	4341
857.397	4386
857.53	4291
857.664	4344
857.797	4379
857.931	4451
858.064	4424
858.197	4428
858.331	4363
858.464	4398
858.597	4318
858.731	4470
858.864	4455
858.997	4436
859.13	4489
859.263	4523
859.396	4599
859.529	4538
859.662	4561
859.795	4550
859.928	4622
860.061	4691
860.194	4721
860.327	4656
860.46	4622
860.592	4790
860.725	4767
860.858	4752
860.99	4710
861.123	4672
861.256	4744
861.388	4774
861.521	5318
861.653	4710
861.786	4767
861.918	4744
862.05	4763
862.183	4847
862.315	4850
862.447	4889
862.58	4904
862.712	4752
862.844	4801
862.976	4839
863.108	4896
863.24	5181
863.372	4831
863.504	4900
863.636	4854
863.768	5006
863.9	4972
864.032	4923
864.164	4980
864.296	5041
864.428	5075
864.559	5064
864.691	5102
864.823	5109
864.954	5098
865.086	5178
865.217	5162
865.349	5064
865.48	5136
865.612	5212
865.743	5326
865.875	5235
866.006	5201
866.137	5269
866.269	5227
866.4	5235
866.531	5246
866.662	5258
866.793	5242
866.924	5311
867.055	5360
867.186	5353
867.317	5360
867.448	5269
867.579	5368
867.71	5364
867.841	5357
867.972	5501
868.103	5452
868.233	5482
868.364	5471
868.495	5512
868.625	5691
868.756	5786
868.886	5627
869.017	5741
869.147	5836
869.278	5832
869.408	5832
869.539	5840
869.669	5923
869.799	5920
869.929	6030
870.06	5992
870.19	6224
870.32	6175
870.45	6285
870.58	6376
870.71	6414
870.84	6479
870.97	6422
871.1	6441
871.23	6623
871.36	6719
871.489	6582
871.619	6730
871.749	6814
871.879	6844
872.008	6973
872.138	6981
872.267	7023
872.397	7034
872.526	7004
872.656	7053
872.785	7194
872.915	7369
873.044	7518
873.173	7578
873.303	7655
873.432	7727
873.561	7814
873.69	7917
873.819	7955
873.948	8081
874.077	8233
874.206	8279
874.335	8476
874.464	8579
874.593	8834
874.722	8906
874.851	9142
874.979	9173
875.108	9401
875.237	9458
875.365	9538
875.494	9736
875.623	9827
875.751	9831
875.88	10040
876.008	10131
876.136	10322
876.265	10485
876.393	10717
876.521	10679
876.65	10801
876.778	10812
876.906	10889
877.034	10938
877.162	11128
877.29	11185
877.418	11292
877.546	11307
877.674	11474
877.802	11398
877.93	11512
878.058	11562
878.185	11528
878.313	11703
878.441	11771
878.568	11646
878.696	11775
878.824	11878
878.951	11889
879.079	12053
879.206	12155
879.333	12072
879.461	11923
879.588	12098
879.715	12049
879.842	12292
879.97	12045
880.097	11874
880.224	11912
880.351	11908
880.478	11843
880.605	11897
880.732	11923
880.859	12022
880.986	11813
881.112	11809
881.239	11821
881.366	11676
881.493	11611
881.619	11520
881.746	11592
881.872	11596
881.999	11551
882.125	11467
882.252	11585
882.378	11516
882.505	11646
882.631	11349
882.757	11227
882.883	11353
883.01	11284
883.136	11227
883.262	11136
883.388	11098
883.514	11223
883.64	11151
883.766	11117
883.892	10976
884.018	10942
884.143	11079
884.269	11170
884.395	10828
884.52	10805
884.646	10774
884.772	10763
884.897	10615
885.023	10744
885.148	10691
885.274	10869
885.399	10698
885.524	10622
885.65	10611
885.775	10645
885.9	10565
886.025	10584
886.15	10516
886.275	10493
886.4	10440
886.525	10367
886.65	10352
886.775	10344
886.9	10443
887.025	10508
887.149	10379
887.274	10249
887.399	10147
887.523	10242
887.648	10162
887.773	10131
887.897	10185
888.021	10257
888.146	10128
888.27	10230
888.395	10230
888.519	10135
888.643	10135
888.767	10204
888.891	10116
889.015	9991
889.139	10101
889.263	9998
889.387	9987
889.511	10143
889.635	10086
889.759	9918
889.883	9987
890.006	10055
890.13	10086
890.254	9945
890.377	10036
890.501	9888
890.624	9865
890.748	9884
890.871	9789
890.995	9740
891.118	9667
891.241	9759
891.364	9732
891.488	9812
891.611	9644
891.734	9781
891.857	9770
891.98	9743
892.103	9770
892.226	9724
892.349	9679
892.471	9545
892.594	9633
892.717	9580
892.839	9568
892.962	9644
893.085	9591
893.207	9622
893.33	9500
893.452	9576
893.575	9603
893.697	9507
893.819	9618
893.941	9660
894.064	9572
894.186	9466
894.308	9382
894.43	9534
894.552	9549
894.674	9477
894.796	9386
894.918	9405
895.04	9313
895.161	9359
895.283	9389
895.405	9245
895.526	9268
895.648	9260
895.769	9199
895.891	9230
896.012	9264
896.134	9176
896.255	9161
896.376	9097
896.498	9123
896.619	9123
896.74	9028
896.861	9020
896.982	9233
897.103	9321
897.224	9176
897.345	9165
897.466	9032
897.587	8979
897.708	9108
897.828	9017
897.949	8902
898.07	8883
898.19	8956
898.311	8967
898.431	8941
898.552	8937
898.672	8998
898.792	8975
898.913	8872
899.033	8868
899.153	8731
899.273	8636
899.393	8708
899.513	8739
899.633	8762
899.753	8754
899.873	8674
899.993	8769
900.113	8712
900.232	8640
900.352	8636
900.472	8541
900.591	8495
900.711	8571
900.83	8507
900.95	8693
901.069	8701
901.189	8537
901.308	8393
901.427	8457
901.546	8434
901.665	8507
901.784	8488
901.904	8408
902.023	8275
902.141	8229
902.26	8225
902.379	8263
902.498	8187
902.617	8233
902.735	8336
902.854	8275
902.973	8279
903.091	8145
903.21	8123
903.328	8183
903.446	8100
903.565	8031
903.683	8073
903.801	8020
903.919	8183
904.038	8153
904.156	8100
904.274	8016
904.392	8043
904.51	8024
904.627	8046
904.745	8092
904.863	8092
904.981	7974
905.098	7864
905.216	7849
905.334	7887
905.451	7890
905.569	7856
905.686	7917
905.803	7909
905.921	7795
906.038	7875
906.155	7795
906.272	7731
906.389	7746
906.506	7647
906.623	7632
906.74	7582
906.857	7575
906.974	7544
907.091	7685
907.208	7662
907.324	7693
907.441	7559
907.557	7487
907.674	7419
907.79	7388
907.907	7365
908.023	7460
908.139	7388
908.256	7392
908.372	7316
908.488	7305
908.604	7289
908.72	7209
908.836	7301
908.952	7263
909.068	7259
909.184	7297
909.3	7247
909.415	7312
909.531	7251
909.647	7103
909.762	7057
909.878	7122
909.993	7084
910.108	7107
910.224	7072
910.339	7141
910.454	7118
910.57	7023
910.685	7027
910.8	7171
910.915	7168
911.03	6993
911.145	6924
911.259	6947
911.374	6920
911.489	6852
911.604	6768
911.718	6688
911.833	6722
911.947	6654
912.062	6601
912.176	6738
912.291	6715
912.405	6665
912.519	6837
912.633	6875
912.748	6768
912.862	6684
912.976	6536
913.09	6494
913.204	6544
913.318	6601
913.431	6665
913.545	6669
913.659	6681
913.772	6665
913.886	6540
914	6544
914.113	6620
914.226	6669
914.34	6662
914.453	6479
914.566	6646
914.68	6540
914.793	6502
914.906	6395
915.019	6410
915.132	6372
915.245	6433
915.358	6448
915.47	6441
915.583	6448
915.696	6479
915.809	6528
915.921	6544
916.034	6448
916.146	6407
916.259	6357
916.371	6490
916.483	6464
916.595	6422
916.708	6429
916.82	6399
916.932	6372
917.044	6361
917.156	6433
917.268	6311
917.38	6399
917.491	6266
917.603	6304
917.715	6414
917.826	6384
917.938	6353
918.049	6262
918.161	6338
918.272	6380
918.384	6498
918.495	6353
918.606	6266
918.717	6171
918.828	6251
918.939	6213
919.05	6178
919.161	6224
919.272	6144
919.383	6144
919.494	6327
919.604	6399
919.715	6281
919.826	6277
919.936	6296
920.047	6327
920.157	6273
920.267	6441
920.378	6357
920.488	6281
920.598	6460
920.708	6547
920.818	6452
920.928	6448
921.038	6582
921.148	6631
921.258	6331
921.368	6319
921.477	6190
921.587	6140
921.697	6057
921.806	6197
921.916	6011
922.025	5965
922.134	5935
922.244	5916
922.353	5954
922.462	5912
922.571	5783
922.68	5726
922.789	5748
922.898	5718
923.007	5680
923.116	5726
923.224	5676
923.333	5699
923.442	5619
923.55	5543
923.659	5596
923.767	5581
923.876	5573
923.984	5592
924.092	5539
924.201	5581
924.309	5535
924.417	5516
924.525	5467
924.633	5528
924.741	6273
924.849	5402
924.956	5425
925.064	5360
925.172	5322
925.279	5315
925.387	5368
925.494	5353
925.602	5395
925.709	5360
925.816	5307
925.924	5345
926.031	5398
926.138	5303
926.245	5322
926.352	5201
926.459	5307
926.566	5372
926.673	5235
926.779	5155
926.886	5094
926.993	5014
927.099	4957
927.206	4949
927.312	4927
927.419	5006
927.525	4938
927.631	5014
927.737	4911
927.843	4873
927.95	4786
928.056	4843
928.162	4797
928.267	4858
928.373	5258
928.479	4873
928.585	4668
928.69	4771
928.796	4790
928.901	4733
929.007	4573
929.112	4668
929.218	4603
929.323	4618
929.428	4580
929.533	4649
929.638	4485
929.743	4561
929.848	4577
929.953	4519
930.058	4459
930.163	4303
930.267	4310
930.372	4386
930.477	4318
930.581	4466
930.685	4344
930.79	4257
930.894	4265
930.998	4249
931.103	4405
931.207	4158
931.311	4067
931.415	4078
931.519	3934
931.623	3975
