Data from glass_V78500241_2443.txt Node
Date: Wed Sep 01 19:31:26 CST 2021
User: usil
Spectrometer: V785-0024
Trigger mode: 0
Integration Time (sec): 4.000000E-1
Scans to average: 1
Nonlinearity correction enabled: false
Boxcar width: 0
Storing dark spectrum: false
XAxis mode: Wavelengths
Number of Pixels in Spectrum: 1024
>>>>>Begin Spectral Data<<<<<
801.071	3720
801.214	3740
801.356	3698
801.499	3743
801.641	3709
801.783	3755
801.926	3880
802.068	3755
802.211	3880
802.353	3880
802.496	3812
802.638	3892
802.78	3918
802.923	3876
803.065	3876
803.208	3850
803.35	3861
803.492	3903
803.635	3941
803.777	3793
803.919	3926
804.061	4120
804.204	3934
804.346	3964
804.488	3907
804.63	3975
804.773	3960
804.915	3998
805.057	4093
805.199	4040
805.341	4074
805.483	4135
805.626	4124
805.768	4154
805.91	4249
806.052	4200
806.194	4154
806.336	4341
806.478	4181
806.62	4173
806.762	4185
806.904	4211
807.046	4276
807.188	4204
807.33	4207
807.472	4265
807.614	4227
807.756	4219
807.898	4265
808.04	4211
808.182	4265
808.324	4287
808.465	4352
808.607	4440
808.749	4489
808.891	4459
809.033	4474
809.174	4367
809.316	4219
809.458	4272
809.6	4120
809.741	4124
809.883	4128
810.025	4181
810.166	4188
810.308	4253
810.45	4246
810.591	4246
810.733	4306
810.875	4523
811.016	4809
811.158	5098
811.299	5242
811.441	5239
811.582	5006
811.724	4740
811.865	4398
812.007	4398
812.148	4409
812.29	4428
812.431	4394
812.573	4386
812.714	4352
812.855	4432
812.997	4409
813.138	4500
813.279	4360
813.421	4375
813.562	4363
813.703	4352
813.845	4280
813.986	4242
814.127	4242
814.268	4253
814.41	4219
814.551	4268
814.692	4337
814.833	4238
814.974	4272
815.115	4318
815.256	4249
815.397	4215
815.539	4227
815.68	4143
815.821	4204
815.962	4253
816.103	4291
816.244	4238
816.385	4192
816.526	4253
816.666	4234
816.807	4109
816.948	4177
817.089	4215
817.23	4128
817.371	4029
817.512	4021
817.653	4029
817.793	3987
817.934	4071
818.075	4093
818.216	4067
818.356	4048
818.497	3956
818.638	3926
818.778	3903
818.919	3892
819.06	3857
819.2	3892
819.341	3903
819.481	3816
819.622	3880
819.762	4029
819.903	3911
820.043	3884
820.184	3835
820.324	3819
820.465	3861
820.605	3835
820.746	3831
820.886	3766
821.026	3903
821.167	3903
821.307	3945
821.447	3964
821.588	3953
821.728	3972
821.868	3892
822.008	3846
822.149	3873
822.289	3907
822.429	3755
822.569	3724
822.709	3819
822.849	3682
822.99	3667
823.13	3789
823.27	3762
823.41	3720
823.55	3694
823.69	3698
823.83	3720
823.97	3679
824.11	3591
824.25	3622
824.389	3591
824.529	3667
824.669	3614
824.809	3728
824.949	3743
825.089	3747
825.228	3701
825.368	3576
825.508	3545
825.648	3553
825.787	3599
825.927	3622
826.067	3580
826.206	3671
826.346	3774
826.485	3793
826.625	3873
826.765	3945
826.904	3812
827.044	3614
827.183	3485
827.323	3458
827.462	3488
827.601	3397
827.741	3363
827.88	3492
828.02	3412
828.159	3416
828.298	3500
828.437	3504
828.577	3477
828.716	3591
828.855	3481
828.994	3389
829.134	3336
829.273	3344
829.412	3321
829.551	3310
829.69	3389
829.829	3393
829.968	3507
830.107	3466
830.246	3466
830.385	3374
830.524	3378
830.663	3287
830.802	3226
830.941	3203
831.08	3218
831.219	3260
831.357	3298
831.496	3397
831.635	3226
831.774	3207
831.913	3195
832.051	3108
832.19	3157
832.329	3195
832.467	3138
832.606	3123
832.744	3138
832.883	3176
833.022	3207
833.16	3241
833.299	3321
833.437	3336
833.576	3382
833.714	3401
833.852	3420
833.991	3435
834.129	3481
834.267	3416
834.406	3359
834.544	3435
834.682	3397
834.821	3420
834.959	3564
835.097	3409
835.235	3519
835.373	3492
835.511	3507
835.65	3412
835.788	3458
835.926	3401
836.064	3325
836.202	3367
836.34	3530
836.478	3580
836.615	3500
836.753	3576
836.891	3606
837.029	3625
837.167	3587
837.305	3595
837.443	3534
837.58	3473
837.718	3622
837.856	3606
837.993	3580
838.131	3618
838.269	3610
838.406	3557
838.544	3568
838.681	3458
838.819	3466
838.956	3348
839.094	3374
839.231	3420
839.369	3450
839.506	3705
839.643	3606
839.781	3447
839.918	3492
840.055	3515
840.193	3542
840.33	3500
840.467	3511
840.604	3633
840.742	3732
840.879	3511
841.016	3599
841.153	3595
841.29	3713
841.427	3682
841.564	3736
841.701	3717
841.838	3694
841.975	3701
842.112	3690
842.249	3606
842.385	3629
842.522	3785
842.659	3633
842.796	3671
842.933	3675
843.069	3679
843.206	3713
843.343	3800
843.479	3808
843.616	3793
843.752	3682
843.889	3690
844.025	3850
844.162	3717
844.298	3850
844.435	3804
844.571	3785
844.708	3857
844.844	3975
844.98	4063
845.117	4032
845.253	3918
845.389	3861
845.525	3934
845.661	3972
845.798	3991
845.934	3987
846.07	3903
846.206	4082
846.342	4074
846.478	4055
846.614	3956
846.75	3953
846.886	3926
847.022	3998
847.158	3915
847.294	3941
847.429	3994
847.565	3975
847.701	4207
847.837	3892
847.972	3854
848.108	3956
848.244	4013
848.379	3816
848.515	3831
848.65	3831
848.786	3812
848.921	3869
849.057	3922
849.192	3945
849.328	3903
849.463	3873
849.598	3880
849.734	3865
849.869	3842
850.004	3800
850.14	3785
850.275	3740
850.41	3701
850.545	3717
850.68	3797
850.815	3827
850.95	3762
851.085	3918
851.22	3865
851.355	3854
851.49	3800
851.625	3789
851.76	3759
851.895	3747
852.03	3705
852.165	3797
852.299	3865
852.434	3960
852.569	3838
852.703	3850
852.838	3884
852.973	4021
853.107	3998
853.242	3838
853.376	3827
853.511	3740
853.645	3842
853.78	3945
853.914	3903
854.048	3945
854.183	3869
854.317	3945
854.451	4090
854.585	3941
854.72	3922
854.854	4006
854.988	3915
855.122	4032
855.256	3949
855.39	4002
855.524	4097
855.658	4082
855.792	4048
855.926	4112
856.06	4097
856.194	4177
856.327	4143
856.461	4105
856.595	4101
856.729	4154
856.862	4276
856.996	4207
857.13	4284
857.263	4367
857.397	4341
857.53	4265
857.664	4314
857.797	4379
857.931	4375
858.064	4394
858.197	4436
858.331	4344
858.464	4322
858.597	4356
858.731	4432
858.864	4466
858.997	4436
859.13	4481
859.263	4523
859.396	4569
859.529	4519
859.662	4569
859.795	4485
859.928	4596
860.061	4702
860.194	4675
860.327	4706
860.46	4634
860.592	4717
860.725	4774
860.858	4740
860.99	4675
861.123	4706
861.256	4679
861.388	4763
861.521	5524
861.653	4679
861.786	4679
861.918	4702
862.05	4755
862.183	4877
862.315	4885
862.447	4930
862.58	4877
862.712	4801
862.844	4755
862.976	4831
863.108	4816
863.24	5162
863.372	4752
863.504	4854
863.636	4870
863.768	4965
863.9	4976
864.032	4930
864.164	4968
864.296	5003
864.428	5056
864.559	5090
864.691	5067
864.823	5132
864.954	5098
865.086	5174
865.217	5094
865.349	5147
865.48	5140
865.612	5170
865.743	5250
865.875	5231
866.006	5170
866.137	5273
866.269	5204
866.4	5250
866.531	5246
866.662	5193
866.793	5239
866.924	5292
867.055	5372
867.186	5322
867.317	5299
867.448	5284
867.579	5341
867.71	5372
867.841	5364
867.972	5433
868.103	5459
868.233	5425
868.364	5490
868.495	5482
868.625	5642
868.756	5752
868.886	5615
869.017	5649
869.147	5859
869.278	5821
869.408	5779
869.539	5836
869.669	5954
869.799	5847
869.929	5931
870.06	5984
870.19	6205
870.32	6197
870.45	6270
870.58	6357
870.71	6365
870.84	6407
870.97	6452
871.1	6464
871.23	6551
871.36	6639
871.489	6654
871.619	6703
871.749	6722
871.879	6768
872.008	6996
872.138	6970
872.267	7065
872.397	6951
872.526	7000
872.656	7046
872.785	7194
872.915	7358
873.044	7506
873.173	7510
873.303	7643
873.432	7784
873.561	7887
873.69	7868
873.819	7955
873.948	8119
874.077	8195
874.206	8271
874.335	8358
874.464	8678
874.593	8819
874.722	8918
874.851	9138
874.979	9195
875.108	9405
875.237	9454
875.365	9473
875.494	9606
875.623	9869
875.751	9838
875.88	9934
876.008	10101
876.136	10238
876.265	10519
876.393	10641
876.521	10710
876.65	10759
876.778	10843
876.906	10911
877.034	10995
877.162	11090
877.29	11212
877.418	11250
877.546	11353
877.674	11326
877.802	11497
877.93	11516
878.058	11509
878.185	11505
878.313	11703
878.441	11786
878.568	11615
878.696	11775
878.824	11847
878.951	11935
879.079	12041
879.206	12125
879.333	11992
879.461	12045
879.588	12076
879.715	12057
879.842	12175
879.97	12057
880.097	11870
880.224	11855
880.351	11878
880.478	11843
880.605	11786
880.732	11840
880.859	11977
880.986	11874
881.112	11775
881.239	11680
881.366	11661
881.493	11653
881.619	11493
881.746	11551
881.872	11520
881.999	11463
882.125	11471
882.252	11608
882.378	11558
882.505	11566
882.631	11410
882.757	11189
882.883	11288
883.01	11220
883.136	11147
883.262	11094
883.388	11029
883.514	11189
883.64	11155
883.766	11151
883.892	10949
884.018	11018
884.143	11105
884.269	11124
884.395	10820
884.52	10733
884.646	10710
884.772	10717
884.897	10664
885.023	10649
885.148	10748
885.274	10763
885.399	10668
885.524	10584
885.65	10626
885.775	10584
885.9	10550
886.025	10584
886.15	10523
886.275	10432
886.4	10356
886.525	10432
886.65	10413
886.775	10329
886.9	10451
887.025	10516
887.149	10291
887.274	10188
887.399	10188
887.523	10204
887.648	10135
887.773	10082
887.897	10272
888.021	10200
888.146	10105
888.27	10261
888.395	10246
888.519	10207
888.643	10185
888.767	10097
888.891	10048
889.015	10006
889.139	9998
889.263	9934
889.387	10025
889.511	10006
889.635	10051
889.759	9884
889.883	9941
890.006	9998
890.13	10097
890.254	9842
890.377	9930
890.501	9831
890.624	9873
890.748	9880
890.871	9854
890.995	9728
891.118	9720
891.241	9770
891.364	9793
891.488	9793
891.611	9698
891.734	9785
891.857	9732
891.98	9747
892.103	9740
892.226	9774
892.349	9660
892.471	9538
892.594	9462
892.717	9656
892.839	9618
892.962	9610
893.085	9564
893.207	9572
893.33	9473
893.452	9450
893.575	9545
893.697	9534
893.819	9603
893.941	9637
894.064	9545
894.186	9466
894.308	9408
894.43	9481
894.552	9538
894.674	9526
894.796	9355
894.918	9416
895.04	9332
895.161	9382
895.283	9340
895.405	9272
895.526	9283
895.648	9173
895.769	9169
895.891	9310
896.012	9306
896.134	9226
896.255	9260
896.376	9131
896.498	9154
896.619	9100
896.74	9009
896.861	9043
896.982	9211
897.103	9294
897.224	9119
897.345	9085
897.466	8979
897.587	9005
897.708	9047
897.828	9112
897.949	8899
898.07	8857
898.19	8861
898.311	9058
898.431	8902
898.552	8918
898.672	8990
898.792	8899
898.913	8861
899.033	8815
899.153	8720
899.273	8629
899.393	8712
899.513	8762
899.633	8667
899.753	8663
899.873	8689
899.993	8788
900.113	8701
900.232	8739
900.352	8686
900.472	8579
900.591	8549
900.711	8594
900.83	8541
900.95	8579
901.069	8708
901.189	8583
901.308	8446
901.427	8404
901.546	8438
901.665	8442
901.784	8450
901.904	8362
902.023	8332
902.141	8142
902.26	8180
902.379	8244
902.498	8229
902.617	8218
902.735	8282
902.854	8271
902.973	8248
903.091	8115
903.21	8119
903.328	8180
903.446	8081
903.565	8031
903.683	8096
903.801	8149
903.919	8073
904.038	8126
904.156	8027
904.274	8058
904.392	8069
904.51	8065
904.627	8077
904.745	8054
904.863	8069
904.981	7940
905.098	7826
905.216	7833
905.334	7921
905.451	7955
905.569	7887
905.686	7871
905.803	7913
905.921	7776
906.038	7845
906.155	7780
906.272	7693
906.389	7693
906.506	7677
906.623	7609
906.74	7559
906.857	7506
906.974	7639
907.091	7666
907.208	7704
907.324	7601
907.441	7605
907.557	7464
907.674	7460
907.79	7388
907.907	7373
908.023	7422
908.139	7426
908.256	7354
908.372	7331
908.488	7362
908.604	7221
908.72	7194
908.836	7225
908.952	7251
909.068	7244
909.184	7320
909.3	7240
909.415	7320
909.531	7305
909.647	7171
909.762	7149
909.878	7088
909.993	7099
910.108	7110
910.224	7065
910.339	7103
910.454	7012
910.57	7000
910.685	6939
910.8	7141
910.915	7065
911.03	7008
911.145	6878
911.259	6814
911.374	6844
911.489	6818
911.604	6806
911.718	6719
911.833	6730
911.947	6616
912.062	6563
912.176	6681
912.291	6711
912.405	6719
912.519	6798
912.633	6749
912.748	6738
912.862	6696
912.976	6650
913.09	6544
913.204	6555
913.318	6642
913.431	6711
913.545	6665
913.659	6654
913.772	6646
913.886	6547
914	6612
914.113	6620
914.226	6623
914.34	6631
914.453	6464
914.566	6608
914.68	6536
914.793	6536
914.906	6414
915.019	6399
915.132	6346
915.245	6445
915.358	6471
915.47	6426
915.583	6467
915.696	6464
915.809	6528
915.921	6532
916.034	6426
916.146	6372
916.259	6342
916.371	6441
916.483	6380
916.595	6384
916.708	6323
916.82	6372
916.932	6311
917.044	6395
917.156	6380
917.268	6281
917.38	6369
917.491	6361
917.603	6304
917.715	6418
917.826	6395
917.938	6285
918.049	6266
918.161	6319
918.272	6388
918.384	6376
918.495	6376
918.606	6232
918.717	6175
918.828	6262
918.939	6270
919.05	6194
919.161	6205
919.272	6159
919.383	6110
919.494	6232
919.604	6388
919.715	6327
919.826	6232
919.936	6213
920.047	6308
920.157	6213
920.267	6403
920.378	6346
920.488	6300
920.598	6369
920.708	6486
920.818	6410
920.928	6437
921.038	6623
921.148	6490
921.258	6315
921.368	6311
921.477	6209
921.587	6102
921.697	6095
921.806	6178
921.916	6068
922.025	5931
922.134	5935
922.244	5863
922.353	5973
922.462	5809
922.571	5756
922.68	5714
922.789	5646
922.898	5642
923.007	5566
923.116	5699
923.224	5680
923.333	5676
923.442	5638
923.55	5604
923.659	5566
923.767	5619
923.876	5528
923.984	5543
924.092	5505
924.201	5535
924.309	5551
924.417	5570
924.525	5486
924.633	5493
924.741	6247
924.849	5372
924.956	5471
925.064	5349
925.172	5307
925.279	5284
925.387	5315
925.494	5292
925.602	5364
925.709	5330
925.816	5258
925.924	5318
926.031	5337
926.138	5303
926.245	5326
926.352	5212
926.459	5269
926.566	5334
926.673	5178
926.779	5189
926.886	5140
926.993	5006
927.099	4984
927.206	4968
927.312	4976
927.419	4991
927.525	4949
927.631	4984
927.737	4915
927.843	4824
927.95	4771
928.056	4797
928.162	4824
928.267	4870
928.373	5197
928.479	4828
928.585	4683
928.69	4721
928.796	4782
928.901	4660
929.007	4565
929.112	4694
929.218	4637
929.323	4580
929.428	4577
929.533	4618
929.638	4481
929.743	4478
929.848	4558
929.953	4512
930.058	4459
930.163	4303
930.267	4322
930.372	4485
930.477	4333
930.581	4447
930.685	4363
930.79	4219
930.894	4318
930.998	4238
931.103	4341
931.207	4097
931.311	4002
931.415	3994
931.519	3918
931.623	3945
