Data from glass_V78500241_492.txt Node
Date: Wed Sep 01 19:17:54 CST 2021
User: usil
Spectrometer: V785-0024
Trigger mode: 0
Integration Time (sec): 4.000000E-1
Scans to average: 1
Nonlinearity correction enabled: false
Boxcar width: 0
Storing dark spectrum: false
XAxis mode: Wavelengths
Number of Pixels in Spectrum: 1024
>>>>>Begin Spectral Data<<<<<
801.071	3717
801.214	3785
801.356	3713
801.499	3766
801.641	3774
801.783	3762
801.926	3880
802.068	3869
802.211	3884
802.353	3896
802.496	3861
802.638	3934
802.78	3930
802.923	3949
803.065	3884
803.208	3857
803.35	3869
803.492	3926
803.635	3918
803.777	3823
803.919	3896
804.061	4135
804.204	3991
804.346	3975
804.488	3930
804.63	4055
804.773	3991
804.915	4021
805.057	4169
805.199	4044
805.341	4105
805.483	4135
805.626	4131
805.768	4139
805.91	4227
806.052	4299
806.194	4219
806.336	4383
806.478	4234
806.62	4192
806.762	4181
806.904	4261
807.046	4341
807.188	4215
807.33	4227
807.472	4215
807.614	4223
807.756	4268
807.898	4223
808.04	4188
808.182	4272
808.324	4306
808.465	4409
808.607	4470
808.749	4470
808.891	4478
809.033	4500
809.174	4436
809.316	4310
809.458	4272
809.6	4158
809.741	4166
809.883	4158
810.025	4246
810.166	4265
810.308	4211
810.45	4261
810.591	4261
810.733	4253
810.875	4519
811.016	4839
811.158	5147
811.299	5242
811.441	5269
811.582	5079
811.724	4698
811.865	4409
812.007	4538
812.148	4451
812.29	4424
812.431	4428
812.573	4417
812.714	4371
812.855	4432
812.997	4470
813.138	4481
813.279	4421
813.421	4405
813.562	4386
813.703	4325
813.845	4367
813.986	4261
814.127	4287
814.268	4253
814.41	4322
814.551	4227
814.692	4341
814.833	4268
814.974	4333
815.115	4348
815.256	4310
815.397	4265
815.539	4276
815.68	4249
815.821	4211
815.962	4303
816.103	4291
816.244	4272
816.385	4257
816.526	4265
816.666	4207
816.807	4139
816.948	4192
817.089	4173
817.23	4147
817.371	4078
817.512	4090
817.653	4059
817.793	4055
817.934	4071
818.075	4112
818.216	4101
818.356	4063
818.497	3972
818.638	3915
818.778	3941
818.919	3899
819.06	3857
819.2	3922
819.341	3888
819.481	3854
819.622	3922
819.762	3987
819.903	3953
820.043	3831
820.184	3888
820.324	3854
820.465	3922
820.605	3873
820.746	3888
820.886	3861
821.026	3945
821.167	3953
821.307	3941
821.447	3991
821.588	3941
821.728	3907
821.868	3937
822.008	3880
822.149	3945
822.289	3934
822.429	3823
822.569	3770
822.709	3823
822.849	3713
822.99	3770
823.13	3736
823.27	3797
823.41	3789
823.55	3770
823.69	3698
823.83	3728
823.97	3679
824.11	3671
824.25	3603
824.389	3648
824.529	3686
824.669	3660
824.809	3717
824.949	3778
825.089	3778
825.228	3698
825.368	3572
825.508	3545
825.648	3591
825.787	3625
825.927	3633
826.067	3633
826.206	3671
826.346	3800
826.485	3835
826.625	3888
826.765	3930
826.904	3896
827.044	3637
827.183	3542
827.323	3450
827.462	3507
827.601	3454
827.741	3477
827.88	3473
828.02	3351
828.159	3435
828.298	3496
828.437	3572
828.577	3477
828.716	3603
828.855	3526
828.994	3420
829.134	3389
829.273	3397
829.412	3374
829.551	3378
829.69	3359
829.829	3447
829.968	3530
830.107	3488
830.246	3466
830.385	3424
830.524	3351
830.663	3294
830.802	3306
830.941	3207
831.08	3211
831.219	3260
831.357	3302
831.496	3420
831.635	3253
831.774	3203
831.913	3173
832.051	3142
832.19	3157
832.329	3241
832.467	3173
832.606	3135
832.744	3195
832.883	3192
833.022	3173
833.16	3245
833.299	3313
833.437	3344
833.576	3431
833.714	3397
833.852	3431
833.991	3412
834.129	3466
834.267	3435
834.406	3424
834.544	3450
834.682	3473
834.821	3443
834.959	3580
835.097	3443
835.235	3584
835.373	3485
835.511	3496
835.65	3462
835.788	3557
835.926	3412
836.064	3351
836.202	3447
836.34	3568
836.478	3625
836.615	3542
836.753	3633
836.891	3690
837.029	3648
837.167	3614
837.305	3576
837.443	3519
837.58	3526
837.718	3648
837.856	3549
837.993	3549
838.131	3614
838.269	3584
838.406	3587
838.544	3641
838.681	3473
838.819	3473
838.956	3405
839.094	3409
839.231	3435
839.369	3538
839.506	3724
839.643	3679
839.781	3507
839.918	3462
840.055	3515
840.193	3507
840.33	3534
840.467	3564
840.604	3610
840.742	3846
840.879	3523
841.016	3576
841.153	3614
841.29	3804
841.427	3701
841.564	3762
841.701	3762
841.838	3720
841.975	3667
842.112	3717
842.249	3629
842.385	3629
842.522	3785
842.659	3724
842.796	3690
842.933	3751
843.069	3755
843.206	3732
843.343	3835
843.479	3778
843.616	3812
843.752	3690
843.889	3656
844.025	3899
844.162	3686
844.298	3850
844.435	3797
844.571	3838
844.708	3922
844.844	4006
844.98	4067
845.117	4051
845.253	3926
845.389	3892
845.525	3960
845.661	4002
845.798	3949
845.934	4006
846.07	3979
846.206	4131
846.342	4101
846.478	4101
846.614	3994
846.75	3945
846.886	3884
847.022	4040
847.158	3949
847.294	3979
847.429	4010
847.565	3987
847.701	4246
847.837	3896
847.972	3896
848.108	3991
848.244	3994
848.379	3884
848.515	3778
848.65	3789
848.786	3850
848.921	3915
849.057	3998
849.192	3960
849.328	3926
849.463	3964
849.598	3892
849.734	3911
849.869	3873
850.004	3850
850.14	3838
850.275	3781
850.41	3743
850.545	3789
850.68	3793
850.815	3812
850.95	3789
851.085	3941
851.22	3888
851.355	3838
851.49	3808
851.625	3797
851.76	3850
851.895	3736
852.03	3720
852.165	3846
852.299	3873
852.434	3880
852.569	3888
852.703	3869
852.838	3915
852.973	4025
853.107	4017
853.242	3892
853.376	3854
853.511	3804
853.645	3842
853.78	4017
853.914	3934
854.048	3884
854.183	3922
854.317	3964
854.451	4086
854.585	3964
854.72	3945
854.854	4025
854.988	3972
855.122	3991
855.256	3968
855.39	4040
855.524	4112
855.658	4120
855.792	4150
855.926	4120
856.06	4192
856.194	4238
856.327	4147
856.461	4120
856.595	4166
856.729	4204
856.862	4291
856.996	4230
857.13	4325
857.263	4333
857.397	4352
857.53	4284
857.664	4318
857.797	4394
857.931	4421
858.064	4352
858.197	4451
858.331	4386
858.464	4417
858.597	4348
858.731	4424
858.864	4470
858.997	4455
859.13	4519
859.263	4558
859.396	4615
859.529	4527
859.662	4523
859.795	4508
859.928	4641
860.061	4733
860.194	4733
860.327	4645
860.46	4637
860.592	4831
860.725	4793
860.858	4763
860.99	4660
861.123	4683
861.256	4691
861.388	4767
861.521	5509
861.653	4714
861.786	4714
861.918	4774
862.05	4828
862.183	4877
862.315	4866
862.447	4927
862.58	4904
862.712	4797
862.844	4793
862.976	4892
863.108	4854
863.24	5178
863.372	4858
863.504	4915
863.636	4892
863.768	5025
863.9	5045
864.032	4881
864.164	4957
864.296	5048
864.428	5086
864.559	5105
864.691	5113
864.823	5181
864.954	5105
865.086	5140
865.217	5121
865.349	5109
865.48	5147
865.612	5250
865.743	5307
865.875	5227
866.006	5227
866.137	5174
866.269	5254
866.4	5204
866.531	5265
866.662	5261
866.793	5265
866.924	5318
867.055	5349
867.186	5376
867.317	5303
867.448	5357
867.579	5387
867.71	5395
867.841	5398
867.972	5444
868.103	5463
868.233	5467
868.364	5535
868.495	5547
868.625	5653
868.756	5817
868.886	5668
869.017	5703
869.147	5821
869.278	5874
869.408	5824
869.539	5859
869.669	5942
869.799	5946
869.929	5946
870.06	6007
870.19	6254
870.32	6235
870.45	6323
870.58	6384
870.71	6448
870.84	6471
870.97	6414
871.1	6441
871.23	6665
871.36	6616
871.489	6665
871.619	6730
871.749	6798
871.879	6920
872.008	6897
872.138	6939
872.267	7080
872.397	6985
872.526	7008
872.656	7088
872.785	7168
872.915	7396
873.044	7480
873.173	7624
873.303	7658
873.432	7731
873.561	7868
873.69	7940
873.819	8050
873.948	8183
874.077	8256
874.206	8339
874.335	8400
874.464	8629
874.593	8861
874.722	8960
874.851	9131
874.979	9222
875.108	9367
875.237	9466
875.365	9488
875.494	9644
875.623	9915
875.751	9869
875.88	10006
876.008	10185
876.136	10310
876.265	10443
876.393	10736
876.521	10790
876.65	10771
876.778	10968
876.906	10854
877.034	10995
877.162	11128
877.29	11098
877.418	11303
877.546	11436
877.674	11463
877.802	11543
877.93	11516
878.058	11543
878.185	11589
878.313	11653
878.441	11741
878.568	11714
878.696	11851
878.824	11783
878.951	12007
879.079	12041
879.206	12194
879.333	12038
879.461	11954
879.588	12083
879.715	12144
879.842	12243
879.97	12057
880.097	11824
880.224	11889
880.351	11843
880.478	11885
880.605	11821
880.732	11961
880.859	12053
880.986	11802
881.112	11821
881.239	11592
881.366	11672
881.493	11642
881.619	11611
881.746	11520
881.872	11562
881.999	11577
882.125	11532
882.252	11535
882.378	11509
882.505	11558
882.631	11391
882.757	11395
882.883	11337
883.01	11261
883.136	11216
883.262	11045
883.388	11067
883.514	11185
883.64	11143
883.766	11113
883.892	10946
884.018	10953
884.143	11105
884.269	11124
884.395	10877
884.52	10790
884.646	10778
884.772	10710
884.897	10622
885.023	10782
885.148	10721
885.274	10752
885.399	10672
885.524	10630
885.65	10565
885.775	10535
885.9	10493
886.025	10668
886.15	10615
886.275	10466
886.4	10329
886.525	10421
886.65	10402
886.775	10341
886.9	10466
887.025	10462
887.149	10325
887.274	10261
887.399	10200
887.523	10242
887.648	10135
887.773	10204
887.897	10238
888.021	10249
888.146	10166
888.27	10215
888.395	10257
888.519	10246
888.643	10185
888.767	10181
888.891	10147
889.015	9979
889.139	10063
889.263	9987
889.387	10021
889.511	10124
889.635	10078
889.759	9975
889.883	9945
890.006	10010
890.13	10162
890.254	9922
890.377	9937
890.501	9930
890.624	9915
890.748	9838
890.871	9831
890.995	9789
891.118	9759
891.241	9781
891.364	9698
891.488	9831
891.611	9766
891.734	9732
891.857	9720
891.98	9762
892.103	9838
892.226	9800
892.349	9728
892.471	9542
892.594	9549
892.717	9656
892.839	9610
892.962	9595
893.085	9625
893.207	9637
893.33	9458
893.452	9504
893.575	9591
893.697	9443
893.819	9663
893.941	9633
894.064	9633
894.186	9450
894.308	9389
894.43	9526
894.552	9572
894.674	9576
894.796	9435
894.918	9466
895.04	9370
895.161	9313
895.283	9332
895.405	9245
895.526	9260
895.648	9287
895.769	9291
895.891	9275
896.012	9321
896.134	9230
896.255	9157
896.376	9169
896.498	9123
896.619	9165
896.74	9062
896.861	9081
896.982	9226
897.103	9416
897.224	9195
897.345	9097
897.466	9005
897.587	9112
897.708	9104
897.828	9089
897.949	8975
898.07	8819
898.19	8914
898.311	9039
898.431	8971
898.552	8979
898.672	9085
898.792	8979
898.913	8872
899.033	8872
899.153	8735
899.273	8731
899.393	8701
899.513	8785
899.633	8670
899.753	8724
899.873	8648
899.993	8750
900.113	8640
900.232	8708
900.352	8674
900.472	8636
900.591	8549
900.711	8594
900.83	8514
900.95	8727
901.069	8701
901.189	8579
901.308	8499
901.427	8366
901.546	8518
901.665	8423
901.784	8549
901.904	8358
902.023	8332
902.141	8240
902.26	8244
902.379	8347
902.498	8218
902.617	8259
902.735	8301
902.854	8279
902.973	8290
903.091	8229
903.21	8153
903.328	8142
903.446	8123
903.565	8126
903.683	8073
903.801	7997
903.919	8161
904.038	8115
904.156	8008
904.274	8054
904.392	8001
904.51	8088
904.627	8035
904.745	8073
904.863	8123
904.981	7974
905.098	7894
905.216	7879
905.334	8012
905.451	7947
905.569	7879
905.686	7921
905.803	7959
905.921	7772
906.038	7902
906.155	7772
906.272	7727
906.389	7723
906.506	7677
906.623	7601
906.74	7639
906.857	7575
906.974	7636
907.091	7636
907.208	7662
907.324	7624
907.441	7613
907.557	7491
907.674	7491
907.79	7350
907.907	7438
908.023	7426
908.139	7373
908.256	7396
908.372	7396
908.488	7388
908.604	7282
908.72	7228
908.836	7217
908.952	7240
909.068	7228
909.184	7335
909.3	7297
909.415	7327
909.531	7320
909.647	7129
909.762	7141
909.878	7088
909.993	7160
910.108	7103
910.224	7031
910.339	7114
910.454	7046
910.57	7031
910.685	6958
910.8	7221
910.915	7152
911.03	7069
911.145	6962
911.259	6814
911.374	6897
911.489	6901
911.604	6844
911.718	6795
911.833	6745
911.947	6635
912.062	6597
912.176	6741
912.291	6757
912.405	6692
912.519	6810
912.633	6840
912.748	6722
912.862	6772
912.976	6623
913.09	6593
913.204	6650
913.318	6623
913.431	6734
913.545	6734
913.659	6703
913.772	6604
913.886	6597
914	6604
914.113	6688
914.226	6604
914.34	6627
914.453	6601
914.566	6627
914.68	6570
914.793	6593
914.906	6448
915.019	6467
915.132	6372
915.245	6464
915.358	6460
915.47	6517
915.583	6528
915.696	6479
915.809	6521
915.921	6559
916.034	6407
916.146	6391
916.259	6433
916.371	6509
916.483	6391
916.595	6414
916.708	6490
916.82	6357
916.932	6441
917.044	6403
917.156	6384
917.268	6296
917.38	6399
917.491	6254
917.603	6342
917.715	6361
917.826	6414
917.938	6391
918.049	6270
918.161	6308
918.272	6498
918.384	6460
918.495	6319
918.606	6296
918.717	6220
918.828	6319
918.939	6266
919.05	6186
919.161	6220
919.272	6159
919.383	6171
919.494	6300
919.604	6456
919.715	6239
919.826	6239
919.936	6315
920.047	6403
920.157	6338
920.267	6441
920.378	6346
920.488	6247
920.598	6422
920.708	6582
920.818	6483
920.928	6456
921.038	6703
921.148	6585
921.258	6418
921.368	6346
921.477	6213
921.587	6224
921.697	6057
921.806	6216
921.916	6098
922.025	5969
922.134	5946
922.244	5878
922.353	5954
922.462	5870
922.571	5840
922.68	5672
922.789	5619
922.898	5729
923.007	5684
923.116	5722
923.224	5657
923.333	5646
923.442	5661
923.55	5558
923.659	5638
923.767	5596
923.876	5486
923.984	5630
924.092	5516
924.201	5566
924.309	5600
924.417	5516
924.525	5516
924.633	5543
924.741	6372
924.849	5376
924.956	5474
925.064	5391
925.172	5311
925.279	5337
925.387	5341
925.494	5334
925.602	5436
925.709	5368
925.816	5326
925.924	5353
926.031	5349
926.138	5303
926.245	5326
926.352	5254
926.459	5334
926.566	5334
926.673	5185
926.779	5181
926.886	5136
926.993	5033
927.099	5041
927.206	4987
927.312	4946
927.419	5037
927.525	4946
927.631	5037
927.737	4938
927.843	4889
927.95	4820
928.056	4828
928.162	4870
928.267	4892
928.373	5254
928.479	4923
928.585	4679
928.69	4790
928.796	4763
928.901	4664
929.007	4622
929.112	4702
929.218	4672
929.323	4615
929.428	4569
929.533	4626
929.638	4504
929.743	4558
929.848	4569
929.953	4550
930.058	4451
930.163	4344
930.267	4337
930.372	4405
930.477	4306
930.581	4478
930.685	4375
930.79	4257
930.894	4341
930.998	4306
931.103	4352
931.207	4124
931.311	4055
931.415	4051
931.519	3949
931.623	3953
