Data from glass_V78500241_2690.txt Node
Date: Wed Sep 01 19:33:08 CST 2021
User: usil
Spectrometer: V785-0024
Trigger mode: 0
Integration Time (sec): 4.000000E-1
Scans to average: 1
Nonlinearity correction enabled: false
Boxcar width: 0
Storing dark spectrum: false
XAxis mode: Wavelengths
Number of Pixels in Spectrum: 1024
>>>>>Begin Spectral Data<<<<<
801.071	3743
801.214	3770
801.356	3701
801.499	3667
801.641	3701
801.783	3736
801.926	3816
802.068	3827
802.211	3819
802.353	3876
802.496	3823
802.638	3846
802.78	3880
802.923	3922
803.065	3888
803.208	3827
803.35	3808
803.492	3930
803.635	3896
803.777	3804
803.919	3911
804.061	4093
804.204	3926
804.346	3941
804.488	3892
804.63	4044
804.773	3994
804.915	4048
805.057	4116
805.199	4010
805.341	4074
805.483	4120
805.626	4109
805.768	4139
805.91	4200
806.052	4204
806.194	4181
806.336	4325
806.478	4200
806.62	4188
806.762	4227
806.904	4246
807.046	4363
807.188	4204
807.33	4188
807.472	4215
807.614	4181
807.756	4253
807.898	4196
808.04	4253
808.182	4234
808.324	4299
808.465	4352
808.607	4440
808.749	4478
808.891	4455
809.033	4489
809.174	4367
809.316	4242
809.458	4211
809.6	4105
809.741	4109
809.883	4131
810.025	4215
810.166	4215
810.308	4215
810.45	4223
810.591	4219
810.733	4223
810.875	4455
811.016	4793
811.158	5113
811.299	5273
811.441	5273
811.582	5060
811.724	4672
811.865	4497
812.007	4462
812.148	4386
812.29	4440
812.431	4398
812.573	4394
812.714	4383
812.855	4405
812.997	4394
813.138	4447
813.279	4436
813.421	4352
813.562	4394
813.703	4375
813.845	4386
813.986	4249
814.127	4162
814.268	4295
814.41	4287
814.551	4211
814.692	4306
814.833	4306
814.974	4272
815.115	4322
815.256	4246
815.397	4238
815.539	4230
815.68	4181
815.821	4147
815.962	4238
816.103	4234
816.244	4238
816.385	4227
816.526	4268
816.666	4230
816.807	4097
816.948	4120
817.089	4143
817.23	4105
817.371	4051
817.512	4036
817.653	4128
817.793	4029
817.934	4048
818.075	4093
818.216	4036
818.356	4059
818.497	3972
818.638	3869
818.778	3903
818.919	3896
819.06	3842
819.2	3876
819.341	3873
819.481	3842
819.622	3903
819.762	3991
819.903	3918
820.043	3926
820.184	3816
820.324	3835
820.465	3880
820.605	3865
820.746	3835
820.886	3804
821.026	3896
821.167	3880
821.307	4017
821.447	3979
821.588	3934
821.728	3956
821.868	3896
822.008	3857
822.149	3899
822.289	3857
822.429	3808
822.569	3766
822.709	3781
822.849	3732
822.99	3728
823.13	3785
823.27	3736
823.41	3690
823.55	3709
823.69	3690
823.83	3774
823.97	3641
824.11	3595
824.25	3549
824.389	3584
824.529	3644
824.669	3599
824.809	3720
824.949	3713
825.089	3724
825.228	3663
825.368	3599
825.508	3561
825.648	3580
825.787	3599
825.927	3606
826.067	3572
826.206	3637
826.346	3751
826.485	3819
826.625	3823
826.765	3972
826.904	3835
827.044	3622
827.183	3538
827.323	3416
827.462	3469
827.601	3450
827.741	3424
827.88	3439
828.02	3374
828.159	3420
828.298	3496
828.437	3477
828.577	3409
828.716	3591
828.855	3515
828.994	3374
829.134	3359
829.273	3378
829.412	3348
829.551	3378
829.69	3329
829.829	3405
829.968	3553
830.107	3458
830.246	3412
830.385	3374
830.524	3340
830.663	3317
830.802	3237
830.941	3211
831.08	3146
831.219	3253
831.357	3283
831.496	3355
831.635	3207
831.774	3211
831.913	3211
832.051	3127
832.19	3135
832.329	3230
832.467	3131
832.606	3104
832.744	3146
832.883	3173
833.022	3180
833.16	3195
833.299	3306
833.437	3313
833.576	3348
833.714	3393
833.852	3409
833.991	3492
834.129	3443
834.267	3462
834.406	3397
834.544	3412
834.682	3378
834.821	3378
834.959	3603
835.097	3416
835.235	3473
835.373	3485
835.511	3488
835.65	3462
835.788	3519
835.926	3378
836.064	3351
836.202	3393
836.34	3523
836.478	3603
836.615	3530
836.753	3591
836.891	3606
837.029	3614
837.167	3603
837.305	3526
837.443	3515
837.58	3507
837.718	3591
837.856	3523
837.993	3523
838.131	3587
838.269	3584
838.406	3580
838.544	3614
838.681	3443
838.819	3458
838.956	3393
839.094	3370
839.231	3439
839.369	3504
839.506	3724
839.643	3595
839.781	3500
839.918	3450
840.055	3515
840.193	3485
840.33	3485
840.467	3553
840.604	3595
840.742	3846
840.879	3523
841.016	3549
841.153	3595
841.29	3755
841.427	3743
841.564	3747
841.701	3759
841.838	3709
841.975	3663
842.112	3633
842.249	3656
842.385	3606
842.522	3766
842.659	3709
842.796	3679
842.933	3686
843.069	3698
843.206	3701
843.343	3778
843.479	3740
843.616	3804
843.752	3644
843.889	3663
844.025	3838
844.162	3690
844.298	3846
844.435	3797
844.571	3766
844.708	3884
844.844	3960
844.98	4040
845.117	3998
845.253	3915
845.389	3884
845.525	3930
845.661	3949
845.798	3896
845.934	4002
846.07	3926
846.206	4074
846.342	4097
846.478	4040
846.614	3968
846.75	3873
846.886	3911
847.022	3991
847.158	3991
847.294	3994
847.429	3964
847.565	4006
847.701	4215
847.837	3884
847.972	3857
848.108	4036
848.244	3926
848.379	3816
848.515	3766
848.65	3831
848.786	3797
848.921	3857
849.057	3896
849.192	3953
849.328	3926
849.463	3892
849.598	3880
849.734	3903
849.869	3854
850.004	3774
850.14	3781
850.275	3766
850.41	3720
850.545	3682
850.68	3778
850.815	3835
850.95	3778
851.085	3903
851.22	3846
851.355	3793
851.49	3789
851.625	3770
851.76	3778
851.895	3736
852.03	3709
852.165	3793
852.299	3812
852.434	3873
852.569	3831
852.703	3907
852.838	3911
852.973	4036
853.107	3983
853.242	3846
853.376	3854
853.511	3762
853.645	3842
853.78	3926
853.914	3865
854.048	3838
854.183	3869
854.317	3949
854.451	4078
854.585	3949
854.72	3922
854.854	4051
854.988	3907
855.122	3964
855.256	3903
855.39	3991
855.524	4082
855.658	4071
855.792	4086
855.926	4196
856.06	4143
856.194	4177
856.327	4128
856.461	4097
856.595	4150
856.729	4135
856.862	4265
856.996	4227
857.13	4272
857.263	4352
857.397	4333
857.53	4265
857.664	4352
857.797	4402
857.931	4405
858.064	4329
858.197	4436
858.331	4360
858.464	4383
858.597	4329
858.731	4417
858.864	4459
858.997	4417
859.13	4470
859.263	4485
859.396	4580
859.529	4485
859.662	4531
859.795	4497
859.928	4550
860.061	4664
860.194	4733
860.327	4653
860.46	4611
860.592	4706
860.725	4687
860.858	4721
860.99	4649
861.123	4687
861.256	4641
861.388	4736
861.521	5318
861.653	4687
861.786	4710
861.918	4771
862.05	4740
862.183	4862
862.315	4889
862.447	4934
862.58	4896
862.712	4805
862.844	4740
862.976	4854
863.108	4885
863.24	5223
863.372	4831
863.504	4896
863.636	4915
863.768	4980
863.9	4957
864.032	4866
864.164	4930
864.296	4991
864.428	5086
864.559	5086
864.691	5071
864.823	5109
864.954	5181
865.086	5155
865.217	5052
865.349	5094
865.48	5113
865.612	5136
865.743	5318
865.875	5136
866.006	5193
866.137	5250
866.269	5197
866.4	5250
866.531	5223
866.662	5227
866.793	5242
866.924	5284
867.055	5265
867.186	5337
867.317	5337
867.448	5269
867.579	5425
867.71	5391
867.841	5372
867.972	5406
868.103	5467
868.233	5429
868.364	5501
868.495	5516
868.625	5710
868.756	5756
868.886	5665
869.017	5688
869.147	5874
869.278	5855
869.408	5783
869.539	5760
869.669	5866
869.799	5840
869.929	5980
870.06	5992
870.19	6232
870.32	6182
870.45	6266
870.58	6266
870.71	6422
870.84	6464
870.97	6346
871.1	6407
871.23	6559
871.36	6616
871.489	6623
871.619	6745
871.749	6753
871.879	6863
872.008	6996
872.138	6993
872.267	7012
872.397	6924
872.526	7027
872.656	7084
872.785	7213
872.915	7384
873.044	7472
873.173	7563
873.303	7643
873.432	7719
873.561	7837
873.69	7871
873.819	7963
873.948	8180
874.077	8180
874.206	8256
874.335	8442
874.464	8640
874.593	8826
874.722	8982
874.851	9055
874.979	9241
875.108	9321
875.237	9431
875.365	9454
875.494	9629
875.623	9880
875.751	9842
875.88	10017
876.008	10086
876.136	10295
876.265	10493
876.393	10645
876.521	10656
876.65	10790
876.778	10869
876.906	10908
877.034	10999
877.162	11064
877.29	11117
877.418	11326
877.546	11261
877.674	11376
877.802	11395
877.93	11520
878.058	11547
878.185	11535
878.313	11665
878.441	11710
878.568	11642
878.696	11805
878.824	11794
878.951	11946
879.079	12022
879.206	12011
879.333	11984
879.461	12068
879.588	11992
879.715	12114
879.842	12216
879.97	12053
880.097	11840
880.224	11828
880.351	11809
880.478	11859
880.605	11855
880.732	11794
880.859	11999
880.986	11828
881.112	11973
881.239	11657
881.366	11604
881.493	11638
881.619	11532
881.746	11547
881.872	11497
881.999	11463
882.125	11463
882.252	11524
882.378	11497
882.505	11638
882.631	11379
882.757	11322
882.883	11337
883.01	11303
883.136	11223
883.262	11193
883.388	11159
883.514	11189
883.64	11109
883.766	11060
883.892	10984
884.018	10927
884.143	11010
884.269	11071
884.395	10892
884.52	10714
884.646	10748
884.772	10683
884.897	10618
885.023	10577
885.148	10698
885.274	10812
885.399	10687
885.524	10607
885.65	10573
885.775	10588
885.9	10531
886.025	10584
886.15	10497
886.275	10424
886.4	10356
886.525	10405
886.65	10398
886.775	10284
886.9	10440
887.025	10512
887.149	10367
887.274	10128
887.399	10166
887.523	10105
887.648	10147
887.773	10143
887.897	10207
888.021	10143
888.146	10131
888.27	10181
888.395	10219
888.519	10207
888.643	10200
888.767	10192
888.891	10101
889.015	10021
889.139	10002
889.263	10036
889.387	10082
889.511	10109
889.635	10124
889.759	9922
889.883	10029
890.006	9941
890.13	10036
890.254	9884
890.377	9945
890.501	9816
890.624	9835
890.748	9934
890.871	9781
890.995	9774
891.118	9736
891.241	9842
891.364	9778
891.488	9865
891.611	9720
891.734	9717
891.857	9789
891.98	9705
892.103	9709
892.226	9740
892.349	9660
892.471	9511
892.594	9614
892.717	9633
892.839	9538
892.962	9637
893.085	9599
893.207	9530
893.33	9496
893.452	9519
893.575	9549
893.697	9496
893.819	9637
893.941	9614
894.064	9641
894.186	9401
894.308	9351
894.43	9534
894.552	9561
894.674	9595
894.796	9397
894.918	9332
895.04	9306
895.161	9401
895.283	9329
895.405	9214
895.526	9260
895.648	9188
895.769	9313
895.891	9268
896.012	9260
896.134	9199
896.255	9180
896.376	9127
896.498	9043
896.619	9093
896.74	9066
896.861	9081
896.982	9287
897.103	9294
897.224	9184
897.345	9066
897.466	8990
897.587	9005
897.708	9085
897.828	9051
897.949	8956
898.07	8815
898.19	8857
898.311	9017
898.431	8891
898.552	8876
898.672	8990
898.792	8941
898.913	8872
899.033	8807
899.153	8762
899.273	8617
899.393	8674
899.513	8705
899.633	8758
899.753	8674
899.873	8724
899.993	8769
900.113	8705
900.232	8674
900.352	8636
900.472	8598
900.591	8492
900.711	8556
900.83	8480
900.95	8701
901.069	8701
901.189	8602
901.308	8415
901.427	8343
901.546	8434
901.665	8431
901.784	8484
901.904	8389
902.023	8267
902.141	8202
902.26	8172
902.379	8195
902.498	8142
902.617	8145
902.735	8244
902.854	8290
902.973	8248
903.091	8107
903.21	8134
903.328	8168
903.446	8119
903.565	8088
903.683	8077
903.801	8054
903.919	8123
904.038	8103
904.156	8058
904.274	8043
904.392	7997
904.51	8050
904.627	8016
904.745	8103
904.863	8092
904.981	7890
905.098	7887
905.216	7951
905.334	7909
905.451	7925
905.569	7849
905.686	7947
905.803	7883
905.921	7731
906.038	7875
906.155	7757
906.272	7750
906.389	7708
906.506	7643
906.623	7582
906.74	7540
906.857	7529
906.974	7563
907.091	7750
907.208	7731
907.324	7559
907.441	7499
907.557	7438
907.674	7453
907.79	7358
907.907	7411
908.023	7445
908.139	7411
908.256	7358
908.372	7396
908.488	7331
908.604	7228
908.72	7202
908.836	7320
908.952	7156
909.068	7247
909.184	7346
909.3	7225
909.415	7331
909.531	7225
909.647	7088
909.762	7065
909.878	7084
909.993	7122
910.108	6996
910.224	7076
910.339	7072
910.454	6989
910.57	7008
910.685	6932
910.8	7156
910.915	7095
911.03	7061
911.145	6848
911.259	6920
911.374	6833
911.489	6787
911.604	6821
911.718	6688
911.833	6692
911.947	6578
912.062	6555
912.176	6692
912.291	6700
912.405	6646
912.519	6806
912.633	6818
912.748	6719
912.862	6677
912.976	6570
913.09	6521
913.204	6574
913.318	6601
913.431	6650
913.545	6623
913.659	6665
913.772	6650
913.886	6536
914	6509
914.113	6612
914.226	6604
914.34	6544
914.453	6429
914.566	6620
914.68	6521
914.793	6498
914.906	6410
915.019	6369
915.132	6365
915.245	6422
915.358	6422
915.47	6414
915.583	6429
915.696	6426
915.809	6498
915.921	6570
916.034	6456
916.146	6365
916.259	6380
916.371	6426
916.483	6483
916.595	6334
916.708	6410
916.82	6372
916.932	6323
917.044	6399
917.156	6331
917.268	6350
917.38	6266
917.491	6266
917.603	6342
917.715	6338
917.826	6429
917.938	6292
918.049	6270
918.161	6334
918.272	6433
918.384	6357
918.495	6361
918.606	6201
918.717	6232
918.828	6239
918.939	6254
919.05	6178
919.161	6197
919.272	6049
919.383	6136
919.494	6273
919.604	6376
919.715	6277
919.826	6148
919.936	6296
920.047	6342
920.157	6262
920.267	6452
920.378	6319
920.488	6319
920.598	6410
920.708	6528
920.818	6456
920.928	6372
921.038	6582
921.148	6544
921.258	6331
921.368	6232
921.477	6239
921.587	6152
921.697	6057
921.806	6163
921.916	6019
922.025	5897
922.134	5866
922.244	5840
922.353	5961
922.462	5821
922.571	5817
922.68	5672
922.789	5615
922.898	5710
923.007	5672
923.116	5699
923.224	5695
923.333	5623
923.442	5539
923.55	5608
923.659	5577
923.767	5688
923.876	5497
923.984	5604
924.092	5497
924.201	5543
924.309	5532
924.417	5467
924.525	5478
924.633	5512
924.741	6308
924.849	5330
924.956	5463
925.064	5360
925.172	5299
925.279	5318
925.387	5341
925.494	5307
925.602	5402
925.709	5414
925.816	5208
925.924	5204
926.031	5406
926.138	5368
926.245	5277
926.352	5220
926.459	5254
926.566	5337
926.673	5212
926.779	5102
926.886	5060
926.993	5052
927.099	5003
927.206	4980
927.312	4927
927.419	4968
927.525	4949
927.631	4984
927.737	4873
927.843	4850
927.95	4786
928.056	4843
928.162	4816
928.267	4847
928.373	5280
928.479	4835
928.585	4733
928.69	4668
928.796	4782
928.901	4675
929.007	4542
929.112	4653
929.218	4634
929.323	4618
929.428	4527
929.533	4596
929.638	4512
929.743	4504
929.848	4558
929.953	4478
930.058	4424
930.163	4348
930.267	4287
930.372	4367
930.477	4341
930.581	4432
930.685	4303
930.79	4249
930.894	4265
930.998	4238
931.103	4344
931.207	4135
931.311	4059
931.415	4036
931.519	3926
931.623	3903
