Data from glass_V78500241_1568.txt Node
Date: Wed Sep 01 19:25:22 CST 2021
User: usil
Spectrometer: V785-0024
Trigger mode: 0
Integration Time (sec): 4.000000E-1
Scans to average: 1
Nonlinearity correction enabled: false
Boxcar width: 0
Storing dark spectrum: false
XAxis mode: Wavelengths
Number of Pixels in Spectrum: 1024
>>>>>Begin Spectral Data<<<<<
801.071	3724
801.214	3774
801.356	3694
801.499	3720
801.641	3709
801.783	3789
801.926	3838
802.068	3857
802.211	3880
802.353	3880
802.496	3838
802.638	3876
802.78	3964
802.923	3941
803.065	3907
803.208	3842
803.35	3903
803.492	3907
803.635	3903
803.777	3812
803.919	3918
804.061	4143
804.204	3956
804.346	3945
804.488	3915
804.63	4044
804.773	3960
804.915	4025
805.057	4154
805.199	4074
805.341	4112
805.483	4207
805.626	4173
805.768	4166
805.91	4207
806.052	4280
806.194	4207
806.336	4322
806.478	4223
806.62	4158
806.762	4173
806.904	4238
807.046	4322
807.188	4200
807.33	4158
807.472	4207
807.614	4162
807.756	4284
807.898	4215
808.04	4246
808.182	4257
808.324	4375
808.465	4375
808.607	4489
808.749	4428
808.891	4508
809.033	4535
809.174	4394
809.316	4268
809.458	4284
809.6	4177
809.741	4166
809.883	4188
810.025	4207
810.166	4207
810.308	4242
810.45	4249
810.591	4223
810.733	4287
810.875	4519
811.016	4828
811.158	5090
811.299	5265
811.441	5322
811.582	5102
811.724	4706
811.865	4497
812.007	4428
812.148	4432
812.29	4421
812.431	4394
812.573	4379
812.714	4398
812.855	4386
812.997	4413
813.138	4451
813.279	4375
813.421	4390
813.562	4363
813.703	4318
813.845	4344
813.986	4253
814.127	4211
814.268	4207
814.41	4291
814.551	4261
814.692	4310
814.833	4242
814.974	4314
815.115	4329
815.256	4246
815.397	4204
815.539	4249
815.68	4219
815.821	4162
815.962	4314
816.103	4268
816.244	4207
816.385	4253
816.526	4325
816.666	4246
816.807	4063
816.948	4188
817.089	4192
817.23	4109
817.371	4044
817.512	4040
817.653	4048
817.793	4029
817.934	4032
818.075	4124
818.216	4040
818.356	4074
818.497	4002
818.638	3884
818.778	3911
818.919	3896
819.06	3850
819.2	3911
819.341	3850
819.481	3812
819.622	3922
819.762	4067
819.903	3968
820.043	3861
820.184	3831
820.324	3865
820.465	3907
820.605	3865
820.746	3888
820.886	3804
821.026	3918
821.167	3953
821.307	4006
821.447	3960
821.588	3930
821.728	3956
821.868	3956
822.008	3876
822.149	3953
822.289	3876
822.429	3762
822.569	3785
822.709	3838
822.849	3675
822.99	3759
823.13	3747
823.27	3812
823.41	3717
823.55	3766
823.69	3705
823.83	3751
823.97	3717
824.11	3618
824.25	3576
824.389	3633
824.529	3682
824.669	3614
824.809	3686
824.949	3774
825.089	3732
825.228	3679
825.368	3644
825.508	3538
825.648	3564
825.787	3660
825.927	3629
826.067	3584
826.206	3625
826.346	3778
826.485	3800
826.625	3850
826.765	3975
826.904	3861
827.044	3641
827.183	3530
827.323	3431
827.462	3481
827.601	3439
827.741	3454
827.88	3439
828.02	3367
828.159	3439
828.298	3462
828.437	3542
828.577	3496
828.716	3606
828.855	3477
828.994	3378
829.134	3355
829.273	3405
829.412	3389
829.551	3363
829.69	3344
829.829	3443
829.968	3504
830.107	3462
830.246	3439
830.385	3378
830.524	3370
830.663	3291
830.802	3279
830.941	3214
831.08	3195
831.219	3272
831.357	3279
831.496	3393
831.635	3199
831.774	3195
831.913	3218
832.051	3154
832.19	3154
832.329	3203
832.467	3100
832.606	3104
832.744	3173
832.883	3165
833.022	3195
833.16	3279
833.299	3321
833.437	3294
833.576	3378
833.714	3382
833.852	3439
833.991	3458
834.129	3466
834.267	3458
834.406	3344
834.544	3431
834.682	3401
834.821	3401
834.959	3568
835.097	3416
835.235	3538
835.373	3500
835.511	3511
835.65	3469
835.788	3507
835.926	3393
836.064	3367
836.202	3435
836.34	3526
836.478	3618
836.615	3534
836.753	3576
836.891	3633
837.029	3660
837.167	3603
837.305	3584
837.443	3534
837.58	3485
837.718	3614
837.856	3561
837.993	3523
838.131	3629
838.269	3572
838.406	3606
838.544	3603
838.681	3435
838.819	3431
838.956	3363
839.094	3382
839.231	3469
839.369	3526
839.506	3740
839.643	3644
839.781	3492
839.918	3473
840.055	3545
840.193	3576
840.33	3523
840.467	3561
840.604	3595
840.742	3835
840.879	3542
841.016	3561
841.153	3576
841.29	3774
841.427	3660
841.564	3736
841.701	3800
841.838	3682
841.975	3663
842.112	3724
842.249	3701
842.385	3656
842.522	3819
842.659	3690
842.796	3686
842.933	3736
843.069	3682
843.206	3686
843.343	3778
843.479	3770
843.616	3854
843.752	3682
843.889	3755
844.025	3842
844.162	3686
844.298	3854
844.435	3778
844.571	3793
844.708	3926
844.844	3960
844.98	4017
845.117	4017
845.253	3899
845.389	3934
845.525	3979
845.661	3968
845.798	3922
845.934	4006
846.07	3922
846.206	4078
846.342	4112
846.478	4086
846.614	3949
846.75	3956
846.886	3873
847.022	4044
847.158	3979
847.294	3979
847.429	4029
847.565	3991
847.701	4200
847.837	3873
847.972	3838
848.108	4010
848.244	3991
848.379	3827
848.515	3831
848.65	3827
848.786	3838
848.921	3819
849.057	3926
849.192	3979
849.328	3907
849.463	3899
849.598	3892
849.734	3880
849.869	3800
850.004	3808
850.14	3823
850.275	3793
850.41	3736
850.545	3713
850.68	3740
850.815	3819
850.95	3743
851.085	3960
851.22	3827
851.355	3842
851.49	3827
851.625	3816
851.76	3781
851.895	3755
852.03	3766
852.165	3793
852.299	3800
852.434	3865
852.569	3876
852.703	3831
852.838	3975
852.973	3960
853.107	4010
853.242	3873
853.376	3911
853.511	3804
853.645	3831
853.78	3937
853.914	3899
854.048	3953
854.183	3884
854.317	3972
854.451	4078
854.585	3926
854.72	3918
854.854	4040
854.988	3945
855.122	4006
855.256	3880
855.39	4044
855.524	4112
855.658	4067
855.792	4112
855.926	4192
856.06	4150
856.194	4215
856.327	4158
856.461	4086
856.595	4154
856.729	4181
856.862	4284
856.996	4295
857.13	4268
857.263	4341
857.397	4352
857.53	4268
857.664	4405
857.797	4348
857.931	4417
858.064	4417
858.197	4413
858.331	4379
858.464	4371
858.597	4363
858.731	4440
858.864	4497
858.997	4455
859.13	4527
859.263	4546
859.396	4588
859.529	4519
859.662	4550
859.795	4523
859.928	4584
860.061	4698
860.194	4714
860.327	4577
860.46	4672
860.592	4717
860.725	4748
860.858	4763
860.99	4668
861.123	4668
861.256	4755
861.388	4759
861.521	5543
861.653	4736
861.786	4725
861.918	4755
862.05	4820
862.183	4809
862.315	4896
862.447	4938
862.58	4946
862.712	4816
862.844	4782
862.976	4908
863.108	4881
863.24	5250
863.372	4850
863.504	4889
863.636	4900
863.768	4942
863.9	4972
864.032	4946
864.164	4976
864.296	5025
864.428	5090
864.559	5102
864.691	5124
864.823	5075
864.954	5124
865.086	5140
865.217	5124
865.349	5113
865.48	5109
865.612	5143
865.743	5299
865.875	5212
866.006	5193
866.137	5235
866.269	5178
866.4	5223
866.531	5258
866.662	5208
866.793	5277
866.924	5322
867.055	5357
867.186	5334
867.317	5364
867.448	5303
867.579	5318
867.71	5379
867.841	5364
867.972	5448
868.103	5486
868.233	5516
868.364	5532
868.495	5562
868.625	5661
868.756	5790
868.886	5623
869.017	5733
869.147	5840
869.278	5836
869.408	5809
869.539	5802
869.669	5961
869.799	5916
869.929	5992
870.06	6049
870.19	6262
870.32	6144
870.45	6281
870.58	6285
870.71	6407
870.84	6464
870.97	6422
871.1	6479
871.23	6646
871.36	6688
871.489	6642
871.619	6734
871.749	6806
871.879	6852
872.008	7019
872.138	6951
872.267	6954
872.397	6970
872.526	7042
872.656	7095
872.785	7202
872.915	7350
873.044	7495
873.173	7571
873.303	7586
873.432	7753
873.561	7849
873.69	7951
873.819	8043
873.948	8210
874.077	8252
874.206	8343
874.335	8461
874.464	8644
874.593	8861
874.722	8986
874.851	9157
874.979	9188
875.108	9370
875.237	9462
875.365	9462
875.494	9610
875.623	9861
875.751	9884
875.88	10017
876.008	10055
876.136	10268
876.265	10561
876.393	10672
876.521	10725
876.65	10790
876.778	10873
876.906	10938
877.034	10972
877.162	11067
877.29	11105
877.418	11299
877.546	11421
877.674	11417
877.802	11467
877.93	11455
878.058	11547
878.185	11611
878.313	11684
878.441	11737
878.568	11630
878.696	11726
878.824	11859
878.951	11904
879.079	12030
879.206	12144
879.333	12053
879.461	11992
879.588	12030
879.715	12125
879.842	12220
879.97	12083
880.097	11882
880.224	11878
880.351	11885
880.478	11946
880.605	11828
880.732	11821
880.859	11927
880.986	11790
881.112	11832
881.239	11676
881.366	11680
881.493	11657
881.619	11566
881.746	11539
881.872	11573
881.999	11524
882.125	11433
882.252	11608
882.378	11566
882.505	11615
882.631	11368
882.757	11356
882.883	11345
883.01	11220
883.136	11140
883.262	11067
883.388	11090
883.514	11201
883.64	11086
883.766	11124
883.892	10968
884.018	11045
884.143	11105
884.269	11075
884.395	10873
884.52	10774
884.646	10767
884.772	10675
884.897	10672
885.023	10664
885.148	10767
885.274	10767
885.399	10675
885.524	10637
885.65	10531
885.775	10649
885.9	10675
886.025	10569
886.15	10577
886.275	10504
886.4	10417
886.525	10382
886.65	10390
886.775	10382
886.9	10455
887.025	10516
887.149	10379
887.274	10200
887.399	10166
887.523	10192
887.648	10116
887.773	10074
887.897	10211
888.021	10268
888.146	10086
888.27	10211
888.395	10257
888.519	10253
888.643	10135
888.767	10215
888.891	10128
889.015	10059
889.139	10086
889.263	10002
889.387	10040
889.511	10147
889.635	10120
889.759	9930
889.883	9873
890.006	10032
890.13	10097
890.254	9884
890.377	10006
890.501	9857
890.624	9827
890.748	9880
890.871	9724
890.995	9736
891.118	9717
891.241	9770
891.364	9663
891.488	9827
891.611	9717
891.734	9785
891.857	9732
891.98	9675
892.103	9743
892.226	9709
892.349	9644
892.471	9545
892.594	9523
892.717	9614
892.839	9633
892.962	9584
893.085	9663
893.207	9580
893.33	9549
893.452	9515
893.575	9557
893.697	9488
893.819	9690
893.941	9610
894.064	9618
894.186	9447
894.308	9378
894.43	9557
894.552	9515
894.674	9481
894.796	9275
894.918	9405
895.04	9340
895.161	9351
895.283	9302
895.405	9226
895.526	9245
895.648	9173
895.769	9218
895.891	9302
896.012	9272
896.134	9230
896.255	9150
896.376	9070
896.498	9123
896.619	9089
896.74	9100
896.861	9131
896.982	9241
897.103	9317
897.224	9287
897.345	9005
897.466	9017
897.587	9051
897.708	9047
897.828	8990
897.949	8899
898.07	8887
898.19	8899
898.311	9013
898.431	8906
898.552	8937
898.672	9005
898.792	8921
898.913	8910
899.033	8819
899.153	8788
899.273	8651
899.393	8701
899.513	8727
899.633	8655
899.753	8750
899.873	8629
899.993	8735
900.113	8743
900.232	8785
900.352	8629
900.472	8663
900.591	8564
900.711	8594
900.83	8598
900.95	8667
901.069	8708
901.189	8598
901.308	8446
901.427	8438
901.546	8423
901.665	8423
901.784	8488
901.904	8427
902.023	8358
902.141	8267
902.26	8221
902.379	8275
902.498	8218
902.617	8240
902.735	8294
902.854	8351
902.973	8271
903.091	8103
903.21	8043
903.328	8161
903.446	8092
903.565	8065
903.683	8096
903.801	8035
903.919	8149
904.038	8195
904.156	8092
904.274	8073
904.392	8012
904.51	8027
904.627	7970
904.745	8077
904.863	8100
904.981	7955
905.098	7883
905.216	7852
905.334	7932
905.451	7887
905.569	7875
905.686	7909
905.803	7841
905.921	7784
906.038	7898
906.155	7826
906.272	7715
906.389	7689
906.506	7601
906.623	7616
906.74	7582
906.857	7521
906.974	7616
907.091	7670
907.208	7734
907.324	7655
907.441	7582
907.557	7487
907.674	7502
907.79	7400
907.907	7396
908.023	7396
908.139	7407
908.256	7308
908.372	7339
908.488	7327
908.604	7247
908.72	7221
908.836	7324
908.952	7194
909.068	7301
909.184	7270
909.3	7266
909.415	7331
909.531	7312
909.647	7114
909.762	7152
909.878	7099
909.993	7171
910.108	7118
910.224	7050
910.339	7069
910.454	6996
910.57	7057
910.685	6932
910.8	7179
910.915	7099
911.03	7072
911.145	6958
911.259	6916
911.374	6882
911.489	6798
911.604	6779
911.718	6772
911.833	6730
911.947	6635
912.062	6623
912.176	6730
912.291	6715
912.405	6696
912.519	6852
912.633	6783
912.748	6707
912.862	6688
912.976	6582
913.09	6490
913.204	6585
913.318	6642
913.431	6669
913.545	6688
913.659	6722
913.772	6650
913.886	6570
914	6601
914.113	6639
914.226	6677
914.34	6635
914.453	6490
914.566	6566
914.68	6521
914.793	6498
914.906	6403
915.019	6395
915.132	6331
915.245	6506
915.358	6498
915.47	6471
915.583	6452
915.696	6467
915.809	6559
915.921	6578
916.034	6410
916.146	6414
916.259	6422
916.371	6467
916.483	6475
916.595	6384
916.708	6437
916.82	6388
916.932	6357
917.044	6353
917.156	6369
917.268	6292
917.38	6338
917.491	6327
917.603	6353
917.715	6399
917.826	6399
917.938	6346
918.049	6235
918.161	6350
918.272	6429
918.384	6433
918.495	6346
918.606	6239
918.717	6194
918.828	6304
918.939	6262
919.05	6224
919.161	6304
919.272	6087
919.383	6148
919.494	6266
919.604	6460
919.715	6319
919.826	6201
919.936	6235
920.047	6369
920.157	6262
920.267	6445
920.378	6311
920.488	6319
920.598	6502
920.708	6547
920.818	6517
920.928	6456
921.038	6646
921.148	6635
921.258	6399
921.368	6296
921.477	6155
921.587	6152
921.697	6098
921.806	6167
921.916	6038
922.025	5969
922.134	5893
922.244	5920
922.353	5935
922.462	5889
922.571	5786
922.68	5699
922.789	5665
922.898	5745
923.007	5615
923.116	5714
923.224	5634
923.333	5714
923.442	5627
923.55	5558
923.659	5615
923.767	5657
923.876	5570
923.984	5570
924.092	5474
924.201	5604
924.309	5486
924.417	5581
924.525	5440
924.633	5524
924.741	6110
924.849	5436
924.956	5459
925.064	5364
925.172	5277
925.279	5265
925.387	5372
925.494	5341
925.602	5433
925.709	5414
925.816	5273
925.924	5303
926.031	5368
926.138	5261
926.245	5383
926.352	5242
926.459	5322
926.566	5322
926.673	5197
926.779	5155
926.886	5124
926.993	5041
927.099	5010
927.206	4961
927.312	4961
927.419	5003
927.525	5014
927.631	4984
927.737	4934
927.843	4862
927.95	4790
928.056	4839
928.162	4809
928.267	4839
928.373	5337
928.479	4843
928.585	4637
928.69	4710
928.796	4740
928.901	4702
929.007	4573
929.112	4702
929.218	4649
929.323	4615
929.428	4611
929.533	4694
929.638	4512
929.743	4523
929.848	4573
929.953	4470
930.058	4390
930.163	4303
930.267	4318
930.372	4409
930.477	4318
930.581	4447
930.685	4386
930.79	4265
930.894	4287
930.998	4314
931.103	4421
931.207	4143
931.311	4093
931.415	4040
931.519	3907
931.623	3896
