Data from glass_V78500241_1230.txt Node
Date: Wed Sep 01 19:23:01 CST 2021
User: usil
Spectrometer: V785-0024
Trigger mode: 0
Integration Time (sec): 4.000000E-1
Scans to average: 1
Nonlinearity correction enabled: false
Boxcar width: 0
Storing dark spectrum: false
XAxis mode: Wavelengths
Number of Pixels in Spectrum: 1024
>>>>>Begin Spectral Data<<<<<
801.071	3812
801.214	3789
801.356	3694
801.499	3724
801.641	3774
801.783	3808
801.926	3907
802.068	3850
802.211	3861
802.353	3915
802.496	3766
802.638	3884
802.78	3907
802.923	3876
803.065	3922
803.208	3896
803.35	3857
803.492	3896
803.635	3911
803.777	3816
803.919	3922
804.061	4177
804.204	3960
804.346	3956
804.488	3915
804.63	4040
804.773	3994
804.915	4055
805.057	4097
805.199	4063
805.341	4101
805.483	4177
805.626	4150
805.768	4162
805.91	4223
806.052	4246
806.194	4207
806.336	4367
806.478	4242
806.62	4139
806.762	4204
806.904	4280
807.046	4379
807.188	4287
807.33	4166
807.472	4249
807.614	4188
807.756	4253
807.898	4223
808.04	4223
808.182	4329
808.324	4329
808.465	4379
808.607	4478
808.749	4497
808.891	4451
809.033	4527
809.174	4462
809.316	4280
809.458	4280
809.6	4139
809.741	4154
809.883	4143
810.025	4211
810.166	4249
810.308	4207
810.45	4249
810.591	4169
810.733	4261
810.875	4516
811.016	4797
811.158	5128
811.299	5303
811.441	5242
811.582	5060
811.724	4706
811.865	4466
812.007	4443
812.148	4459
812.29	4394
812.431	4451
812.573	4428
812.714	4375
812.855	4405
812.997	4436
813.138	4493
813.279	4489
813.421	4440
813.562	4413
813.703	4367
813.845	4375
813.986	4276
814.127	4246
814.268	4227
814.41	4295
814.551	4295
814.692	4371
814.833	4265
814.974	4230
815.115	4341
815.256	4287
815.397	4223
815.539	4287
815.68	4223
815.821	4181
815.962	4371
816.103	4287
816.244	4227
816.385	4238
816.526	4257
816.666	4177
816.807	4071
816.948	4181
817.089	4173
817.23	4116
817.371	4059
817.512	4109
817.653	4067
817.793	4032
817.934	4025
818.075	4090
818.216	4090
818.356	4105
818.497	3964
818.638	3956
818.778	3953
818.919	3880
819.06	3873
819.2	3930
819.341	3850
819.481	3827
819.622	3918
819.762	4040
819.903	3899
820.043	3892
820.184	3835
820.324	3857
820.465	3854
820.605	3888
820.746	3865
820.886	3816
821.026	3937
821.167	3911
821.307	3972
821.447	3983
821.588	3949
821.728	3979
821.868	3911
822.008	3918
822.149	3934
822.289	3918
822.429	3804
822.569	3774
822.709	3800
822.849	3682
822.99	3709
823.13	3823
823.27	3785
823.41	3762
823.55	3785
823.69	3724
823.83	3759
823.97	3694
824.11	3599
824.25	3599
824.389	3652
824.529	3663
824.669	3629
824.809	3694
824.949	3774
825.089	3736
825.228	3751
825.368	3580
825.508	3572
825.648	3549
825.787	3606
825.927	3618
826.067	3656
826.206	3648
826.346	3816
826.485	3823
826.625	3854
826.765	3968
826.904	3850
827.044	3682
827.183	3538
827.323	3428
827.462	3485
827.601	3447
827.741	3454
827.88	3458
828.02	3370
828.159	3428
828.298	3450
828.437	3538
828.577	3488
828.716	3599
828.855	3485
828.994	3363
829.134	3393
829.273	3382
829.412	3332
829.551	3355
829.69	3351
829.829	3420
829.968	3504
830.107	3435
830.246	3466
830.385	3389
830.524	3374
830.663	3329
830.802	3233
830.941	3241
831.08	3199
831.219	3256
831.357	3264
831.496	3435
831.635	3272
831.774	3188
831.913	3180
832.051	3131
832.19	3123
832.329	3214
832.467	3146
832.606	3123
832.744	3195
832.883	3211
833.022	3173
833.16	3249
833.299	3272
833.437	3344
833.576	3382
833.714	3416
833.852	3428
833.991	3469
834.129	3458
834.267	3458
834.406	3412
834.544	3409
834.682	3454
834.821	3435
834.959	3568
835.097	3428
835.235	3534
835.373	3492
835.511	3500
835.65	3466
835.788	3542
835.926	3447
836.064	3393
836.202	3412
836.34	3576
836.478	3584
836.615	3534
836.753	3584
836.891	3648
837.029	3652
837.167	3606
837.305	3542
837.443	3496
837.58	3511
837.718	3587
837.856	3595
837.993	3534
838.131	3656
838.269	3580
838.406	3580
838.544	3614
838.681	3462
838.819	3428
838.956	3374
839.094	3405
839.231	3473
839.369	3500
839.506	3724
839.643	3641
839.781	3511
839.918	3466
840.055	3549
840.193	3530
840.33	3545
840.467	3564
840.604	3587
840.742	3838
840.879	3553
841.016	3553
841.153	3606
841.29	3762
841.427	3743
841.564	3667
841.701	3766
841.838	3709
841.975	3694
842.112	3736
842.249	3671
842.385	3614
842.522	3800
842.659	3701
842.796	3701
842.933	3679
843.069	3713
843.206	3720
843.343	3762
843.479	3770
843.616	3827
843.752	3694
843.889	3686
844.025	3850
844.162	3717
844.298	3865
844.435	3785
844.571	3823
844.708	3907
844.844	3975
844.98	4021
845.117	3994
845.253	3922
845.389	3918
845.525	3964
845.661	3968
845.798	3994
845.934	4036
846.07	3979
846.206	4036
846.342	4090
846.478	4082
846.614	3937
846.75	3960
846.886	3888
847.022	4071
847.158	4017
847.294	4017
847.429	4006
847.565	4017
847.701	4265
847.837	3880
847.972	3884
848.108	3994
848.244	4025
848.379	3854
848.515	3831
848.65	3823
848.786	3838
848.921	3892
849.057	3937
849.192	3930
849.328	3903
849.463	3930
849.598	3876
849.734	3823
849.869	3823
850.004	3800
850.14	3766
850.275	3785
850.41	3755
850.545	3819
850.68	3778
850.815	3793
850.95	3793
851.085	3953
851.22	3873
851.355	3842
851.49	3835
851.625	3789
851.76	3854
851.895	3755
852.03	3724
852.165	3823
852.299	3865
852.434	3953
852.569	3857
852.703	3827
852.838	3964
852.973	3968
853.107	4017
853.242	3888
853.376	3884
853.511	3816
853.645	3838
853.78	4002
853.914	3846
854.048	3903
854.183	3865
854.317	3960
854.451	4124
854.585	3968
854.72	3956
854.854	4071
854.988	3949
855.122	4010
855.256	3949
855.39	3998
855.524	4128
855.658	4078
855.792	4074
855.926	4147
856.06	4185
856.194	4230
856.327	4177
856.461	4124
856.595	4154
856.729	4169
856.862	4310
856.996	4272
857.13	4284
857.263	4329
857.397	4329
857.53	4306
857.664	4356
857.797	4443
857.931	4409
858.064	4424
858.197	4478
858.331	4405
858.464	4424
858.597	4303
858.731	4459
858.864	4451
858.997	4436
859.13	4500
859.263	4478
859.396	4580
859.529	4561
859.662	4558
859.795	4535
859.928	4561
860.061	4672
860.194	4694
860.327	4687
860.46	4645
860.592	4729
860.725	4816
860.858	4793
860.99	4717
861.123	4641
861.256	4733
861.388	4782
861.521	5315
861.653	4721
861.786	4691
861.918	4748
862.05	4790
862.183	4904
862.315	4881
862.447	5014
862.58	4900
862.712	4809
862.844	4839
862.976	4881
863.108	4881
863.24	5185
863.372	4877
863.504	4908
863.636	4892
863.768	5003
863.9	4999
864.032	4889
864.164	4953
864.296	5086
864.428	5094
864.559	5136
864.691	5094
864.823	5147
864.954	5117
865.086	5159
865.217	5124
865.349	5071
865.48	5174
865.612	5231
865.743	5307
865.875	5258
866.006	5174
866.137	5273
866.269	5269
866.4	5246
866.531	5231
866.662	5269
866.793	5265
866.924	5307
867.055	5379
867.186	5337
867.317	5322
867.448	5296
867.579	5383
867.71	5395
867.841	5421
867.972	5463
868.103	5406
868.233	5463
868.364	5509
868.495	5505
868.625	5619
868.756	5802
868.886	5634
869.017	5786
869.147	5859
869.278	5851
869.408	5794
869.539	5741
869.669	5961
869.799	5874
869.929	5977
870.06	6068
870.19	6228
870.32	6152
870.45	6273
870.58	6391
870.71	6433
870.84	6456
870.97	6403
871.1	6418
871.23	6665
871.36	6631
871.489	6623
871.619	6745
871.749	6814
871.879	6856
872.008	6935
872.138	6951
872.267	7012
872.397	7000
872.526	7084
872.656	7114
872.785	7202
872.915	7388
873.044	7521
873.173	7510
873.303	7658
873.432	7746
873.561	7822
873.69	7890
873.819	8031
873.948	8202
874.077	8320
874.206	8336
874.335	8438
874.464	8682
874.593	8883
874.722	8956
874.851	9066
874.979	9275
875.108	9351
875.237	9462
875.365	9511
875.494	9610
875.623	9793
875.751	9831
875.88	9987
876.008	10150
876.136	10341
876.265	10508
876.393	10698
876.521	10679
876.65	10824
876.778	10972
876.906	10923
877.034	10930
877.162	11056
877.29	11254
877.418	11307
877.546	11368
877.674	11417
877.802	11459
877.93	11474
878.058	11608
878.185	11573
878.313	11630
878.441	11710
878.568	11741
878.696	11817
878.824	11870
878.951	11916
879.079	12045
879.206	12133
879.333	12038
879.461	12003
879.588	12117
879.715	12106
879.842	12334
879.97	12049
880.097	11904
880.224	11916
880.351	11889
880.478	11958
880.605	11920
880.732	11870
880.859	12095
880.986	11824
881.112	11840
881.239	11691
881.366	11695
881.493	11589
881.619	11482
881.746	11592
881.872	11589
881.999	11554
882.125	11551
882.252	11543
882.378	11528
882.505	11512
882.631	11417
882.757	11372
882.883	11376
883.01	11261
883.136	11132
883.262	11132
883.388	11155
883.514	11254
883.64	11231
883.766	11117
883.892	11006
884.018	11045
884.143	11060
884.269	11048
884.395	10828
884.52	10809
884.646	10835
884.772	10706
884.897	10668
885.023	10675
885.148	10744
885.274	10691
885.399	10679
885.524	10687
885.65	10592
885.775	10615
885.9	10630
886.025	10554
886.15	10626
886.275	10516
886.4	10390
886.525	10409
886.65	10459
886.775	10360
886.9	10409
887.025	10588
887.149	10371
887.274	10207
887.399	10139
887.523	10162
887.648	10128
887.773	10147
887.897	10223
888.021	10261
888.146	10162
888.27	10185
888.395	10200
888.519	10188
888.643	10196
888.767	10238
888.891	10067
889.015	10055
889.139	10086
889.263	9991
889.387	10093
889.511	10078
889.635	10013
889.759	9983
889.883	9994
890.006	10029
890.13	10101
890.254	9987
890.377	9949
890.501	9846
890.624	9819
890.748	9953
890.871	9850
890.995	9759
891.118	9694
891.241	9838
891.364	9743
891.488	9789
891.611	9812
891.734	9759
891.857	9781
891.98	9755
892.103	9876
892.226	9663
892.349	9690
892.471	9549
892.594	9622
892.717	9618
892.839	9580
892.962	9568
893.085	9660
893.207	9576
893.33	9515
893.452	9610
893.575	9663
893.697	9549
893.819	9603
893.941	9622
894.064	9595
894.186	9477
894.308	9389
894.43	9504
894.552	9587
894.674	9572
894.796	9408
894.918	9351
895.04	9351
895.161	9450
895.283	9389
895.405	9253
895.526	9264
895.648	9211
895.769	9226
895.891	9287
896.012	9199
896.134	9207
896.255	9199
896.376	9138
896.498	9184
896.619	9093
896.74	9077
896.861	9108
896.982	9279
897.103	9321
897.224	9195
897.345	9039
897.466	9005
897.587	9013
897.708	9028
897.828	9085
897.949	8971
898.07	8807
898.19	8902
898.311	9039
898.431	8887
898.552	8944
898.672	8929
898.792	8986
898.913	8975
899.033	8807
899.153	8716
899.273	8739
899.393	8720
899.513	8766
899.633	8766
899.753	8750
899.873	8712
899.993	8701
900.113	8655
900.232	8739
900.352	8629
900.472	8560
900.591	8556
900.711	8648
900.83	8610
900.95	8667
901.069	8697
901.189	8571
901.308	8454
901.427	8446
901.546	8438
901.665	8446
901.784	8518
901.904	8374
902.023	8351
902.141	8286
902.26	8214
902.379	8351
902.498	8233
902.617	8202
902.735	8267
902.854	8317
902.973	8256
903.091	8145
903.21	8081
903.328	8172
903.446	8191
903.565	8062
903.683	8225
903.801	8065
903.919	8123
904.038	8164
904.156	8035
904.274	8107
904.392	8020
904.51	8050
904.627	8039
904.745	8119
904.863	8073
904.981	7871
905.098	7921
905.216	7951
905.334	7909
905.451	7928
905.569	7928
905.686	7940
905.803	7944
905.921	7837
906.038	7879
906.155	7734
906.272	7681
906.389	7753
906.506	7586
906.623	7651
906.74	7677
906.857	7525
906.974	7559
907.091	7696
907.208	7731
907.324	7578
907.441	7605
907.557	7457
907.674	7419
907.79	7403
907.907	7438
908.023	7476
908.139	7373
908.256	7422
908.372	7312
908.488	7411
908.604	7263
908.72	7251
908.836	7312
908.952	7297
909.068	7274
909.184	7369
909.3	7289
909.415	7339
909.531	7316
909.647	7175
909.762	7103
909.878	7080
909.993	7095
910.108	7114
910.224	7118
910.339	7171
910.454	7053
910.57	6989
910.685	6962
910.8	7183
910.915	7095
911.03	7042
911.145	6939
911.259	6924
911.374	6928
911.489	6840
911.604	6829
911.718	6734
911.833	6776
911.947	6669
912.062	6593
912.176	6719
912.291	6639
912.405	6673
912.519	6840
912.633	6802
912.748	6795
912.862	6673
912.976	6593
913.09	6532
913.204	6604
913.318	6639
913.431	6707
913.545	6703
913.659	6719
913.772	6662
913.886	6585
914	6506
914.113	6658
914.226	6658
914.34	6597
914.453	6498
914.566	6616
914.68	6540
914.793	6570
914.906	6433
915.019	6452
915.132	6357
915.245	6422
915.358	6460
915.47	6479
915.583	6502
915.696	6467
915.809	6506
915.921	6521
916.034	6433
916.146	6448
916.259	6441
916.371	6513
916.483	6460
916.595	6334
916.708	6460
916.82	6407
916.932	6486
917.044	6391
917.156	6361
917.268	6304
917.38	6338
917.491	6296
917.603	6361
917.715	6464
917.826	6391
917.938	6334
918.049	6315
918.161	6300
918.272	6460
918.384	6479
918.495	6300
918.606	6334
918.717	6266
918.828	6292
918.939	6350
919.05	6239
919.161	6254
919.272	6159
919.383	6152
919.494	6277
919.604	6422
919.715	6338
919.826	6205
919.936	6228
920.047	6338
920.157	6285
920.267	6490
920.378	6380
920.488	6266
920.598	6456
920.708	6555
920.818	6494
920.928	6471
921.038	6635
921.148	6555
921.258	6403
921.368	6266
921.477	6205
921.587	6197
921.697	6030
921.806	6175
921.916	6064
922.025	5973
922.134	5996
922.244	5885
922.353	5923
922.462	5863
922.571	5832
922.68	5729
922.789	5722
922.898	5783
923.007	5657
923.116	5703
923.224	5668
923.333	5691
923.442	5551
923.55	5570
923.659	5570
923.767	5634
923.876	5547
923.984	5661
924.092	5505
924.201	5596
924.309	5512
924.417	5581
924.525	5459
924.633	5516
924.741	6273
924.849	5376
924.956	5459
925.064	5391
925.172	5311
925.279	5391
925.387	5353
925.494	5368
925.602	5406
925.709	5406
925.816	5254
925.924	5337
926.031	5425
926.138	5261
926.245	5254
926.352	5227
926.459	5296
926.566	5357
926.673	5235
926.779	5162
926.886	5155
926.993	5086
927.099	4957
927.206	5037
927.312	5006
927.419	5037
927.525	4995
927.631	4980
927.737	4927
927.843	4885
927.95	4740
928.056	4812
928.162	4862
928.267	4858
928.373	5322
928.479	4854
928.585	4694
928.69	4771
928.796	4763
928.901	4717
929.007	4615
929.112	4664
929.218	4672
929.323	4618
929.428	4558
929.533	4694
929.638	4523
929.743	4531
929.848	4588
929.953	4546
930.058	4451
930.163	4333
930.267	4337
930.372	4417
930.477	4299
930.581	4413
930.685	4383
930.79	4261
930.894	4272
930.998	4249
931.103	4409
931.207	4135
931.311	4093
931.415	4048
931.519	3941
931.623	3934
