Data from glass_V78500241_1158.txt Node
Date: Wed Sep 01 19:22:31 CST 2021
User: usil
Spectrometer: V785-0024
Trigger mode: 0
Integration Time (sec): 4.000000E-1
Scans to average: 1
Nonlinearity correction enabled: false
Boxcar width: 0
Storing dark spectrum: false
XAxis mode: Wavelengths
Number of Pixels in Spectrum: 1024
>>>>>Begin Spectral Data<<<<<
801.071	3797
801.214	3762
801.356	3660
801.499	3724
801.641	3766
801.783	3766
801.926	3831
802.068	3873
802.211	3899
802.353	3899
802.496	3819
802.638	3903
802.78	3937
802.923	3941
803.065	3934
803.208	3869
803.35	3915
803.492	3888
803.635	3926
803.777	3778
803.919	3892
804.061	4154
804.204	3994
804.346	3945
804.488	3888
804.63	4029
804.773	4010
804.915	4010
805.057	4112
805.199	4071
805.341	4093
805.483	4131
805.626	4131
805.768	4166
805.91	4207
806.052	4223
806.194	4230
806.336	4360
806.478	4246
806.62	4158
806.762	4234
806.904	4295
807.046	4386
807.188	4249
807.33	4188
807.472	4242
807.614	4211
807.756	4265
807.898	4234
808.04	4204
808.182	4310
808.324	4322
808.465	4402
808.607	4398
808.749	4455
808.891	4413
809.033	4523
809.174	4417
809.316	4291
809.458	4227
809.6	4181
809.741	4192
809.883	4128
810.025	4227
810.166	4223
810.308	4265
810.45	4257
810.591	4223
810.733	4310
810.875	4554
811.016	4805
811.158	5121
811.299	5258
811.441	5349
811.582	5045
811.724	4717
811.865	4440
812.007	4478
812.148	4428
812.29	4470
812.431	4379
812.573	4371
812.714	4390
812.855	4428
812.997	4462
813.138	4519
813.279	4402
813.421	4443
813.562	4394
813.703	4356
813.845	4337
813.986	4318
814.127	4230
814.268	4261
814.41	4295
814.551	4287
814.692	4325
814.833	4306
814.974	4367
815.115	4341
815.256	4276
815.397	4287
815.539	4284
815.68	4139
815.821	4257
815.962	4341
816.103	4268
816.244	4249
816.385	4211
816.526	4242
816.666	4261
816.807	4093
816.948	4207
817.089	4158
817.23	4139
817.371	4093
817.512	4051
817.653	4097
817.793	4124
817.934	4055
818.075	4112
818.216	4105
818.356	4093
818.497	3941
818.638	3956
818.778	3972
818.919	3876
819.06	3857
819.2	3945
819.341	3880
819.481	3873
819.622	3949
819.762	4021
819.903	4002
820.043	3842
820.184	3835
820.324	3819
820.465	3896
820.605	3831
820.746	3907
820.886	3823
821.026	3960
821.167	3918
821.307	4048
821.447	3983
821.588	3922
821.728	3991
821.868	3972
822.008	3903
822.149	3937
822.289	3915
822.429	3766
822.569	3793
822.709	3838
822.849	3724
822.99	3694
823.13	3774
823.27	3785
823.41	3720
823.55	3762
823.69	3694
823.83	3743
823.97	3694
824.11	3614
824.25	3644
824.389	3637
824.529	3663
824.669	3618
824.809	3698
824.949	3747
825.089	3732
825.228	3740
825.368	3584
825.508	3545
825.648	3561
825.787	3599
825.927	3629
826.067	3629
826.206	3656
826.346	3831
826.485	3808
826.625	3869
826.765	3956
826.904	3857
827.044	3660
827.183	3538
827.323	3450
827.462	3481
827.601	3454
827.741	3431
827.88	3500
828.02	3389
828.159	3462
828.298	3519
828.437	3526
828.577	3534
828.716	3591
828.855	3523
828.994	3428
829.134	3382
829.273	3409
829.412	3374
829.551	3344
829.69	3374
829.829	3416
829.968	3538
830.107	3409
830.246	3443
830.385	3367
830.524	3340
830.663	3298
830.802	3249
830.941	3226
831.08	3214
831.219	3291
831.357	3298
831.496	3428
831.635	3218
831.774	3195
831.913	3195
832.051	3135
832.19	3146
832.329	3207
832.467	3165
832.606	3097
832.744	3176
832.883	3180
833.022	3173
833.16	3275
833.299	3298
833.437	3313
833.576	3397
833.714	3412
833.852	3469
833.991	3466
834.129	3477
834.267	3435
834.406	3420
834.544	3454
834.682	3382
834.821	3409
834.959	3595
835.097	3428
835.235	3561
835.373	3466
835.511	3534
835.65	3496
835.788	3488
835.926	3397
836.064	3435
836.202	3405
836.34	3576
836.478	3591
836.615	3591
836.753	3637
836.891	3652
837.029	3641
837.167	3584
837.305	3580
837.443	3549
837.58	3530
837.718	3603
837.856	3595
837.993	3564
838.131	3618
838.269	3572
838.406	3580
838.544	3618
838.681	3504
838.819	3450
838.956	3405
839.094	3443
839.231	3420
839.369	3515
839.506	3705
839.643	3633
839.781	3496
839.918	3458
840.055	3519
840.193	3545
840.33	3519
840.467	3561
840.604	3625
840.742	3800
840.879	3526
841.016	3557
841.153	3591
841.29	3781
841.427	3701
841.564	3720
841.701	3728
841.838	3705
841.975	3675
842.112	3717
842.249	3682
842.385	3641
842.522	3850
842.659	3728
842.796	3667
842.933	3717
843.069	3724
843.206	3720
843.343	3850
843.479	3774
843.616	3827
843.752	3660
843.889	3698
844.025	3838
844.162	3713
844.298	3907
844.435	3804
844.571	3816
844.708	3911
844.844	3972
844.98	4006
845.117	3983
845.253	3926
845.389	3888
845.525	3972
845.661	3975
845.798	3945
845.934	3987
846.07	3949
846.206	4013
846.342	4105
846.478	4051
846.614	3964
846.75	3922
846.886	3930
847.022	4029
847.158	3964
847.294	4010
847.429	4051
847.565	3998
847.701	4215
847.837	3873
847.972	3838
848.108	4010
848.244	3956
848.379	3850
848.515	3827
848.65	3819
848.786	3880
848.921	3850
849.057	3918
849.192	3987
849.328	3922
849.463	3953
849.598	3842
849.734	3869
849.869	3873
850.004	3873
850.14	3823
850.275	3789
850.41	3709
850.545	3747
850.68	3800
850.815	3827
850.95	3808
851.085	3934
851.22	3850
851.355	3835
851.49	3781
851.625	3728
851.76	3823
851.895	3743
852.03	3770
852.165	3831
852.299	3838
852.434	3930
852.569	3873
852.703	3869
852.838	3941
852.973	4029
853.107	3998
853.242	3892
853.376	3861
853.511	3808
853.645	3793
853.78	3998
853.914	3964
854.048	3899
854.183	3903
854.317	3945
854.451	4078
854.585	3964
854.72	3934
854.854	4071
854.988	3934
855.122	3991
855.256	3926
855.39	4032
855.524	4082
855.658	4097
855.792	4120
855.926	4131
856.06	4173
856.194	4185
856.327	4131
856.461	4143
856.595	4188
856.729	4181
856.862	4306
856.996	4265
857.13	4329
857.263	4310
857.397	4352
857.53	4299
857.664	4306
857.797	4428
857.931	4443
858.064	4394
858.197	4470
858.331	4371
858.464	4356
858.597	4333
858.731	4405
858.864	4466
858.997	4516
859.13	4546
859.263	4558
859.396	4577
859.529	4538
859.662	4550
859.795	4481
859.928	4618
860.061	4721
860.194	4790
860.327	4702
860.46	4668
860.592	4725
860.725	4843
860.858	4790
860.99	4721
861.123	4733
861.256	4702
861.388	4831
861.521	5387
861.653	4725
861.786	4725
861.918	4782
862.05	4824
862.183	4889
862.315	4919
862.447	4923
862.58	4908
862.712	4801
862.844	4771
862.976	4877
863.108	4873
863.24	5197
863.372	4835
863.504	4889
863.636	4854
863.768	4984
863.9	4957
864.032	4949
864.164	4968
864.296	5006
864.428	5121
864.559	5083
864.691	5098
864.823	5128
864.954	5132
865.086	5189
865.217	5136
865.349	5117
865.48	5189
865.612	5185
865.743	5311
865.875	5220
866.006	5227
866.137	5273
866.269	5246
866.4	5303
866.531	5269
866.662	5239
866.793	5280
866.924	5337
867.055	5315
867.186	5337
867.317	5318
867.448	5299
867.579	5402
867.71	5417
867.841	5444
867.972	5440
868.103	5486
868.233	5478
868.364	5543
868.495	5573
868.625	5688
868.756	5783
868.886	5623
869.017	5805
869.147	5866
869.278	5844
869.408	5790
869.539	5809
869.669	5958
869.799	5935
869.929	6045
870.06	6060
870.19	6163
870.32	6235
870.45	6292
870.58	6403
870.71	6403
870.84	6513
870.97	6429
871.1	6418
871.23	6646
871.36	6711
871.489	6673
871.619	6741
871.749	6821
871.879	6894
872.008	6989
872.138	6962
872.267	7057
872.397	6951
872.526	7129
872.656	7118
872.785	7221
872.915	7381
873.044	7518
873.173	7628
873.303	7693
873.432	7780
873.561	7856
873.69	7951
873.819	7963
873.948	8210
874.077	8294
874.206	8351
874.335	8450
874.464	8667
874.593	8918
874.722	9047
874.851	9077
874.979	9226
875.108	9359
875.237	9450
875.365	9530
875.494	9660
875.623	9812
875.751	9873
875.88	9979
876.008	10120
876.136	10303
876.265	10542
876.393	10740
876.521	10736
876.65	10782
876.778	10904
876.906	10927
877.034	10980
877.162	11094
877.29	11216
877.418	11307
877.546	11280
877.674	11512
877.802	11493
877.93	11467
878.058	11547
878.185	11539
878.313	11653
878.441	11767
878.568	11688
878.696	11779
878.824	11882
878.951	11965
879.079	12011
879.206	12159
879.333	12140
879.461	12098
879.588	12140
879.715	12049
879.842	12239
879.97	12003
880.097	11901
880.224	11859
880.351	11931
880.478	11870
880.605	11832
880.732	11824
880.859	11977
880.986	11805
881.112	11870
881.239	11748
881.366	11733
881.493	11577
881.619	11558
881.746	11512
881.872	11566
881.999	11570
882.125	11535
882.252	11600
882.378	11554
882.505	11543
882.631	11406
882.757	11356
882.883	11292
883.01	11269
883.136	11273
883.262	11128
883.388	11140
883.514	11223
883.64	11204
883.766	11117
883.892	10919
884.018	10965
884.143	11105
884.269	11166
884.395	10869
884.52	10877
884.646	10774
884.772	10596
884.897	10645
885.023	10672
885.148	10733
885.274	10679
885.399	10649
885.524	10672
885.65	10573
885.775	10618
885.9	10542
886.025	10675
886.15	10550
886.275	10474
886.4	10421
886.525	10508
886.65	10413
886.775	10371
886.9	10489
887.025	10493
887.149	10348
887.274	10230
887.399	10200
887.523	10154
887.648	10139
887.773	10166
887.897	10188
888.021	10215
888.146	10177
888.27	10227
888.395	10238
888.519	10223
888.643	10166
888.767	10234
888.891	10071
889.015	9972
889.139	10044
889.263	9975
889.387	10093
889.511	10078
889.635	10112
889.759	10021
889.883	10006
890.006	10013
890.13	10090
890.254	9975
890.377	10002
890.501	9827
890.624	9907
890.748	9915
890.871	9827
890.995	9778
891.118	9728
891.241	9804
891.364	9766
891.488	9842
891.611	9774
891.734	9778
891.857	9686
891.98	9747
892.103	9743
892.226	9781
892.349	9732
892.471	9515
892.594	9606
892.717	9580
892.839	9564
892.962	9701
893.085	9652
893.207	9637
893.33	9568
893.452	9504
893.575	9542
893.697	9568
893.819	9603
893.941	9656
894.064	9648
894.186	9458
894.308	9340
894.43	9545
894.552	9618
894.674	9511
894.796	9367
894.918	9374
895.04	9374
895.161	9405
895.283	9355
895.405	9283
895.526	9249
895.648	9226
895.769	9325
895.891	9367
896.012	9245
896.134	9291
896.255	9123
896.376	9165
896.498	9226
896.619	9176
896.74	9089
896.861	9039
896.982	9275
897.103	9329
897.224	9195
897.345	9081
897.466	9093
897.587	8986
897.708	9146
897.828	9032
897.949	8937
898.07	8849
898.19	8963
898.311	9039
898.431	8899
898.552	8921
898.672	9005
898.792	8994
898.913	8883
899.033	8746
899.153	8686
899.273	8746
899.393	8735
899.513	8712
899.633	8682
899.753	8670
899.873	8720
899.993	8792
900.113	8735
900.232	8678
900.352	8648
900.472	8625
900.591	8556
900.711	8617
900.83	8549
900.95	8655
901.069	8727
901.189	8598
901.308	8454
901.427	8442
901.546	8446
901.665	8438
901.784	8556
901.904	8415
902.023	8328
902.141	8233
902.26	8168
902.379	8351
902.498	8259
902.617	8259
902.735	8301
902.854	8309
902.973	8301
903.091	8103
903.21	8126
903.328	8176
903.446	8103
903.565	7970
903.683	8100
903.801	8092
903.919	8134
904.038	8119
904.156	8092
904.274	8103
904.392	8058
904.51	8024
904.627	8016
904.745	8130
904.863	8096
904.981	7982
905.098	7822
905.216	7822
905.334	7898
905.451	7902
905.569	7898
905.686	7978
905.803	7921
905.921	7792
906.038	7788
906.155	7811
906.272	7723
906.389	7727
906.506	7674
906.623	7651
906.74	7632
906.857	7567
906.974	7594
907.091	7700
907.208	7727
907.324	7636
907.441	7632
907.557	7480
907.674	7453
907.79	7331
907.907	7415
908.023	7457
908.139	7499
908.256	7403
908.372	7339
908.488	7381
908.604	7289
908.72	7221
908.836	7232
908.952	7251
909.068	7255
909.184	7282
909.3	7263
909.415	7274
909.531	7266
909.647	7099
909.762	7126
909.878	7126
909.993	7084
910.108	7122
910.224	7133
910.339	7099
910.454	7038
910.57	7019
910.685	6970
910.8	7183
910.915	7141
911.03	7000
911.145	6924
911.259	6901
911.374	6878
911.489	6878
911.604	6840
911.718	6772
911.833	6738
911.947	6677
912.062	6593
912.176	6768
912.291	6764
912.405	6662
912.519	6848
912.633	6905
912.748	6749
912.862	6757
912.976	6616
913.09	6555
913.204	6589
913.318	6604
913.431	6654
913.545	6700
913.659	6673
913.772	6669
913.886	6654
914	6578
914.113	6665
914.226	6715
914.34	6597
914.453	6517
914.566	6677
914.68	6517
914.793	6551
914.906	6399
915.019	6395
915.132	6391
915.245	6426
915.358	6452
915.47	6445
915.583	6509
915.696	6528
915.809	6536
915.921	6467
916.034	6418
916.146	6441
916.259	6346
916.371	6456
916.483	6494
916.595	6414
916.708	6388
916.82	6456
916.932	6391
917.044	6414
917.156	6407
917.268	6346
917.38	6380
917.491	6353
917.603	6304
917.715	6361
917.826	6403
917.938	6350
918.049	6300
918.161	6372
918.272	6433
918.384	6448
918.495	6369
918.606	6251
918.717	6270
918.828	6270
918.939	6304
919.05	6224
919.161	6308
919.272	6186
919.383	6190
919.494	6338
919.604	6471
919.715	6331
919.826	6224
919.936	6243
920.047	6399
920.157	6277
920.267	6494
920.378	6334
920.488	6243
920.598	6464
920.708	6585
920.818	6471
920.928	6506
921.038	6623
921.148	6566
921.258	6300
921.368	6258
921.477	6281
921.587	6152
921.697	6102
921.806	6216
921.916	6129
922.025	5954
922.134	5958
922.244	5874
922.353	5965
922.462	5889
922.571	5844
922.68	5748
922.789	5729
922.898	5710
923.007	5661
923.116	5676
923.224	5668
923.333	5630
923.442	5619
923.55	5592
923.659	5592
923.767	5638
923.876	5532
923.984	5600
924.092	5497
924.201	5585
924.309	5551
924.417	5520
924.525	5512
924.633	5478
924.741	6346
924.849	5398
924.956	5406
925.064	5353
925.172	5341
925.279	5353
925.387	5322
925.494	5315
925.602	5421
925.709	5376
925.816	5284
925.924	5296
926.031	5353
926.138	5322
926.245	5322
926.352	5220
926.459	5315
926.566	5372
926.673	5235
926.779	5102
926.886	5124
926.993	5064
927.099	4995
927.206	4965
927.312	4987
927.419	5014
927.525	4946
927.631	5022
927.737	4873
927.843	4839
927.95	4782
928.056	4847
928.162	4831
928.267	4828
928.373	5372
928.479	4889
928.585	4683
928.69	4816
928.796	4809
928.901	4736
929.007	4653
929.112	4694
929.218	4622
929.323	4596
929.428	4577
929.533	4656
929.638	4561
929.743	4538
929.848	4588
929.953	4466
930.058	4512
930.163	4363
930.267	4367
930.372	4421
930.477	4280
930.581	4497
930.685	4413
930.79	4261
930.894	4310
930.998	4276
931.103	4447
931.207	4124
931.311	4059
931.415	4048
931.519	3888
931.623	3922
