Data from glass_V78500241_1741.txt Node
Date: Wed Sep 01 19:26:34 CST 2021
User: usil
Spectrometer: V785-0024
Trigger mode: 0
Integration Time (sec): 4.000000E-1
Scans to average: 1
Nonlinearity correction enabled: false
Boxcar width: 0
Storing dark spectrum: false
XAxis mode: Wavelengths
Number of Pixels in Spectrum: 1024
>>>>>Begin Spectral Data<<<<<
801.071	3766
801.214	3774
801.356	3690
801.499	3732
801.641	3717
801.783	3789
801.926	3857
802.068	3850
802.211	3854
802.353	3888
802.496	3873
802.638	3880
802.78	3922
802.923	3911
803.065	3884
803.208	3873
803.35	3876
803.492	3873
803.635	3945
803.777	3797
803.919	3888
804.061	4188
804.204	3956
804.346	3956
804.488	3911
804.63	4063
804.773	3991
804.915	4032
805.057	4105
805.199	4048
805.341	4105
805.483	4181
805.626	4169
805.768	4109
805.91	4200
806.052	4238
806.194	4192
806.336	4325
806.478	4215
806.62	4147
806.762	4166
806.904	4219
807.046	4333
807.188	4249
807.33	4135
807.472	4242
807.614	4215
807.756	4272
807.898	4223
808.04	4192
808.182	4295
808.324	4325
808.465	4348
808.607	4481
808.749	4428
808.891	4470
809.033	4443
809.174	4417
809.316	4276
809.458	4230
809.6	4135
809.741	4131
809.883	4109
810.025	4166
810.166	4185
810.308	4207
810.45	4234
810.591	4215
810.733	4295
810.875	4527
811.016	4767
811.158	5102
811.299	5273
811.441	5265
811.582	5064
811.724	4706
811.865	4470
812.007	4428
812.148	4447
812.29	4394
812.431	4440
812.573	4398
812.714	4363
812.855	4428
812.997	4402
813.138	4493
813.279	4443
813.421	4379
813.562	4371
813.703	4306
813.845	4329
813.986	4284
814.127	4207
814.268	4246
814.41	4280
814.551	4249
814.692	4280
814.833	4242
814.974	4310
815.115	4303
815.256	4242
815.397	4207
815.539	4223
815.68	4200
815.821	4215
815.962	4341
816.103	4268
816.244	4211
816.385	4246
816.526	4310
816.666	4188
816.807	4086
816.948	4196
817.089	4185
817.23	4120
817.371	4109
817.512	4090
817.653	4078
817.793	4036
817.934	4074
818.075	4116
818.216	4131
818.356	4055
818.497	3968
818.638	3899
818.778	3922
818.919	3903
819.06	3899
819.2	3953
819.341	3884
819.481	3785
819.622	3865
819.762	3998
819.903	3911
820.043	3857
820.184	3827
820.324	3835
820.465	3888
820.605	3850
820.746	3842
820.886	3789
821.026	3896
821.167	3922
821.307	3964
821.447	4002
821.588	3941
821.728	3941
821.868	3876
822.008	3903
822.149	3934
822.289	3930
822.429	3793
822.569	3823
822.709	3793
822.849	3686
822.99	3709
823.13	3766
823.27	3743
823.41	3663
823.55	3709
823.69	3728
823.83	3759
823.97	3690
824.11	3584
824.25	3622
824.389	3633
824.529	3648
824.669	3618
824.809	3717
824.949	3732
825.089	3717
825.228	3694
825.368	3606
825.508	3526
825.648	3580
825.787	3614
825.927	3603
826.067	3606
826.206	3644
826.346	3785
826.485	3781
826.625	3865
826.765	3953
826.904	3876
827.044	3648
827.183	3545
827.323	3431
827.462	3477
827.601	3409
827.741	3450
827.88	3450
828.02	3348
828.159	3424
828.298	3526
828.437	3557
828.577	3488
828.716	3614
828.855	3492
828.994	3412
829.134	3378
829.273	3397
829.412	3363
829.551	3336
829.69	3355
829.829	3382
829.968	3511
830.107	3386
830.246	3435
830.385	3355
830.524	3374
830.663	3317
830.802	3268
830.941	3203
831.08	3222
831.219	3272
831.357	3287
831.496	3412
831.635	3211
831.774	3180
831.913	3237
832.051	3116
832.19	3154
832.329	3203
832.467	3146
832.606	3108
832.744	3127
832.883	3195
833.022	3173
833.16	3256
833.299	3298
833.437	3393
833.576	3351
833.714	3401
833.852	3409
833.991	3405
834.129	3439
834.267	3420
834.406	3409
834.544	3401
834.682	3416
834.821	3428
834.959	3564
835.097	3435
835.235	3488
835.373	3466
835.511	3504
835.65	3462
835.788	3507
835.926	3412
836.064	3374
836.202	3363
836.34	3584
836.478	3610
836.615	3530
836.753	3603
836.891	3644
837.029	3587
837.167	3587
837.305	3564
837.443	3523
837.58	3549
837.718	3564
837.856	3561
837.993	3572
838.131	3553
838.269	3538
838.406	3606
838.544	3572
838.681	3454
838.819	3439
838.956	3370
839.094	3416
839.231	3462
839.369	3530
839.506	3770
839.643	3648
839.781	3485
839.918	3420
840.055	3469
840.193	3492
840.33	3504
840.467	3549
840.604	3572
840.742	3800
840.879	3564
841.016	3568
841.153	3591
841.29	3713
841.427	3736
841.564	3751
841.701	3698
841.838	3671
841.975	3614
842.112	3701
842.249	3641
842.385	3671
842.522	3812
842.659	3709
842.796	3675
842.933	3698
843.069	3705
843.206	3717
843.343	3812
843.479	3770
843.616	3797
843.752	3675
843.889	3656
844.025	3846
844.162	3679
844.298	3869
844.435	3789
844.571	3789
844.708	3915
844.844	3994
844.98	3979
845.117	4010
845.253	3922
845.389	3903
845.525	4017
845.661	3968
845.798	3869
845.934	4006
846.07	3975
846.206	4021
846.342	4135
846.478	4032
846.614	3975
846.75	3934
846.886	3876
847.022	4036
847.158	3960
847.294	4017
847.429	4048
847.565	3987
847.701	4253
847.837	3876
847.972	3831
848.108	3987
848.244	3991
848.379	3880
848.515	3842
848.65	3816
848.786	3861
848.921	3899
849.057	3972
849.192	3968
849.328	3896
849.463	3888
849.598	3896
849.734	3876
849.869	3842
850.004	3770
850.14	3838
850.275	3842
850.41	3751
850.545	3770
850.68	3804
850.815	3808
850.95	3850
851.085	3945
851.22	3857
851.355	3831
851.49	3778
851.625	3797
851.76	3766
851.895	3690
852.03	3709
852.165	3751
852.299	3816
852.434	3892
852.569	3850
852.703	3880
852.838	3930
852.973	3975
853.107	3972
853.242	3918
853.376	3861
853.511	3785
853.645	3804
853.78	3926
853.914	3880
854.048	3869
854.183	3880
854.317	3937
854.451	4082
854.585	3953
854.72	3953
854.854	4040
854.988	3964
855.122	4021
855.256	3956
855.39	4059
855.524	4124
855.658	4051
855.792	4109
855.926	4116
856.06	4215
856.194	4227
856.327	4173
856.461	4124
856.595	4109
856.729	4162
856.862	4249
856.996	4257
857.13	4314
857.263	4344
857.397	4352
857.53	4261
857.664	4314
857.797	4383
857.931	4413
858.064	4421
858.197	4432
858.331	4398
858.464	4390
858.597	4394
858.731	4440
858.864	4443
858.997	4470
859.13	4519
859.263	4531
859.396	4580
859.529	4497
859.662	4516
859.795	4535
859.928	4622
860.061	4748
860.194	4740
860.327	4672
860.46	4626
860.592	4755
860.725	4755
860.858	4763
860.99	4717
861.123	4656
861.256	4683
861.388	4744
861.521	5398
861.653	4691
861.786	4702
861.918	4793
862.05	4786
862.183	4866
862.315	4877
862.447	4919
862.58	4896
862.712	4771
862.844	4744
862.976	4862
863.108	4896
863.24	5185
863.372	4820
863.504	4885
863.636	4896
863.768	4942
863.9	4953
864.032	4923
864.164	4984
864.296	5060
864.428	5121
864.559	5121
864.691	5105
864.823	5140
864.954	5079
865.086	5117
865.217	5121
865.349	5086
865.48	5155
865.612	5204
865.743	5284
865.875	5132
866.006	5189
866.137	5227
866.269	5277
866.4	5239
866.531	5299
866.662	5204
866.793	5277
866.924	5296
867.055	5368
867.186	5299
867.317	5322
867.448	5311
867.579	5379
867.71	5318
867.841	5379
867.972	5414
868.103	5459
868.233	5512
868.364	5471
868.495	5482
868.625	5642
868.756	5764
868.886	5710
869.017	5752
869.147	5844
869.278	5828
869.408	5821
869.539	5870
869.669	5893
869.799	5920
869.929	5931
870.06	6034
870.19	6194
870.32	6182
870.45	6319
870.58	6391
870.71	6471
870.84	6460
870.97	6452
871.1	6475
871.23	6620
871.36	6639
871.489	6639
871.619	6741
871.749	6798
871.879	6909
872.008	6913
872.138	6973
872.267	7038
872.397	6894
872.526	7038
872.656	7042
872.785	7175
872.915	7392
873.044	7529
873.173	7597
873.303	7632
873.432	7734
873.561	7856
873.69	7898
873.819	8062
873.948	8164
874.077	8233
874.206	8290
874.335	8457
874.464	8617
874.593	8902
874.722	8933
874.851	9146
874.979	9199
875.108	9397
875.237	9431
875.365	9450
875.494	9622
875.623	9823
875.751	9869
875.88	9975
876.008	10131
876.136	10249
876.265	10508
876.393	10763
876.521	10801
876.65	10843
876.778	10881
876.906	10915
877.034	11018
877.162	11124
877.29	11045
877.418	11265
877.546	11379
877.674	11471
877.802	11509
877.93	11486
878.058	11535
878.185	11471
878.313	11630
878.441	11756
878.568	11737
878.696	11767
878.824	11859
878.951	11965
879.079	12110
879.206	12106
879.333	12022
879.461	11946
879.588	12038
879.715	12121
879.842	12163
879.97	12091
880.097	11874
880.224	11843
880.351	11931
880.478	11939
880.605	11855
880.732	11851
880.859	12007
880.986	11840
881.112	11893
881.239	11760
881.366	11764
881.493	11623
881.619	11535
881.746	11558
881.872	11566
881.999	11512
882.125	11493
882.252	11608
882.378	11505
882.505	11596
882.631	11311
882.757	11280
882.883	11356
883.01	11254
883.136	11178
883.262	11048
883.388	11079
883.514	11204
883.64	11201
883.766	11090
883.892	10927
884.018	11060
884.143	11075
884.269	11067
884.395	10869
884.52	10805
884.646	10862
884.772	10634
884.897	10626
885.023	10603
885.148	10778
885.274	10828
885.399	10759
885.524	10672
885.65	10656
885.775	10637
885.9	10596
886.025	10607
886.15	10573
886.275	10428
886.4	10424
886.525	10447
886.65	10443
886.775	10333
886.9	10504
887.025	10459
887.149	10341
887.274	10223
887.399	10249
887.523	10173
887.648	10150
887.773	10150
887.897	10284
888.021	10246
888.146	10147
888.27	10177
888.395	10158
888.519	10234
888.643	10188
888.767	10177
888.891	10051
889.015	10010
889.139	10029
889.263	10002
889.387	10090
889.511	10128
889.635	10067
889.759	9964
889.883	9949
890.006	9956
890.13	10067
890.254	9991
890.377	10010
890.501	9835
890.624	9808
890.748	9953
890.871	9766
890.995	9732
891.118	9686
891.241	9747
891.364	9724
891.488	9903
891.611	9732
891.734	9736
891.857	9755
891.98	9675
892.103	9778
892.226	9740
892.349	9675
892.471	9523
892.594	9572
892.717	9618
892.839	9599
892.962	9564
893.085	9709
893.207	9534
893.33	9534
893.452	9564
893.575	9599
893.697	9519
893.819	9625
893.941	9595
894.064	9580
894.186	9542
894.308	9386
894.43	9599
894.552	9648
894.674	9534
894.796	9386
894.918	9454
895.04	9435
895.161	9367
895.283	9325
895.405	9214
895.526	9279
895.648	9279
895.769	9329
895.891	9237
896.012	9245
896.134	9176
896.255	9112
896.376	9116
896.498	9150
896.619	9119
896.74	9077
896.861	9032
896.982	9260
897.103	9313
897.224	9146
897.345	9032
897.466	8982
897.587	9070
897.708	9100
897.828	9013
897.949	8944
898.07	8845
898.19	8906
898.311	8944
898.431	8902
898.552	8921
898.672	8986
898.792	8899
898.913	8864
899.033	8792
899.153	8750
899.273	8693
899.393	8655
899.513	8712
899.633	8670
899.753	8766
899.873	8663
899.993	8682
900.113	8667
900.232	8746
900.352	8632
900.472	8636
900.591	8541
900.711	8522
900.83	8503
900.95	8705
901.069	8663
901.189	8533
901.308	8431
901.427	8473
901.546	8450
901.665	8473
901.784	8507
901.904	8385
902.023	8324
902.141	8271
902.26	8161
902.379	8339
902.498	8252
902.617	8214
902.735	8290
902.854	8252
902.973	8256
903.091	8142
903.21	8115
903.328	8202
903.446	8111
903.565	8035
903.683	8100
903.801	8069
903.919	8107
904.038	8054
904.156	8058
904.274	8077
904.392	8016
904.51	8016
904.627	8065
904.745	8130
904.863	8123
904.981	7959
905.098	7894
905.216	7826
905.334	7871
905.451	7890
905.569	7898
905.686	7890
905.803	7944
905.921	7761
906.038	7883
906.155	7772
906.272	7734
906.389	7746
906.506	7624
906.623	7658
906.74	7674
906.857	7540
906.974	7590
907.091	7643
907.208	7693
907.324	7632
907.441	7521
907.557	7495
907.674	7441
907.79	7384
907.907	7350
908.023	7438
908.139	7381
908.256	7316
908.372	7327
908.488	7365
908.604	7255
908.72	7251
908.836	7293
908.952	7225
909.068	7259
909.184	7346
909.3	7198
909.415	7278
909.531	7301
909.647	7084
909.762	7038
909.878	7110
909.993	7164
910.108	7095
910.224	7126
910.339	7129
910.454	7027
910.57	6966
910.685	6935
910.8	7126
910.915	7034
911.03	6993
911.145	6897
911.259	6882
911.374	6916
911.489	6840
911.604	6814
911.718	6745
911.833	6753
911.947	6578
912.062	6593
912.176	6677
912.291	6692
912.405	6715
912.519	6829
912.633	6818
912.748	6707
912.862	6753
912.976	6555
913.09	6582
913.204	6555
913.318	6684
913.431	6627
913.545	6696
913.659	6787
913.772	6650
913.886	6578
914	6551
914.113	6563
914.226	6635
914.34	6627
914.453	6464
914.566	6601
914.68	6521
914.793	6513
914.906	6365
915.019	6369
915.132	6391
915.245	6376
915.358	6395
915.47	6471
915.583	6456
915.696	6460
915.809	6578
915.921	6551
916.034	6388
916.146	6353
916.259	6521
916.371	6467
916.483	6494
916.595	6418
916.708	6437
916.82	6414
916.932	6353
917.044	6418
917.156	6399
917.268	6334
917.38	6342
917.491	6365
917.603	6361
917.715	6369
917.826	6414
917.938	6331
918.049	6277
918.161	6346
918.272	6437
918.384	6460
918.495	6346
918.606	6197
918.717	6243
918.828	6254
918.939	6289
919.05	6155
919.161	6270
919.272	6175
919.383	6201
919.494	6292
919.604	6410
919.715	6285
919.826	6258
919.936	6285
920.047	6296
920.157	6228
920.267	6414
920.378	6391
920.488	6281
920.598	6456
920.708	6547
920.818	6490
920.928	6361
921.038	6616
921.148	6544
921.258	6292
921.368	6285
921.477	6213
921.587	6155
921.697	6079
921.806	6163
921.916	6076
922.025	5927
922.134	5901
922.244	5889
922.353	5980
922.462	5802
922.571	5817
922.68	5680
922.789	5733
922.898	5710
923.007	5634
923.116	5680
923.224	5646
923.333	5638
923.442	5653
923.55	5596
923.659	5615
923.767	5600
923.876	5532
923.984	5589
924.092	5562
924.201	5551
924.309	5524
924.417	5608
924.525	5490
924.633	5467
924.741	6296
924.849	5391
924.956	5436
925.064	5357
925.172	5307
925.279	5261
925.387	5326
925.494	5357
925.602	5417
925.709	5379
925.816	5296
925.924	5299
926.031	5330
926.138	5265
926.245	5349
926.352	5254
926.459	5334
926.566	5303
926.673	5223
926.779	5113
926.886	5124
926.993	5029
927.099	5045
927.206	4957
927.312	4934
927.419	5075
927.525	5010
927.631	5033
927.737	4938
927.843	4873
927.95	4740
928.056	4816
928.162	4904
928.267	4850
928.373	5360
928.479	4873
928.585	4702
928.69	4748
928.796	4767
928.901	4656
929.007	4588
929.112	4660
929.218	4653
929.323	4607
929.428	4550
929.533	4687
929.638	4497
929.743	4554
929.848	4535
929.953	4489
930.058	4440
930.163	4325
930.267	4325
930.372	4462
930.477	4329
930.581	4497
930.685	4394
930.79	4268
930.894	4268
930.998	4261
931.103	4413
931.207	4181
931.311	4093
931.415	4067
931.519	3972
931.623	3926
