Data from glass_V78500241_271.txt Node
Date: Wed Sep 01 19:16:22 CST 2021
User: usil
Spectrometer: V785-0024
Trigger mode: 0
Integration Time (sec): 4.000000E-1
Scans to average: 1
Nonlinearity correction enabled: false
Boxcar width: 0
Storing dark spectrum: false
XAxis mode: Wavelengths
Number of Pixels in Spectrum: 1024
>>>>>Begin Spectral Data<<<<<
801.071	3762
801.214	3747
801.356	3740
801.499	3762
801.641	3736
801.783	3766
801.926	3857
802.068	3804
802.211	3873
802.353	3873
802.496	3884
802.638	3949
802.78	3918
802.923	3926
803.065	3861
803.208	3846
803.35	3880
803.492	3930
803.635	3934
803.777	3827
803.919	3876
804.061	4147
804.204	3960
804.346	3979
804.488	3934
804.63	4029
804.773	3972
804.915	4040
805.057	4154
805.199	4048
805.341	4090
805.483	4139
805.626	4131
805.768	4158
805.91	4215
806.052	4299
806.194	4249
806.336	4329
806.478	4211
806.62	4154
806.762	4204
806.904	4272
807.046	4383
807.188	4257
807.33	4223
807.472	4196
807.614	4188
807.756	4322
807.898	4268
808.04	4211
808.182	4329
808.324	4352
808.465	4375
808.607	4478
808.749	4497
808.891	4481
809.033	4504
809.174	4379
809.316	4265
809.458	4299
809.6	4162
809.741	4181
809.883	4131
810.025	4242
810.166	4246
810.308	4230
810.45	4253
810.591	4234
810.733	4325
810.875	4523
811.016	4801
811.158	5159
811.299	5292
811.441	5280
811.582	5075
811.724	4721
811.865	4542
812.007	4500
812.148	4462
812.29	4428
812.431	4413
812.573	4459
812.714	4352
812.855	4443
812.997	4447
813.138	4459
813.279	4409
813.421	4421
813.562	4390
813.703	4314
813.845	4352
813.986	4257
814.127	4265
814.268	4268
814.41	4333
814.551	4268
814.692	4325
814.833	4272
814.974	4314
815.115	4333
815.256	4291
815.397	4284
815.539	4291
815.68	4234
815.821	4223
815.962	4390
816.103	4303
816.244	4242
816.385	4230
816.526	4310
816.666	4280
816.807	4154
816.948	4188
817.089	4227
817.23	4147
817.371	4078
817.512	4071
817.653	4131
817.793	4002
817.934	4063
818.075	4078
818.216	4101
818.356	4135
818.497	3975
818.638	3918
818.778	3972
818.919	3941
819.06	3850
819.2	3918
819.341	3873
819.481	3827
819.622	3926
819.762	4063
819.903	3979
820.043	3854
820.184	3857
820.324	3842
820.465	3903
820.605	3850
820.746	3892
820.886	3778
821.026	3922
821.167	3884
821.307	3979
821.447	3979
821.588	4006
821.728	3998
821.868	3922
822.008	3880
822.149	3945
822.289	3915
822.429	3816
822.569	3804
822.709	3827
822.849	3720
822.99	3728
823.13	3755
823.27	3842
823.41	3740
823.55	3781
823.69	3781
823.83	3740
823.97	3675
824.11	3629
824.25	3553
824.389	3641
824.529	3686
824.669	3682
824.809	3724
824.949	3728
825.089	3740
825.228	3709
825.368	3580
825.508	3584
825.648	3629
825.787	3633
825.927	3660
826.067	3648
826.206	3682
826.346	3762
826.485	3819
826.625	3854
826.765	3968
826.904	3819
827.044	3690
827.183	3511
827.323	3477
827.462	3481
827.601	3447
827.741	3424
827.88	3500
828.02	3367
828.159	3473
828.298	3488
828.437	3526
828.577	3523
828.716	3618
828.855	3488
828.994	3382
829.134	3374
829.273	3412
829.412	3355
829.551	3344
829.69	3405
829.829	3439
829.968	3534
830.107	3485
830.246	3450
830.385	3405
830.524	3378
830.663	3336
830.802	3241
830.941	3230
831.08	3211
831.219	3275
831.357	3264
831.496	3443
831.635	3272
831.774	3211
831.913	3195
832.051	3150
832.19	3180
832.329	3230
832.467	3154
832.606	3116
832.744	3188
832.883	3245
833.022	3173
833.16	3279
833.299	3302
833.437	3374
833.576	3405
833.714	3409
833.852	3405
833.991	3454
834.129	3504
834.267	3447
834.406	3416
834.544	3469
834.682	3450
834.821	3454
834.959	3584
835.097	3466
835.235	3534
835.373	3526
835.511	3485
835.65	3485
835.788	3477
835.926	3409
836.064	3355
836.202	3397
836.34	3584
836.478	3614
836.615	3545
836.753	3622
836.891	3641
837.029	3648
837.167	3595
837.305	3553
837.443	3534
837.58	3500
837.718	3618
837.856	3618
837.993	3504
838.131	3622
838.269	3557
838.406	3633
838.544	3572
838.681	3450
838.819	3492
838.956	3397
839.094	3397
839.231	3447
839.369	3504
839.506	3747
839.643	3622
839.781	3523
839.918	3473
840.055	3530
840.193	3534
840.33	3545
840.467	3534
840.604	3633
840.742	3804
840.879	3542
841.016	3576
841.153	3595
841.29	3766
841.427	3728
841.564	3732
841.701	3781
841.838	3690
841.975	3694
842.112	3728
842.249	3656
842.385	3686
842.522	3854
842.659	3732
842.796	3648
842.933	3717
843.069	3690
843.206	3694
843.343	3827
843.479	3785
843.616	3835
843.752	3671
843.889	3656
844.025	3865
844.162	3709
844.298	3880
844.435	3740
844.571	3785
844.708	3930
844.844	3968
844.98	4063
845.117	4059
845.253	3975
845.389	3941
845.525	4002
845.661	3983
845.798	3972
845.934	4074
846.07	3953
846.206	4067
846.342	4143
846.478	4109
846.614	4002
846.75	3934
846.886	3930
847.022	4067
847.158	4006
847.294	4013
847.429	4021
847.565	4021
847.701	4242
847.837	3911
847.972	3907
848.108	3979
848.244	3991
848.379	3880
848.515	3819
848.65	3835
848.786	3831
848.921	3850
849.057	3975
849.192	4013
849.328	3953
849.463	3926
849.598	3876
849.734	3903
849.869	3835
850.004	3808
850.14	3838
850.275	3838
850.41	3770
850.545	3770
850.68	3778
850.815	3789
850.95	3827
851.085	3926
851.22	3922
851.355	3854
851.49	3770
851.625	3808
851.76	3804
851.895	3724
852.03	3762
852.165	3838
852.299	3865
852.434	3888
852.569	3884
852.703	3915
852.838	3968
852.973	3941
853.107	4032
853.242	3892
853.376	3838
853.511	3766
853.645	3812
853.78	3975
853.914	3884
854.048	3964
854.183	3934
854.317	3991
854.451	4082
854.585	4002
854.72	3956
854.854	4078
854.988	3937
855.122	4017
855.256	3899
855.39	4013
855.524	4128
855.658	4074
855.792	4101
855.926	4139
856.06	4143
856.194	4177
856.327	4143
856.461	4181
856.595	4211
856.729	4181
856.862	4265
856.996	4242
857.13	4341
857.263	4356
857.397	4360
857.53	4337
857.664	4383
857.797	4447
857.931	4436
858.064	4379
858.197	4470
858.331	4386
858.464	4390
858.597	4367
858.731	4466
858.864	4504
858.997	4493
859.13	4493
859.263	4577
859.396	4637
859.529	4504
859.662	4512
859.795	4523
859.928	4645
860.061	4721
860.194	4706
860.327	4698
860.46	4687
860.592	4698
860.725	4733
860.858	4778
860.99	4748
861.123	4710
861.256	4706
861.388	4786
861.521	5288
861.653	4771
861.786	4717
861.918	4752
862.05	4790
862.183	4771
862.315	4900
862.447	4984
862.58	4877
862.712	4820
862.844	4809
862.976	4911
863.108	4877
863.24	5265
863.372	4850
863.504	4881
863.636	4908
863.768	5010
863.9	4984
864.032	4923
864.164	4946
864.296	5048
864.428	5109
864.559	5094
864.691	5128
864.823	5117
864.954	5140
865.086	5181
865.217	5204
865.349	5159
865.48	5155
865.612	5201
865.743	5322
865.875	5155
866.006	5193
866.137	5235
866.269	5235
866.4	5280
866.531	5258
866.662	5231
866.793	5311
866.924	5254
867.055	5357
867.186	5349
867.317	5345
867.448	5364
867.579	5383
867.71	5417
867.841	5414
867.972	5471
868.103	5478
868.233	5467
868.364	5535
868.495	5512
868.625	5653
868.756	5786
868.886	5642
869.017	5752
869.147	5859
869.278	5832
869.408	5840
869.539	5866
869.669	6015
869.799	5946
869.929	6015
870.06	6034
870.19	6266
870.32	6194
870.45	6266
870.58	6315
870.71	6429
870.84	6559
870.97	6445
871.1	6460
871.23	6627
871.36	6665
871.489	6703
871.619	6734
871.749	6791
871.879	6875
872.008	6932
872.138	6939
872.267	7012
872.397	6996
872.526	7046
872.656	7099
872.785	7160
872.915	7400
873.044	7464
873.173	7540
873.303	7681
873.432	7807
873.561	7879
873.69	7928
873.819	8005
873.948	8225
874.077	8206
874.206	8320
874.335	8488
874.464	8648
874.593	8826
874.722	8994
874.851	9119
874.979	9218
875.108	9420
875.237	9389
875.365	9496
875.494	9682
875.623	9854
875.751	9819
875.88	9991
876.008	10169
876.136	10303
876.265	10580
876.393	10733
876.521	10687
876.65	10809
876.778	10908
876.906	10972
877.034	11018
877.162	11124
877.29	11121
877.418	11318
877.546	11402
877.674	11414
877.802	11524
877.93	11604
878.058	11608
878.185	11551
878.313	11691
878.441	11665
878.568	11638
878.696	11851
878.824	11950
878.951	12030
879.079	12068
879.206	12121
879.333	12121
879.461	12068
879.588	12110
879.715	12117
879.842	12266
879.97	12133
880.097	11920
880.224	11931
880.351	11885
880.478	11893
880.605	11870
880.732	11965
880.859	11999
880.986	11832
881.112	11847
881.239	11779
881.366	11684
881.493	11649
881.619	11532
881.746	11589
881.872	11551
881.999	11497
882.125	11547
882.252	11646
882.378	11596
882.505	11604
882.631	11353
882.757	11231
882.883	11292
883.01	11303
883.136	11151
883.262	11094
883.388	11155
883.514	11159
883.64	11132
883.766	11140
883.892	11006
884.018	10953
884.143	11098
884.269	11067
884.395	10805
884.52	10748
884.646	10805
884.772	10736
884.897	10714
885.023	10634
885.148	10771
885.274	10797
885.399	10714
885.524	10725
885.65	10653
885.775	10611
885.9	10607
886.025	10531
886.15	10489
886.275	10424
886.4	10466
886.525	10485
886.65	10325
886.775	10379
886.9	10504
887.025	10584
887.149	10379
887.274	10238
887.399	10238
887.523	10185
887.648	10185
887.773	10112
887.897	10246
888.021	10185
888.146	10086
888.27	10265
888.395	10257
888.519	10185
888.643	10196
888.767	10211
888.891	10120
889.015	9994
889.139	10090
889.263	10071
889.387	10101
889.511	10154
889.635	10158
889.759	10013
889.883	10017
890.006	10078
890.13	10078
890.254	9975
890.377	9937
890.501	9854
890.624	9911
890.748	9892
890.871	9869
890.995	9728
891.118	9660
891.241	9705
891.364	9686
891.488	9873
891.611	9679
891.734	9743
891.857	9770
891.98	9743
892.103	9800
892.226	9709
892.349	9698
892.471	9488
892.594	9568
892.717	9641
892.839	9625
892.962	9572
893.085	9728
893.207	9568
893.33	9542
893.452	9424
893.575	9629
893.697	9549
893.819	9618
893.941	9633
894.064	9603
894.186	9450
894.308	9462
894.43	9492
894.552	9538
894.674	9523
894.796	9401
894.918	9416
895.04	9351
895.161	9355
895.283	9374
895.405	9268
895.526	9230
895.648	9272
895.769	9260
895.891	9249
896.012	9340
896.134	9218
896.255	9230
896.376	9104
896.498	9214
896.619	9085
896.74	9055
896.861	9154
896.982	9351
897.103	9336
897.224	9211
897.345	9036
897.466	9009
897.587	9032
897.708	9104
897.828	9070
897.949	8948
898.07	8861
898.19	8941
898.311	9055
898.431	9009
898.552	8982
898.672	9024
898.792	8944
898.913	8925
899.033	8861
899.153	8781
899.273	8636
899.393	8743
899.513	8678
899.633	8788
899.753	8708
899.873	8663
899.993	8792
900.113	8792
900.232	8781
900.352	8712
900.472	8625
900.591	8648
900.711	8613
900.83	8526
900.95	8629
901.069	8754
901.189	8583
901.308	8469
901.427	8389
901.546	8415
901.665	8511
901.784	8537
901.904	8431
902.023	8332
902.141	8263
902.26	8214
902.379	8229
902.498	8206
902.617	8225
902.735	8309
902.854	8317
902.973	8229
903.091	8107
903.21	8164
903.328	8199
903.446	8134
903.565	8084
903.683	8153
903.801	8081
903.919	8065
904.038	8107
904.156	8069
904.274	8107
904.392	8092
904.51	8069
904.627	8039
904.745	8069
904.863	8115
904.981	7978
905.098	7830
905.216	7913
905.334	7887
905.451	7879
905.569	7951
905.686	7928
905.803	7871
905.921	7822
906.038	7871
906.155	7822
906.272	7719
906.389	7685
906.506	7677
906.623	7620
906.74	7620
906.857	7597
906.974	7605
907.091	7658
907.208	7719
907.324	7636
907.441	7529
907.557	7476
907.674	7415
907.79	7392
907.907	7396
908.023	7457
908.139	7396
908.256	7354
908.372	7415
908.488	7381
908.604	7263
908.72	7320
908.836	7293
908.952	7308
909.068	7255
909.184	7327
909.3	7251
909.415	7278
909.531	7305
909.647	7126
909.762	7118
909.878	7164
909.993	7114
910.108	7110
910.224	7042
910.339	7095
910.454	7038
910.57	7072
910.685	7004
910.8	7194
910.915	7110
911.03	7061
911.145	6882
911.259	6935
911.374	6882
911.489	6802
911.604	6802
911.718	6757
911.833	6741
911.947	6669
912.062	6589
912.176	6726
912.291	6703
912.405	6730
912.519	6833
912.633	6837
912.748	6696
912.862	6768
912.976	6673
913.09	6555
913.204	6601
913.318	6635
913.431	6707
913.545	6662
913.659	6719
913.772	6654
913.886	6604
914	6532
914.113	6669
914.226	6631
914.34	6620
914.453	6536
914.566	6604
914.68	6559
914.793	6536
914.906	6422
915.019	6426
915.132	6365
915.245	6475
915.358	6483
915.47	6418
915.583	6460
915.696	6506
915.809	6574
915.921	6593
916.034	6426
916.146	6395
916.259	6403
916.371	6475
916.483	6483
916.595	6376
916.708	6380
916.82	6372
916.932	6407
917.044	6384
917.156	6407
917.268	6361
917.38	6342
917.491	6289
917.603	6342
917.715	6429
917.826	6414
917.938	6365
918.049	6232
918.161	6376
918.272	6399
918.384	6418
918.495	6323
918.606	6277
918.717	6262
918.828	6292
918.939	6289
919.05	6205
919.161	6251
919.272	6152
919.383	6175
919.494	6361
919.604	6448
919.715	6319
919.826	6315
919.936	6235
920.047	6403
920.157	6247
920.267	6483
920.378	6350
920.488	6292
920.598	6460
920.708	6551
920.818	6506
920.928	6498
921.038	6620
921.148	6582
921.258	6353
921.368	6228
921.477	6251
921.587	6175
921.697	6106
921.806	6159
921.916	6072
922.025	5977
922.134	5973
922.244	5904
922.353	5939
922.462	5828
922.571	5824
922.68	5665
922.789	5638
922.898	5695
923.007	5684
923.116	5680
923.224	5661
923.333	5623
923.442	5707
923.55	5551
923.659	5627
923.767	5646
923.876	5554
923.984	5581
924.092	5524
924.201	5585
924.309	5630
924.417	5528
924.525	5474
924.633	5528
924.741	6331
924.849	5337
924.956	5467
925.064	5360
925.172	5326
925.279	5303
925.387	5341
925.494	5322
925.602	5433
925.709	5425
925.816	5299
925.924	5345
926.031	5383
926.138	5315
926.245	5337
926.352	5212
926.459	5334
926.566	5318
926.673	5231
926.779	5109
926.886	5151
926.993	5075
927.099	5010
927.206	4972
927.312	4987
927.419	4987
927.525	4976
927.631	4984
927.737	4938
927.843	4877
927.95	4805
928.056	4778
928.162	4839
928.267	4889
928.373	5280
928.479	4900
928.585	4675
928.69	4812
928.796	4828
928.901	4714
929.007	4603
929.112	4687
929.218	4698
929.323	4584
929.428	4554
929.533	4672
929.638	4519
929.743	4538
929.848	4615
929.953	4554
930.058	4466
930.163	4325
930.267	4398
930.372	4485
930.477	4344
930.581	4447
930.685	4398
930.79	4299
930.894	4261
930.998	4280
931.103	4405
931.207	4109
931.311	4109
931.415	4051
931.519	3918
931.623	3945
