Data from glass_V78500241_2401.txt Node
Date: Wed Sep 01 19:31:08 CST 2021
User: usil
Spectrometer: V785-0024
Trigger mode: 0
Integration Time (sec): 4.000000E-1
Scans to average: 1
Nonlinearity correction enabled: false
Boxcar width: 0
Storing dark spectrum: false
XAxis mode: Wavelengths
Number of Pixels in Spectrum: 1024
>>>>>Begin Spectral Data<<<<<
801.071	3701
801.214	3751
801.356	3648
801.499	3743
801.641	3770
801.783	3774
801.926	3838
802.068	3797
802.211	3835
802.353	3884
802.496	3823
802.638	3854
802.78	3926
802.923	3899
803.065	3915
803.208	3861
803.35	3876
803.492	3915
803.635	3915
803.777	3789
803.919	3899
804.061	4135
804.204	3960
804.346	3949
804.488	3949
804.63	4040
804.773	3979
804.915	4021
805.057	4109
805.199	4006
805.341	4101
805.483	4139
805.626	4051
805.768	4105
805.91	4188
806.052	4204
806.194	4211
806.336	4306
806.478	4219
806.62	4166
806.762	4139
806.904	4207
807.046	4363
807.188	4207
807.33	4154
807.472	4257
807.614	4158
807.756	4234
807.898	4211
808.04	4219
808.182	4299
808.324	4299
808.465	4375
808.607	4398
808.749	4508
808.891	4478
809.033	4451
809.174	4386
809.316	4268
809.458	4265
809.6	4192
809.741	4124
809.883	4105
810.025	4207
810.166	4169
810.308	4223
810.45	4261
810.591	4238
810.733	4246
810.875	4474
811.016	4793
811.158	5105
811.299	5269
811.441	5261
811.582	5025
811.724	4634
811.865	4443
812.007	4443
812.148	4413
812.29	4409
812.431	4379
812.573	4356
812.714	4348
812.855	4375
812.997	4409
813.138	4489
813.279	4405
813.421	4383
813.562	4371
813.703	4322
813.845	4276
813.986	4230
814.127	4230
814.268	4249
814.41	4287
814.551	4238
814.692	4299
814.833	4261
814.974	4299
815.115	4303
815.256	4257
815.397	4253
815.539	4249
815.68	4143
815.821	4169
815.962	4310
816.103	4333
816.244	4223
816.385	4211
816.526	4287
816.666	4192
816.807	4082
816.948	4147
817.089	4188
817.23	4090
817.371	4055
817.512	4036
817.653	4082
817.793	4025
817.934	4048
818.075	4097
818.216	4086
818.356	4063
818.497	4010
818.638	3953
818.778	3857
818.919	3876
819.06	3842
819.2	3896
819.341	3823
819.481	3785
819.622	3854
819.762	4025
819.903	3945
820.043	3892
820.184	3846
820.324	3823
820.465	3903
820.605	3842
820.746	3907
820.886	3800
821.026	3892
821.167	3937
821.307	4002
821.447	3956
821.588	3945
821.728	3956
821.868	3934
822.008	3846
822.149	3892
822.289	3930
822.429	3781
822.569	3720
822.709	3770
822.849	3652
822.99	3724
823.13	3743
823.27	3774
823.41	3701
823.55	3728
823.69	3686
823.83	3755
823.97	3694
824.11	3648
824.25	3625
824.389	3648
824.529	3614
824.669	3652
824.809	3717
824.949	3720
825.089	3743
825.228	3679
825.368	3564
825.508	3545
825.648	3603
825.787	3637
825.927	3606
826.067	3603
826.206	3656
826.346	3755
826.485	3819
826.625	3823
826.765	3941
826.904	3785
827.044	3580
827.183	3492
827.323	3389
827.462	3458
827.601	3397
827.741	3447
827.88	3428
828.02	3367
828.159	3416
828.298	3530
828.437	3488
828.577	3439
828.716	3572
828.855	3507
828.994	3359
829.134	3325
829.273	3374
829.412	3340
829.551	3348
829.69	3340
829.829	3412
829.968	3511
830.107	3454
830.246	3393
830.385	3340
830.524	3370
830.663	3306
830.802	3237
830.941	3180
831.08	3180
831.219	3249
831.357	3275
831.496	3386
831.635	3264
831.774	3169
831.913	3184
832.051	3142
832.19	3131
832.329	3184
832.467	3097
832.606	3104
832.744	3142
832.883	3173
833.022	3203
833.16	3256
833.299	3291
833.437	3306
833.576	3386
833.714	3374
833.852	3409
833.991	3477
834.129	3462
834.267	3416
834.406	3382
834.544	3389
834.682	3443
834.821	3424
834.959	3564
835.097	3439
835.235	3553
835.373	3481
835.511	3500
835.65	3450
835.788	3466
835.926	3382
836.064	3359
836.202	3374
836.34	3561
836.478	3595
836.615	3557
836.753	3568
836.891	3648
837.029	3610
837.167	3542
837.305	3553
837.443	3526
837.58	3481
837.718	3595
837.856	3549
837.993	3511
838.131	3553
838.269	3599
838.406	3553
838.544	3519
838.681	3454
838.819	3450
838.956	3313
839.094	3420
839.231	3416
839.369	3515
839.506	3717
839.643	3648
839.781	3469
839.918	3507
840.055	3564
840.193	3526
840.33	3511
840.467	3526
840.604	3637
840.742	3785
840.879	3538
841.016	3568
841.153	3587
841.29	3766
841.427	3698
841.564	3667
841.701	3732
841.838	3690
841.975	3656
842.112	3724
842.249	3641
842.385	3595
842.522	3838
842.659	3675
842.796	3667
842.933	3701
843.069	3698
843.206	3724
843.343	3781
843.479	3793
843.616	3785
843.752	3675
843.889	3641
844.025	3873
844.162	3736
844.298	3819
844.435	3747
844.571	3774
844.708	3888
844.844	3975
844.98	4010
845.117	3991
845.253	3945
845.389	3876
845.525	3960
845.661	3979
845.798	3915
845.934	4040
846.07	3960
846.206	3991
846.342	4063
846.478	4021
846.614	3953
846.75	3899
846.886	3937
847.022	4013
847.158	3991
847.294	3968
847.429	4040
847.565	3983
847.701	4223
847.837	3865
847.972	3812
848.108	3964
848.244	3949
848.379	3846
848.515	3781
848.65	3831
848.786	3842
848.921	3831
849.057	3907
849.192	3934
849.328	3831
849.463	3880
849.598	3896
849.734	3880
849.869	3831
850.004	3778
850.14	3804
850.275	3759
850.41	3709
850.545	3747
850.68	3724
850.815	3793
850.95	3812
851.085	3934
851.22	3850
851.355	3804
851.49	3755
851.625	3793
851.76	3766
851.895	3751
852.03	3720
852.165	3838
852.299	3850
852.434	3892
852.569	3850
852.703	3876
852.838	3930
852.973	3949
853.107	3975
853.242	3861
853.376	3846
853.511	3785
853.645	3835
853.78	3987
853.914	3873
854.048	3903
854.183	3896
854.317	3953
854.451	4078
854.585	3972
854.72	3930
854.854	3991
854.988	3930
855.122	3960
855.256	3888
855.39	4010
855.524	4082
855.658	4101
855.792	4097
855.926	4162
856.06	4177
856.194	4192
856.327	4093
856.461	4143
856.595	4169
856.729	4188
856.862	4249
856.996	4227
857.13	4322
857.263	4333
857.397	4322
857.53	4280
857.664	4299
857.797	4375
857.931	4413
858.064	4402
858.197	4398
858.331	4375
858.464	4379
858.597	4379
858.731	4409
858.864	4440
858.997	4462
859.13	4527
859.263	4538
859.396	4577
859.529	4508
859.662	4500
859.795	4531
859.928	4615
860.061	4641
860.194	4675
860.327	4653
860.46	4599
860.592	4733
860.725	4706
860.858	4767
860.99	4691
861.123	4679
861.256	4698
861.388	4717
861.521	5520
861.653	4691
861.786	4672
861.918	4725
862.05	4786
862.183	4843
862.315	4850
862.447	4892
862.58	4854
862.712	4824
862.844	4721
862.976	4828
863.108	4858
863.24	5185
863.372	4820
863.504	4957
863.636	4892
863.768	4976
863.9	4976
864.032	4908
864.164	4972
864.296	4984
864.428	5102
864.559	5094
864.691	5140
864.823	5159
864.954	5117
865.086	5113
865.217	5128
865.349	5071
865.48	5147
865.612	5216
865.743	5239
865.875	5193
866.006	5174
866.137	5216
866.269	5189
866.4	5193
866.531	5189
866.662	5231
866.793	5284
866.924	5269
867.055	5311
867.186	5288
867.317	5334
867.448	5288
867.579	5322
867.71	5357
867.841	5402
867.972	5410
868.103	5467
868.233	5440
868.364	5547
868.495	5528
868.625	5665
868.756	5764
868.886	5680
869.017	5737
869.147	5847
869.278	5817
869.408	5828
869.539	5821
869.669	5923
869.799	5863
869.929	5954
870.06	6003
870.19	6224
870.32	6190
870.45	6251
870.58	6319
870.71	6486
870.84	6445
870.97	6388
871.1	6464
871.23	6627
871.36	6673
871.489	6574
871.619	6722
871.749	6829
871.879	6859
872.008	6920
872.138	6913
872.267	7023
872.397	6993
872.526	6985
872.656	7129
872.785	7202
872.915	7346
873.044	7487
873.173	7552
873.303	7685
873.432	7772
873.561	7898
873.69	7887
873.819	7932
873.948	8107
874.077	8267
874.206	8332
874.335	8476
874.464	8667
874.593	8849
874.722	8876
874.851	9074
874.979	9188
875.108	9336
875.237	9416
875.365	9504
875.494	9713
875.623	9831
875.751	9922
875.88	9998
876.008	10139
876.136	10284
876.265	10421
876.393	10668
876.521	10698
876.65	10733
876.778	10889
876.906	10915
877.034	10938
877.162	11132
877.29	11151
877.418	11193
877.546	11345
877.674	11474
877.802	11493
877.93	11463
878.058	11490
878.185	11585
878.313	11585
878.441	11688
878.568	11722
878.696	11790
878.824	11859
878.951	11984
879.079	11969
879.206	11996
879.333	12087
879.461	11942
879.588	12057
879.715	12087
879.842	12232
879.97	12034
880.097	11912
880.224	11885
880.351	11855
880.478	11870
880.605	11851
880.732	11851
880.859	11908
880.986	11760
881.112	11882
881.239	11684
881.366	11642
881.493	11551
881.619	11478
881.746	11672
881.872	11551
881.999	11478
882.125	11425
882.252	11539
882.378	11486
882.505	11554
882.631	11334
882.757	11318
882.883	11299
883.01	11254
883.136	11216
883.262	11117
883.388	11094
883.514	11216
883.64	11140
883.766	11117
883.892	11033
884.018	10946
884.143	11064
884.269	11079
884.395	10767
884.52	10694
884.646	10786
884.772	10733
884.897	10668
885.023	10637
885.148	10641
885.274	10717
885.399	10615
885.524	10588
885.65	10504
885.775	10565
885.9	10542
886.025	10599
886.15	10519
886.275	10481
886.4	10409
886.525	10314
886.65	10421
886.775	10287
886.9	10485
887.025	10512
887.149	10329
887.274	10200
887.399	10185
887.523	10139
887.648	10196
887.773	10147
887.897	10207
888.021	10238
888.146	10158
888.27	10257
888.395	10185
888.519	10192
888.643	10147
888.767	10177
888.891	10082
889.015	10082
889.139	10010
889.263	10067
889.387	10071
889.511	10128
889.635	10074
889.759	9968
889.883	9937
890.006	9998
890.13	10128
890.254	9945
890.377	9960
890.501	9804
890.624	9918
890.748	9838
890.871	9880
890.995	9823
891.118	9671
891.241	9694
891.364	9755
891.488	9850
891.611	9694
891.734	9774
891.857	9762
891.98	9709
892.103	9804
892.226	9679
892.349	9656
892.471	9549
892.594	9614
892.717	9561
892.839	9576
892.962	9576
893.085	9652
893.207	9618
893.33	9523
893.452	9530
893.575	9568
893.697	9511
893.819	9576
893.941	9599
894.064	9576
894.186	9515
894.308	9340
894.43	9564
894.552	9561
894.674	9568
894.796	9370
894.918	9405
895.04	9325
895.161	9428
895.283	9302
895.405	9184
895.526	9287
895.648	9287
895.769	9272
895.891	9294
896.012	9230
896.134	9268
896.255	9157
896.376	9142
896.498	9123
896.619	9093
896.74	8994
896.861	9081
896.982	9260
897.103	9313
897.224	9161
897.345	9036
897.466	9001
897.587	9009
897.708	9062
897.828	9032
897.949	8941
898.07	8918
898.19	8876
898.311	9017
898.431	8883
898.552	8921
898.672	8952
898.792	8944
898.913	8849
899.033	8842
899.153	8792
899.273	8697
899.393	8697
899.513	8674
899.633	8720
899.753	8750
899.873	8701
899.993	8720
900.113	8663
900.232	8667
900.352	8629
900.472	8648
900.591	8533
900.711	8598
900.83	8533
900.95	8632
901.069	8682
901.189	8594
901.308	8438
901.427	8385
901.546	8457
901.665	8454
901.784	8533
901.904	8282
902.023	8309
902.141	8256
902.26	8191
902.379	8191
902.498	8218
902.617	8221
902.735	8248
902.854	8275
902.973	8267
903.091	8126
903.21	8058
903.328	8142
903.446	8100
903.565	8062
903.683	8119
903.801	8008
903.919	8088
904.038	8115
904.156	8027
904.274	8084
904.392	8043
904.51	8065
904.627	8084
904.745	7986
904.863	8157
904.981	7902
905.098	7868
905.216	7928
905.334	7871
905.451	7974
905.569	7890
905.686	7921
905.803	7871
905.921	7799
906.038	7890
906.155	7799
906.272	7655
906.389	7734
906.506	7731
906.623	7597
906.74	7567
906.857	7468
906.974	7578
907.091	7628
907.208	7738
907.324	7537
907.441	7613
907.557	7491
907.674	7396
907.79	7354
907.907	7460
908.023	7373
908.139	7419
908.256	7400
908.372	7362
908.488	7434
908.604	7312
908.72	7225
908.836	7217
908.952	7278
909.068	7240
909.184	7343
909.3	7251
909.415	7247
909.531	7289
909.647	7095
909.762	7118
909.878	7126
909.993	7095
910.108	7019
910.224	7061
910.339	7061
910.454	7042
910.57	6962
910.685	7031
910.8	7149
910.915	7126
911.03	7012
911.145	6916
911.259	6859
911.374	6882
911.489	6840
911.604	6837
911.718	6711
911.833	6722
911.947	6650
912.062	6597
912.176	6684
912.291	6730
912.405	6654
912.519	6825
912.633	6840
912.748	6726
912.862	6707
912.976	6601
913.09	6559
913.204	6642
913.318	6684
913.431	6650
913.545	6642
913.659	6662
913.772	6639
913.886	6574
914	6578
914.113	6627
914.226	6654
914.34	6627
914.453	6521
914.566	6658
914.68	6490
914.793	6506
914.906	6418
915.019	6357
915.132	6384
915.245	6433
915.358	6479
915.47	6437
915.583	6464
915.696	6456
915.809	6502
915.921	6490
916.034	6399
916.146	6403
916.259	6391
916.371	6437
916.483	6369
916.595	6327
916.708	6437
916.82	6422
916.932	6380
917.044	6357
917.156	6353
917.268	6304
917.38	6323
917.491	6292
917.603	6308
917.715	6346
917.826	6395
917.938	6342
918.049	6258
918.161	6369
918.272	6384
918.384	6422
918.495	6357
918.606	6178
918.717	6213
918.828	6266
918.939	6235
919.05	6167
919.161	6205
919.272	6155
919.383	6083
919.494	6315
919.604	6403
919.715	6319
919.826	6235
919.936	6243
920.047	6384
920.157	6243
920.267	6467
920.378	6247
920.488	6270
920.598	6372
920.708	6540
920.818	6486
920.928	6437
921.038	6593
921.148	6517
921.258	6338
921.368	6292
921.477	6205
921.587	6159
921.697	6076
921.806	6186
921.916	6049
922.025	5942
922.134	5927
922.244	5859
922.353	5988
922.462	5882
922.571	5790
922.68	5722
922.789	5691
922.898	5775
923.007	5638
923.116	5703
923.224	5684
923.333	5619
923.442	5581
923.55	5558
923.659	5592
923.767	5615
923.876	5528
923.984	5551
924.092	5463
924.201	5532
924.309	5539
924.417	5551
924.525	5478
924.633	5463
924.741	6224
924.849	5368
924.956	5444
925.064	5357
925.172	5273
925.279	5322
925.387	5334
925.494	5311
925.602	5395
925.709	5368
925.816	5265
925.924	5296
926.031	5357
926.138	5318
926.245	5360
926.352	5299
926.459	5303
926.566	5311
926.673	5220
926.779	5155
926.886	5105
926.993	5010
927.099	5022
927.206	4946
927.312	4957
927.419	4999
927.525	4972
927.631	4987
927.737	4835
927.843	4873
927.95	4778
928.056	4843
928.162	4866
928.267	4858
928.373	5261
928.479	4911
928.585	4664
928.69	4812
928.796	4774
928.901	4702
929.007	4588
929.112	4714
929.218	4599
929.323	4607
929.428	4542
929.533	4637
929.638	4519
929.743	4508
929.848	4531
929.953	4504
930.058	4413
930.163	4291
930.267	4310
930.372	4443
930.477	4310
930.581	4428
930.685	4306
930.79	4249
930.894	4249
930.998	4253
931.103	4363
931.207	4093
931.311	4071
931.415	4055
931.519	3873
931.623	3918
