Data from glass_V78500241_1921.txt Node
Date: Wed Sep 01 19:27:49 CST 2021
User: usil
Spectrometer: V785-0024
Trigger mode: 0
Integration Time (sec): 4.000000E-1
Scans to average: 1
Nonlinearity correction enabled: false
Boxcar width: 0
Storing dark spectrum: false
XAxis mode: Wavelengths
Number of Pixels in Spectrum: 1024
>>>>>Begin Spectral Data<<<<<
801.071	3740
801.214	3732
801.356	3675
801.499	3713
801.641	3713
801.783	3789
801.926	3846
802.068	3846
802.211	3846
802.353	3861
802.496	3850
802.638	3831
802.78	3899
802.923	3899
803.065	3930
803.208	3808
803.35	3880
803.492	3873
803.635	3907
803.777	3789
803.919	3873
804.061	4162
804.204	3915
804.346	3907
804.488	3888
804.63	4021
804.773	4010
804.915	4071
805.057	4139
805.199	3983
805.341	4071
805.483	4139
805.626	4131
805.768	4143
805.91	4188
806.052	4219
806.194	4181
806.336	4318
806.478	4181
806.62	4185
806.762	4177
806.904	4265
807.046	4322
807.188	4169
807.33	4207
807.472	4211
807.614	4139
807.756	4242
807.898	4257
808.04	4188
808.182	4318
808.324	4306
808.465	4375
808.607	4485
808.749	4428
808.891	4459
809.033	4474
809.174	4363
809.316	4280
809.458	4242
809.6	4158
809.741	4139
809.883	4166
810.025	4227
810.166	4223
810.308	4200
810.45	4268
810.591	4246
810.733	4291
810.875	4504
811.016	4820
811.158	5136
811.299	5265
811.441	5246
811.582	4991
811.724	4698
811.865	4508
812.007	4428
812.148	4432
812.29	4440
812.431	4424
812.573	4398
812.714	4360
812.855	4379
812.997	4428
813.138	4519
813.279	4402
813.421	4409
813.562	4390
813.703	4306
813.845	4352
813.986	4227
814.127	4192
814.268	4265
814.41	4303
814.551	4265
814.692	4363
814.833	4276
814.974	4306
815.115	4325
815.256	4211
815.397	4200
815.539	4257
815.68	4200
815.821	4185
815.962	4299
816.103	4276
816.244	4204
816.385	4238
816.526	4287
816.666	4215
816.807	4120
816.948	4192
817.089	4204
817.23	4147
817.371	4032
817.512	4093
817.653	4048
817.793	4025
817.934	4071
818.075	4097
818.216	4074
818.356	4059
818.497	4002
818.638	3934
818.778	3896
818.919	3915
819.06	3873
819.2	3903
819.341	3884
819.481	3808
819.622	3911
819.762	4025
819.903	3937
820.043	3865
820.184	3808
820.324	3800
820.465	3873
820.605	3865
820.746	3831
820.886	3778
821.026	3930
821.167	3888
821.307	3964
821.447	3945
821.588	3922
821.728	3918
821.868	3896
822.008	3876
822.149	3907
822.289	3907
822.429	3762
822.569	3743
822.709	3781
822.849	3709
822.99	3717
823.13	3766
823.27	3747
823.41	3690
823.55	3709
823.69	3724
823.83	3675
823.97	3656
824.11	3599
824.25	3564
824.389	3633
824.529	3663
824.669	3629
824.809	3705
824.949	3743
825.089	3736
825.228	3705
825.368	3595
825.508	3561
825.648	3606
825.787	3591
825.927	3641
826.067	3637
826.206	3641
826.346	3778
826.485	3835
826.625	3873
826.765	3922
826.904	3823
827.044	3618
827.183	3534
827.323	3431
827.462	3473
827.601	3393
827.741	3435
827.88	3416
828.02	3378
828.159	3424
828.298	3488
828.437	3523
828.577	3481
828.716	3557
828.855	3519
828.994	3389
829.134	3382
829.273	3348
829.412	3317
829.551	3310
829.69	3363
829.829	3428
829.968	3500
830.107	3428
830.246	3409
830.385	3389
830.524	3336
830.663	3321
830.802	3233
830.941	3188
831.08	3165
831.219	3260
831.357	3268
831.496	3397
831.635	3218
831.774	3180
831.913	3180
832.051	3161
832.19	3146
832.329	3230
832.467	3150
832.606	3127
832.744	3154
832.883	3192
833.022	3169
833.16	3245
833.299	3321
833.437	3336
833.576	3329
833.714	3428
833.852	3420
833.991	3458
834.129	3443
834.267	3412
834.406	3367
834.544	3397
834.682	3409
834.821	3424
834.959	3557
835.097	3424
835.235	3534
835.373	3485
835.511	3481
835.65	3462
835.788	3462
835.926	3370
836.064	3340
836.202	3409
836.34	3549
836.478	3591
836.615	3542
836.753	3633
836.891	3610
837.029	3576
837.167	3538
837.305	3572
837.443	3549
837.58	3492
837.718	3614
837.856	3561
837.993	3561
838.131	3603
838.269	3580
838.406	3595
838.544	3561
838.681	3492
838.819	3454
838.956	3344
839.094	3367
839.231	3454
839.369	3511
839.506	3740
839.643	3618
839.781	3477
839.918	3458
840.055	3553
840.193	3530
840.33	3496
840.467	3564
840.604	3576
840.742	3770
840.879	3534
841.016	3568
841.153	3568
841.29	3762
841.427	3667
841.564	3667
841.701	3724
841.838	3709
841.975	3679
842.112	3656
842.249	3614
842.385	3599
842.522	3854
842.659	3667
842.796	3690
842.933	3709
843.069	3698
843.206	3778
843.343	3797
843.479	3759
843.616	3842
843.752	3644
843.889	3663
844.025	3873
844.162	3747
844.298	3808
844.435	3781
844.571	3770
844.708	3922
844.844	4021
844.98	4036
845.117	3983
845.253	3934
845.389	3880
845.525	3960
845.661	3983
845.798	3918
845.934	3968
846.07	3934
846.206	4078
846.342	4101
846.478	4025
846.614	4002
846.75	3953
846.886	3911
847.022	4036
847.158	3964
847.294	3979
847.429	3987
847.565	3998
847.701	4173
847.837	3876
847.972	3869
848.108	3994
848.244	3975
848.379	3857
848.515	3819
848.65	3827
848.786	3831
848.921	3876
849.057	3918
849.192	3983
849.328	3884
849.463	3968
849.598	3903
849.734	3888
849.869	3827
850.004	3804
850.14	3835
850.275	3797
850.41	3751
850.545	3732
850.68	3793
850.815	3774
850.95	3789
851.085	3934
851.22	3850
851.355	3842
851.49	3762
851.625	3774
851.76	3789
851.895	3720
852.03	3736
852.165	3755
852.299	3835
852.434	3873
852.569	3899
852.703	3876
852.838	3911
852.973	4010
853.107	3945
853.242	3884
853.376	3827
853.511	3743
853.645	3842
853.78	3960
853.914	3888
854.048	3888
854.183	3850
854.317	3953
854.451	4055
854.585	3941
854.72	3934
854.854	4112
854.988	3896
855.122	3979
855.256	3903
855.39	4032
855.524	4086
855.658	4082
855.792	4128
855.926	4097
856.06	4166
856.194	4162
856.327	4124
856.461	4101
856.595	4124
856.729	4192
856.862	4284
856.996	4242
857.13	4291
857.263	4348
857.397	4386
857.53	4329
857.664	4383
857.797	4360
857.931	4405
858.064	4390
858.197	4504
858.331	4386
858.464	4413
858.597	4337
858.731	4440
858.864	4459
858.997	4421
859.13	4493
859.263	4516
859.396	4554
859.529	4512
859.662	4554
859.795	4523
859.928	4653
860.061	4706
860.194	4752
860.327	4660
860.46	4679
860.592	4694
860.725	4767
860.858	4786
860.99	4683
861.123	4679
861.256	4664
861.388	4786
861.521	5376
861.653	4717
861.786	4706
861.918	4736
862.05	4778
862.183	4870
862.315	4900
862.447	4930
862.58	4854
862.712	4774
862.844	4729
862.976	4915
863.108	4858
863.24	5185
863.372	4809
863.504	4919
863.636	4828
863.768	4968
863.9	4942
864.032	4896
864.164	4934
864.296	5025
864.428	5029
864.559	5067
864.691	5124
864.823	5189
864.954	5155
865.086	5166
865.217	5128
865.349	5064
865.48	5193
865.612	5143
865.743	5296
865.875	5193
866.006	5174
866.137	5220
866.269	5250
866.4	5208
866.531	5223
866.662	5181
866.793	5258
866.924	5265
867.055	5379
867.186	5364
867.317	5353
867.448	5353
867.579	5360
867.71	5372
867.841	5376
867.972	5463
868.103	5444
868.233	5471
868.364	5497
868.495	5539
868.625	5657
868.756	5783
868.886	5665
869.017	5729
869.147	5824
869.278	5908
869.408	5771
869.539	5851
869.669	5961
869.799	5885
869.929	6026
870.06	6038
870.19	6194
870.32	6175
870.45	6190
870.58	6380
870.71	6429
870.84	6486
870.97	6338
871.1	6391
871.23	6654
871.36	6715
871.489	6616
871.619	6753
871.749	6852
871.879	6856
872.008	7008
872.138	7023
872.267	6989
872.397	6989
872.526	7031
872.656	7076
872.785	7187
872.915	7350
873.044	7506
873.173	7499
873.303	7693
873.432	7830
873.561	7784
873.69	7887
873.819	7974
873.948	8134
874.077	8199
874.206	8298
874.335	8530
874.464	8674
874.593	8815
874.722	8895
874.851	9154
874.979	9233
875.108	9332
875.237	9447
875.365	9439
875.494	9713
875.623	9793
875.751	9842
875.88	10006
876.008	10116
876.136	10303
876.265	10527
876.393	10668
876.521	10706
876.65	10759
876.778	10934
876.906	10885
877.034	11003
877.162	11102
877.29	11105
877.418	11414
877.546	11322
877.674	11471
877.802	11455
877.93	11509
878.058	11611
878.185	11554
878.313	11535
878.441	11767
878.568	11657
878.696	11821
878.824	11802
878.951	11973
879.079	11980
879.206	12095
879.333	12007
879.461	11950
879.588	12087
879.715	12030
879.842	12220
879.97	12064
880.097	11809
880.224	11843
880.351	11946
880.478	11931
880.605	11870
880.732	11756
880.859	11992
880.986	11832
881.112	11790
881.239	11745
881.366	11608
881.493	11562
881.619	11505
881.746	11589
881.872	11528
881.999	11566
882.125	11448
882.252	11493
882.378	11516
882.505	11562
882.631	11364
882.757	11284
882.883	11318
883.01	11223
883.136	11162
883.262	11124
883.388	11067
883.514	11143
883.64	11193
883.766	11102
883.892	10987
884.018	10984
884.143	11064
884.269	11185
884.395	10854
884.52	10767
884.646	10801
884.772	10626
884.897	10702
885.023	10694
885.148	10645
885.274	10793
885.399	10736
885.524	10752
885.65	10561
885.775	10588
885.9	10523
886.025	10649
886.15	10474
886.275	10424
886.4	10386
886.525	10402
886.65	10379
886.775	10242
886.9	10481
887.025	10516
887.149	10344
887.274	10192
887.399	10158
887.523	10230
887.648	10204
887.773	10101
887.897	10242
888.021	10147
888.146	10090
888.27	10150
888.395	10242
888.519	10238
888.643	10196
888.767	10093
888.891	10067
889.015	10040
889.139	10116
889.263	10017
889.387	10029
889.511	10078
889.635	10067
889.759	9983
889.883	9854
890.006	9979
890.13	10101
890.254	9922
890.377	10044
890.501	9903
890.624	9869
890.748	9884
890.871	9789
890.995	9732
891.118	9663
891.241	9747
891.364	9751
891.488	9774
891.611	9663
891.734	9759
891.857	9736
891.98	9759
892.103	9770
892.226	9671
892.349	9717
892.471	9530
892.594	9504
892.717	9576
892.839	9625
892.962	9591
893.085	9641
893.207	9591
893.33	9561
893.452	9526
893.575	9644
893.697	9500
893.819	9542
893.941	9564
894.064	9614
894.186	9424
894.308	9408
894.43	9542
894.552	9511
894.674	9458
894.796	9405
894.918	9408
895.04	9332
895.161	9317
895.283	9355
895.405	9233
895.526	9268
895.648	9283
895.769	9233
895.891	9233
896.012	9359
896.134	9207
896.255	9100
896.376	9135
896.498	9161
896.619	9135
896.74	9112
896.861	9077
896.982	9298
897.103	9317
897.224	9169
897.345	9074
897.466	8960
897.587	8994
897.708	9051
897.828	9047
897.949	8914
898.07	8842
898.19	8880
898.311	8925
898.431	8868
898.552	8937
898.672	8963
898.792	8899
898.913	8819
899.033	8750
899.153	8716
899.273	8655
899.393	8769
899.513	8842
899.633	8731
899.753	8804
899.873	8708
899.993	8731
900.113	8636
900.232	8659
900.352	8632
900.472	8598
900.591	8568
900.711	8590
900.83	8564
900.95	8613
901.069	8644
901.189	8522
901.308	8461
901.427	8370
901.546	8454
901.665	8469
901.784	8507
901.904	8385
902.023	8309
902.141	8176
902.26	8218
902.379	8290
902.498	8233
902.617	8157
902.735	8271
902.854	8237
902.973	8267
903.091	8138
903.21	8145
903.328	8164
903.446	8130
903.565	8065
903.683	8119
903.801	7978
903.919	8084
904.038	8115
904.156	8039
904.274	8111
904.392	7989
904.51	8050
904.627	8024
904.745	8046
904.863	8115
904.981	7902
905.098	7852
905.216	7830
905.334	7887
905.451	7871
905.569	7818
905.686	7894
905.803	7932
905.921	7803
906.038	7856
906.155	7731
906.272	7715
906.389	7765
906.506	7655
906.623	7643
906.74	7616
906.857	7518
906.974	7567
907.091	7624
907.208	7693
907.324	7544
907.441	7525
907.557	7438
907.674	7457
907.79	7308
907.907	7373
908.023	7464
908.139	7434
908.256	7392
908.372	7331
908.488	7324
908.604	7202
908.72	7217
908.836	7343
908.952	7164
909.068	7301
909.184	7274
909.3	7221
909.415	7320
909.531	7266
909.647	7160
909.762	7095
909.878	7038
909.993	7129
910.108	7110
910.224	7015
910.339	7084
910.454	7031
910.57	6993
910.685	6932
910.8	7187
910.915	7069
911.03	7050
911.145	6905
911.259	6871
911.374	6875
911.489	6795
911.604	6768
911.718	6681
911.833	6722
911.947	6604
912.062	6616
912.176	6779
912.291	6673
912.405	6703
912.519	6787
912.633	6787
912.748	6696
912.862	6703
912.976	6532
913.09	6506
913.204	6616
913.318	6604
913.431	6604
913.545	6639
913.659	6703
913.772	6639
913.886	6597
914	6521
914.113	6582
914.226	6631
914.34	6604
914.453	6563
914.566	6608
914.68	6467
914.793	6563
914.906	6437
915.019	6418
915.132	6414
915.245	6418
915.358	6448
915.47	6437
915.583	6426
915.696	6490
915.809	6544
915.921	6555
916.034	6399
916.146	6437
916.259	6376
916.371	6448
916.483	6441
916.595	6376
916.708	6418
916.82	6391
916.932	6365
917.044	6346
917.156	6376
917.268	6323
917.38	6346
917.491	6273
917.603	6376
917.715	6342
917.826	6410
917.938	6273
918.049	6266
918.161	6327
918.272	6429
918.384	6448
918.495	6357
918.606	6251
918.717	6228
918.828	6258
918.939	6247
919.05	6197
919.161	6209
919.272	6117
919.383	6129
919.494	6304
919.604	6399
919.715	6311
919.826	6220
919.936	6273
920.047	6350
920.157	6285
920.267	6460
920.378	6357
920.488	6228
920.598	6429
920.708	6517
920.818	6464
920.928	6475
921.038	6589
921.148	6559
921.258	6361
921.368	6251
921.477	6285
921.587	6209
921.697	6083
921.806	6068
921.916	6076
922.025	5965
922.134	5916
922.244	5920
922.353	5954
922.462	5851
922.571	5756
922.68	5703
922.789	5688
922.898	5672
923.007	5642
923.116	5676
923.224	5688
923.333	5653
923.442	5608
923.55	5566
923.659	5539
923.767	5627
923.876	5585
923.984	5596
924.092	5551
924.201	5543
924.309	5577
924.417	5585
924.525	5444
924.633	5520
924.741	6319
924.849	5398
924.956	5436
925.064	5368
925.172	5296
925.279	5334
925.387	5311
925.494	5326
925.602	5387
925.709	5455
925.816	5250
925.924	5357
926.031	5349
926.138	5280
926.245	5292
926.352	5170
926.459	5349
926.566	5277
926.673	5204
926.779	5117
926.886	5079
926.993	5060
927.099	4991
927.206	4923
927.312	4953
927.419	4987
927.525	4976
927.631	5025
927.737	4915
927.843	4877
927.95	4782
928.056	4809
928.162	4824
928.267	4843
928.373	5349
928.479	4915
928.585	4710
928.69	4767
928.796	4763
928.901	4634
929.007	4588
929.112	4675
929.218	4672
929.323	4569
929.428	4554
929.533	4641
929.638	4516
929.743	4512
929.848	4569
929.953	4474
930.058	4481
930.163	4322
930.267	4318
930.372	4436
930.477	4303
930.581	4493
930.685	4352
930.79	4268
930.894	4284
930.998	4242
931.103	4386
931.207	4128
931.311	4090
931.415	4006
931.519	3949
931.623	3918
