Data from glass_V78500241_1512.txt Node
Date: Wed Sep 01 19:24:58 CST 2021
User: usil
Spectrometer: V785-0024
Trigger mode: 0
Integration Time (sec): 4.000000E-1
Scans to average: 1
Nonlinearity correction enabled: false
Boxcar width: 0
Storing dark spectrum: false
XAxis mode: Wavelengths
Number of Pixels in Spectrum: 1024
>>>>>Begin Spectral Data<<<<<
801.071	3717
801.214	3755
801.356	3686
801.499	3778
801.641	3736
801.783	3774
801.926	3911
802.068	3827
802.211	3854
802.353	3880
802.496	3827
802.638	3831
802.78	3907
802.923	3907
803.065	3861
803.208	3846
803.35	3854
803.492	3896
803.635	3918
803.777	3812
803.919	3876
804.061	4131
804.204	3968
804.346	3968
804.488	3953
804.63	4063
804.773	3956
804.915	3994
805.057	4116
805.199	4048
805.341	4086
805.483	4135
805.626	4143
805.768	4086
805.91	4223
806.052	4246
806.194	4230
806.336	4363
806.478	4230
806.62	4169
806.762	4177
806.904	4211
807.046	4341
807.188	4185
807.33	4177
807.472	4249
807.614	4188
807.756	4280
807.898	4185
808.04	4211
808.182	4318
808.324	4291
808.465	4337
808.607	4474
808.749	4474
808.891	4474
809.033	4504
809.174	4352
809.316	4234
809.458	4276
809.6	4124
809.741	4177
809.883	4177
810.025	4234
810.166	4230
810.308	4219
810.45	4257
810.591	4280
810.733	4265
810.875	4504
811.016	4854
811.158	5162
811.299	5250
811.441	5242
811.582	5121
811.724	4733
811.865	4470
812.007	4443
812.148	4440
812.29	4413
812.431	4409
812.573	4424
812.714	4379
812.855	4459
812.997	4428
813.138	4466
813.279	4390
813.421	4390
813.562	4371
813.703	4356
813.845	4325
813.986	4246
814.127	4177
814.268	4249
814.41	4227
814.551	4234
814.692	4295
814.833	4230
814.974	4303
815.115	4337
815.256	4276
815.397	4253
815.539	4276
815.68	4207
815.821	4196
815.962	4314
816.103	4306
816.244	4234
816.385	4253
816.526	4280
816.666	4249
816.807	4101
816.948	4169
817.089	4150
817.23	4101
817.371	4067
817.512	4074
817.653	4051
817.793	4036
817.934	4074
818.075	4101
818.216	4071
818.356	4097
818.497	4032
818.638	3896
818.778	3918
818.919	3876
819.06	3842
819.2	3949
819.341	3865
819.481	3838
819.622	3918
819.762	4044
819.903	3991
820.043	3918
820.184	3869
820.324	3816
820.465	3884
820.605	3861
820.746	3842
820.886	3823
821.026	3911
821.167	3930
821.307	3972
821.447	3953
821.588	3945
821.728	3987
821.868	3941
822.008	3880
822.149	3869
822.289	3930
822.429	3774
822.569	3778
822.709	3781
822.849	3698
822.99	3701
823.13	3770
823.27	3785
823.41	3743
823.55	3709
823.69	3751
823.83	3717
823.97	3698
824.11	3584
824.25	3599
824.389	3633
824.529	3667
824.669	3644
824.809	3717
824.949	3766
825.089	3762
825.228	3720
825.368	3580
825.508	3526
825.648	3603
825.787	3576
825.927	3637
826.067	3618
826.206	3660
826.346	3770
826.485	3827
826.625	3880
826.765	3968
826.904	3819
827.044	3633
827.183	3519
827.323	3458
827.462	3485
827.601	3477
827.741	3466
827.88	3469
828.02	3405
828.159	3409
828.298	3454
828.437	3553
828.577	3485
828.716	3576
828.855	3481
828.994	3367
829.134	3389
829.273	3359
829.412	3378
829.551	3340
829.69	3355
829.829	3416
829.968	3507
830.107	3454
830.246	3431
830.385	3405
830.524	3374
830.663	3294
830.802	3253
830.941	3199
831.08	3173
831.219	3249
831.357	3279
831.496	3409
831.635	3214
831.774	3211
831.913	3226
832.051	3176
832.19	3135
832.329	3214
832.467	3097
832.606	3085
832.744	3195
832.883	3188
833.022	3192
833.16	3253
833.299	3351
833.437	3310
833.576	3397
833.714	3401
833.852	3462
833.991	3416
834.129	3462
834.267	3447
834.406	3424
834.544	3412
834.682	3435
834.821	3424
834.959	3610
835.097	3405
835.235	3557
835.373	3500
835.511	3511
835.65	3450
835.788	3500
835.926	3389
836.064	3393
836.202	3412
836.34	3564
836.478	3614
836.615	3542
836.753	3603
836.891	3610
837.029	3595
837.167	3633
837.305	3591
837.443	3545
837.58	3542
837.718	3606
837.856	3542
837.993	3515
838.131	3599
838.269	3595
838.406	3580
838.544	3606
838.681	3526
838.819	3454
838.956	3382
839.094	3393
839.231	3462
839.369	3515
839.506	3732
839.643	3633
839.781	3526
839.918	3439
840.055	3538
840.193	3492
840.33	3538
840.467	3538
840.604	3587
840.742	3808
840.879	3603
841.016	3591
841.153	3591
841.29	3694
841.427	3732
841.564	3755
841.701	3736
841.838	3724
841.975	3694
842.112	3698
842.249	3637
842.385	3633
842.522	3842
842.659	3713
842.796	3644
842.933	3717
843.069	3717
843.206	3652
843.343	3800
843.479	3800
843.616	3854
843.752	3660
843.889	3690
844.025	3876
844.162	3732
844.298	3846
844.435	3789
844.571	3762
844.708	3896
844.844	3964
844.98	4017
845.117	4082
845.253	3945
845.389	3888
845.525	3975
845.661	3907
845.798	3945
845.934	3998
846.07	3937
846.206	4025
846.342	4105
846.478	4063
846.614	3953
846.75	3934
846.886	3907
847.022	4040
847.158	3934
847.294	4013
847.429	4017
847.565	4040
847.701	4246
847.837	3884
847.972	3865
848.108	3930
848.244	3930
848.379	3865
848.515	3774
848.65	3808
848.786	3800
848.921	3842
849.057	3903
849.192	3930
849.328	3899
849.463	3911
849.598	3888
849.734	3880
849.869	3873
850.004	3808
850.14	3819
850.275	3827
850.41	3759
850.545	3713
850.68	3785
850.815	3743
850.95	3819
851.085	3930
851.22	3873
851.355	3812
851.49	3755
851.625	3778
851.76	3838
851.895	3743
852.03	3762
852.165	3827
852.299	3857
852.434	3903
852.569	3854
852.703	3922
852.838	3949
852.973	4006
853.107	4002
853.242	3861
853.376	3816
853.511	3785
853.645	3857
853.78	3998
853.914	3884
854.048	3903
854.183	3831
854.317	3991
854.451	4032
854.585	3949
854.72	3934
854.854	4040
854.988	3922
855.122	3998
855.256	3934
855.39	4063
855.524	4154
855.658	4097
855.792	4135
855.926	4150
856.06	4196
856.194	4227
856.327	4109
856.461	4166
856.595	4139
856.729	4169
856.862	4268
856.996	4265
857.13	4325
857.263	4322
857.397	4352
857.53	4261
857.664	4348
857.797	4348
857.931	4413
858.064	4455
858.197	4443
858.331	4363
858.464	4440
858.597	4371
858.731	4489
858.864	4470
858.997	4405
859.13	4481
859.263	4565
859.396	4577
859.529	4546
859.662	4538
859.795	4550
859.928	4634
860.061	4698
860.194	4767
860.327	4626
860.46	4615
860.592	4748
860.725	4755
860.858	4774
860.99	4729
861.123	4702
861.256	4687
861.388	4755
861.521	5490
861.653	4698
861.786	4706
861.918	4748
862.05	4736
862.183	4797
862.315	4881
862.447	4915
862.58	4889
862.712	4778
862.844	4744
862.976	4881
863.108	4858
863.24	5303
863.372	4797
863.504	4915
863.636	4881
863.768	4957
863.9	4961
864.032	4934
864.164	4965
864.296	5029
864.428	5083
864.559	5117
864.691	5128
864.823	5090
864.954	5090
865.086	5166
865.217	5121
865.349	5109
865.48	5136
865.612	5189
865.743	5299
865.875	5147
866.006	5223
866.137	5246
866.269	5223
866.4	5231
866.531	5277
866.662	5197
866.793	5223
866.924	5280
867.055	5307
867.186	5337
867.317	5345
867.448	5254
867.579	5372
867.71	5395
867.841	5414
867.972	5452
868.103	5417
868.233	5490
868.364	5497
868.495	5520
868.625	5657
868.756	5741
868.886	5634
869.017	5737
869.147	5863
869.278	5908
869.408	5824
869.539	5847
869.669	5885
869.799	5935
869.929	5961
870.06	6015
870.19	6159
870.32	6213
870.45	6277
870.58	6289
870.71	6376
870.84	6464
870.97	6448
871.1	6471
871.23	6684
871.36	6692
871.489	6650
871.619	6776
871.749	6867
871.879	6837
872.008	6985
872.138	6989
872.267	7015
872.397	6966
872.526	7050
872.656	7099
872.785	7194
872.915	7369
873.044	7594
873.173	7601
873.303	7605
873.432	7700
873.561	7894
873.69	7917
873.819	8035
873.948	8164
874.077	8313
874.206	8438
874.335	8480
874.464	8686
874.593	8857
874.722	8937
874.851	9089
874.979	9249
875.108	9336
875.237	9363
875.365	9408
875.494	9629
875.623	9823
875.751	9831
875.88	9991
876.008	10147
876.136	10314
876.265	10462
876.393	10748
876.521	10744
876.65	10862
876.778	10839
876.906	10892
877.034	10980
877.162	11075
877.29	11159
877.418	11318
877.546	11421
877.674	11497
877.802	11505
877.93	11417
878.058	11638
878.185	11604
878.313	11668
878.441	11805
878.568	11748
878.696	11718
878.824	11855
878.951	11939
879.079	12038
879.206	12148
879.333	12087
879.461	12060
879.588	12053
879.715	12125
879.842	12232
879.97	12148
880.097	11920
880.224	11931
880.351	11927
880.478	11897
880.605	11920
880.732	11855
880.859	12011
880.986	11847
881.112	11897
881.239	11714
881.366	11703
881.493	11642
881.619	11471
881.746	11592
881.872	11474
881.999	11429
882.125	11444
882.252	11554
882.378	11547
882.505	11562
882.631	11448
882.757	11265
882.883	11322
883.01	11204
883.136	11216
883.262	11086
883.388	11048
883.514	11124
883.64	11208
883.766	11071
883.892	10980
884.018	11090
884.143	11056
884.269	11071
884.395	10873
884.52	10729
884.646	10755
884.772	10687
884.897	10683
885.023	10717
885.148	10774
885.274	10714
885.399	10755
885.524	10615
885.65	10607
885.775	10592
885.9	10558
886.025	10558
886.15	10447
886.275	10478
886.4	10417
886.525	10402
886.65	10371
886.775	10417
886.9	10516
887.025	10603
887.149	10386
887.274	10200
887.399	10227
887.523	10215
887.648	10154
887.773	10128
887.897	10287
888.021	10249
888.146	10162
888.27	10207
888.395	10211
888.519	10200
888.643	10135
888.767	10234
888.891	10051
889.015	10021
889.139	10002
889.263	9937
889.387	10139
889.511	10105
889.635	10029
889.759	9964
889.883	9998
890.006	10025
890.13	10135
890.254	9960
890.377	9987
890.501	9903
890.624	9903
890.748	9888
890.871	9819
890.995	9755
891.118	9663
891.241	9781
891.364	9747
891.488	9816
891.611	9713
891.734	9804
891.857	9755
891.98	9747
892.103	9747
892.226	9682
892.349	9667
892.471	9538
892.594	9629
892.717	9625
892.839	9610
892.962	9591
893.085	9679
893.207	9584
893.33	9450
893.452	9511
893.575	9637
893.697	9469
893.819	9633
893.941	9614
894.064	9606
894.186	9473
894.308	9389
894.43	9488
894.552	9591
894.674	9557
894.796	9370
894.918	9401
895.04	9412
895.161	9355
895.283	9363
895.405	9264
895.526	9310
895.648	9211
895.769	9237
895.891	9260
896.012	9253
896.134	9188
896.255	9157
896.376	9154
896.498	9211
896.619	9123
896.74	9100
896.861	9135
896.982	9245
897.103	9351
897.224	9089
897.345	9020
897.466	9009
897.587	9070
897.708	9024
897.828	8986
897.949	8971
898.07	8906
898.19	8956
898.311	8990
898.431	8883
898.552	8941
898.672	8933
898.792	8998
898.913	8872
899.033	8891
899.153	8727
899.273	8682
899.393	8682
899.513	8727
899.633	8686
899.753	8777
899.873	8655
899.993	8716
900.113	8724
900.232	8758
900.352	8636
900.472	8526
900.591	8564
900.711	8617
900.83	8495
900.95	8705
901.069	8712
901.189	8651
901.308	8442
901.427	8404
901.546	8473
901.665	8480
901.784	8518
901.904	8374
902.023	8320
902.141	8267
902.26	8187
902.379	8267
902.498	8248
902.617	8244
902.735	8267
902.854	8305
902.973	8286
903.091	8081
903.21	8187
903.328	8092
903.446	8145
903.565	8126
903.683	8081
903.801	8081
903.919	8119
904.038	8123
904.156	8065
904.274	8050
904.392	8024
904.51	8020
904.627	7970
904.745	8043
904.863	8058
904.981	7925
905.098	7879
905.216	7864
905.334	7868
905.451	7898
905.569	7845
905.686	7913
905.803	7974
905.921	7792
906.038	7849
906.155	7780
906.272	7784
906.389	7731
906.506	7655
906.623	7674
906.74	7613
906.857	7594
906.974	7544
907.091	7655
907.208	7734
907.324	7670
907.441	7559
907.557	7487
907.674	7449
907.79	7373
907.907	7426
908.023	7449
908.139	7419
908.256	7400
908.372	7358
908.488	7331
908.604	7335
908.72	7236
908.836	7274
908.952	7209
909.068	7282
909.184	7324
909.3	7266
909.415	7362
909.531	7324
909.647	7095
909.762	7179
909.878	7031
909.993	7145
910.108	7080
910.224	7069
910.339	7110
910.454	7084
910.57	7012
910.685	6954
910.8	7183
910.915	7099
911.03	7069
911.145	6943
911.259	6916
911.374	6958
911.489	6840
911.604	6779
911.718	6741
911.833	6753
911.947	6654
912.062	6639
912.176	6722
912.291	6707
912.405	6692
912.519	6825
912.633	6818
912.748	6719
912.862	6692
912.976	6631
913.09	6494
913.204	6593
913.318	6608
913.431	6684
913.545	6654
913.659	6730
913.772	6673
913.886	6547
914	6566
914.113	6627
914.226	6608
914.34	6631
914.453	6521
914.566	6555
914.68	6502
914.793	6570
914.906	6445
915.019	6403
915.132	6357
915.245	6460
915.358	6407
915.47	6475
915.583	6441
915.696	6536
915.809	6483
915.921	6509
916.034	6384
916.146	6372
916.259	6388
916.371	6517
916.483	6441
916.595	6399
916.708	6433
916.82	6388
916.932	6410
917.044	6395
917.156	6407
917.268	6338
917.38	6319
917.491	6323
917.603	6414
917.715	6376
917.826	6414
917.938	6273
918.049	6213
918.161	6270
918.272	6418
918.384	6441
918.495	6395
918.606	6251
918.717	6266
918.828	6285
918.939	6292
919.05	6243
919.161	6239
919.272	6136
919.383	6155
919.494	6273
919.604	6479
919.715	6300
919.826	6228
919.936	6247
920.047	6289
920.157	6235
920.267	6464
920.378	6315
920.488	6209
920.598	6445
920.708	6585
920.818	6471
920.928	6471
921.038	6574
921.148	6570
921.258	6331
921.368	6292
921.477	6209
921.587	6209
921.697	6102
921.806	6194
921.916	6079
922.025	5961
922.134	5942
922.244	5923
922.353	5969
922.462	5817
922.571	5847
922.68	5710
922.789	5688
922.898	5737
923.007	5661
923.116	5699
923.224	5665
923.333	5710
923.442	5577
923.55	5600
923.659	5573
923.767	5619
923.876	5554
923.984	5592
924.092	5509
924.201	5566
924.309	5554
924.417	5528
924.525	5467
924.633	5501
924.741	6155
924.849	5376
924.956	5474
925.064	5395
925.172	5337
925.279	5337
925.387	5406
925.494	5303
925.602	5357
925.709	5372
925.816	5284
925.924	5341
926.031	5341
926.138	5273
926.245	5311
926.352	5216
926.459	5322
926.566	5299
926.673	5197
926.779	5159
926.886	5147
926.993	5060
927.099	5003
927.206	4968
927.312	4949
927.419	5010
927.525	4957
927.631	4984
927.737	4866
927.843	4858
927.95	4767
928.056	4873
928.162	4820
928.267	4816
928.373	5296
928.479	4843
928.585	4733
928.69	4729
928.796	4740
928.901	4679
929.007	4607
929.112	4694
929.218	4679
929.323	4626
929.428	4573
929.533	4694
929.638	4565
929.743	4538
929.848	4512
929.953	4481
930.058	4398
930.163	4360
930.267	4352
930.372	4409
930.477	4318
930.581	4436
930.685	4356
930.79	4207
930.894	4318
930.998	4284
931.103	4367
931.207	4124
931.311	4101
931.415	4059
931.519	3945
931.623	3918
