Data from glass_V78500241_1207.txt Node
Date: Wed Sep 01 19:22:52 CST 2021
User: usil
Spectrometer: V785-0024
Trigger mode: 0
Integration Time (sec): 4.000000E-1
Scans to average: 1
Nonlinearity correction enabled: false
Boxcar width: 0
Storing dark spectrum: false
XAxis mode: Wavelengths
Number of Pixels in Spectrum: 1024
>>>>>Begin Spectral Data<<<<<
801.071	3770
801.214	3781
801.356	3728
801.499	3736
801.641	3736
801.783	3797
801.926	3876
802.068	3831
802.211	3880
802.353	3873
802.496	3869
802.638	3884
802.78	3934
802.923	3994
803.065	3888
803.208	3827
803.35	3884
803.492	3880
803.635	3899
803.777	3785
803.919	3903
804.061	4154
804.204	3968
804.346	3972
804.488	3941
804.63	4036
804.773	3983
804.915	4021
805.057	4158
805.199	4032
805.341	4090
805.483	4139
805.626	4139
805.768	4166
805.91	4242
806.052	4234
806.194	4223
806.336	4344
806.478	4234
806.62	4196
806.762	4219
806.904	4242
807.046	4348
807.188	4249
807.33	4181
807.472	4268
807.614	4173
807.756	4257
807.898	4215
808.04	4257
808.182	4333
808.324	4337
808.465	4413
808.607	4459
808.749	4485
808.891	4497
809.033	4504
809.174	4424
809.316	4284
809.458	4253
809.6	4158
809.741	4169
809.883	4124
810.025	4185
810.166	4242
810.308	4192
810.45	4257
810.591	4299
810.733	4318
810.875	4523
811.016	4839
811.158	5151
811.299	5254
811.441	5299
811.582	5060
811.724	4755
811.865	4478
812.007	4451
812.148	4443
812.29	4405
812.431	4428
812.573	4436
812.714	4443
812.855	4413
812.997	4413
813.138	4538
813.279	4417
813.421	4360
813.562	4402
813.703	4352
813.845	4360
813.986	4276
814.127	4238
814.268	4246
814.41	4253
814.551	4257
814.692	4333
814.833	4295
814.974	4329
815.115	4329
815.256	4227
815.397	4242
815.539	4249
815.68	4246
815.821	4204
815.962	4344
816.103	4272
816.244	4253
816.385	4204
816.526	4265
816.666	4207
816.807	4109
816.948	4173
817.089	4173
817.23	4120
817.371	4025
817.512	4074
817.653	4112
817.793	4051
817.934	4055
818.075	4090
818.216	4074
818.356	4071
818.497	3956
818.638	3884
818.778	3941
818.919	3937
819.06	3876
819.2	3934
819.341	3873
819.481	3838
819.622	3892
819.762	4063
819.903	3964
820.043	3816
820.184	3850
820.324	3800
820.465	3876
820.605	3876
820.746	3861
820.886	3835
821.026	3964
821.167	3850
821.307	3979
821.447	3968
821.588	3956
821.728	3949
821.868	3949
822.008	3846
822.149	3941
822.289	3941
822.429	3785
822.569	3762
822.709	3812
822.849	3736
822.99	3747
823.13	3759
823.27	3804
823.41	3736
823.55	3743
823.69	3732
823.83	3736
823.97	3705
824.11	3618
824.25	3610
824.389	3637
824.529	3720
824.669	3614
824.809	3732
824.949	3774
825.089	3743
825.228	3679
825.368	3576
825.508	3580
825.648	3564
825.787	3652
825.927	3637
826.067	3660
826.206	3679
826.346	3789
826.485	3823
826.625	3907
826.765	3930
826.904	3884
827.044	3606
827.183	3526
827.323	3450
827.462	3507
827.601	3416
827.741	3405
827.88	3466
828.02	3401
828.159	3454
828.298	3553
828.437	3526
828.577	3523
828.716	3644
828.855	3511
828.994	3397
829.134	3420
829.273	3348
829.412	3332
829.551	3348
829.69	3409
829.829	3409
829.968	3504
830.107	3401
830.246	3412
830.385	3382
830.524	3344
830.663	3294
830.802	3283
830.941	3222
831.08	3195
831.219	3245
831.357	3268
831.496	3405
831.635	3195
831.774	3199
831.913	3188
832.051	3146
832.19	3131
832.329	3222
832.467	3135
832.606	3131
832.744	3176
832.883	3203
833.022	3180
833.16	3272
833.299	3329
833.437	3351
833.576	3401
833.714	3435
833.852	3435
833.991	3439
834.129	3477
834.267	3462
834.406	3443
834.544	3439
834.682	3447
834.821	3416
834.959	3564
835.097	3378
835.235	3542
835.373	3515
835.511	3507
835.65	3488
835.788	3477
835.926	3397
836.064	3416
836.202	3435
836.34	3599
836.478	3599
836.615	3515
836.753	3580
836.891	3694
837.029	3633
837.167	3591
837.305	3568
837.443	3591
837.58	3534
837.718	3618
837.856	3584
837.993	3523
838.131	3580
838.269	3599
838.406	3572
838.544	3584
838.681	3485
838.819	3424
838.956	3409
839.094	3374
839.231	3439
839.369	3511
839.506	3720
839.643	3663
839.781	3485
839.918	3496
840.055	3515
840.193	3538
840.33	3557
840.467	3557
840.604	3591
840.742	3808
840.879	3591
841.016	3557
841.153	3580
841.29	3740
841.427	3698
841.564	3728
841.701	3766
841.838	3709
841.975	3656
842.112	3713
842.249	3694
842.385	3652
842.522	3831
842.659	3686
842.796	3690
842.933	3762
843.069	3732
843.206	3698
843.343	3869
843.479	3793
843.616	3831
843.752	3637
843.889	3724
844.025	3884
844.162	3713
844.298	3884
844.435	3781
844.571	3770
844.708	3907
844.844	3960
844.98	4048
845.117	4025
845.253	3880
845.389	3956
845.525	3987
845.661	3983
845.798	3934
845.934	4051
846.07	3987
846.206	4116
846.342	4109
846.478	4067
846.614	3953
846.75	3937
846.886	3907
847.022	4048
847.158	3991
847.294	4044
847.429	4025
847.565	4010
847.701	4253
847.837	3911
847.972	3899
848.108	4013
848.244	4010
848.379	3892
848.515	3823
848.65	3812
848.786	3793
848.921	3850
849.057	3956
849.192	3941
849.328	3899
849.463	3945
849.598	3934
849.734	3846
849.869	3823
850.004	3778
850.14	3816
850.275	3816
850.41	3740
850.545	3819
850.68	3785
850.815	3816
850.95	3797
851.085	3949
851.22	3846
851.355	3819
851.49	3778
851.625	3797
851.76	3789
851.895	3770
852.03	3778
852.165	3842
852.299	3899
852.434	3937
852.569	3869
852.703	3903
852.838	3964
852.973	4006
853.107	4025
853.242	3861
853.376	3857
853.511	3766
853.645	3842
853.78	3983
853.914	3896
854.048	3915
854.183	3911
854.317	3953
854.451	4055
854.585	3983
854.72	3953
854.854	4055
854.988	3911
855.122	3991
855.256	3937
855.39	4067
855.524	4150
855.658	4112
855.792	4128
855.926	4124
856.06	4173
856.194	4211
856.327	4147
856.461	4124
856.595	4097
856.729	4196
856.862	4242
856.996	4227
857.13	4310
857.263	4383
857.397	4341
857.53	4306
857.664	4428
857.797	4409
857.931	4405
858.064	4386
858.197	4413
858.331	4383
858.464	4383
858.597	4337
858.731	4432
858.864	4474
858.997	4440
859.13	4531
859.263	4535
859.396	4599
859.529	4516
859.662	4508
859.795	4565
859.928	4607
860.061	4744
860.194	4763
860.327	4672
860.46	4664
860.592	4687
860.725	4771
860.858	4801
860.99	4679
861.123	4649
861.256	4729
861.388	4763
861.521	5398
861.653	4725
861.786	4706
861.918	4706
862.05	4820
862.183	4835
862.315	4942
862.447	4953
862.58	4908
862.712	4828
862.844	4793
862.976	4915
863.108	4873
863.24	5178
863.372	4828
863.504	4896
863.636	4847
863.768	4965
863.9	4968
864.032	4949
864.164	4949
864.296	5037
864.428	5117
864.559	5140
864.691	5056
864.823	5155
864.954	5079
865.086	5132
865.217	5155
865.349	5124
865.48	5197
865.612	5185
865.743	5280
865.875	5261
866.006	5212
866.137	5235
866.269	5280
866.4	5235
866.531	5220
866.662	5208
866.793	5280
866.924	5261
867.055	5368
867.186	5303
867.317	5337
867.448	5269
867.579	5372
867.71	5376
867.841	5417
867.972	5459
868.103	5436
868.233	5455
868.364	5554
868.495	5535
868.625	5680
868.756	5840
868.886	5680
869.017	5779
869.147	5805
869.278	5893
869.408	5790
869.539	5817
869.669	5927
869.799	5961
869.929	6003
870.06	6030
870.19	6155
870.32	6163
870.45	6251
870.58	6372
870.71	6437
870.84	6456
870.97	6414
871.1	6460
871.23	6662
871.36	6681
871.489	6669
871.619	6745
871.749	6787
871.879	6916
872.008	6966
872.138	6981
872.267	7012
872.397	6996
872.526	7023
872.656	7126
872.785	7198
872.915	7301
873.044	7571
873.173	7567
873.303	7674
873.432	7803
873.561	7936
873.69	7871
873.819	8046
873.948	8183
874.077	8237
874.206	8370
874.335	8465
874.464	8682
874.593	8872
874.722	8918
874.851	9100
874.979	9283
875.108	9355
875.237	9386
875.365	9466
875.494	9614
875.623	9873
875.751	9827
875.88	9994
876.008	10234
876.136	10318
876.265	10569
876.393	10622
876.521	10748
876.65	10885
876.778	10854
876.906	10942
877.034	11075
877.162	11128
877.29	11162
877.418	11322
877.546	11379
877.674	11482
877.802	11535
877.93	11577
878.058	11592
878.185	11520
878.313	11630
878.441	11748
878.568	11642
878.696	11745
878.824	11901
878.951	11996
879.079	11980
879.206	12197
879.333	12087
879.461	12064
879.588	12136
879.715	12064
879.842	12216
879.97	12072
880.097	11863
880.224	11775
880.351	11893
880.478	11863
880.605	11893
880.732	11802
880.859	11984
880.986	11790
881.112	11798
881.239	11718
881.366	11657
881.493	11661
881.619	11558
881.746	11589
881.872	11535
881.999	11558
882.125	11490
882.252	11623
882.378	11585
882.505	11615
882.631	11417
882.757	11315
882.883	11349
883.01	11292
883.136	11181
883.262	11220
883.388	11086
883.514	11155
883.64	11231
883.766	11113
883.892	11052
884.018	10991
884.143	11083
884.269	11147
884.395	10854
884.52	10763
884.646	10771
884.772	10748
884.897	10641
885.023	10656
885.148	10691
885.274	10721
885.399	10664
885.524	10645
885.65	10569
885.775	10637
885.9	10596
886.025	10565
886.15	10561
886.275	10493
886.4	10409
886.525	10409
886.65	10375
886.775	10284
886.9	10462
887.025	10618
887.149	10363
887.274	10238
887.399	10249
887.523	10192
887.648	10139
887.773	10124
887.897	10219
888.021	10215
888.146	10116
888.27	10215
888.395	10272
888.519	10234
888.643	10166
888.767	10234
888.891	9983
889.015	9964
889.139	10090
889.263	9960
889.387	10044
889.511	10112
889.635	10082
889.759	10029
889.883	10032
890.006	9998
890.13	10124
890.254	9983
890.377	9937
890.501	9816
890.624	9903
890.748	9953
890.871	9819
890.995	9781
891.118	9682
891.241	9766
891.364	9766
891.488	9793
891.611	9736
891.734	9755
891.857	9743
891.98	9713
892.103	9762
892.226	9804
892.349	9648
892.471	9526
892.594	9572
892.717	9663
892.839	9652
892.962	9618
893.085	9644
893.207	9595
893.33	9519
893.452	9584
893.575	9526
893.697	9496
893.819	9580
893.941	9614
894.064	9603
894.186	9420
894.308	9378
894.43	9519
894.552	9637
894.674	9481
894.796	9397
894.918	9412
895.04	9359
895.161	9389
895.283	9389
895.405	9237
895.526	9329
895.648	9332
895.769	9283
895.891	9157
896.012	9260
896.134	9237
896.255	9165
896.376	9207
896.498	9161
896.619	9188
896.74	9093
896.861	9123
896.982	9192
897.103	9359
897.224	9123
897.345	9093
897.466	8979
897.587	8994
897.708	9077
897.828	9036
897.949	8963
898.07	8804
898.19	8910
898.311	9017
898.431	8902
898.552	8979
898.672	8933
898.792	8979
898.913	8902
899.033	8796
899.153	8750
899.273	8655
899.393	8705
899.513	8743
899.633	8754
899.753	8769
899.873	8674
899.993	8678
900.113	8682
900.232	8720
900.352	8701
900.472	8590
900.591	8579
900.711	8617
900.83	8492
900.95	8731
901.069	8693
901.189	8590
901.308	8454
901.427	8374
901.546	8438
901.665	8465
901.784	8530
901.904	8377
902.023	8358
902.141	8279
902.26	8218
902.379	8324
902.498	8252
902.617	8161
902.735	8317
902.854	8267
902.973	8282
903.091	8111
903.21	8157
903.328	8149
903.446	8176
903.565	8027
903.683	8100
903.801	8088
903.919	8153
904.038	8096
904.156	8073
904.274	8058
904.392	7986
904.51	8046
904.627	8050
904.745	8062
904.863	8084
904.981	7951
905.098	7887
905.216	7864
905.334	7951
905.451	7913
905.569	7890
905.686	8008
905.803	7997
905.921	7780
906.038	7849
906.155	7860
906.272	7765
906.389	7761
906.506	7670
906.623	7636
906.74	7563
906.857	7537
906.974	7563
907.091	7647
907.208	7757
907.324	7616
907.441	7578
907.557	7518
907.674	7445
907.79	7426
907.907	7441
908.023	7453
908.139	7556
908.256	7365
908.372	7384
908.488	7362
908.604	7240
908.72	7217
908.836	7270
908.952	7247
909.068	7244
909.184	7331
909.3	7312
909.415	7282
909.531	7343
909.647	7091
909.762	7088
909.878	7061
909.993	7114
910.108	7084
910.224	7088
910.339	7091
910.454	7050
910.57	7050
910.685	6993
910.8	7232
910.915	7110
911.03	7046
911.145	6871
911.259	6947
911.374	6882
911.489	6875
911.604	6909
911.718	6719
911.833	6741
911.947	6635
912.062	6585
912.176	6760
912.291	6711
912.405	6703
912.519	6814
912.633	6776
912.748	6734
912.862	6681
912.976	6608
913.09	6517
913.204	6578
913.318	6604
913.431	6692
913.545	6673
913.659	6715
913.772	6642
913.886	6559
914	6574
914.113	6608
914.226	6684
914.34	6585
914.453	6494
914.566	6578
914.68	6536
914.793	6566
914.906	6399
915.019	6399
915.132	6323
915.245	6353
915.358	6456
915.47	6475
915.583	6422
915.696	6479
915.809	6479
915.921	6540
916.034	6483
916.146	6414
916.259	6388
916.371	6479
916.483	6502
916.595	6410
916.708	6395
916.82	6399
916.932	6391
917.044	6445
917.156	6426
917.268	6289
917.38	6327
917.491	6296
917.603	6361
917.715	6357
917.826	6407
917.938	6342
918.049	6213
918.161	6315
918.272	6418
918.384	6483
918.495	6323
918.606	6239
918.717	6194
918.828	6304
918.939	6327
919.05	6213
919.161	6273
919.272	6175
919.383	6178
919.494	6289
919.604	6410
919.715	6292
919.826	6205
919.936	6247
920.047	6308
920.157	6258
920.267	6460
920.378	6273
920.488	6254
920.598	6456
920.708	6563
920.818	6540
920.928	6460
921.038	6608
921.148	6544
921.258	6357
921.368	6247
921.477	6182
921.587	6190
921.697	6057
921.806	6148
921.916	6079
922.025	5939
922.134	5901
922.244	5863
922.353	5920
922.462	5828
922.571	5817
922.68	5691
922.789	5642
922.898	5703
923.007	5630
923.116	5726
923.224	5691
923.333	5627
923.442	5592
923.55	5604
923.659	5547
923.767	5668
923.876	5627
923.984	5623
924.092	5539
924.201	5615
924.309	5581
924.417	5592
924.525	5512
924.633	5467
924.741	6300
924.849	5433
924.956	5532
925.064	5360
925.172	5318
925.279	5337
925.387	5360
925.494	5402
925.602	5391
925.709	5337
925.816	5299
925.924	5322
926.031	5395
926.138	5303
926.245	5326
926.352	5220
926.459	5322
926.566	5284
926.673	5208
926.779	5136
926.886	5105
926.993	5071
927.099	5006
927.206	4957
927.312	4980
927.419	5022
927.525	4965
927.631	5022
927.737	4850
927.843	4892
927.95	4801
928.056	4831
928.162	4824
928.267	4843
928.373	5349
928.479	4843
928.585	4706
928.69	4771
928.796	4824
928.901	4717
929.007	4637
929.112	4717
929.218	4645
929.323	4615
929.428	4641
929.533	4634
929.638	4508
929.743	4542
929.848	4558
929.953	4497
930.058	4489
930.163	4379
930.267	4363
930.372	4398
930.477	4314
930.581	4447
930.685	4341
930.79	4265
930.894	4325
930.998	4257
931.103	4363
931.207	4169
931.311	4063
931.415	4040
931.519	3968
931.623	3964
