Data from glass_V78500241_653.txt Node
Date: Wed Sep 01 19:19:01 CST 2021
User: usil
Spectrometer: V785-0024
Trigger mode: 0
Integration Time (sec): 4.000000E-1
Scans to average: 1
Nonlinearity correction enabled: false
Boxcar width: 0
Storing dark spectrum: false
XAxis mode: Wavelengths
Number of Pixels in Spectrum: 1024
>>>>>Begin Spectral Data<<<<<
801.071	3770
801.214	3778
801.356	3728
801.499	3751
801.641	3762
801.783	3781
801.926	3888
802.068	3823
802.211	3869
802.353	3911
802.496	3850
802.638	3861
802.78	3899
802.923	3896
803.065	3915
803.208	3861
803.35	3903
803.492	3956
803.635	3911
803.777	3812
803.919	3937
804.061	4177
804.204	3968
804.346	3941
804.488	3960
804.63	4048
804.773	4006
804.915	4071
805.057	4192
805.199	4044
805.341	4112
805.483	4128
805.626	4093
805.768	4143
805.91	4234
806.052	4207
806.194	4177
806.336	4352
806.478	4246
806.62	4207
806.762	4200
806.904	4257
807.046	4322
807.188	4227
807.33	4192
807.472	4257
807.614	4215
807.756	4249
807.898	4215
808.04	4219
808.182	4295
808.324	4371
808.465	4421
808.607	4485
808.749	4493
808.891	4481
809.033	4523
809.174	4421
809.316	4337
809.458	4242
809.6	4166
809.741	4128
809.883	4158
810.025	4284
810.166	4261
810.308	4238
810.45	4242
810.591	4261
810.733	4299
810.875	4519
811.016	4820
811.158	5136
811.299	5303
811.441	5322
811.582	5064
811.724	4687
811.865	4493
812.007	4523
812.148	4470
812.29	4428
812.431	4459
812.573	4344
812.714	4451
812.855	4352
812.997	4440
813.138	4459
813.279	4409
813.421	4402
813.562	4443
813.703	4291
813.845	4352
813.986	4333
814.127	4253
814.268	4234
814.41	4287
814.551	4310
814.692	4333
814.833	4261
814.974	4276
815.115	4337
815.256	4284
815.397	4246
815.539	4276
815.68	4257
815.821	4234
815.962	4348
816.103	4325
816.244	4234
816.385	4230
816.526	4299
816.666	4185
816.807	4090
816.948	4169
817.089	4196
817.23	4116
817.371	4048
817.512	4040
817.653	4109
817.793	4078
817.934	4090
818.075	4074
818.216	4082
818.356	4074
818.497	3983
818.638	3934
818.778	3922
818.919	3892
819.06	3896
819.2	3945
819.341	3880
819.481	3842
819.622	3930
819.762	4025
819.903	3941
820.043	3869
820.184	3884
820.324	3812
820.465	3896
820.605	3869
820.746	3888
820.886	3827
821.026	3918
821.167	3941
821.307	3972
821.447	4006
821.588	3953
821.728	3991
821.868	3964
822.008	3899
822.149	3926
822.289	3892
822.429	3789
822.569	3789
822.709	3816
822.849	3671
822.99	3690
823.13	3797
823.27	3804
823.41	3743
823.55	3751
823.69	3720
823.83	3770
823.97	3694
824.11	3629
824.25	3663
824.389	3648
824.529	3679
824.669	3641
824.809	3743
824.949	3804
825.089	3759
825.228	3667
825.368	3625
825.508	3614
825.648	3610
825.787	3618
825.927	3637
826.067	3682
826.206	3660
826.346	3812
826.485	3842
826.625	3888
826.765	3937
826.904	3842
827.044	3595
827.183	3530
827.323	3447
827.462	3523
827.601	3458
827.741	3469
827.88	3485
828.02	3386
828.159	3447
828.298	3469
828.437	3580
828.577	3492
828.716	3667
828.855	3511
828.994	3382
829.134	3401
829.273	3389
829.412	3378
829.551	3386
829.69	3389
829.829	3447
829.968	3534
830.107	3416
830.246	3477
830.385	3416
830.524	3382
830.663	3317
830.802	3226
830.941	3211
831.08	3226
831.219	3264
831.357	3275
831.496	3424
831.635	3245
831.774	3233
831.913	3211
832.051	3131
832.19	3169
832.329	3214
832.467	3131
832.606	3127
832.744	3184
832.883	3154
833.022	3226
833.16	3256
833.299	3325
833.437	3363
833.576	3370
833.714	3409
833.852	3466
833.991	3443
834.129	3485
834.267	3447
834.406	3397
834.544	3443
834.682	3431
834.821	3424
834.959	3519
835.097	3424
835.235	3500
835.373	3485
835.511	3477
835.65	3439
835.788	3488
835.926	3412
836.064	3397
836.202	3420
836.34	3572
836.478	3587
836.615	3545
836.753	3622
836.891	3667
837.029	3618
837.167	3557
837.305	3622
837.443	3568
837.58	3504
837.718	3584
837.856	3595
837.993	3542
838.131	3648
838.269	3580
838.406	3606
838.544	3622
838.681	3473
838.819	3504
838.956	3386
839.094	3397
839.231	3412
839.369	3538
839.506	3720
839.643	3663
839.781	3549
839.918	3485
840.055	3542
840.193	3534
840.33	3542
840.467	3542
840.604	3595
840.742	3823
840.879	3557
841.016	3610
841.153	3618
841.29	3732
841.427	3751
841.564	3743
841.701	3705
841.838	3686
841.975	3671
842.112	3732
842.249	3629
842.385	3648
842.522	3842
842.659	3705
842.796	3705
842.933	3694
843.069	3736
843.206	3690
843.343	3827
843.479	3812
843.616	3831
843.752	3694
843.889	3747
844.025	3876
844.162	3690
844.298	3835
844.435	3804
844.571	3789
844.708	3899
844.844	3991
844.98	4025
845.117	3983
845.253	3964
845.389	3949
845.525	4059
845.661	3983
845.798	3972
845.934	4010
846.07	3979
846.206	4063
846.342	4090
846.478	4090
846.614	4017
846.75	3937
846.886	3880
847.022	4055
847.158	3953
847.294	4032
847.429	4044
847.565	3991
847.701	4284
847.837	3888
847.972	3918
848.108	4010
848.244	4013
848.379	3861
848.515	3827
848.65	3838
848.786	3854
848.921	3873
849.057	3941
849.192	3964
849.328	3937
849.463	3949
849.598	3956
849.734	3869
849.869	3800
850.004	3789
850.14	3812
850.275	3793
850.41	3751
850.545	3766
850.68	3793
850.815	3838
850.95	3854
851.085	3937
851.22	3865
851.355	3831
851.49	3789
851.625	3812
851.76	3827
851.895	3720
852.03	3717
852.165	3827
852.299	3827
852.434	3884
852.569	3808
852.703	3869
852.838	3930
852.973	3998
853.107	3975
853.242	3907
853.376	3865
853.511	3732
853.645	3850
853.78	3998
853.914	3949
854.048	3903
854.183	3911
854.317	3975
854.451	4101
854.585	3960
854.72	3953
854.854	4048
854.988	3953
855.122	4021
855.256	3930
855.39	4029
855.524	4139
855.658	4097
855.792	4086
855.926	4162
856.06	4154
856.194	4207
856.327	4143
856.461	4124
856.595	4154
856.729	4177
856.862	4299
856.996	4253
857.13	4299
857.263	4367
857.397	4398
857.53	4310
857.664	4344
857.797	4402
857.931	4451
858.064	4367
858.197	4470
858.331	4428
858.464	4440
858.597	4386
858.731	4421
858.864	4451
858.997	4497
859.13	4527
859.263	4558
859.396	4565
859.529	4558
859.662	4577
859.795	4550
859.928	4607
860.061	4729
860.194	4744
860.327	4675
860.46	4596
860.592	4752
860.725	4835
860.858	4824
860.99	4714
861.123	4668
861.256	4729
861.388	4786
861.521	5239
861.653	4683
861.786	4725
861.918	4755
862.05	4847
862.183	4873
862.315	4900
862.447	4930
862.58	4923
862.712	4797
862.844	4782
862.976	4900
863.108	4915
863.24	5269
863.372	4847
863.504	4942
863.636	4896
863.768	4953
863.9	4991
864.032	4911
864.164	4908
864.296	5037
864.428	5117
864.559	5128
864.691	5128
864.823	5102
864.954	5124
865.086	5166
865.217	5151
865.349	5155
865.48	5151
865.612	5204
865.743	5349
865.875	5265
866.006	5181
866.137	5242
866.269	5208
866.4	5250
866.531	5239
866.662	5292
866.793	5258
866.924	5277
867.055	5357
867.186	5326
867.317	5296
867.448	5296
867.579	5372
867.71	5387
867.841	5417
867.972	5486
868.103	5455
868.233	5490
868.364	5490
868.495	5532
868.625	5619
868.756	5771
868.886	5722
869.017	5691
869.147	5889
869.278	5866
869.408	5832
869.539	5904
869.669	5946
869.799	5878
869.929	5988
870.06	6034
870.19	6186
870.32	6213
870.45	6277
870.58	6331
870.71	6418
870.84	6486
870.97	6433
871.1	6452
871.23	6658
871.36	6726
871.489	6593
871.619	6745
871.749	6806
871.879	6905
872.008	6962
872.138	6954
872.267	7034
872.397	7012
872.526	7034
872.656	7095
872.785	7221
872.915	7384
873.044	7487
873.173	7563
873.303	7685
873.432	7807
873.561	7826
873.69	7833
873.819	7989
873.948	8176
874.077	8244
874.206	8442
874.335	8476
874.464	8674
874.593	8811
874.722	8933
874.851	9150
874.979	9230
875.108	9443
875.237	9443
875.365	9469
875.494	9625
875.623	9854
875.751	9873
875.88	10051
876.008	10207
876.136	10291
876.265	10527
876.393	10809
876.521	10710
876.65	10869
876.778	10927
876.906	10889
877.034	11010
877.162	11105
877.29	11242
877.418	11383
877.546	11334
877.674	11467
877.802	11421
877.93	11421
878.058	11642
878.185	11581
878.313	11634
878.441	11752
878.568	11691
878.696	11767
878.824	11863
878.951	11958
879.079	11996
879.206	12167
879.333	12072
879.461	11954
879.588	12083
879.715	12110
879.842	12194
879.97	11984
880.097	11870
880.224	11885
880.351	11889
880.478	11916
880.605	11908
880.732	11889
880.859	12060
880.986	11893
881.112	11878
881.239	11729
881.366	11707
881.493	11684
881.619	11482
881.746	11573
881.872	11490
881.999	11509
882.125	11414
882.252	11543
882.378	11493
882.505	11611
882.631	11383
882.757	11353
882.883	11345
883.01	11345
883.136	11170
883.262	11140
883.388	11067
883.514	11185
883.64	11181
883.766	11041
883.892	10927
884.018	11025
884.143	11079
884.269	11102
884.395	10866
884.52	10820
884.646	10812
884.772	10733
884.897	10679
885.023	10683
885.148	10809
885.274	10835
885.399	10618
885.524	10599
885.65	10504
885.775	10558
885.9	10523
886.025	10622
886.15	10588
886.275	10493
886.4	10382
886.525	10436
886.65	10394
886.775	10379
886.9	10440
887.025	10535
887.149	10360
887.274	10196
887.399	10196
887.523	10318
887.648	10086
887.773	10071
887.897	10234
888.021	10188
888.146	10166
888.27	10200
888.395	10253
888.519	10173
888.643	10246
888.767	10185
888.891	10105
889.015	10044
889.139	10082
889.263	10010
889.387	10093
889.511	10071
889.635	10078
889.759	9949
889.883	10002
890.006	10017
890.13	10101
890.254	9964
890.377	9956
890.501	9850
890.624	9953
890.748	9934
890.871	9793
890.995	9728
891.118	9728
891.241	9808
891.364	9705
891.488	9835
891.611	9774
891.734	9781
891.857	9762
891.98	9762
892.103	9728
892.226	9694
892.349	9713
892.471	9549
892.594	9599
892.717	9622
892.839	9572
892.962	9671
893.085	9667
893.207	9622
893.33	9564
893.452	9572
893.575	9614
893.697	9492
893.819	9599
893.941	9644
894.064	9622
894.186	9515
894.308	9458
894.43	9504
894.552	9644
894.674	9496
894.796	9420
894.918	9420
895.04	9405
895.161	9340
895.283	9412
895.405	9302
895.526	9260
895.648	9237
895.769	9237
895.891	9192
896.012	9253
896.134	9188
896.255	9253
896.376	9165
896.498	9142
896.619	9089
896.74	9100
896.861	9089
896.982	9291
897.103	9291
897.224	9226
897.345	9074
897.466	8956
897.587	8982
897.708	9093
897.828	9062
897.949	8933
898.07	8845
898.19	8952
898.311	8994
898.431	8971
898.552	8975
898.672	8956
898.792	9028
898.913	8883
899.033	8792
899.153	8777
899.273	8750
899.393	8712
899.513	8689
899.633	8766
899.753	8727
899.873	8693
899.993	8724
900.113	8724
900.232	8720
900.352	8636
900.472	8617
900.591	8552
900.711	8651
900.83	8518
900.95	8655
901.069	8693
901.189	8594
901.308	8434
901.427	8427
901.546	8473
901.665	8457
901.784	8537
901.904	8347
902.023	8370
902.141	8313
902.26	8183
902.379	8244
902.498	8282
902.617	8259
902.735	8294
902.854	8377
902.973	8271
903.091	8111
903.21	8126
903.328	8138
903.446	8123
903.565	8138
903.683	8168
903.801	8092
903.919	8218
904.038	8107
904.156	8008
904.274	8115
904.392	8027
904.51	8035
904.627	8062
904.745	8039
904.863	8126
904.981	8024
905.098	7951
905.216	7909
905.334	7955
905.451	7902
905.569	7871
905.686	7963
905.803	7944
905.921	7765
906.038	7852
906.155	7807
906.272	7681
906.389	7742
906.506	7639
906.623	7666
906.74	7651
906.857	7514
906.974	7651
907.091	7696
907.208	7734
907.324	7655
907.441	7525
907.557	7434
907.674	7552
907.79	7392
907.907	7396
908.023	7506
908.139	7422
908.256	7396
908.372	7327
908.488	7392
908.604	7282
908.72	7190
908.836	7308
908.952	7259
909.068	7289
909.184	7381
909.3	7297
909.415	7343
909.531	7282
909.647	7069
909.762	7126
909.878	7129
909.993	7179
910.108	7129
910.224	7061
910.339	7126
910.454	7027
910.57	7027
910.685	6962
910.8	7225
910.915	7179
911.03	7015
911.145	6939
911.259	6905
911.374	6943
911.489	6848
911.604	6833
911.718	6741
911.833	6715
911.947	6612
912.062	6608
912.176	6688
912.291	6730
912.405	6681
912.519	6810
912.633	6871
912.748	6787
912.862	6730
912.976	6642
913.09	6551
913.204	6612
913.318	6650
913.431	6627
913.545	6741
913.659	6734
913.772	6601
913.886	6612
914	6597
914.113	6627
914.226	6570
914.34	6601
914.453	6498
914.566	6631
914.68	6559
914.793	6563
914.906	6464
915.019	6422
915.132	6433
915.245	6410
915.358	6452
915.47	6441
915.583	6426
915.696	6467
915.809	6566
915.921	6566
916.034	6365
916.146	6437
916.259	6403
916.371	6490
916.483	6479
916.595	6498
916.708	6445
916.82	6426
916.932	6376
917.044	6456
917.156	6426
917.268	6277
917.38	6376
917.491	6338
917.603	6350
917.715	6433
917.826	6456
917.938	6327
918.049	6289
918.161	6331
918.272	6433
918.384	6429
918.495	6334
918.606	6319
918.717	6220
918.828	6262
918.939	6251
919.05	6243
919.161	6258
919.272	6125
919.383	6186
919.494	6350
919.604	6422
919.715	6311
919.826	6224
919.936	6247
920.047	6380
920.157	6323
920.267	6502
920.378	6296
920.488	6254
920.598	6483
920.708	6608
920.818	6551
920.928	6498
921.038	6608
921.148	6563
921.258	6353
921.368	6365
921.477	6209
921.587	6175
921.697	6098
921.806	6197
921.916	6155
922.025	6038
922.134	5882
922.244	5897
922.353	5999
922.462	5832
922.571	5783
922.68	5680
922.789	5688
922.898	5665
923.007	5680
923.116	5688
923.224	5691
923.333	5676
923.442	5657
923.55	5619
923.659	5630
923.767	5646
923.876	5562
923.984	5661
924.092	5543
924.201	5596
924.309	5554
924.417	5566
924.525	5505
924.633	5543
924.741	6152
924.849	5425
924.956	5463
925.064	5334
925.172	5326
925.279	5330
925.387	5330
925.494	5296
925.602	5505
925.709	5433
925.816	5288
925.924	5334
926.031	5383
926.138	5311
926.245	5345
926.352	5216
926.459	5379
926.566	5326
926.673	5204
926.779	5117
926.886	5143
926.993	5029
927.099	5041
927.206	4972
927.312	4980
927.419	5025
927.525	4934
927.631	4984
927.737	4896
927.843	4877
927.95	4809
928.056	4866
928.162	4847
928.267	4885
928.373	5326
928.479	4862
928.585	4672
928.69	4805
928.796	4782
928.901	4744
929.007	4588
929.112	4687
929.218	4649
929.323	4592
929.428	4569
929.533	4702
929.638	4462
929.743	4546
929.848	4569
929.953	4550
930.058	4466
930.163	4325
930.267	4379
930.372	4470
930.477	4287
930.581	4474
930.685	4386
930.79	4234
930.894	4303
930.998	4246
931.103	4405
931.207	4166
931.311	4090
931.415	4006
931.519	3888
931.623	3937
