Data from glass_V78500241_248.txt Node
Date: Wed Sep 01 19:16:13 CST 2021
User: usil
Spectrometer: V785-0024
Trigger mode: 0
Integration Time (sec): 4.000000E-1
Scans to average: 1
Nonlinearity correction enabled: false
Boxcar width: 0
Storing dark spectrum: false
XAxis mode: Wavelengths
Number of Pixels in Spectrum: 1024
>>>>>Begin Spectral Data<<<<<
801.071	3762
801.214	3778
801.356	3728
801.499	3762
801.641	3755
801.783	3793
801.926	3846
802.068	3869
802.211	3930
802.353	3911
802.496	3884
802.638	3896
802.78	3979
802.923	3899
803.065	3911
803.208	3880
803.35	3903
803.492	3876
803.635	3918
803.777	3819
803.919	3884
804.061	4196
804.204	3998
804.346	3949
804.488	3953
804.63	4040
804.773	4021
804.915	4029
805.057	4150
805.199	4067
805.341	4105
805.483	4204
805.626	4101
805.768	4154
805.91	4185
806.052	4268
806.194	4238
806.336	4409
806.478	4234
806.62	4150
806.762	4200
806.904	4249
807.046	4291
807.188	4238
807.33	4192
807.472	4242
807.614	4200
807.756	4249
807.898	4223
808.04	4261
808.182	4295
808.324	4375
808.465	4428
808.607	4436
808.749	4478
808.891	4497
809.033	4538
809.174	4409
809.316	4238
809.458	4238
809.6	4124
809.741	4219
809.883	4131
810.025	4192
810.166	4192
810.308	4246
810.45	4242
810.591	4215
810.733	4299
810.875	4538
811.016	4812
811.158	5174
811.299	5307
811.441	5284
811.582	5079
811.724	4759
811.865	4466
812.007	4504
812.148	4474
812.29	4394
812.431	4421
812.573	4398
812.714	4390
812.855	4421
812.997	4413
813.138	4489
813.279	4402
813.421	4398
813.562	4356
813.703	4363
813.845	4363
813.986	4325
814.127	4265
814.268	4268
814.41	4348
814.551	4253
814.692	4333
814.833	4287
814.974	4318
815.115	4352
815.256	4234
815.397	4261
815.539	4268
815.68	4211
815.821	4234
815.962	4356
816.103	4291
816.244	4272
816.385	4261
816.526	4276
816.666	4238
816.807	4112
816.948	4192
817.089	4181
817.23	4162
817.371	4074
817.512	4051
817.653	4044
817.793	4017
817.934	4071
818.075	4101
818.216	4116
818.356	4124
818.497	3998
818.638	3937
818.778	3983
818.919	3926
819.06	3831
819.2	3945
819.341	3934
819.481	3873
819.622	3945
819.762	3983
819.903	3941
820.043	3918
820.184	3861
820.324	3835
820.465	3911
820.605	3861
820.746	3888
820.886	3804
821.026	3949
821.167	3949
821.307	3987
821.447	4002
821.588	3991
821.728	3956
821.868	3930
822.008	3850
822.149	3945
822.289	3937
822.429	3785
822.569	3831
822.709	3819
822.849	3720
822.99	3709
823.13	3766
823.27	3785
823.41	3694
823.55	3755
823.69	3732
823.83	3743
823.97	3705
824.11	3641
824.25	3644
824.389	3682
824.529	3675
824.669	3652
824.809	3713
824.949	3747
825.089	3720
825.228	3698
825.368	3610
825.508	3576
825.648	3599
825.787	3576
825.927	3644
826.067	3648
826.206	3663
826.346	3804
826.485	3865
826.625	3930
826.765	3960
826.904	3865
827.044	3625
827.183	3481
827.323	3462
827.462	3504
827.601	3454
827.741	3420
827.88	3526
828.02	3401
828.159	3454
828.298	3485
828.437	3549
828.577	3492
828.716	3610
828.855	3488
828.994	3340
829.134	3374
829.273	3389
829.412	3367
829.551	3336
829.69	3389
829.829	3447
829.968	3534
830.107	3443
830.246	3443
830.385	3428
830.524	3370
830.663	3321
830.802	3279
830.941	3199
831.08	3218
831.219	3268
831.357	3291
831.496	3393
831.635	3214
831.774	3211
831.913	3180
832.051	3119
832.19	3150
832.329	3237
832.467	3173
832.606	3138
832.744	3184
832.883	3184
833.022	3203
833.16	3264
833.299	3325
833.437	3348
833.576	3355
833.714	3431
833.852	3443
833.991	3416
834.129	3481
834.267	3424
834.406	3443
834.544	3466
834.682	3450
834.821	3416
834.959	3572
835.097	3439
835.235	3500
835.373	3485
835.511	3500
835.65	3519
835.788	3492
835.926	3393
836.064	3363
836.202	3443
836.34	3595
836.478	3606
836.615	3553
836.753	3622
836.891	3637
837.029	3663
837.167	3595
837.305	3526
837.443	3557
837.58	3538
837.718	3656
837.856	3561
837.993	3534
838.131	3644
838.269	3587
838.406	3595
838.544	3614
838.681	3507
838.819	3450
838.956	3393
839.094	3420
839.231	3431
839.369	3526
839.506	3720
839.643	3656
839.781	3526
839.918	3481
840.055	3545
840.193	3519
840.33	3523
840.467	3606
840.604	3633
840.742	3774
840.879	3564
841.016	3595
841.153	3599
841.29	3690
841.427	3720
841.564	3770
841.701	3781
841.838	3690
841.975	3660
842.112	3747
842.249	3663
842.385	3637
842.522	3869
842.659	3728
842.796	3671
842.933	3720
843.069	3743
843.206	3701
843.343	3827
843.479	3778
843.616	3831
843.752	3698
843.889	3724
844.025	3926
844.162	3728
844.298	3838
844.435	3816
844.571	3793
844.708	3922
844.844	4021
844.98	4055
845.117	3983
845.253	3945
845.389	3934
845.525	4006
845.661	3972
845.798	3915
845.934	4006
846.07	3968
846.206	4097
846.342	4105
846.478	4048
846.614	3991
846.75	3930
846.886	3941
847.022	4029
847.158	3979
847.294	4021
847.429	4021
847.565	4013
847.701	4257
847.837	3903
847.972	3857
848.108	4002
848.244	4017
848.379	3846
848.515	3835
848.65	3827
848.786	3880
848.921	3846
849.057	3903
849.192	3941
849.328	3926
849.463	3949
849.598	3899
849.734	3861
849.869	3831
850.004	3762
850.14	3823
850.275	3774
850.41	3717
850.545	3740
850.68	3789
850.815	3797
850.95	3812
851.085	3956
851.22	3857
851.355	3865
851.49	3774
851.625	3823
851.76	3808
851.895	3759
852.03	3728
852.165	3846
852.299	3861
852.434	3930
852.569	3850
852.703	3854
852.838	3918
852.973	4044
853.107	3975
853.242	3918
853.376	3854
853.511	3835
853.645	3846
853.78	3972
853.914	3934
854.048	3884
854.183	3899
854.317	3937
854.451	4086
854.585	3949
854.72	3945
854.854	4059
854.988	3960
855.122	3994
855.256	3934
855.39	3994
855.524	4109
855.658	4128
855.792	4097
855.926	4169
856.06	4181
856.194	4234
856.327	4173
856.461	4143
856.595	4185
856.729	4162
856.862	4310
856.996	4257
857.13	4310
857.263	4314
857.397	4409
857.53	4299
857.664	4322
857.797	4367
857.931	4455
858.064	4390
858.197	4459
858.331	4402
858.464	4409
858.597	4322
858.731	4436
858.864	4481
858.997	4474
859.13	4577
859.263	4508
859.396	4561
859.529	4550
859.662	4599
859.795	4538
859.928	4603
860.061	4683
860.194	4790
860.327	4649
860.46	4660
860.592	4710
860.725	4839
860.858	4816
860.99	4694
861.123	4683
861.256	4687
861.388	4793
861.521	5395
861.653	4793
861.786	4694
861.918	4733
862.05	4843
862.183	4854
862.315	4946
862.447	4976
862.58	4908
862.712	4862
862.844	4752
862.976	4892
863.108	4904
863.24	5242
863.372	4831
863.504	4873
863.636	4923
863.768	4961
863.9	5022
864.032	4942
864.164	4911
864.296	5064
864.428	5109
864.559	5109
864.691	5098
864.823	5113
864.954	5147
865.086	5151
865.217	5117
865.349	5132
865.48	5181
865.612	5185
865.743	5341
865.875	5147
866.006	5212
866.137	5250
866.269	5318
866.4	5265
866.531	5277
866.662	5223
866.793	5254
866.924	5337
867.055	5368
867.186	5360
867.317	5326
867.448	5368
867.579	5421
867.71	5406
867.841	5391
867.972	5490
868.103	5436
868.233	5452
868.364	5505
868.495	5520
868.625	5627
868.756	5798
868.886	5695
869.017	5714
869.147	5866
869.278	5904
869.408	5828
869.539	5847
869.669	5961
869.799	5916
869.929	5984
870.06	6022
870.19	6220
870.32	6247
870.45	6285
870.58	6365
870.71	6460
870.84	6471
870.97	6452
871.1	6464
871.23	6597
871.36	6696
871.489	6669
871.619	6753
871.749	6833
871.879	6897
872.008	7000
872.138	7000
872.267	7031
872.397	6962
872.526	7000
872.656	7175
872.785	7263
872.915	7339
873.044	7548
873.173	7540
873.303	7601
873.432	7731
873.561	7890
873.69	7860
873.819	8020
873.948	8123
874.077	8221
874.206	8408
874.335	8434
874.464	8701
874.593	8857
874.722	8937
874.851	9165
874.979	9298
875.108	9306
875.237	9397
875.365	9500
875.494	9663
875.623	9823
875.751	9816
875.88	9949
876.008	10071
876.136	10337
876.265	10554
876.393	10710
876.521	10839
876.65	10847
876.778	10858
876.906	10934
877.034	10987
877.162	11090
877.29	11174
877.418	11296
877.546	11376
877.674	11463
877.802	11493
877.93	11501
878.058	11672
878.185	11551
878.313	11733
878.441	11779
878.568	11691
878.696	11821
878.824	11813
878.951	11958
879.079	12072
879.206	12106
879.333	12076
879.461	12034
879.588	12041
879.715	12148
879.842	12296
879.97	12068
880.097	11908
880.224	11863
880.351	11885
880.478	11923
880.605	11859
880.732	11783
880.859	11984
880.986	11828
881.112	11885
881.239	11718
881.366	11646
881.493	11562
881.619	11547
881.746	11535
881.872	11535
881.999	11585
882.125	11436
882.252	11524
882.378	11547
882.505	11615
882.631	11429
882.757	11311
882.883	11322
883.01	11208
883.136	11220
883.262	11136
883.388	11045
883.514	11094
883.64	11090
883.766	11109
883.892	10953
884.018	11056
884.143	10999
884.269	10995
884.395	10881
884.52	10744
884.646	10744
884.772	10710
884.897	10649
885.023	10714
885.148	10774
885.274	10752
885.399	10691
885.524	10561
885.65	10599
885.775	10569
885.9	10561
886.025	10634
886.15	10573
886.275	10432
886.4	10436
886.525	10386
886.65	10379
886.775	10310
886.9	10516
887.025	10573
887.149	10440
887.274	10276
887.399	10192
887.523	10188
887.648	10097
887.773	10120
887.897	10268
888.021	10242
888.146	10181
888.27	10234
888.395	10257
888.519	10158
888.643	10185
888.767	10185
888.891	10086
889.015	10021
889.139	10082
889.263	9949
889.387	10063
889.511	10131
889.635	10071
889.759	9994
889.883	9987
890.006	9991
890.13	10078
890.254	9884
890.377	9949
890.501	9926
890.624	9865
890.748	9949
890.871	9759
890.995	9770
891.118	9705
891.241	9816
891.364	9736
891.488	9869
891.611	9774
891.734	9736
891.857	9747
891.98	9740
892.103	9797
892.226	9762
892.349	9599
892.471	9542
892.594	9629
892.717	9610
892.839	9576
892.962	9622
893.085	9709
893.207	9641
893.33	9553
893.452	9545
893.575	9614
893.697	9557
893.819	9587
893.941	9671
894.064	9576
894.186	9454
894.308	9458
894.43	9439
894.552	9648
894.674	9568
894.796	9405
894.918	9397
895.04	9374
895.161	9435
895.283	9386
895.405	9207
895.526	9310
895.648	9275
895.769	9279
895.891	9329
896.012	9218
896.134	9245
896.255	9173
896.376	9161
896.498	9154
896.619	9173
896.74	9131
896.861	9138
896.982	9321
897.103	9275
897.224	9214
897.345	9055
897.466	8967
897.587	9039
897.708	9154
897.828	9009
897.949	8910
898.07	8868
898.19	8929
898.311	9005
898.431	8933
898.552	8944
898.672	9020
898.792	8941
898.913	8887
899.033	8838
899.153	8705
899.273	8670
899.393	8674
899.513	8788
899.633	8739
899.753	8720
899.873	8678
899.993	8708
900.113	8663
900.232	8800
900.352	8659
900.472	8590
900.591	8587
900.711	8610
900.83	8579
900.95	8750
901.069	8651
901.189	8606
901.308	8476
901.427	8404
901.546	8415
901.665	8457
901.784	8492
901.904	8427
902.023	8389
902.141	8290
902.26	8206
902.379	8294
902.498	8210
902.617	8145
902.735	8279
902.854	8244
902.973	8271
903.091	8126
903.21	8088
903.328	8153
903.446	8145
903.565	8088
903.683	8123
903.801	8092
903.919	8138
904.038	8168
904.156	8039
904.274	8069
904.392	8039
904.51	8043
904.627	8107
904.745	8107
904.863	8100
904.981	7913
905.098	7868
905.216	7902
905.334	7879
905.451	7959
905.569	7837
905.686	7959
905.803	7959
905.921	7788
906.038	7913
906.155	7811
906.272	7734
906.389	7715
906.506	7624
906.623	7658
906.74	7594
906.857	7609
906.974	7567
907.091	7613
907.208	7746
907.324	7662
907.441	7537
907.557	7491
907.674	7449
907.79	7396
907.907	7377
908.023	7449
908.139	7445
908.256	7403
908.372	7388
908.488	7350
908.604	7297
908.72	7236
908.836	7270
908.952	7263
909.068	7251
909.184	7377
909.3	7266
909.415	7301
909.531	7259
909.647	7175
909.762	7107
909.878	7012
909.993	7076
910.108	7118
910.224	7107
910.339	7137
910.454	7042
910.57	6970
910.685	6920
910.8	7175
910.915	7194
911.03	7046
911.145	6920
911.259	6856
911.374	6882
911.489	6894
911.604	6787
911.718	6684
911.833	6810
911.947	6658
912.062	6681
912.176	6734
912.291	6719
912.405	6730
912.519	6871
912.633	6859
912.748	6776
912.862	6688
912.976	6631
913.09	6513
913.204	6631
913.318	6608
913.431	6719
913.545	6734
913.659	6741
913.772	6677
913.886	6555
914	6563
914.113	6578
914.226	6593
914.34	6688
914.453	6536
914.566	6612
914.68	6563
914.793	6506
914.906	6395
915.019	6475
915.132	6414
915.245	6429
915.358	6456
915.47	6448
915.583	6422
915.696	6521
915.809	6502
915.921	6521
916.034	6403
916.146	6464
916.259	6445
916.371	6494
916.483	6437
916.595	6437
916.708	6464
916.82	6407
916.932	6414
917.044	6388
917.156	6391
917.268	6319
917.38	6422
917.491	6319
917.603	6372
917.715	6422
917.826	6353
917.938	6346
918.049	6228
918.161	6369
918.272	6372
918.384	6403
918.495	6369
918.606	6262
918.717	6247
918.828	6243
918.939	6323
919.05	6209
919.161	6190
919.272	6159
919.383	6152
919.494	6304
919.604	6433
919.715	6277
919.826	6235
919.936	6300
920.047	6350
920.157	6247
920.267	6448
920.378	6338
920.488	6289
920.598	6441
920.708	6566
920.818	6422
920.928	6547
921.038	6566
921.148	6574
921.258	6391
921.368	6273
921.477	6228
921.587	6220
921.697	6091
921.806	6228
921.916	6095
922.025	5969
922.134	5901
922.244	5908
922.353	5973
922.462	5851
922.571	5836
922.68	5726
922.789	5665
922.898	5745
923.007	5646
923.116	5718
923.224	5676
923.333	5684
923.442	5646
923.55	5577
923.659	5596
923.767	5657
923.876	5543
923.984	5592
924.092	5512
924.201	5547
924.309	5497
924.417	5543
924.525	5486
924.633	5486
924.741	6292
924.849	5391
924.956	5570
925.064	5326
925.172	5326
925.279	5326
925.387	5357
925.494	5334
925.602	5467
925.709	5395
925.816	5303
925.924	5318
926.031	5360
926.138	5334
926.245	5360
926.352	5277
926.459	5357
926.566	5311
926.673	5208
926.779	5162
926.886	5155
926.993	5003
927.099	5010
927.206	4999
927.312	4953
927.419	5060
927.525	5010
927.631	4995
927.737	4923
927.843	4850
927.95	4816
928.056	4850
928.162	4847
928.267	4870
928.373	5280
928.479	4866
928.585	4672
928.69	4793
928.796	4786
928.901	4706
929.007	4630
929.112	4717
929.218	4637
929.323	4618
929.428	4565
929.533	4710
929.638	4546
929.743	4577
929.848	4558
929.953	4504
930.058	4485
930.163	4318
930.267	4394
930.372	4421
930.477	4337
930.581	4466
930.685	4375
930.79	4287
930.894	4310
930.998	4299
931.103	4402
931.207	4131
931.311	4116
931.415	4063
931.519	3945
931.623	3968
