Data from glass_V78500241_1428.txt Node
Date: Wed Sep 01 19:24:23 CST 2021
User: usil
Spectrometer: V785-0024
Trigger mode: 0
Integration Time (sec): 4.000000E-1
Scans to average: 1
Nonlinearity correction enabled: false
Boxcar width: 0
Storing dark spectrum: false
XAxis mode: Wavelengths
Number of Pixels in Spectrum: 1024
>>>>>Begin Spectral Data<<<<<
801.071	3717
801.214	3743
801.356	3667
801.499	3759
801.641	3728
801.783	3774
801.926	3838
802.068	3846
802.211	3857
802.353	3907
802.496	3850
802.638	3880
802.78	3934
802.923	3956
803.065	3911
803.208	3861
803.35	3838
803.492	3903
803.635	3915
803.777	3793
803.919	3896
804.061	4112
804.204	3903
804.346	3953
804.488	3869
804.63	4051
804.773	3964
804.915	4021
805.057	4150
805.199	4093
805.341	4090
805.483	4120
805.626	4131
805.768	4120
805.91	4196
806.052	4223
806.194	4223
806.336	4360
806.478	4280
806.62	4173
806.762	4185
806.904	4242
807.046	4322
807.188	4215
807.33	4204
807.472	4246
807.614	4211
807.756	4265
807.898	4192
808.04	4238
808.182	4303
808.324	4325
808.465	4413
808.607	4436
808.749	4413
808.891	4481
809.033	4493
809.174	4402
809.316	4280
809.458	4276
809.6	4112
809.741	4116
809.883	4143
810.025	4238
810.166	4223
810.308	4223
810.45	4242
810.591	4227
810.733	4261
810.875	4527
811.016	4866
811.158	5147
811.299	5292
811.441	5299
811.582	5090
811.724	4683
811.865	4497
812.007	4428
812.148	4405
812.29	4428
812.431	4417
812.573	4443
812.714	4356
812.855	4443
812.997	4409
813.138	4481
813.279	4390
813.421	4417
813.562	4367
813.703	4371
813.845	4310
813.986	4272
814.127	4215
814.268	4268
814.41	4280
814.551	4291
814.692	4341
814.833	4268
814.974	4303
815.115	4348
815.256	4242
815.397	4238
815.539	4261
815.68	4219
815.821	4219
815.962	4333
816.103	4276
816.244	4234
816.385	4249
816.526	4268
816.666	4219
816.807	4074
816.948	4211
817.089	4177
817.23	4147
817.371	4055
817.512	4071
817.653	4105
817.793	4040
817.934	4017
818.075	4101
818.216	4086
818.356	4082
818.497	3998
818.638	3907
818.778	3907
818.919	3934
819.06	3896
819.2	3937
819.341	3903
819.481	3865
819.622	3899
819.762	4013
819.903	3941
820.043	3857
820.184	3823
820.324	3827
820.465	3865
820.605	3907
820.746	3861
820.886	3819
821.026	3964
821.167	3960
821.307	4002
821.447	4006
821.588	3907
821.728	3907
821.868	3918
822.008	3846
822.149	3903
822.289	3937
822.429	3774
822.569	3778
822.709	3816
822.849	3652
822.99	3740
823.13	3759
823.27	3823
823.41	3740
823.55	3743
823.69	3709
823.83	3709
823.97	3690
824.11	3595
824.25	3576
824.389	3641
824.529	3698
824.669	3587
824.809	3667
824.949	3762
825.089	3728
825.228	3694
825.368	3618
825.508	3561
825.648	3580
825.787	3641
825.927	3656
826.067	3614
826.206	3705
826.346	3800
826.485	3865
826.625	3892
826.765	3926
826.904	3831
827.044	3633
827.183	3519
827.323	3424
827.462	3477
827.601	3469
827.741	3401
827.88	3462
828.02	3428
828.159	3488
828.298	3492
828.437	3572
828.577	3466
828.716	3595
828.855	3511
828.994	3367
829.134	3393
829.273	3401
829.412	3321
829.551	3355
829.69	3378
829.829	3431
829.968	3530
830.107	3466
830.246	3488
830.385	3374
830.524	3351
830.663	3249
830.802	3260
830.941	3218
831.08	3188
831.219	3214
831.357	3283
831.496	3348
831.635	3184
831.774	3146
831.913	3180
832.051	3138
832.19	3135
832.329	3226
832.467	3127
832.606	3119
832.744	3150
832.883	3199
833.022	3222
833.16	3241
833.299	3256
833.437	3351
833.576	3374
833.714	3416
833.852	3473
833.991	3462
834.129	3473
834.267	3462
834.406	3420
834.544	3393
834.682	3393
834.821	3405
834.959	3584
835.097	3439
835.235	3526
835.373	3507
835.511	3447
835.65	3466
835.788	3534
835.926	3401
836.064	3405
836.202	3389
836.34	3584
836.478	3667
836.615	3576
836.753	3587
836.891	3622
837.029	3625
837.167	3606
837.305	3561
837.443	3530
837.58	3462
837.718	3633
837.856	3568
837.993	3576
838.131	3610
838.269	3610
838.406	3564
838.544	3576
838.681	3466
838.819	3473
838.956	3412
839.094	3389
839.231	3416
839.369	3530
839.506	3728
839.643	3603
839.781	3504
839.918	3458
840.055	3530
840.193	3530
840.33	3519
840.467	3515
840.604	3584
840.742	3804
840.879	3526
841.016	3549
841.153	3587
841.29	3751
841.427	3732
841.564	3701
841.701	3762
841.838	3717
841.975	3682
842.112	3766
842.249	3637
842.385	3595
842.522	3800
842.659	3637
842.796	3705
842.933	3694
843.069	3728
843.206	3698
843.343	3823
843.479	3778
843.616	3827
843.752	3660
843.889	3736
844.025	3880
844.162	3713
844.298	3857
844.435	3740
844.571	3838
844.708	3888
844.844	4002
844.98	4002
845.117	4021
845.253	3911
845.389	3922
845.525	3991
845.661	3915
845.798	3926
845.934	4017
846.07	3979
846.206	4059
846.342	4124
846.478	4101
846.614	3960
846.75	3941
846.886	3873
847.022	4006
847.158	3987
847.294	4013
847.429	4029
847.565	4025
847.701	4249
847.837	3865
847.972	3884
848.108	3979
848.244	3983
848.379	3854
848.515	3842
848.65	3793
848.786	3850
848.921	3800
849.057	3941
849.192	3930
849.328	3888
849.463	3937
849.598	3903
849.734	3899
849.869	3804
850.004	3823
850.14	3793
850.275	3762
850.41	3740
850.545	3740
850.68	3770
850.815	3835
850.95	3770
851.085	3956
851.22	3884
851.355	3816
851.49	3778
851.625	3819
851.76	3797
851.895	3762
852.03	3793
852.165	3850
852.299	3842
852.434	3934
852.569	3896
852.703	3876
852.838	3911
852.973	4006
853.107	4017
853.242	3930
853.376	3831
853.511	3774
853.645	3831
853.78	3998
853.914	3941
854.048	3941
854.183	3880
854.317	3956
854.451	4074
854.585	3926
854.72	3937
854.854	4036
854.988	3934
855.122	4025
855.256	3926
855.39	4040
855.524	4120
855.658	4078
855.792	4101
855.926	4150
856.06	4192
856.194	4192
856.327	4131
856.461	4086
856.595	4158
856.729	4169
856.862	4261
856.996	4249
857.13	4287
857.263	4333
857.397	4348
857.53	4303
857.664	4379
857.797	4371
857.931	4455
858.064	4402
858.197	4409
858.331	4394
858.464	4371
858.597	4318
858.731	4462
858.864	4447
858.997	4512
859.13	4527
859.263	4504
859.396	4565
859.529	4558
859.662	4573
859.795	4523
859.928	4592
860.061	4721
860.194	4691
860.327	4698
860.46	4649
860.592	4691
860.725	4752
860.858	4828
860.99	4740
861.123	4706
861.256	4710
861.388	4778
861.521	5265
861.653	4687
861.786	4694
861.918	4744
862.05	4820
862.183	4820
862.315	4870
862.447	4889
862.58	4870
862.712	4854
862.844	4771
862.976	4828
863.108	4854
863.24	5239
863.372	4866
863.504	4900
863.636	4900
863.768	4946
863.9	4946
864.032	4919
864.164	4927
864.296	4961
864.428	5033
864.559	5143
864.691	5083
864.823	5159
864.954	5151
865.086	5124
865.217	5159
865.349	5098
865.48	5204
865.612	5166
865.743	5292
865.875	5174
866.006	5201
866.137	5269
866.269	5178
866.4	5258
866.531	5277
866.662	5193
866.793	5292
866.924	5311
867.055	5296
867.186	5376
867.317	5326
867.448	5322
867.579	5341
867.71	5364
867.841	5360
867.972	5486
868.103	5478
868.233	5448
868.364	5478
868.495	5577
868.625	5657
868.756	5767
868.886	5661
869.017	5718
869.147	5874
869.278	5870
869.408	5855
869.539	5809
869.669	5927
869.799	5939
869.929	6026
870.06	6019
870.19	6190
870.32	6194
870.45	6224
870.58	6338
870.71	6467
870.84	6414
870.97	6395
871.1	6403
871.23	6608
871.36	6696
871.489	6669
871.619	6768
871.749	6882
871.879	6905
872.008	6966
872.138	6943
872.267	6996
872.397	6973
872.526	7072
872.656	7072
872.785	7221
872.915	7411
873.044	7525
873.173	7567
873.303	7597
873.432	7807
873.561	7921
873.69	7894
873.819	7986
873.948	8195
874.077	8225
874.206	8370
874.335	8404
874.464	8655
874.593	8906
874.722	8887
874.851	9138
874.979	9176
875.108	9294
875.237	9416
875.365	9439
875.494	9728
875.623	9766
875.751	9831
875.88	10029
876.008	10158
876.136	10299
876.265	10531
876.393	10668
876.521	10759
876.65	10885
876.778	10942
876.906	10850
877.034	11003
877.162	11090
877.29	11113
877.418	11299
877.546	11379
877.674	11455
877.802	11497
877.93	11589
878.058	11604
878.185	11589
878.313	11691
878.441	11707
878.568	11737
878.696	11767
878.824	11847
878.951	12003
879.079	12015
879.206	12098
879.333	12068
879.461	12041
879.588	12125
879.715	12079
879.842	12133
879.97	12030
880.097	11866
880.224	11836
880.351	11828
880.478	11866
880.605	11843
880.732	11802
880.859	12072
880.986	11790
881.112	11870
881.239	11737
881.366	11661
881.493	11623
881.619	11490
881.746	11592
881.872	11585
881.999	11463
882.125	11505
882.252	11512
882.378	11516
882.505	11547
882.631	11402
882.757	11292
882.883	11353
883.01	11273
883.136	11178
883.262	11037
883.388	11094
883.514	11227
883.64	11147
883.766	11094
883.892	11033
884.018	11014
884.143	11056
884.269	11121
884.395	10782
884.52	10729
884.646	10843
884.772	10710
884.897	10599
885.023	10618
885.148	10687
885.274	10721
885.399	10672
885.524	10611
885.65	10603
885.775	10565
885.9	10542
886.025	10645
886.15	10577
886.275	10409
886.4	10382
886.525	10394
886.65	10394
886.775	10360
886.9	10405
887.025	10538
887.149	10284
887.274	10295
887.399	10169
887.523	10204
887.648	10242
887.773	10128
887.897	10230
888.021	10158
888.146	10025
888.27	10242
888.395	10188
888.519	10173
888.643	10116
888.767	10166
888.891	10112
889.015	10071
889.139	10006
889.263	9953
889.387	10006
889.511	10158
889.635	10063
889.759	9983
889.883	9941
890.006	9941
890.13	10059
890.254	9915
890.377	10002
890.501	9838
890.624	9964
890.748	9861
890.871	9838
890.995	9709
891.118	9713
891.241	9793
891.364	9713
891.488	9781
891.611	9713
891.734	9762
891.857	9793
891.98	9781
892.103	9732
892.226	9618
892.349	9648
892.471	9610
892.594	9534
892.717	9572
892.839	9557
892.962	9591
893.085	9675
893.207	9606
893.33	9504
893.452	9496
893.575	9545
893.697	9500
893.819	9675
893.941	9591
894.064	9633
894.186	9519
894.308	9408
894.43	9526
894.552	9641
894.674	9507
894.796	9408
894.918	9389
895.04	9260
895.161	9393
895.283	9351
895.405	9214
895.526	9272
895.648	9154
895.769	9287
895.891	9264
896.012	9340
896.134	9302
896.255	9150
896.376	9203
896.498	9089
896.619	9070
896.74	9058
896.861	9074
896.982	9275
897.103	9287
897.224	9188
897.345	9081
897.466	9020
897.587	9001
897.708	9070
897.828	9017
897.949	8952
898.07	8929
898.19	8952
898.311	8990
898.431	8902
898.552	8895
898.672	8975
898.792	8994
898.913	8861
899.033	8800
899.153	8716
899.273	8655
899.393	8712
899.513	8853
899.633	8758
899.753	8731
899.873	8724
899.993	8705
900.113	8705
900.232	8678
900.352	8682
900.472	8571
900.591	8526
900.711	8560
900.83	8476
900.95	8689
901.069	8697
901.189	8594
901.308	8480
901.427	8400
901.546	8473
901.665	8503
901.784	8556
901.904	8381
902.023	8328
902.141	8290
902.26	8256
902.379	8332
902.498	8199
902.617	8259
902.735	8286
902.854	8259
902.973	8282
903.091	8142
903.21	8195
903.328	8096
903.446	8073
903.565	8065
903.683	8119
903.801	8031
903.919	8046
904.038	8081
904.156	8024
904.274	8096
904.392	7997
904.51	8020
904.627	8012
904.745	8058
904.863	8084
904.981	7936
905.098	7879
905.216	7852
905.334	7936
905.451	7902
905.569	7890
905.686	7909
905.803	7947
905.921	7811
906.038	7856
906.155	7807
906.272	7761
906.389	7723
906.506	7594
906.623	7628
906.74	7639
906.857	7594
906.974	7590
907.091	7624
907.208	7704
907.324	7639
907.441	7609
907.557	7521
907.674	7430
907.79	7407
907.907	7373
908.023	7407
908.139	7377
908.256	7392
908.372	7324
908.488	7305
908.604	7266
908.72	7228
908.836	7339
908.952	7282
909.068	7274
909.184	7358
909.3	7225
909.415	7278
909.531	7305
909.647	7122
909.762	7179
909.878	7050
909.993	7076
910.108	7107
910.224	7137
910.339	7122
910.454	7000
910.57	7046
910.685	7027
910.8	7126
910.915	7168
911.03	7027
911.145	6916
911.259	6871
911.374	6897
911.489	6795
911.604	6753
911.718	6760
911.833	6760
911.947	6635
912.062	6620
912.176	6673
912.291	6662
912.405	6662
912.519	6821
912.633	6871
912.748	6741
912.862	6677
912.976	6585
913.09	6551
913.204	6555
913.318	6566
913.431	6662
913.545	6665
913.659	6684
913.772	6662
913.886	6578
914	6513
914.113	6608
914.226	6642
914.34	6578
914.453	6479
914.566	6642
914.68	6563
914.793	6490
914.906	6399
915.019	6391
915.132	6361
915.245	6414
915.358	6410
915.47	6422
915.583	6467
915.696	6494
915.809	6532
915.921	6589
916.034	6452
916.146	6391
916.259	6422
916.371	6452
916.483	6475
916.595	6414
916.708	6410
916.82	6410
916.932	6395
917.044	6422
917.156	6391
917.268	6365
917.38	6281
917.491	6319
917.603	6296
917.715	6395
917.826	6376
917.938	6300
918.049	6235
918.161	6334
918.272	6452
918.384	6433
918.495	6380
918.606	6228
918.717	6201
918.828	6235
918.939	6239
919.05	6243
919.161	6292
919.272	6121
919.383	6144
919.494	6292
919.604	6426
919.715	6277
919.826	6247
919.936	6232
920.047	6422
920.157	6266
920.267	6407
920.378	6369
920.488	6262
920.598	6464
920.708	6551
920.818	6483
920.928	6460
921.038	6566
921.148	6612
921.258	6346
921.368	6266
921.477	6216
921.587	6125
921.697	6095
921.806	6136
921.916	6087
922.025	5870
922.134	5916
922.244	5821
922.353	5912
922.462	5836
922.571	5794
922.68	5691
922.789	5676
922.898	5707
923.007	5668
923.116	5668
923.224	5718
923.333	5661
923.442	5589
923.55	5562
923.659	5589
923.767	5649
923.876	5615
923.984	5630
924.092	5486
924.201	5528
924.309	5596
924.417	5512
924.525	5474
924.633	5440
924.741	6152
924.849	5406
924.956	5490
925.064	5334
925.172	5296
925.279	5315
925.387	5391
925.494	5334
925.602	5414
925.709	5395
925.816	5284
925.924	5376
926.031	5387
926.138	5318
926.245	5345
926.352	5227
926.459	5337
926.566	5269
926.673	5208
926.779	5113
926.886	5109
926.993	4946
927.099	4957
927.206	5033
927.312	5006
927.419	5006
927.525	4957
927.631	4953
927.737	4877
927.843	4870
927.95	4790
928.056	4809
928.162	4809
928.267	4900
928.373	5269
928.479	4847
928.585	4717
928.69	4752
928.796	4736
928.901	4637
929.007	4554
929.112	4706
929.218	4679
929.323	4588
929.428	4554
929.533	4664
929.638	4531
929.743	4535
929.848	4535
929.953	4504
930.058	4405
930.163	4348
930.267	4341
930.372	4398
930.477	4287
930.581	4474
930.685	4375
930.79	4242
930.894	4261
930.998	4276
931.103	4413
931.207	4128
931.311	4071
931.415	4082
931.519	3983
931.623	3953
