Data from glass_V78500241_1244.txt Node
Date: Wed Sep 01 19:23:07 CST 2021
User: usil
Spectrometer: V785-0024
Trigger mode: 0
Integration Time (sec): 4.000000E-1
Scans to average: 1
Nonlinearity correction enabled: false
Boxcar width: 0
Storing dark spectrum: false
XAxis mode: Wavelengths
Number of Pixels in Spectrum: 1024
>>>>>Begin Spectral Data<<<<<
801.071	3778
801.214	3781
801.356	3720
801.499	3736
801.641	3728
801.783	3774
801.926	3854
802.068	3831
802.211	3823
802.353	3918
802.496	3850
802.638	3911
802.78	3934
802.923	3945
803.065	3964
803.208	3903
803.35	3850
803.492	3918
803.635	3915
803.777	3816
803.919	3915
804.061	4196
804.204	4021
804.346	3983
804.488	3937
804.63	4055
804.773	3972
804.915	4048
805.057	4166
805.199	3987
805.341	4097
805.483	4131
805.626	4131
805.768	4143
805.91	4204
806.052	4230
806.194	4181
806.336	4344
806.478	4230
806.62	4158
806.762	4188
806.904	4272
807.046	4314
807.188	4257
807.33	4200
807.472	4246
807.614	4188
807.756	4268
807.898	4211
808.04	4238
808.182	4272
808.324	4356
808.465	4383
808.607	4455
808.749	4451
808.891	4485
809.033	4497
809.174	4409
809.316	4306
809.458	4265
809.6	4143
809.741	4128
809.883	4131
810.025	4227
810.166	4158
810.308	4238
810.45	4219
810.591	4238
810.733	4280
810.875	4481
811.016	4767
811.158	5121
811.299	5280
811.441	5246
811.582	5067
811.724	4710
811.865	4478
812.007	4489
812.148	4398
812.29	4428
812.431	4405
812.573	4413
812.714	4352
812.855	4405
812.997	4428
813.138	4447
813.279	4421
813.421	4386
813.562	4333
813.703	4344
813.845	4367
813.986	4265
814.127	4204
814.268	4265
814.41	4295
814.551	4261
814.692	4333
814.833	4287
814.974	4318
815.115	4337
815.256	4249
815.397	4200
815.539	4276
815.68	4185
815.821	4238
815.962	4310
816.103	4322
816.244	4246
816.385	4257
816.526	4284
816.666	4185
816.807	4090
816.948	4196
817.089	4185
817.23	4097
817.371	4051
817.512	4071
817.653	4124
817.793	4032
817.934	4082
818.075	4131
818.216	4048
818.356	4086
818.497	3975
818.638	3884
818.778	3903
818.919	3922
819.06	3846
819.2	3880
819.341	3854
819.481	3827
819.622	3945
819.762	4063
819.903	3994
820.043	3926
820.184	3850
820.324	3781
820.465	3880
820.605	3865
820.746	3842
820.886	3842
821.026	3945
821.167	3922
821.307	3960
821.447	3972
821.588	3960
821.728	3964
821.868	3911
822.008	3842
822.149	3949
822.289	3941
822.429	3846
822.569	3789
822.709	3804
822.849	3751
822.99	3667
823.13	3743
823.27	3804
823.41	3724
823.55	3720
823.69	3728
823.83	3743
823.97	3690
824.11	3622
824.25	3618
824.389	3644
824.529	3641
824.669	3618
824.809	3747
824.949	3747
825.089	3766
825.228	3755
825.368	3591
825.508	3576
825.648	3572
825.787	3599
825.927	3652
826.067	3641
826.206	3663
826.346	3808
826.485	3869
826.625	3835
826.765	3949
826.904	3808
827.044	3591
827.183	3526
827.323	3420
827.462	3519
827.601	3424
827.741	3428
827.88	3447
828.02	3370
828.159	3447
828.298	3507
828.437	3553
828.577	3473
828.716	3618
828.855	3515
828.994	3367
829.134	3389
829.273	3393
829.412	3340
829.551	3359
829.69	3382
829.829	3466
829.968	3519
830.107	3443
830.246	3424
830.385	3332
830.524	3363
830.663	3313
830.802	3249
830.941	3203
831.08	3192
831.219	3264
831.357	3249
831.496	3409
831.635	3230
831.774	3165
831.913	3192
832.051	3154
832.19	3157
832.329	3203
832.467	3161
832.606	3112
832.744	3173
832.883	3195
833.022	3195
833.16	3272
833.299	3321
833.437	3336
833.576	3393
833.714	3428
833.852	3454
833.991	3443
834.129	3447
834.267	3477
834.406	3420
834.544	3424
834.682	3450
834.821	3458
834.959	3557
835.097	3439
835.235	3530
835.373	3511
835.511	3485
835.65	3481
835.788	3504
835.926	3416
836.064	3386
836.202	3409
836.34	3599
836.478	3595
836.615	3519
836.753	3629
836.891	3614
837.029	3603
837.167	3587
837.305	3526
837.443	3526
837.58	3488
837.718	3564
837.856	3534
837.993	3545
838.131	3572
838.269	3625
838.406	3568
838.544	3587
838.681	3458
838.819	3450
838.956	3382
839.094	3370
839.231	3428
839.369	3526
839.506	3732
839.643	3679
839.781	3511
839.918	3447
840.055	3530
840.193	3519
840.33	3526
840.467	3530
840.604	3587
840.742	3804
840.879	3542
841.016	3549
841.153	3587
841.29	3793
841.427	3713
841.564	3747
841.701	3762
841.838	3694
841.975	3717
842.112	3740
842.249	3660
842.385	3648
842.522	3857
842.659	3736
842.796	3713
842.933	3698
843.069	3724
843.206	3690
843.343	3827
843.479	3812
843.616	3770
843.752	3740
843.889	3679
844.025	3880
844.162	3724
844.298	3854
844.435	3789
844.571	3800
844.708	3892
844.844	3945
844.98	4051
845.117	4006
845.253	3934
845.389	3876
845.525	3975
845.661	3991
845.798	3975
845.934	4032
846.07	3949
846.206	4010
846.342	4150
846.478	4086
846.614	3968
846.75	3930
846.886	3899
847.022	4032
847.158	3991
847.294	4029
847.429	4032
847.565	3994
847.701	4238
847.837	3915
847.972	3869
848.108	4002
848.244	3930
848.379	3869
848.515	3854
848.65	3846
848.786	3850
848.921	3854
849.057	3922
849.192	3968
849.328	3930
849.463	3956
849.598	3888
849.734	3861
849.869	3865
850.004	3755
850.14	3865
850.275	3800
850.41	3728
850.545	3770
850.68	3804
850.815	3804
850.95	3778
851.085	3975
851.22	3869
851.355	3819
851.49	3800
851.625	3797
851.76	3831
851.895	3682
852.03	3732
852.165	3827
852.299	3918
852.434	3918
852.569	3884
852.703	3911
852.838	3911
852.973	3987
853.107	3979
853.242	3903
853.376	3896
853.511	3793
853.645	3804
853.78	4013
853.914	3869
854.048	3911
854.183	3918
854.317	3960
854.451	4097
854.585	3945
854.72	3964
854.854	4078
854.988	3926
855.122	4002
855.256	3964
855.39	4013
855.524	4120
855.658	4135
855.792	4109
855.926	4128
856.06	4166
856.194	4204
856.327	4166
856.461	4128
856.595	4139
856.729	4185
856.862	4299
856.996	4265
857.13	4287
857.263	4287
857.397	4367
857.53	4280
857.664	4333
857.797	4360
857.931	4405
858.064	4371
858.197	4424
858.331	4424
858.464	4451
858.597	4341
858.731	4451
858.864	4466
858.997	4462
859.13	4531
859.263	4561
859.396	4603
859.529	4538
859.662	4531
859.795	4550
859.928	4577
860.061	4725
860.194	4729
860.327	4668
860.46	4626
860.592	4744
860.725	4755
860.858	4767
860.99	4767
861.123	4683
861.256	4717
861.388	4763
861.521	5345
861.653	4733
861.786	4733
861.918	4698
862.05	4816
862.183	4847
862.315	4881
862.447	4889
862.58	4946
862.712	4812
862.844	4809
862.976	4812
863.108	4930
863.24	5189
863.372	4809
863.504	4881
863.636	4847
863.768	4965
863.9	4949
864.032	4995
864.164	4915
864.296	5022
864.428	5136
864.559	5094
864.691	5151
864.823	5128
864.954	5086
865.086	5098
865.217	5113
865.349	5105
865.48	5166
865.612	5204
865.743	5292
865.875	5178
866.006	5201
866.137	5277
866.269	5265
866.4	5246
866.531	5223
866.662	5204
866.793	5345
866.924	5258
867.055	5345
867.186	5364
867.317	5296
867.448	5307
867.579	5368
867.71	5353
867.841	5326
867.972	5459
868.103	5436
868.233	5486
868.364	5543
868.495	5585
868.625	5642
868.756	5775
868.886	5714
869.017	5722
869.147	5863
869.278	5878
869.408	5813
869.539	5893
869.669	5954
869.799	5939
869.929	6026
870.06	6011
870.19	6239
870.32	6182
870.45	6304
870.58	6380
870.71	6471
870.84	6521
870.97	6372
871.1	6384
871.23	6631
871.36	6646
871.489	6650
871.619	6734
871.749	6787
871.879	6814
872.008	6951
872.138	6962
872.267	6966
872.397	6996
872.526	7080
872.656	7065
872.785	7206
872.915	7388
873.044	7510
873.173	7533
873.303	7693
873.432	7757
873.561	7883
873.69	7970
873.819	8020
873.948	8183
874.077	8187
874.206	8336
874.335	8507
874.464	8663
874.593	8823
874.722	8952
874.851	9154
874.979	9214
875.108	9340
875.237	9378
875.365	9496
875.494	9568
875.623	9854
875.751	9865
875.88	9979
876.008	10154
876.136	10276
876.265	10500
876.393	10755
876.521	10710
876.65	10812
876.778	10881
876.906	10904
877.034	11022
877.162	11170
877.29	11204
877.418	11250
877.546	11474
877.674	11455
877.802	11592
877.93	11539
878.058	11566
878.185	11543
878.313	11642
878.441	11809
878.568	11688
878.696	11840
878.824	11882
878.951	11958
879.079	12003
879.206	12163
879.333	12041
879.461	11931
879.588	12015
879.715	12011
879.842	12216
879.97	12060
880.097	11950
880.224	11927
880.351	11889
880.478	11882
880.605	11916
880.732	11809
880.859	11996
880.986	11805
881.112	11821
881.239	11752
881.366	11615
881.493	11710
881.619	11524
881.746	11562
881.872	11532
881.999	11520
882.125	11459
882.252	11581
882.378	11532
882.505	11573
882.631	11429
882.757	11220
882.883	11284
883.01	11311
883.136	11181
883.262	11056
883.388	11128
883.514	11254
883.64	11105
883.766	11029
883.892	10991
884.018	10934
884.143	11010
884.269	11090
884.395	10915
884.52	10786
884.646	10668
884.772	10767
884.897	10672
885.023	10683
885.148	10630
885.274	10778
885.399	10664
885.524	10637
885.65	10588
885.775	10687
885.9	10588
886.025	10634
886.15	10535
886.275	10493
886.4	10402
886.525	10440
886.65	10440
886.775	10382
886.9	10451
887.025	10527
887.149	10325
887.274	10303
887.399	10238
887.523	10215
887.648	10150
887.773	10177
887.897	10188
888.021	10306
888.146	10036
888.27	10162
888.395	10147
888.519	10242
888.643	10207
888.767	10150
888.891	10188
889.015	10010
889.139	10059
889.263	9892
889.387	9960
889.511	10090
889.635	10071
889.759	10040
889.883	9960
890.006	10036
890.13	10154
890.254	9953
890.377	9949
890.501	9918
890.624	9873
890.748	9903
890.871	9797
890.995	9766
891.118	9766
891.241	9785
891.364	9720
891.488	9907
891.611	9743
891.734	9766
891.857	9846
891.98	9720
892.103	9800
892.226	9698
892.349	9629
892.471	9564
892.594	9614
892.717	9618
892.839	9564
892.962	9656
893.085	9656
893.207	9629
893.33	9564
893.452	9557
893.575	9633
893.697	9511
893.819	9671
893.941	9648
894.064	9610
894.186	9412
894.308	9397
894.43	9488
894.552	9610
894.674	9603
894.796	9397
894.918	9389
895.04	9386
895.161	9382
895.283	9329
895.405	9256
895.526	9272
895.648	9222
895.769	9218
895.891	9214
896.012	9344
896.134	9249
896.255	9180
896.376	9112
896.498	9169
896.619	9089
896.74	9131
896.861	9089
896.982	9287
897.103	9336
897.224	9081
897.345	9043
897.466	8971
897.587	8998
897.708	9108
897.828	9009
897.949	9043
898.07	8895
898.19	8929
898.311	9074
898.431	8960
898.552	8948
898.672	8944
898.792	8895
898.913	8906
899.033	8842
899.153	8674
899.273	8606
899.393	8712
899.513	8735
899.633	8762
899.753	8758
899.873	8716
899.993	8693
900.113	8712
900.232	8724
900.352	8644
900.472	8613
900.591	8518
900.711	8594
900.83	8564
900.95	8674
901.069	8708
901.189	8651
901.308	8419
901.427	8431
901.546	8522
901.665	8438
901.784	8518
901.904	8400
902.023	8347
902.141	8240
902.26	8225
902.379	8252
902.498	8168
902.617	8183
902.735	8237
902.854	8343
902.973	8301
903.091	8077
903.21	8119
903.328	8191
903.446	8138
903.565	8073
903.683	8073
903.801	8016
903.919	8199
904.038	8157
904.156	8103
904.274	8119
904.392	8046
904.51	7986
904.627	8043
904.745	8046
904.863	8115
904.981	7909
905.098	7833
905.216	7974
905.334	7879
905.451	7868
905.569	7898
905.686	7986
905.803	7925
905.921	7784
906.038	7849
906.155	7909
906.272	7693
906.389	7677
906.506	7643
906.623	7662
906.74	7597
906.857	7487
906.974	7559
907.091	7708
907.208	7693
907.324	7643
907.441	7620
907.557	7533
907.674	7441
907.79	7384
907.907	7422
908.023	7472
908.139	7438
908.256	7373
908.372	7384
908.488	7362
908.604	7247
908.72	7225
908.836	7247
908.952	7255
909.068	7228
909.184	7335
909.3	7266
909.415	7324
909.531	7312
909.647	7114
909.762	7084
909.878	7122
909.993	7107
910.108	7046
910.224	7122
910.339	7065
910.454	7046
910.57	7000
910.685	6973
910.8	7129
910.915	7072
911.03	7023
911.145	6859
911.259	6871
911.374	6878
911.489	6837
911.604	6852
911.718	6681
911.833	6730
911.947	6642
912.062	6574
912.176	6722
912.291	6730
912.405	6753
912.519	6844
912.633	6871
912.748	6757
912.862	6684
912.976	6574
913.09	6486
913.204	6574
913.318	6627
913.431	6757
913.545	6654
913.659	6768
913.772	6646
913.886	6582
914	6597
914.113	6616
914.226	6627
914.34	6650
914.453	6486
914.566	6662
914.68	6547
914.793	6525
914.906	6391
915.019	6376
915.132	6353
915.245	6460
915.358	6433
915.47	6433
915.583	6525
915.696	6467
915.809	6460
915.921	6544
916.034	6429
916.146	6426
916.259	6342
916.371	6467
916.483	6445
916.595	6323
916.708	6475
916.82	6418
916.932	6346
917.044	6452
917.156	6403
917.268	6319
917.38	6331
917.491	6308
917.603	6376
917.715	6441
917.826	6410
917.938	6395
918.049	6232
918.161	6281
918.272	6429
918.384	6460
918.495	6350
918.606	6281
918.717	6232
918.828	6258
918.939	6247
919.05	6228
919.161	6327
919.272	6114
919.383	6133
919.494	6270
919.604	6486
919.715	6327
919.826	6251
919.936	6232
920.047	6365
920.157	6254
920.267	6422
920.378	6300
920.488	6308
920.598	6490
920.708	6544
920.818	6464
920.928	6433
921.038	6684
921.148	6593
921.258	6365
921.368	6342
921.477	6152
921.587	6209
921.697	6068
921.806	6125
921.916	6117
922.025	5980
922.134	5920
922.244	5889
922.353	5992
922.462	5916
922.571	5821
922.68	5718
922.789	5718
922.898	5684
923.007	5627
923.116	5699
923.224	5703
923.333	5638
923.442	5634
923.55	5539
923.659	5547
923.767	5638
923.876	5596
923.984	5661
924.092	5543
924.201	5554
924.309	5501
924.417	5581
924.525	5573
924.633	5482
924.741	6232
924.849	5353
924.956	5566
925.064	5376
925.172	5242
925.279	5334
925.387	5318
925.494	5334
925.602	5387
925.709	5372
925.816	5280
925.924	5258
926.031	5387
926.138	5277
926.245	5337
926.352	5212
926.459	5299
926.566	5379
926.673	5208
926.779	5162
926.886	5090
926.993	5014
927.099	5003
927.206	4987
927.312	4915
927.419	5037
927.525	4984
927.631	5006
927.737	4927
927.843	4866
927.95	4767
928.056	4850
928.162	4828
928.267	4881
928.373	5368
928.479	4847
928.585	4710
928.69	4740
928.796	4816
928.901	4698
929.007	4546
929.112	4679
929.218	4656
929.323	4592
929.428	4588
929.533	4653
929.638	4546
929.743	4516
929.848	4580
929.953	4489
930.058	4405
930.163	4348
930.267	4371
930.372	4440
930.477	4295
930.581	4462
930.685	4390
930.79	4257
930.894	4268
930.998	4261
931.103	4390
931.207	4150
931.311	4147
931.415	4063
931.519	3930
931.623	3968
