Data from glass_V78500241_2293.txt Node
Date: Wed Sep 01 19:30:23 CST 2021
User: usil
Spectrometer: V785-0024
Trigger mode: 0
Integration Time (sec): 4.000000E-1
Scans to average: 1
Nonlinearity correction enabled: false
Boxcar width: 0
Storing dark spectrum: false
XAxis mode: Wavelengths
Number of Pixels in Spectrum: 1024
>>>>>Begin Spectral Data<<<<<
801.071	3724
801.214	3770
801.356	3720
801.499	3705
801.641	3728
801.783	3759
801.926	3842
802.068	3827
802.211	3842
802.353	3915
802.496	3778
802.638	3838
802.78	3899
802.923	3934
803.065	3892
803.208	3876
803.35	3873
803.492	3884
803.635	3880
803.777	3774
803.919	3899
804.061	4169
804.204	3945
804.346	3911
804.488	3934
804.63	4025
804.773	3964
804.915	3968
805.057	4139
805.199	3991
805.341	4029
805.483	4090
805.626	4109
805.768	4071
805.91	4219
806.052	4230
806.194	4188
806.336	4314
806.478	4200
806.62	4185
806.762	4185
806.904	4200
807.046	4325
807.188	4177
807.33	4162
807.472	4253
807.614	4166
807.756	4261
807.898	4219
808.04	4223
808.182	4287
808.324	4310
808.465	4363
808.607	4462
808.749	4455
808.891	4440
809.033	4455
809.174	4390
809.316	4295
809.458	4181
809.6	4185
809.741	4120
809.883	4128
810.025	4173
810.166	4234
810.308	4223
810.45	4230
810.591	4249
810.733	4276
810.875	4527
811.016	4809
811.158	5128
811.299	5212
811.441	5258
811.582	5086
811.724	4664
811.865	4443
812.007	4428
812.148	4428
812.29	4462
812.431	4421
812.573	4398
812.714	4325
812.855	4413
812.997	4398
813.138	4508
813.279	4386
813.421	4405
813.562	4360
813.703	4284
813.845	4325
813.986	4249
814.127	4177
814.268	4299
814.41	4268
814.551	4295
814.692	4318
814.833	4242
814.974	4329
815.115	4367
815.256	4287
815.397	4227
815.539	4257
815.68	4227
815.821	4169
815.962	4276
816.103	4268
816.244	4188
816.385	4204
816.526	4242
816.666	4181
816.807	4059
816.948	4185
817.089	4196
817.23	4093
817.371	4040
817.512	4040
817.653	4040
817.793	4040
817.934	4044
818.075	4093
818.216	4063
818.356	4086
818.497	3994
818.638	3945
818.778	3922
818.919	3861
819.06	3896
819.2	3892
819.341	3857
819.481	3823
819.622	3918
819.762	3991
819.903	3975
820.043	3835
820.184	3816
820.324	3800
820.465	3835
820.605	3800
820.746	3835
820.886	3766
821.026	3876
821.167	3892
821.307	3983
821.447	3945
821.588	3926
821.728	3945
821.868	3880
822.008	3846
822.149	3915
822.289	3915
822.429	3755
822.569	3766
822.709	3781
822.849	3648
822.99	3694
823.13	3766
823.27	3785
823.41	3698
823.55	3740
823.69	3709
823.83	3724
823.97	3652
824.11	3610
824.25	3572
824.389	3660
824.529	3633
824.669	3595
824.809	3701
824.949	3747
825.089	3728
825.228	3724
825.368	3599
825.508	3549
825.648	3568
825.787	3599
825.927	3625
826.067	3656
826.206	3667
826.346	3804
826.485	3827
826.625	3854
826.765	3972
826.904	3804
827.044	3606
827.183	3530
827.323	3412
827.462	3473
827.601	3397
827.741	3382
827.88	3405
828.02	3397
828.159	3424
828.298	3435
828.437	3488
828.577	3458
828.716	3591
828.855	3450
828.994	3351
829.134	3329
829.273	3321
829.412	3283
829.551	3370
829.69	3374
829.829	3424
829.968	3526
830.107	3405
830.246	3447
830.385	3367
830.524	3336
830.663	3298
830.802	3275
830.941	3188
831.08	3214
831.219	3287
831.357	3226
831.496	3378
831.635	3253
831.774	3214
831.913	3203
832.051	3123
832.19	3157
832.329	3169
832.467	3123
832.606	3119
832.744	3180
832.883	3157
833.022	3176
833.16	3268
833.299	3325
833.437	3272
833.576	3397
833.714	3389
833.852	3428
833.991	3435
834.129	3443
834.267	3439
834.406	3409
834.544	3443
834.682	3439
834.821	3424
834.959	3553
835.097	3401
835.235	3534
835.373	3462
835.511	3485
835.65	3466
835.788	3458
835.926	3382
836.064	3348
836.202	3416
836.34	3526
836.478	3591
836.615	3549
836.753	3618
836.891	3652
837.029	3614
837.167	3603
837.305	3545
837.443	3534
837.58	3473
837.718	3561
837.856	3549
837.993	3496
838.131	3603
838.269	3542
838.406	3584
838.544	3549
838.681	3469
838.819	3405
838.956	3321
839.094	3367
839.231	3397
839.369	3519
839.506	3740
839.643	3629
839.781	3504
839.918	3462
840.055	3496
840.193	3496
840.33	3515
840.467	3530
840.604	3587
840.742	3774
840.879	3511
841.016	3587
841.153	3557
841.29	3720
841.427	3698
841.564	3740
841.701	3766
841.838	3698
841.975	3644
842.112	3720
842.249	3648
842.385	3648
842.522	3793
842.659	3713
842.796	3644
842.933	3679
843.069	3686
843.206	3644
843.343	3835
843.479	3743
843.616	3808
843.752	3690
843.889	3679
844.025	3880
844.162	3724
844.298	3835
844.435	3762
844.571	3766
844.708	3876
844.844	3994
844.98	3979
845.117	4010
845.253	3907
845.389	3907
845.525	3945
845.661	3945
845.798	3899
845.934	3937
846.07	3949
846.206	4029
846.342	4051
846.478	4086
846.614	3972
846.75	3934
846.886	3930
847.022	3998
847.158	3960
847.294	4002
847.429	4032
847.565	3983
847.701	4219
847.837	3854
847.972	3869
848.108	3987
848.244	3926
848.379	3892
848.515	3781
848.65	3823
848.786	3884
848.921	3876
849.057	3903
849.192	3949
849.328	3861
849.463	3922
849.598	3880
849.734	3831
849.869	3838
850.004	3812
850.14	3873
850.275	3800
850.41	3759
850.545	3762
850.68	3785
850.815	3831
850.95	3755
851.085	3903
851.22	3857
851.355	3846
851.49	3762
851.625	3778
851.76	3789
851.895	3713
852.03	3728
852.165	3793
852.299	3831
852.434	3896
852.569	3816
852.703	3880
852.838	3926
852.973	3979
853.107	3949
853.242	3884
853.376	3857
853.511	3793
853.645	3797
853.78	3953
853.914	3907
854.048	3850
854.183	3857
854.317	3949
854.451	4036
854.585	3968
854.72	3930
854.854	4006
854.988	3911
855.122	4021
855.256	3937
855.39	4025
855.524	4051
855.658	4086
855.792	4109
855.926	4154
856.06	4162
856.194	4166
856.327	4139
856.461	4147
856.595	4112
856.729	4169
856.862	4295
856.996	4192
857.13	4291
857.263	4318
857.397	4379
857.53	4287
857.664	4352
857.797	4371
857.931	4402
858.064	4348
858.197	4436
858.331	4402
858.464	4363
858.597	4344
858.731	4402
858.864	4409
858.997	4470
859.13	4508
859.263	4531
859.396	4554
859.529	4508
859.662	4504
859.795	4523
859.928	4618
860.061	4706
860.194	4702
860.327	4653
860.46	4630
860.592	4687
860.725	4717
860.858	4790
860.99	4668
861.123	4641
861.256	4714
861.388	4793
861.521	5406
861.653	4729
861.786	4736
861.918	4725
862.05	4782
862.183	4778
862.315	4953
862.447	4953
862.58	4862
862.712	4771
862.844	4755
862.976	4877
863.108	4938
863.24	5155
863.372	4820
863.504	4923
863.636	4885
863.768	4972
863.9	4881
864.032	4896
864.164	4961
864.296	4972
864.428	5064
864.559	5098
864.691	5041
864.823	5113
864.954	5105
865.086	5113
865.217	5079
865.349	5113
865.48	5140
865.612	5189
865.743	5307
865.875	5178
866.006	5189
866.137	5265
866.269	5170
866.4	5277
866.531	5220
866.662	5204
866.793	5250
866.924	5273
867.055	5307
867.186	5326
867.317	5307
867.448	5284
867.579	5372
867.71	5330
867.841	5463
867.972	5482
868.103	5474
868.233	5486
868.364	5509
868.495	5516
868.625	5630
868.756	5760
868.886	5691
869.017	5722
869.147	5893
869.278	5828
869.408	5828
869.539	5931
869.669	5923
869.799	5882
869.929	6011
870.06	6053
870.19	6178
870.32	6159
870.45	6243
870.58	6323
870.71	6433
870.84	6445
870.97	6433
871.1	6464
871.23	6719
871.36	6745
871.489	6681
871.619	6726
871.749	6802
871.879	6924
872.008	6996
872.138	6970
872.267	6996
872.397	6943
872.526	6977
872.656	7129
872.785	7194
872.915	7464
873.044	7491
873.173	7658
873.303	7628
873.432	7712
873.561	7864
873.69	7974
873.819	7982
873.948	8115
874.077	8263
874.206	8298
874.335	8374
874.464	8727
874.593	8826
874.722	8906
874.851	9024
874.979	9203
875.108	9325
875.237	9420
875.365	9496
875.494	9603
875.623	9785
875.751	9812
875.88	9975
876.008	10154
876.136	10322
876.265	10481
876.393	10645
876.521	10717
876.65	10744
876.778	10889
876.906	10816
877.034	10927
877.162	11121
877.29	11094
877.418	11311
877.546	11356
877.674	11410
877.802	11532
877.93	11478
878.058	11558
878.185	11520
878.313	11596
878.441	11756
878.568	11767
878.696	11840
878.824	11824
878.951	11942
879.079	11942
879.206	12091
879.333	12007
879.461	12053
879.588	12060
879.715	12007
879.842	12201
879.97	12083
880.097	11836
880.224	11882
880.351	11866
880.478	11904
880.605	11798
880.732	11821
880.859	11984
880.986	11779
881.112	11935
881.239	11722
881.366	11653
881.493	11570
881.619	11512
881.746	11570
881.872	11566
881.999	11436
882.125	11497
882.252	11596
882.378	11524
882.505	11619
882.631	11417
882.757	11239
882.883	11334
883.01	11220
883.136	11204
883.262	11067
883.388	11029
883.514	11185
883.64	11216
883.766	11090
883.892	11067
884.018	10957
884.143	11079
884.269	11151
884.395	10854
884.52	10805
884.646	10637
884.772	10744
884.897	10694
885.023	10668
885.148	10645
885.274	10748
885.399	10721
885.524	10603
885.65	10584
885.775	10645
885.9	10565
886.025	10573
886.15	10542
886.275	10497
886.4	10421
886.525	10451
886.65	10291
886.775	10333
886.9	10519
887.025	10546
887.149	10382
887.274	10223
887.399	10185
887.523	10158
887.648	10154
887.773	10097
887.897	10173
888.021	10223
888.146	10048
888.27	10204
888.395	10223
888.519	10150
888.643	10223
888.767	10150
888.891	10071
889.015	10029
889.139	10086
889.263	9956
889.387	10025
889.511	10128
889.635	10067
889.759	10010
889.883	10006
890.006	9960
890.13	10124
890.254	9998
890.377	9953
890.501	9854
890.624	9884
890.748	9846
890.871	9770
890.995	9800
891.118	9736
891.241	9740
891.364	9762
891.488	9835
891.611	9762
891.734	9736
891.857	9747
891.98	9732
892.103	9774
892.226	9610
892.349	9644
892.471	9587
892.594	9572
892.717	9629
892.839	9576
892.962	9576
893.085	9648
893.207	9591
893.33	9504
893.452	9485
893.575	9595
893.697	9511
893.819	9603
893.941	9633
894.064	9656
894.186	9424
894.308	9435
894.43	9507
894.552	9534
894.674	9481
894.796	9428
894.918	9355
895.04	9386
895.161	9313
895.283	9340
895.405	9230
895.526	9283
895.648	9188
895.769	9310
895.891	9195
896.012	9287
896.134	9237
896.255	9157
896.376	9184
896.498	9104
896.619	9138
896.74	9074
896.861	9028
896.982	9264
897.103	9302
897.224	9131
897.345	9058
897.466	9039
897.587	8986
897.708	9089
897.828	9085
897.949	8975
898.07	8815
898.19	8956
898.311	8979
898.431	8937
898.552	8861
898.672	8925
898.792	8967
898.913	8861
899.033	8849
899.153	8807
899.273	8568
899.393	8727
899.513	8686
899.633	8689
899.753	8731
899.873	8636
899.993	8693
900.113	8667
900.232	8636
900.352	8625
900.472	8560
900.591	8594
900.711	8590
900.83	8560
900.95	8636
901.069	8667
901.189	8533
901.308	8473
901.427	8377
901.546	8415
901.665	8423
901.784	8499
901.904	8396
902.023	8279
902.141	8233
902.26	8218
902.379	8259
902.498	8142
902.617	8214
902.735	8298
902.854	8263
902.973	8244
903.091	8100
903.21	8168
903.328	8149
903.446	8065
903.565	8081
903.683	8077
903.801	8039
903.919	8107
904.038	8069
904.156	7989
904.274	8005
904.392	8005
904.51	8039
904.627	8058
904.745	8005
904.863	8077
904.981	7978
905.098	7799
905.216	7868
905.334	7868
905.451	7890
905.569	7875
905.686	7917
905.803	7849
905.921	7738
906.038	7792
906.155	7837
906.272	7715
906.389	7761
906.506	7658
906.623	7670
906.74	7597
906.857	7502
906.974	7605
907.091	7620
907.208	7704
907.324	7567
907.441	7556
907.557	7460
907.674	7441
907.79	7388
907.907	7419
908.023	7388
908.139	7396
908.256	7301
908.372	7384
908.488	7297
908.604	7244
908.72	7198
908.836	7247
908.952	7240
909.068	7240
909.184	7263
909.3	7263
909.415	7297
909.531	7236
909.647	7122
909.762	7091
909.878	7069
909.993	7168
910.108	7114
910.224	7088
910.339	7050
910.454	7015
910.57	7027
910.685	7008
910.8	7149
910.915	7110
911.03	7015
911.145	6913
911.259	6840
911.374	6886
911.489	6757
911.604	6806
911.718	6703
911.833	6707
911.947	6700
912.062	6582
912.176	6658
912.291	6608
912.405	6719
912.519	6791
912.633	6810
912.748	6707
912.862	6665
912.976	6578
913.09	6502
913.204	6578
913.318	6623
913.431	6688
913.545	6627
913.659	6738
913.772	6608
913.886	6639
914	6578
914.113	6627
914.226	6601
914.34	6642
914.453	6467
914.566	6563
914.68	6528
914.793	6540
914.906	6418
915.019	6315
915.132	6353
915.245	6422
915.358	6422
915.47	6407
915.583	6403
915.696	6433
915.809	6494
915.921	6559
916.034	6494
916.146	6410
916.259	6365
916.371	6509
916.483	6426
916.595	6391
916.708	6403
916.82	6414
916.932	6361
917.044	6384
917.156	6357
917.268	6323
917.38	6292
917.491	6327
917.603	6365
917.715	6418
917.826	6418
917.938	6338
918.049	6266
918.161	6258
918.272	6369
918.384	6456
918.495	6357
918.606	6281
918.717	6216
918.828	6213
918.939	6315
919.05	6182
919.161	6277
919.272	6190
919.383	6148
919.494	6270
919.604	6414
919.715	6285
919.826	6228
919.936	6239
920.047	6292
920.157	6243
920.267	6448
920.378	6319
920.488	6308
920.598	6452
920.708	6502
920.818	6464
920.928	6357
921.038	6555
921.148	6601
921.258	6331
921.368	6285
921.477	6178
921.587	6140
921.697	6083
921.806	6186
921.916	6053
922.025	5935
922.134	5866
922.244	5885
922.353	5935
922.462	5828
922.571	5863
922.68	5729
922.789	5668
922.898	5707
923.007	5684
923.116	5688
923.224	5657
923.333	5672
923.442	5592
923.55	5573
923.659	5573
923.767	5589
923.876	5535
923.984	5573
924.092	5512
924.201	5558
924.309	5486
924.417	5573
924.525	5547
924.633	5478
924.741	6220
924.849	5376
924.956	5455
925.064	5307
925.172	5296
925.279	5315
925.387	5345
925.494	5296
925.602	5376
925.709	5349
925.816	5288
925.924	5299
926.031	5372
926.138	5307
926.245	5292
926.352	5204
926.459	5318
926.566	5334
926.673	5151
926.779	5128
926.886	5128
926.993	4980
927.099	4995
927.206	4911
927.312	4911
927.419	4984
927.525	4980
927.631	5037
927.737	4866
927.843	4824
927.95	4831
928.056	4812
928.162	4866
928.267	4847
928.373	5315
928.479	4843
928.585	4660
928.69	4744
928.796	4793
928.901	4679
929.007	4603
929.112	4649
929.218	4546
929.323	4611
929.428	4554
929.533	4649
929.638	4504
929.743	4508
929.848	4538
929.953	4497
930.058	4386
930.163	4303
930.267	4348
930.372	4443
930.477	4276
930.581	4432
930.685	4360
930.79	4280
930.894	4276
930.998	4276
931.103	4390
931.207	4112
931.311	4074
931.415	4036
931.519	3953
931.623	3918
