Data from glass_V78500241_1989.txt Node
Date: Wed Sep 01 19:28:17 CST 2021
User: usil
Spectrometer: V785-0024
Trigger mode: 0
Integration Time (sec): 4.000000E-1
Scans to average: 1
Nonlinearity correction enabled: false
Boxcar width: 0
Storing dark spectrum: false
XAxis mode: Wavelengths
Number of Pixels in Spectrum: 1024
>>>>>Begin Spectral Data<<<<<
801.071	3709
801.214	3728
801.356	3694
801.499	3766
801.641	3736
801.783	3800
801.926	3865
802.068	3854
802.211	3835
802.353	3892
802.496	3835
802.638	3857
802.78	3854
802.923	3945
803.065	3876
803.208	3857
803.35	3865
803.492	3861
803.635	3907
803.777	3800
803.919	3854
804.061	4128
804.204	3937
804.346	3949
804.488	3896
804.63	4032
804.773	4002
804.915	4021
805.057	4154
805.199	4017
805.341	4074
805.483	4158
805.626	4082
805.768	4086
805.91	4192
806.052	4204
806.194	4223
806.336	4386
806.478	4177
806.62	4143
806.762	4188
806.904	4276
807.046	4360
807.188	4219
807.33	4188
807.472	4249
807.614	4162
807.756	4246
807.898	4215
808.04	4227
808.182	4261
808.324	4318
808.465	4390
808.607	4443
808.749	4466
808.891	4443
809.033	4489
809.174	4375
809.316	4211
809.458	4265
809.6	4143
809.741	4139
809.883	4135
810.025	4181
810.166	4196
810.308	4185
810.45	4253
810.591	4200
810.733	4268
810.875	4504
811.016	4824
811.158	5086
811.299	5277
811.441	5246
811.582	5064
811.724	4675
811.865	4440
812.007	4462
812.148	4421
812.29	4421
812.431	4371
812.573	4413
812.714	4402
812.855	4402
812.997	4394
813.138	4417
813.279	4394
813.421	4436
813.562	4386
813.703	4314
813.845	4310
813.986	4276
814.127	4227
814.268	4249
814.41	4306
814.551	4272
814.692	4386
814.833	4249
814.974	4253
815.115	4352
815.256	4219
815.397	4196
815.539	4284
815.68	4173
815.821	4219
815.962	4322
816.103	4306
816.244	4268
816.385	4219
816.526	4341
816.666	4185
816.807	4101
816.948	4166
817.089	4154
817.23	4150
817.371	4032
817.512	4040
817.653	4059
817.793	4032
817.934	4055
818.075	4071
818.216	4101
818.356	4055
818.497	3968
818.638	3884
818.778	3930
818.919	3903
819.06	3838
819.2	3896
819.341	3835
819.481	3854
819.622	3857
819.762	4036
819.903	3907
820.043	3823
820.184	3823
820.324	3838
820.465	3865
820.605	3842
820.746	3899
820.886	3797
821.026	3884
821.167	3903
821.307	4002
821.447	3979
821.588	3934
821.728	3964
821.868	3949
822.008	3854
822.149	3899
822.289	3911
822.429	3797
822.569	3751
822.709	3838
822.849	3724
822.99	3743
823.13	3732
823.27	3759
823.41	3724
823.55	3720
823.69	3698
823.83	3740
823.97	3663
824.11	3614
824.25	3584
824.389	3629
824.529	3660
824.669	3603
824.809	3648
824.949	3724
825.089	3823
825.228	3717
825.368	3587
825.508	3500
825.648	3606
825.787	3606
825.927	3618
826.067	3622
826.206	3644
826.346	3789
826.485	3804
826.625	3827
826.765	3937
826.904	3846
827.044	3644
827.183	3519
827.323	3435
827.462	3496
827.601	3409
827.741	3405
827.88	3473
828.02	3409
828.159	3454
828.298	3485
828.437	3568
828.577	3454
828.716	3587
828.855	3466
828.994	3348
829.134	3355
829.273	3363
829.412	3344
829.551	3325
829.69	3374
829.829	3401
829.968	3526
830.107	3431
830.246	3458
830.385	3378
830.524	3348
830.663	3306
830.802	3260
830.941	3233
831.08	3207
831.219	3253
831.357	3218
831.496	3412
831.635	3237
831.774	3161
831.913	3237
832.051	3097
832.19	3127
832.329	3180
832.467	3157
832.606	3123
832.744	3173
832.883	3184
833.022	3142
833.16	3272
833.299	3302
833.437	3332
833.576	3370
833.714	3393
833.852	3409
833.991	3462
834.129	3447
834.267	3424
834.406	3370
834.544	3428
834.682	3405
834.821	3344
834.959	3538
835.097	3420
835.235	3545
835.373	3496
835.511	3473
835.65	3450
835.788	3473
835.926	3439
836.064	3367
836.202	3397
836.34	3568
836.478	3595
836.615	3553
836.753	3580
836.891	3644
837.029	3572
837.167	3564
837.305	3564
837.443	3572
837.58	3515
837.718	3637
837.856	3496
837.993	3576
838.131	3549
838.269	3610
838.406	3572
838.544	3587
838.681	3466
838.819	3485
838.956	3397
839.094	3370
839.231	3450
839.369	3496
839.506	3701
839.643	3625
839.781	3504
839.918	3458
840.055	3519
840.193	3564
840.33	3534
840.467	3549
840.604	3610
840.742	3778
840.879	3568
841.016	3572
841.153	3599
841.29	3751
841.427	3694
841.564	3720
841.701	3709
841.838	3701
841.975	3686
842.112	3705
842.249	3633
842.385	3663
842.522	3816
842.659	3736
842.796	3656
842.933	3705
843.069	3694
843.206	3663
843.343	3800
843.479	3793
843.616	3800
843.752	3660
843.889	3656
844.025	3808
844.162	3705
844.298	3808
844.435	3766
844.571	3766
844.708	3918
844.844	3968
844.98	4006
845.117	4032
845.253	3945
845.389	3873
845.525	3953
845.661	3975
845.798	3922
845.934	3994
846.07	3945
846.206	4067
846.342	4086
846.478	4048
846.614	3987
846.75	3907
846.886	3861
847.022	4029
847.158	3956
847.294	3949
847.429	3994
847.565	3991
847.701	4219
847.837	3903
847.972	3869
848.108	3937
848.244	3994
848.379	3842
848.515	3850
848.65	3789
848.786	3846
848.921	3823
849.057	3983
849.192	3956
849.328	3934
849.463	3911
849.598	3918
849.734	3869
849.869	3819
850.004	3808
850.14	3831
850.275	3759
850.41	3759
850.545	3759
850.68	3759
850.815	3774
850.95	3781
851.085	3922
851.22	3892
851.355	3804
851.49	3762
851.625	3819
851.76	3808
851.895	3732
852.03	3698
852.165	3884
852.299	3827
852.434	3907
852.569	3838
852.703	3850
852.838	3899
852.973	3972
853.107	3972
853.242	3892
853.376	3804
853.511	3762
853.645	3808
853.78	3934
853.914	3911
854.048	3907
854.183	3838
854.317	3937
854.451	4074
854.585	3975
854.72	3972
854.854	4025
854.988	3945
855.122	4013
855.256	3896
855.39	4036
855.524	4082
855.658	4112
855.792	4101
855.926	4169
856.06	4234
856.194	4166
856.327	4162
856.461	4128
856.595	4143
856.729	4162
856.862	4303
856.996	4192
857.13	4257
857.263	4344
857.397	4375
857.53	4287
857.664	4356
857.797	4383
857.931	4352
858.064	4409
858.197	4466
858.331	4386
858.464	4383
858.597	4348
858.731	4447
858.864	4424
858.997	4428
859.13	4493
859.263	4512
859.396	4565
859.529	4535
859.662	4531
859.795	4504
859.928	4641
860.061	4702
860.194	4736
860.327	4637
860.46	4634
860.592	4706
860.725	4706
860.858	4774
860.99	4687
861.123	4656
861.256	4714
861.388	4759
861.521	5376
861.653	4706
861.786	4714
861.918	4698
862.05	4767
862.183	4816
862.315	4854
862.447	4953
862.58	4831
862.712	4782
862.844	4744
862.976	4831
863.108	4866
863.24	5201
863.372	4828
863.504	4892
863.636	4850
863.768	4980
863.9	4987
864.032	4957
864.164	4995
864.296	5018
864.428	5071
864.559	5113
864.691	5086
864.823	5113
864.954	5094
865.086	5117
865.217	5170
865.349	5113
865.48	5208
865.612	5166
865.743	5299
865.875	5235
866.006	5178
866.137	5204
866.269	5208
866.4	5208
866.531	5235
866.662	5227
866.793	5315
866.924	5212
867.055	5330
867.186	5398
867.317	5288
867.448	5299
867.579	5372
867.71	5376
867.841	5372
867.972	5467
868.103	5482
868.233	5459
868.364	5463
868.495	5482
868.625	5668
868.756	5733
868.886	5657
869.017	5699
869.147	5813
869.278	5809
869.408	5798
869.539	5870
869.669	5866
869.799	5958
869.929	6026
870.06	5999
870.19	6205
870.32	6213
870.45	6239
870.58	6346
870.71	6452
870.84	6486
870.97	6429
871.1	6433
871.23	6658
871.36	6711
871.489	6658
871.619	6760
871.749	6787
871.879	6856
872.008	6989
872.138	6981
872.267	6947
872.397	6989
872.526	7027
872.656	7099
872.785	7133
872.915	7415
873.044	7476
873.173	7575
873.303	7639
873.432	7685
873.561	7849
873.69	7906
873.819	8016
873.948	8065
874.077	8229
874.206	8328
874.335	8351
874.464	8693
874.593	8845
874.722	8941
874.851	9180
874.979	9291
875.108	9359
875.237	9386
875.365	9481
875.494	9530
875.623	9842
875.751	9793
875.88	10006
876.008	10093
876.136	10272
876.265	10569
876.393	10668
876.521	10736
876.65	10812
876.778	10869
876.906	10828
877.034	10957
877.162	11162
877.29	11067
877.418	11235
877.546	11288
877.674	11471
877.802	11467
877.93	11547
878.058	11589
878.185	11535
878.313	11649
878.441	11752
878.568	11684
878.696	11767
878.824	11878
878.951	11935
879.079	11984
879.206	12079
879.333	12003
879.461	12019
879.588	12079
879.715	12114
879.842	12144
879.97	12022
880.097	11901
880.224	11843
880.351	11942
880.478	11893
880.605	11897
880.732	11794
880.859	12003
880.986	11855
881.112	11855
881.239	11786
881.366	11684
881.493	11619
881.619	11547
881.746	11604
881.872	11509
881.999	11493
882.125	11486
882.252	11547
882.378	11520
882.505	11543
882.631	11433
882.757	11318
882.883	11265
883.01	11258
883.136	11220
883.262	11128
883.388	11113
883.514	11318
883.64	11090
883.766	11124
883.892	11010
884.018	11048
884.143	11022
884.269	11090
884.395	10847
884.52	10767
884.646	10752
884.772	10752
884.897	10653
885.023	10714
885.148	10790
885.274	10759
885.399	10653
885.524	10618
885.65	10569
885.775	10523
885.9	10626
886.025	10618
886.15	10599
886.275	10455
886.4	10443
886.525	10436
886.65	10371
886.775	10348
886.9	10462
887.025	10497
887.149	10322
887.274	10204
887.399	10261
887.523	10147
887.648	10112
887.773	10086
887.897	10234
888.021	10238
888.146	10109
888.27	10135
888.395	10158
888.519	10158
888.643	10128
888.767	10242
888.891	10082
889.015	10063
889.139	10010
889.263	9960
889.387	10109
889.511	10071
889.635	10074
889.759	9956
889.883	10017
890.006	10021
890.13	10120
890.254	9934
890.377	9941
890.501	9842
890.624	9930
890.748	9899
890.871	9793
890.995	9755
891.118	9717
891.241	9675
891.364	9720
891.488	9861
891.611	9781
891.734	9705
891.857	9736
891.98	9720
892.103	9827
892.226	9747
892.349	9736
892.471	9530
892.594	9538
892.717	9576
892.839	9606
892.962	9614
893.085	9622
893.207	9549
893.33	9500
893.452	9420
893.575	9557
893.697	9488
893.819	9587
893.941	9530
894.064	9542
894.186	9408
894.308	9420
894.43	9526
894.552	9580
894.674	9496
894.796	9367
894.918	9401
895.04	9313
895.161	9272
895.283	9306
895.405	9256
895.526	9237
895.648	9268
895.769	9241
895.891	9317
896.012	9230
896.134	9192
896.255	9214
896.376	9119
896.498	9135
896.619	9154
896.74	9013
896.861	9051
896.982	9249
897.103	9161
897.224	9108
897.345	9009
897.466	8979
897.587	9005
897.708	9055
897.828	9020
897.949	8937
898.07	8864
898.19	8872
898.311	9047
898.431	8880
898.552	8861
898.672	8902
898.792	8902
898.913	8982
899.033	8857
899.153	8777
899.273	8648
899.393	8705
899.513	8697
899.633	8720
899.753	8754
899.873	8648
899.993	8735
900.113	8670
900.232	8689
900.352	8610
900.472	8583
900.591	8514
900.711	8617
900.83	8476
900.95	8697
901.069	8640
901.189	8518
901.308	8419
901.427	8396
901.546	8412
901.665	8480
901.784	8408
901.904	8362
902.023	8343
902.141	8183
902.26	8206
902.379	8244
902.498	8252
902.617	8229
902.735	8301
902.854	8252
902.973	8206
903.091	8081
903.21	8134
903.328	8183
903.446	8081
903.565	8138
903.683	8149
903.801	8058
903.919	8088
904.038	8138
904.156	8008
904.274	8058
904.392	8031
904.51	8069
904.627	8046
904.745	8073
904.863	8115
904.981	7982
905.098	7860
905.216	7864
905.334	7906
905.451	7868
905.569	7890
905.686	7940
905.803	7940
905.921	7795
906.038	7879
906.155	7765
906.272	7696
906.389	7700
906.506	7639
906.623	7594
906.74	7613
906.857	7529
906.974	7552
907.091	7693
907.208	7757
907.324	7636
907.441	7548
907.557	7392
907.674	7346
907.79	7422
907.907	7392
908.023	7441
908.139	7445
908.256	7327
908.372	7373
908.488	7339
908.604	7266
908.72	7251
908.836	7285
908.952	7255
909.068	7270
909.184	7324
909.3	7244
909.415	7282
909.531	7312
909.647	7084
909.762	7156
909.878	7012
909.993	7156
910.108	7145
910.224	7050
910.339	7095
910.454	7042
910.57	6993
910.685	6981
910.8	7129
910.915	7088
911.03	7031
911.145	6886
911.259	6875
911.374	6882
911.489	6821
911.604	6783
911.718	6726
911.833	6700
911.947	6650
912.062	6544
912.176	6711
912.291	6753
912.405	6654
912.519	6825
912.633	6829
912.748	6745
912.862	6688
912.976	6589
913.09	6517
913.204	6589
913.318	6662
913.431	6593
913.545	6741
913.659	6715
913.772	6620
913.886	6601
914	6574
914.113	6601
914.226	6631
914.34	6642
914.453	6513
914.566	6589
914.68	6559
914.793	6544
914.906	6372
915.019	6380
915.132	6388
915.245	6414
915.358	6433
915.47	6407
915.583	6456
915.696	6437
915.809	6502
915.921	6536
916.034	6388
916.146	6441
916.259	6311
916.371	6414
916.483	6452
916.595	6334
916.708	6391
916.82	6403
916.932	6403
917.044	6365
917.156	6426
917.268	6315
917.38	6319
917.491	6270
917.603	6304
917.715	6403
917.826	6407
917.938	6338
918.049	6220
918.161	6281
918.272	6384
918.384	6410
918.495	6308
918.606	6281
918.717	6251
918.828	6277
918.939	6334
919.05	6163
919.161	6228
919.272	6053
919.383	6095
919.494	6258
919.604	6418
919.715	6281
919.826	6224
919.936	6216
920.047	6399
920.157	6220
920.267	6448
920.378	6346
920.488	6285
920.598	6456
920.708	6544
920.818	6422
920.928	6414
921.038	6597
921.148	6597
921.258	6399
921.368	6254
921.477	6178
921.587	6136
921.697	6064
921.806	6201
921.916	6106
922.025	5946
922.134	5908
922.244	5874
922.353	5973
922.462	5859
922.571	5790
922.68	5684
922.789	5646
922.898	5737
923.007	5649
923.116	5691
923.224	5619
923.333	5638
923.442	5592
923.55	5551
923.659	5634
923.767	5596
923.876	5562
923.984	5623
924.092	5493
924.201	5528
924.309	5570
924.417	5611
924.525	5512
924.633	5505
924.741	6315
924.849	5360
924.956	5486
925.064	5337
925.172	5273
925.279	5349
925.387	5337
925.494	5284
925.602	5391
925.709	5372
925.816	5284
925.924	5360
926.031	5368
926.138	5315
926.245	5326
926.352	5239
926.459	5288
926.566	5353
926.673	5185
926.779	5105
926.886	5121
926.993	5033
927.099	5048
927.206	4949
927.312	4961
927.419	5025
927.525	4961
927.631	4968
927.737	4927
927.843	4786
927.95	4774
928.056	4850
928.162	4831
928.267	4801
928.373	5315
928.479	4862
928.585	4675
928.69	4767
928.796	4755
928.901	4637
929.007	4607
929.112	4622
929.218	4675
929.323	4596
929.428	4577
929.533	4615
929.638	4481
929.743	4554
929.848	4569
929.953	4497
930.058	4402
930.163	4341
930.267	4367
930.372	4413
930.477	4303
930.581	4447
930.685	4383
930.79	4227
930.894	4272
930.998	4268
931.103	4348
931.207	4071
931.311	4067
931.415	4044
931.519	3915
931.623	3968
