Data from glass_V78500241_2116.txt Node
Date: Wed Sep 01 19:29:10 CST 2021
User: usil
Spectrometer: V785-0024
Trigger mode: 0
Integration Time (sec): 4.000000E-1
Scans to average: 1
Nonlinearity correction enabled: false
Boxcar width: 0
Storing dark spectrum: false
XAxis mode: Wavelengths
Number of Pixels in Spectrum: 1024
>>>>>Begin Spectral Data<<<<<
801.071	3770
801.214	3751
801.356	3679
801.499	3717
801.641	3717
801.783	3778
801.926	3835
802.068	3827
802.211	3819
802.353	3915
802.496	3800
802.638	3850
802.78	3892
802.923	3934
803.065	3869
803.208	3842
803.35	3865
803.492	3857
803.635	3896
803.777	3831
803.919	3888
804.061	4112
804.204	3945
804.346	3953
804.488	3869
804.63	4013
804.773	3949
804.915	4002
805.057	4147
805.199	4013
805.341	4067
805.483	4128
805.626	4131
805.768	4105
805.91	4196
806.052	4196
806.194	4246
806.336	4318
806.478	4257
806.62	4162
806.762	4158
806.904	4219
807.046	4318
807.188	4169
807.33	4166
807.472	4238
807.614	4177
807.756	4303
807.898	4181
808.04	4227
808.182	4306
808.324	4322
808.465	4322
808.607	4470
808.749	4405
808.891	4497
809.033	4497
809.174	4371
809.316	4257
809.458	4257
809.6	4158
809.741	4181
809.883	4166
810.025	4230
810.166	4230
810.308	4204
810.45	4204
810.591	4192
810.733	4299
810.875	4485
811.016	4763
811.158	5166
811.299	5258
811.441	5303
811.582	5113
811.724	4660
811.865	4451
812.007	4504
812.148	4421
812.29	4379
812.431	4424
812.573	4409
812.714	4306
812.855	4459
812.997	4466
813.138	4462
813.279	4386
813.421	4402
813.562	4371
813.703	4333
813.845	4329
813.986	4280
814.127	4204
814.268	4265
814.41	4280
814.551	4287
814.692	4333
814.833	4249
814.974	4295
815.115	4325
815.256	4234
815.397	4242
815.539	4253
815.68	4158
815.821	4227
815.962	4306
816.103	4280
816.244	4227
816.385	4207
816.526	4253
816.666	4238
816.807	4074
816.948	4162
817.089	4154
817.23	4093
817.371	4017
817.512	4048
817.653	4082
817.793	4013
817.934	4048
818.075	4067
818.216	4097
818.356	4074
818.497	4006
818.638	3934
818.778	3915
818.919	3930
819.06	3892
819.2	3922
819.341	3857
819.481	3808
819.622	3918
819.762	3994
819.903	3930
820.043	3850
820.184	3778
820.324	3789
820.465	3827
820.605	3835
820.746	3846
820.886	3808
821.026	3899
821.167	3903
821.307	3930
821.447	3987
821.588	3956
821.728	3918
821.868	3937
822.008	3892
822.149	3884
822.289	3896
822.429	3785
822.569	3740
822.709	3804
822.849	3705
822.99	3728
823.13	3720
823.27	3755
823.41	3705
823.55	3732
823.69	3701
823.83	3717
823.97	3648
824.11	3606
824.25	3599
824.389	3614
824.529	3648
824.669	3663
824.809	3686
824.949	3694
825.089	3720
825.228	3671
825.368	3538
825.508	3606
825.648	3557
825.787	3637
825.927	3637
826.067	3625
826.206	3625
826.346	3797
826.485	3819
826.625	3819
826.765	3911
826.904	3804
827.044	3622
827.183	3515
827.323	3412
827.462	3492
827.601	3416
827.741	3428
827.88	3450
828.02	3348
828.159	3450
828.298	3477
828.437	3542
828.577	3496
828.716	3568
828.855	3443
828.994	3359
829.134	3344
829.273	3431
829.412	3325
829.551	3332
829.69	3370
829.829	3405
829.968	3466
830.107	3439
830.246	3412
830.385	3397
830.524	3348
830.663	3298
830.802	3264
830.941	3176
831.08	3199
831.219	3260
831.357	3272
831.496	3378
831.635	3241
831.774	3135
831.913	3199
832.051	3127
832.19	3131
832.329	3192
832.467	3108
832.606	3089
832.744	3138
832.883	3131
833.022	3195
833.16	3192
833.299	3287
833.437	3359
833.576	3332
833.714	3389
833.852	3420
833.991	3412
834.129	3454
834.267	3424
834.406	3374
834.544	3428
834.682	3386
834.821	3412
834.959	3549
835.097	3409
835.235	3496
835.373	3511
835.511	3481
835.65	3447
835.788	3504
835.926	3386
836.064	3393
836.202	3412
836.34	3545
836.478	3614
836.615	3545
836.753	3576
836.891	3633
837.029	3557
837.167	3591
837.305	3538
837.443	3534
837.58	3454
837.718	3622
837.856	3504
837.993	3557
838.131	3622
838.269	3568
838.406	3534
838.544	3561
838.681	3462
838.819	3462
838.956	3374
839.094	3374
839.231	3431
839.369	3519
839.506	3701
839.643	3629
839.781	3500
839.918	3450
840.055	3523
840.193	3519
840.33	3496
840.467	3587
840.604	3564
840.742	3789
840.879	3507
841.016	3545
841.153	3603
841.29	3705
841.427	3686
841.564	3740
841.701	3766
841.838	3698
841.975	3656
842.112	3705
842.249	3671
842.385	3637
842.522	3838
842.659	3660
842.796	3694
842.933	3720
843.069	3717
843.206	3675
843.343	3827
843.479	3781
843.616	3770
843.752	3648
843.889	3656
844.025	3846
844.162	3717
844.298	3846
844.435	3816
844.571	3766
844.708	3888
844.844	3975
844.98	4025
845.117	3998
845.253	3930
845.389	3896
845.525	3937
845.661	3987
845.798	3873
845.934	3964
846.07	3956
846.206	4025
846.342	4143
846.478	4006
846.614	3960
846.75	3972
846.886	3896
847.022	4002
847.158	3979
847.294	3983
847.429	4040
847.565	4017
847.701	4227
847.837	3873
847.972	3907
848.108	4013
848.244	3975
848.379	3899
848.515	3781
848.65	3850
848.786	3865
848.921	3873
849.057	3861
849.192	3918
849.328	3907
849.463	3903
849.598	3884
849.734	3865
849.869	3793
850.004	3770
850.14	3816
850.275	3789
850.41	3781
850.545	3720
850.68	3800
850.815	3755
850.95	3789
851.085	3899
851.22	3854
851.355	3823
851.49	3743
851.625	3835
851.76	3770
851.895	3747
852.03	3762
852.165	3774
852.299	3873
852.434	3918
852.569	3838
852.703	3899
852.838	3953
852.973	3960
853.107	3953
853.242	3861
853.376	3850
853.511	3770
853.645	3835
853.78	3949
853.914	3892
854.048	3892
854.183	3888
854.317	3964
854.451	4044
854.585	3953
854.72	3918
854.854	4044
854.988	3949
855.122	3998
855.256	3911
855.39	4010
855.524	4131
855.658	4097
855.792	4093
855.926	4139
856.06	4177
856.194	4219
856.327	4139
856.461	4124
856.595	4150
856.729	4185
856.862	4227
856.996	4249
857.13	4295
857.263	4348
857.397	4344
857.53	4318
857.664	4329
857.797	4394
857.931	4394
858.064	4390
858.197	4443
858.331	4386
858.464	4417
858.597	4318
858.731	4455
858.864	4478
858.997	4459
859.13	4535
859.263	4478
859.396	4561
859.529	4504
859.662	4523
859.795	4512
859.928	4584
860.061	4668
860.194	4759
860.327	4653
860.46	4649
860.592	4710
860.725	4755
860.858	4748
860.99	4694
861.123	4702
861.256	4675
861.388	4774
861.521	5436
861.653	4679
861.786	4694
861.918	4755
862.05	4786
862.183	4797
862.315	4896
862.447	4892
862.58	4839
862.712	4755
862.844	4759
862.976	4858
863.108	4843
863.24	5143
863.372	4828
863.504	4881
863.636	4904
863.768	5010
863.9	4911
864.032	4923
864.164	5018
864.296	5003
864.428	5094
864.559	5090
864.691	5117
864.823	5162
864.954	5079
865.086	5143
865.217	5098
865.349	5105
865.48	5147
865.612	5170
865.743	5261
865.875	5166
866.006	5189
866.137	5223
866.269	5258
866.4	5261
866.531	5220
866.662	5212
866.793	5235
866.924	5311
867.055	5334
867.186	5376
867.317	5273
867.448	5231
867.579	5395
867.71	5330
867.841	5330
867.972	5440
868.103	5455
868.233	5490
868.364	5505
868.495	5543
868.625	5604
868.756	5748
868.886	5699
869.017	5699
869.147	5893
869.278	5847
869.408	5802
869.539	5821
869.669	5863
869.799	5882
869.929	5992
870.06	6022
870.19	6152
870.32	6182
870.45	6254
870.58	6300
870.71	6384
870.84	6475
870.97	6403
871.1	6502
871.23	6597
871.36	6677
871.489	6639
871.619	6692
871.749	6818
871.879	6882
872.008	6996
872.138	6894
872.267	7057
872.397	6973
872.526	7012
872.656	7080
872.785	7206
872.915	7377
873.044	7518
873.173	7567
873.303	7639
873.432	7734
873.561	7849
873.69	7928
873.819	8020
873.948	8145
874.077	8309
874.206	8339
874.335	8423
874.464	8712
874.593	8918
874.722	8861
874.851	9100
874.979	9264
875.108	9306
875.237	9359
875.365	9519
875.494	9701
875.623	9869
875.751	9831
875.88	10032
876.008	10139
876.136	10310
876.265	10489
876.393	10706
876.521	10717
876.65	10763
876.778	10793
876.906	10858
877.034	10965
877.162	11052
877.29	11086
877.418	11239
877.546	11402
877.674	11414
877.802	11493
877.93	11638
878.058	11577
878.185	11509
878.313	11653
878.441	11646
878.568	11672
878.696	11832
878.824	11809
878.951	11912
879.079	12026
879.206	12140
879.333	12110
879.461	11946
879.588	12072
879.715	12083
879.842	12251
879.97	12095
880.097	11794
880.224	11916
880.351	11908
880.478	11802
880.605	11855
880.732	11794
880.859	12015
880.986	11790
881.112	11901
881.239	11642
881.366	11630
881.493	11608
881.619	11581
881.746	11493
881.872	11551
881.999	11589
882.125	11455
882.252	11608
882.378	11566
882.505	11668
882.631	11398
882.757	11368
882.883	11223
883.01	11178
883.136	11166
883.262	11071
883.388	11045
883.514	11113
883.64	11185
883.766	11102
883.892	10972
884.018	10915
884.143	11010
884.269	11143
884.395	10858
884.52	10843
884.646	10774
884.772	10683
884.897	10645
885.023	10641
885.148	10755
885.274	10725
885.399	10740
885.524	10626
885.65	10630
885.775	10603
885.9	10573
886.025	10599
886.15	10542
886.275	10500
886.4	10348
886.525	10417
886.65	10352
886.775	10356
886.9	10394
887.025	10485
887.149	10322
887.274	10204
887.399	10169
887.523	10162
887.648	10181
887.773	10093
887.897	10204
888.021	10306
888.146	10002
888.27	10143
888.395	10215
888.519	10162
888.643	10154
888.767	10143
888.891	10116
889.015	10006
889.139	10090
889.263	10021
889.387	10025
889.511	10093
889.635	9998
889.759	10010
889.883	9945
890.006	9991
890.13	10063
890.254	9949
890.377	9994
890.501	9899
890.624	9907
890.748	9899
890.871	9781
890.995	9774
891.118	9743
891.241	9831
891.364	9724
891.488	9797
891.611	9694
891.734	9675
891.857	9800
891.98	9732
892.103	9857
892.226	9740
892.349	9606
892.471	9439
892.594	9576
892.717	9606
892.839	9618
892.962	9614
893.085	9663
893.207	9572
893.33	9485
893.452	9504
893.575	9580
893.697	9526
893.819	9618
893.941	9572
894.064	9595
894.186	9412
894.308	9439
894.43	9424
894.552	9576
894.674	9473
894.796	9424
894.918	9439
895.04	9249
895.161	9405
895.283	9306
895.405	9207
895.526	9264
895.648	9272
895.769	9253
895.891	9283
896.012	9298
896.134	9180
896.255	9173
896.376	9138
896.498	9116
896.619	9127
896.74	9058
896.861	9157
896.982	9211
897.103	9272
897.224	9150
897.345	9093
897.466	8933
897.587	9005
897.708	8971
897.828	9001
897.949	8979
898.07	8811
898.19	8902
898.311	9005
898.431	8819
898.552	8963
898.672	8998
898.792	8910
898.913	8880
899.033	8769
899.153	8731
899.273	8716
899.393	8708
899.513	8712
899.633	8663
899.753	8720
899.873	8739
899.993	8720
900.113	8750
900.232	8678
900.352	8670
900.472	8587
900.591	8594
900.711	8568
900.83	8492
900.95	8602
901.069	8708
901.189	8590
901.308	8442
901.427	8358
901.546	8427
901.665	8476
901.784	8526
901.904	8374
902.023	8343
902.141	8214
902.26	8161
902.379	8351
902.498	8195
902.617	8183
902.735	8286
902.854	8343
902.973	8233
903.091	8157
903.21	8180
903.328	8157
903.446	8115
903.565	8008
903.683	8084
903.801	8069
903.919	8088
904.038	8134
904.156	8050
904.274	8062
904.392	8020
904.51	8001
904.627	8031
904.745	8084
904.863	8050
904.981	7921
905.098	7814
905.216	7814
905.334	7856
905.451	7811
905.569	7902
905.686	7898
905.803	7940
905.921	7822
906.038	7784
906.155	7799
906.272	7700
906.389	7712
906.506	7655
906.623	7605
906.74	7578
906.857	7544
906.974	7590
907.091	7616
907.208	7746
907.324	7590
907.441	7567
907.557	7521
907.674	7434
907.79	7373
907.907	7388
908.023	7365
908.139	7419
908.256	7407
908.372	7327
908.488	7346
908.604	7285
908.72	7232
908.836	7194
908.952	7198
909.068	7274
909.184	7259
909.3	7289
909.415	7339
909.531	7244
909.647	7122
909.762	7118
909.878	7031
909.993	7091
910.108	7019
910.224	7107
910.339	7118
910.454	7050
910.57	6981
910.685	6913
910.8	7202
910.915	7122
911.03	6966
911.145	6890
911.259	6859
911.374	6825
911.489	6791
911.604	6825
911.718	6703
911.833	6684
911.947	6673
912.062	6597
912.176	6700
912.291	6734
912.405	6665
912.519	6844
912.633	6837
912.748	6757
912.862	6658
912.976	6601
913.09	6452
913.204	6547
913.318	6570
913.431	6635
913.545	6593
913.659	6700
913.772	6688
913.886	6566
914	6582
914.113	6566
914.226	6627
914.34	6490
914.453	6464
914.566	6597
914.68	6502
914.793	6566
914.906	6399
915.019	6369
915.132	6395
915.245	6433
915.358	6448
915.47	6460
915.583	6452
915.696	6490
915.809	6566
915.921	6559
916.034	6403
916.146	6388
916.259	6353
916.371	6460
916.483	6407
916.595	6346
916.708	6437
916.82	6452
916.932	6369
917.044	6407
917.156	6414
917.268	6334
917.38	6319
917.491	6334
917.603	6319
917.715	6399
917.826	6410
917.938	6338
918.049	6254
918.161	6327
918.272	6353
918.384	6426
918.495	6369
918.606	6266
918.717	6194
918.828	6277
918.939	6239
919.05	6163
919.161	6239
919.272	6098
919.383	6186
919.494	6304
919.604	6361
919.715	6232
919.826	6243
919.936	6277
920.047	6311
920.157	6285
920.267	6502
920.378	6331
920.488	6292
920.598	6426
920.708	6498
920.818	6460
920.928	6441
921.038	6635
921.148	6555
921.258	6338
921.368	6232
921.477	6213
921.587	6121
921.697	6106
921.806	6121
921.916	6117
922.025	5923
922.134	5882
922.244	5844
922.353	5931
922.462	5786
922.571	5809
922.68	5729
922.789	5646
922.898	5737
923.007	5653
923.116	5668
923.224	5649
923.333	5653
923.442	5600
923.55	5581
923.659	5596
923.767	5649
923.876	5524
923.984	5611
924.092	5455
924.201	5566
924.309	5585
924.417	5543
924.525	5459
924.633	5539
924.741	6308
924.849	5406
924.956	5429
925.064	5341
925.172	5288
925.279	5315
925.387	5334
925.494	5292
925.602	5414
925.709	5395
925.816	5280
925.924	5357
926.031	5406
926.138	5296
926.245	5341
926.352	5216
926.459	5345
926.566	5296
926.673	5204
926.779	5159
926.886	5136
926.993	4999
927.099	4987
927.206	4957
927.312	4942
927.419	5022
927.525	4995
927.631	4968
927.737	4915
927.843	4843
927.95	4748
928.056	4816
928.162	4782
928.267	4854
928.373	5315
928.479	4850
928.585	4729
928.69	4767
928.796	4759
928.901	4668
929.007	4630
929.112	4603
929.218	4615
929.323	4603
929.428	4538
929.533	4706
929.638	4546
929.743	4573
929.848	4508
929.953	4497
930.058	4402
930.163	4272
930.267	4325
930.372	4428
930.477	4291
930.581	4451
930.685	4371
930.79	4234
930.894	4306
930.998	4204
931.103	4383
931.207	4093
931.311	4090
931.415	4036
931.519	3956
931.623	3937
