Data from glass_V78500241_1233.txt Node
Date: Wed Sep 01 19:23:02 CST 2021
User: usil
Spectrometer: V785-0024
Trigger mode: 0
Integration Time (sec): 4.000000E-1
Scans to average: 1
Nonlinearity correction enabled: false
Boxcar width: 0
Storing dark spectrum: false
XAxis mode: Wavelengths
Number of Pixels in Spectrum: 1024
>>>>>Begin Spectral Data<<<<<
801.071	3740
801.214	3785
801.356	3740
801.499	3816
801.641	3690
801.783	3724
801.926	3865
802.068	3823
802.211	3861
802.353	3911
802.496	3846
802.638	3896
802.78	3854
802.923	3953
803.065	3930
803.208	3876
803.35	3922
803.492	3926
803.635	3918
803.777	3781
803.919	3922
804.061	4150
804.204	3937
804.346	3941
804.488	3960
804.63	4055
804.773	3987
804.915	4036
805.057	4169
805.199	4010
805.341	4059
805.483	4169
805.626	4173
805.768	4120
805.91	4200
806.052	4284
806.194	4177
806.336	4360
806.478	4223
806.62	4177
806.762	4181
806.904	4287
807.046	4322
807.188	4257
807.33	4177
807.472	4265
807.614	4192
807.756	4280
807.898	4215
808.04	4223
808.182	4284
808.324	4333
808.465	4386
808.607	4474
808.749	4413
808.891	4474
809.033	4508
809.174	4440
809.316	4265
809.458	4219
809.6	4147
809.741	4112
809.883	4158
810.025	4230
810.166	4253
810.308	4246
810.45	4257
810.591	4249
810.733	4268
810.875	4527
811.016	4809
811.158	5124
811.299	5315
811.441	5376
811.582	5041
811.724	4725
811.865	4478
812.007	4478
812.148	4436
812.29	4390
812.431	4405
812.573	4402
812.714	4398
812.855	4455
812.997	4424
813.138	4466
813.279	4451
813.421	4383
813.562	4398
813.703	4329
813.845	4352
813.986	4238
814.127	4227
814.268	4261
814.41	4303
814.551	4230
814.692	4379
814.833	4329
814.974	4318
815.115	4341
815.256	4242
815.397	4246
815.539	4234
815.68	4207
815.821	4185
815.962	4329
816.103	4299
816.244	4257
816.385	4276
816.526	4291
816.666	4246
816.807	4063
816.948	4177
817.089	4135
817.23	4093
817.371	4048
817.512	4071
817.653	4086
817.793	4036
817.934	4051
818.075	4124
818.216	4067
818.356	4120
818.497	4029
818.638	3926
818.778	3941
818.919	3903
819.06	3899
819.2	3941
819.341	3842
819.481	3861
819.622	3915
819.762	3987
819.903	3960
820.043	3854
820.184	3850
820.324	3835
820.465	3907
820.605	3854
820.746	3865
820.886	3819
821.026	3949
821.167	3892
821.307	4017
821.447	3945
821.588	3994
821.728	3964
821.868	3892
822.008	3857
822.149	3945
822.289	3903
822.429	3762
822.569	3743
822.709	3816
822.849	3720
822.99	3720
823.13	3762
823.27	3770
823.41	3713
823.55	3717
823.69	3740
823.83	3781
823.97	3686
824.11	3595
824.25	3595
824.389	3682
824.529	3679
824.669	3641
824.809	3720
824.949	3743
825.089	3740
825.228	3690
825.368	3606
825.508	3580
825.648	3557
825.787	3618
825.927	3603
826.067	3606
826.206	3671
826.346	3778
826.485	3812
826.625	3850
826.765	3964
826.904	3850
827.044	3591
827.183	3523
827.323	3416
827.462	3507
827.601	3405
827.741	3439
827.88	3519
828.02	3397
828.159	3409
828.298	3542
828.437	3504
828.577	3458
828.716	3663
828.855	3481
828.994	3363
829.134	3348
829.273	3412
829.412	3386
829.551	3397
829.69	3367
829.829	3481
829.968	3507
830.107	3416
830.246	3450
830.385	3393
830.524	3351
830.663	3332
830.802	3272
830.941	3218
831.08	3176
831.219	3253
831.357	3279
831.496	3405
831.635	3222
831.774	3161
831.913	3180
832.051	3161
832.19	3161
832.329	3207
832.467	3116
832.606	3127
832.744	3157
832.883	3226
833.022	3222
833.16	3226
833.299	3340
833.437	3351
833.576	3367
833.714	3389
833.852	3435
833.991	3424
834.129	3454
834.267	3435
834.406	3447
834.544	3439
834.682	3424
834.821	3416
834.959	3564
835.097	3401
835.235	3507
835.373	3496
835.511	3496
835.65	3504
835.788	3462
835.926	3382
836.064	3340
836.202	3435
836.34	3587
836.478	3610
836.615	3515
836.753	3644
836.891	3629
837.029	3618
837.167	3568
837.305	3542
837.443	3534
837.58	3488
837.718	3584
837.856	3568
837.993	3553
838.131	3599
838.269	3576
838.406	3603
838.544	3595
838.681	3481
838.819	3439
838.956	3355
839.094	3409
839.231	3462
839.369	3538
839.506	3743
839.643	3652
839.781	3481
839.918	3469
840.055	3545
840.193	3511
840.33	3523
840.467	3572
840.604	3610
840.742	3812
840.879	3549
841.016	3568
841.153	3606
841.29	3812
841.427	3720
841.564	3759
841.701	3747
841.838	3694
841.975	3679
842.112	3713
842.249	3671
842.385	3641
842.522	3850
842.659	3709
842.796	3663
842.933	3747
843.069	3709
843.206	3709
843.343	3812
843.479	3781
843.616	3835
843.752	3682
843.889	3713
844.025	3865
844.162	3663
844.298	3846
844.435	3766
844.571	3778
844.708	3926
844.844	3968
844.98	4006
845.117	4078
845.253	3918
845.389	3907
845.525	3937
845.661	3987
845.798	3930
845.934	3968
846.07	3968
846.206	4055
846.342	4105
846.478	4078
846.614	3972
846.75	3945
846.886	3922
847.022	4063
847.158	4013
847.294	4006
847.429	4002
847.565	3979
847.701	4242
847.837	3869
847.972	3899
848.108	3968
848.244	3975
848.379	3850
848.515	3835
848.65	3835
848.786	3808
848.921	3857
849.057	3945
849.192	3911
849.328	3911
849.463	3945
849.598	3915
849.734	3838
849.869	3892
850.004	3850
850.14	3838
850.275	3800
850.41	3747
850.545	3740
850.68	3800
850.815	3789
850.95	3808
851.085	3896
851.22	3899
851.355	3808
851.49	3812
851.625	3785
851.76	3781
851.895	3766
852.03	3736
852.165	3804
852.299	3884
852.434	3873
852.569	3888
852.703	3861
852.838	3907
852.973	4044
853.107	4006
853.242	3922
853.376	3896
853.511	3819
853.645	3838
853.78	3972
853.914	3880
854.048	3911
854.183	3941
854.317	3934
854.451	4139
854.585	3953
854.72	3918
854.854	4055
854.988	3937
855.122	4017
855.256	3934
855.39	4059
855.524	4135
855.658	4109
855.792	4109
855.926	4131
856.06	4150
856.194	4181
856.327	4128
856.461	4131
856.595	4131
856.729	4211
856.862	4284
856.996	4249
857.13	4310
857.263	4337
857.397	4352
857.53	4295
857.664	4344
857.797	4398
857.931	4470
858.064	4398
858.197	4413
858.331	4440
858.464	4409
858.597	4386
858.731	4436
858.864	4447
858.997	4485
859.13	4478
859.263	4493
859.396	4596
859.529	4546
859.662	4542
859.795	4512
859.928	4611
860.061	4675
860.194	4721
860.327	4668
860.46	4634
860.592	4683
860.725	4805
860.858	4774
860.99	4694
861.123	4733
861.256	4717
861.388	4797
861.521	5292
861.653	4729
861.786	4729
861.918	4733
862.05	4786
862.183	4816
862.315	4908
862.447	4930
862.58	4896
862.712	4801
862.844	4767
862.976	4889
863.108	4870
863.24	5246
863.372	4812
863.504	4900
863.636	4953
863.768	4999
863.9	4942
864.032	4953
864.164	4919
864.296	5075
864.428	5086
864.559	5094
864.691	5124
864.823	5090
864.954	5151
865.086	5117
865.217	5147
865.349	5147
865.48	5132
865.612	5208
865.743	5303
865.875	5254
866.006	5174
866.137	5258
866.269	5246
866.4	5273
866.531	5208
866.662	5307
866.793	5239
866.924	5265
867.055	5406
867.186	5379
867.317	5368
867.448	5341
867.579	5383
867.71	5417
867.841	5379
867.972	5440
868.103	5429
868.233	5448
868.364	5478
868.495	5551
868.625	5676
868.756	5767
868.886	5649
869.017	5707
869.147	5859
869.278	5863
869.408	5775
869.539	5817
869.669	5897
869.799	5958
869.929	5992
870.06	6007
870.19	6186
870.32	6194
870.45	6311
870.58	6361
870.71	6448
870.84	6410
870.97	6403
871.1	6479
871.23	6616
871.36	6719
871.489	6696
871.619	6726
871.749	6863
871.879	6901
872.008	7069
872.138	7015
872.267	7084
872.397	6966
872.526	6981
872.656	7061
872.785	7171
872.915	7441
873.044	7518
873.173	7571
873.303	7643
873.432	7746
873.561	7833
873.69	7951
873.819	8027
873.948	8176
874.077	8343
874.206	8351
874.335	8454
874.464	8674
874.593	8902
874.722	8880
874.851	9104
874.979	9222
875.108	9374
875.237	9401
875.365	9447
875.494	9660
875.623	9876
875.751	9789
875.88	10059
876.008	10192
876.136	10360
876.265	10516
876.393	10653
876.521	10668
876.65	10854
876.778	10919
876.906	10900
877.034	10995
877.162	11037
877.29	11102
877.418	11330
877.546	11387
877.674	11395
877.802	11592
877.93	11554
878.058	11615
878.185	11581
878.313	11611
878.441	11718
878.568	11722
878.696	11802
878.824	11859
878.951	11920
879.079	12045
879.206	12190
879.333	12034
879.461	12038
879.588	12106
879.715	12110
879.842	12175
879.97	12102
880.097	11843
880.224	11840
880.351	11893
880.478	11946
880.605	11836
880.732	11893
880.859	11950
880.986	11855
881.112	11828
881.239	11775
881.366	11665
881.493	11653
881.619	11589
881.746	11646
881.872	11604
881.999	11547
882.125	11425
882.252	11554
882.378	11619
882.505	11539
882.631	11356
882.757	11356
882.883	11368
883.01	11216
883.136	11166
883.262	11075
883.388	11128
883.514	11185
883.64	11132
883.766	11147
883.892	11003
884.018	10972
884.143	11083
884.269	11109
884.395	10858
884.52	10793
884.646	10831
884.772	10656
884.897	10675
885.023	10660
885.148	10603
885.274	10763
885.399	10778
885.524	10626
885.65	10603
885.775	10618
885.9	10637
886.025	10634
886.15	10626
886.275	10421
886.4	10417
886.525	10375
886.65	10356
886.775	10318
886.9	10500
887.025	10584
887.149	10390
887.274	10284
887.399	10234
887.523	10139
887.648	10120
887.773	10112
887.897	10265
888.021	10268
888.146	10124
888.27	10196
888.395	10268
888.519	10200
888.643	10196
888.767	10242
888.891	9994
889.015	10074
889.139	10090
889.263	10025
889.387	10158
889.511	10181
889.635	10082
889.759	9964
889.883	10059
890.006	10051
890.13	10063
890.254	9956
890.377	10017
890.501	9861
890.624	9873
890.748	9854
890.871	9850
890.995	9808
891.118	9736
891.241	9789
891.364	9728
891.488	9838
891.611	9724
891.734	9755
891.857	9766
891.98	9705
892.103	9717
892.226	9743
892.349	9751
892.471	9542
892.594	9603
892.717	9591
892.839	9599
892.962	9587
893.085	9656
893.207	9606
893.33	9530
893.452	9557
893.575	9641
893.697	9526
893.819	9610
893.941	9690
894.064	9587
894.186	9504
894.308	9447
894.43	9564
894.552	9568
894.674	9530
894.796	9393
894.918	9359
895.04	9351
895.161	9363
895.283	9313
895.405	9283
895.526	9275
895.648	9279
895.769	9226
895.891	9272
896.012	9245
896.134	9226
896.255	9199
896.376	9173
896.498	9180
896.619	9108
896.74	9070
896.861	9097
896.982	9287
897.103	9351
897.224	9173
897.345	9074
897.466	9112
897.587	9020
897.708	9074
897.828	9009
897.949	8948
898.07	8845
898.19	8948
898.311	8994
898.431	8906
898.552	8941
898.672	8918
898.792	9066
898.913	8883
899.033	8758
899.153	8731
899.273	8651
899.393	8762
899.513	8758
899.633	8800
899.753	8762
899.873	8758
899.993	8769
900.113	8712
900.232	8693
900.352	8727
900.472	8575
900.591	8621
900.711	8651
900.83	8522
900.95	8727
901.069	8686
901.189	8644
901.308	8495
901.427	8412
901.546	8400
901.665	8427
901.784	8518
901.904	8320
902.023	8374
902.141	8229
902.26	8233
902.379	8317
902.498	8202
902.617	8161
902.735	8259
902.854	8290
902.973	8263
903.091	8176
903.21	8168
903.328	8153
903.446	8134
903.565	8107
903.683	8065
903.801	8084
903.919	8123
904.038	8176
904.156	7997
904.274	8088
904.392	8031
904.51	8107
904.627	8024
904.745	8107
904.863	8069
904.981	7883
905.098	7879
905.216	7871
905.334	7906
905.451	7909
905.569	7913
905.686	7883
905.803	7940
905.921	7776
906.038	7970
906.155	7814
906.272	7750
906.389	7700
906.506	7639
906.623	7613
906.74	7647
906.857	7575
906.974	7559
907.091	7708
907.208	7731
907.324	7620
907.441	7575
907.557	7483
907.674	7480
907.79	7373
907.907	7426
908.023	7460
908.139	7472
908.256	7358
908.372	7373
908.488	7369
908.604	7289
908.72	7285
908.836	7301
908.952	7244
909.068	7289
909.184	7270
909.3	7259
909.415	7308
909.531	7308
909.647	7084
909.762	7156
909.878	7015
909.993	7107
910.108	7031
910.224	7133
910.339	7110
910.454	7012
910.57	6993
910.685	6962
910.8	7221
910.915	7091
911.03	7038
911.145	6932
911.259	6863
911.374	6863
911.489	6856
911.604	6802
911.718	6696
911.833	6753
911.947	6696
912.062	6593
912.176	6662
912.291	6719
912.405	6745
912.519	6783
912.633	6753
912.748	6715
912.862	6627
912.976	6601
913.09	6601
913.204	6620
913.318	6601
913.431	6692
913.545	6654
913.659	6722
913.772	6639
913.886	6620
914	6555
914.113	6623
914.226	6608
914.34	6601
914.453	6429
914.566	6627
914.68	6513
914.793	6547
914.906	6490
915.019	6403
915.132	6391
915.245	6486
915.358	6483
915.47	6422
915.583	6399
915.696	6532
915.809	6578
915.921	6532
916.034	6464
916.146	6414
916.259	6399
916.371	6494
916.483	6452
916.595	6410
916.708	6426
916.82	6407
916.932	6407
917.044	6407
917.156	6418
917.268	6361
917.38	6315
917.491	6300
917.603	6384
917.715	6437
917.826	6422
917.938	6323
918.049	6254
918.161	6338
918.272	6506
918.384	6479
918.495	6365
918.606	6243
918.717	6216
918.828	6266
918.939	6311
919.05	6213
919.161	6247
919.272	6186
919.383	6190
919.494	6296
919.604	6376
919.715	6296
919.826	6213
919.936	6289
920.047	6323
920.157	6247
920.267	6502
920.378	6357
920.488	6258
920.598	6448
920.708	6547
920.818	6422
920.928	6509
921.038	6593
921.148	6608
921.258	6334
921.368	6273
921.477	6205
921.587	6171
921.697	6072
921.806	6152
921.916	6049
922.025	5961
922.134	5916
922.244	5920
922.353	5973
922.462	5874
922.571	5817
922.68	5718
922.789	5756
922.898	5684
923.007	5646
923.116	5680
923.224	5676
923.333	5691
923.442	5642
923.55	5589
923.659	5592
923.767	5661
923.876	5532
923.984	5600
924.092	5520
924.201	5581
924.309	5573
924.417	5600
924.525	5478
924.633	5471
924.741	6213
924.849	5334
924.956	5535
925.064	5383
925.172	5261
925.279	5326
925.387	5364
925.494	5269
925.602	5391
925.709	5360
925.816	5273
925.924	5368
926.031	5349
926.138	5372
926.245	5322
926.352	5227
926.459	5353
926.566	5303
926.673	5216
926.779	5136
926.886	5174
926.993	5071
927.099	5048
927.206	4980
927.312	5003
927.419	4991
927.525	4984
927.631	4991
927.737	4915
927.843	4900
927.95	4801
928.056	4816
928.162	4847
928.267	4828
928.373	5368
928.479	4877
928.585	4702
928.69	4755
928.796	4805
928.901	4664
929.007	4630
929.112	4649
929.218	4656
929.323	4664
929.428	4573
929.533	4672
929.638	4527
929.743	4516
929.848	4558
929.953	4485
930.058	4402
930.163	4333
930.267	4344
930.372	4394
930.477	4322
930.581	4474
930.685	4383
930.79	4280
930.894	4276
930.998	4268
931.103	4371
931.207	4105
931.311	4135
931.415	4021
931.519	3945
931.623	3941
