Data from glass_V78500241_1259.txt Node
Date: Wed Sep 01 19:23:13 CST 2021
User: usil
Spectrometer: V785-0024
Trigger mode: 0
Integration Time (sec): 4.000000E-1
Scans to average: 1
Nonlinearity correction enabled: false
Boxcar width: 0
Storing dark spectrum: false
XAxis mode: Wavelengths
Number of Pixels in Spectrum: 1024
>>>>>Begin Spectral Data<<<<<
801.071	3778
801.214	3800
801.356	3663
801.499	3720
801.641	3713
801.783	3793
801.926	3903
802.068	3850
802.211	3861
802.353	3911
802.496	3831
802.638	3857
802.78	3903
802.923	3918
803.065	3911
803.208	3876
803.35	3892
803.492	3922
803.635	3918
803.777	3808
803.919	3869
804.061	4188
804.204	3979
804.346	3987
804.488	3926
804.63	4029
804.773	3979
804.915	3994
805.057	4169
805.199	4071
805.341	4101
805.483	4154
805.626	4169
805.768	4101
805.91	4207
806.052	4204
806.194	4154
806.336	4356
806.478	4268
806.62	4185
806.762	4188
806.904	4242
807.046	4310
807.188	4227
807.33	4185
807.472	4242
807.614	4188
807.756	4268
807.898	4223
808.04	4223
808.182	4268
808.324	4318
808.465	4417
808.607	4481
808.749	4462
808.891	4523
809.033	4542
809.174	4417
809.316	4306
809.458	4295
809.6	4147
809.741	4169
809.883	4109
810.025	4177
810.166	4246
810.308	4242
810.45	4249
810.591	4253
810.733	4246
810.875	4523
811.016	4816
811.158	5117
811.299	5288
811.441	5303
811.582	5102
811.724	4694
811.865	4432
812.007	4459
812.148	4413
812.29	4443
812.431	4447
812.573	4417
812.714	4386
812.855	4424
812.997	4379
813.138	4432
813.279	4386
813.421	4375
813.562	4375
813.703	4405
813.845	4325
813.986	4242
814.127	4223
814.268	4261
814.41	4287
814.551	4268
814.692	4314
814.833	4280
814.974	4314
815.115	4352
815.256	4215
815.397	4230
815.539	4272
815.68	4207
815.821	4204
815.962	4295
816.103	4341
816.244	4257
816.385	4257
816.526	4303
816.666	4215
816.807	4150
816.948	4211
817.089	4173
817.23	4128
817.371	4074
817.512	4051
817.653	4090
817.793	4048
817.934	4036
818.075	4135
818.216	4082
818.356	4074
818.497	4006
818.638	3918
818.778	3896
818.919	3861
819.06	3892
819.2	3934
819.341	3857
819.481	3846
819.622	3888
819.762	4017
819.903	3975
820.043	3884
820.184	3857
820.324	3842
820.465	3869
820.605	3842
820.746	3842
820.886	3842
821.026	3918
821.167	3930
821.307	3941
821.447	3960
821.588	3892
821.728	3945
821.868	3922
822.008	3873
822.149	3915
822.289	3930
822.429	3804
822.569	3755
822.709	3774
822.849	3690
822.99	3762
823.13	3762
823.27	3778
823.41	3728
823.55	3709
823.69	3732
823.83	3736
823.97	3660
824.11	3584
824.25	3599
824.389	3633
824.529	3663
824.669	3656
824.809	3728
824.949	3766
825.089	3736
825.228	3686
825.368	3561
825.508	3572
825.648	3587
825.787	3595
825.927	3660
826.067	3679
826.206	3656
826.346	3793
826.485	3808
826.625	3854
826.765	3926
826.904	3861
827.044	3656
827.183	3549
827.323	3500
827.462	3496
827.601	3469
827.741	3439
827.88	3439
828.02	3355
828.159	3424
828.298	3511
828.437	3526
828.577	3462
828.716	3648
828.855	3504
828.994	3393
829.134	3378
829.273	3374
829.412	3374
829.551	3397
829.69	3370
829.829	3447
829.968	3530
830.107	3458
830.246	3450
830.385	3370
830.524	3355
830.663	3313
830.802	3264
830.941	3218
831.08	3188
831.219	3264
831.357	3256
831.496	3424
831.635	3241
831.774	3188
831.913	3203
832.051	3169
832.19	3146
832.329	3230
832.467	3146
832.606	3097
832.744	3176
832.883	3180
833.022	3226
833.16	3233
833.299	3291
833.437	3306
833.576	3382
833.714	3447
833.852	3488
833.991	3469
834.129	3515
834.267	3458
834.406	3382
834.544	3462
834.682	3424
834.821	3416
834.959	3599
835.097	3397
835.235	3530
835.373	3496
835.511	3519
835.65	3469
835.788	3485
835.926	3428
836.064	3401
836.202	3401
836.34	3538
836.478	3633
836.615	3545
836.753	3591
836.891	3682
837.029	3629
837.167	3568
837.305	3564
837.443	3526
837.58	3526
837.718	3584
837.856	3545
837.993	3549
838.131	3572
838.269	3576
838.406	3545
838.544	3591
838.681	3412
838.819	3458
838.956	3401
839.094	3401
839.231	3511
839.369	3519
839.506	3736
839.643	3671
839.781	3492
839.918	3485
840.055	3526
840.193	3507
840.33	3549
840.467	3553
840.604	3595
840.742	3835
840.879	3526
841.016	3492
841.153	3622
841.29	3781
841.427	3709
841.564	3701
841.701	3766
841.838	3671
841.975	3724
842.112	3720
842.249	3618
842.385	3618
842.522	3850
842.659	3709
842.796	3713
842.933	3770
843.069	3743
843.206	3762
843.343	3778
843.479	3785
843.616	3850
843.752	3701
843.889	3682
844.025	3850
844.162	3709
844.298	3861
844.435	3743
844.571	3785
844.708	3896
844.844	3991
844.98	4048
845.117	3994
845.253	3937
845.389	3926
845.525	3975
845.661	3968
845.798	3968
845.934	3991
846.07	3998
846.206	4071
846.342	4124
846.478	4071
846.614	4025
846.75	3972
846.886	3922
847.022	4093
847.158	3975
847.294	4044
847.429	4002
847.565	4017
847.701	4272
847.837	3915
847.972	3888
848.108	3987
848.244	3972
848.379	3861
848.515	3835
848.65	3846
848.786	3835
848.921	3850
849.057	3945
849.192	3922
849.328	3899
849.463	3945
849.598	3949
849.734	3880
849.869	3823
850.004	3781
850.14	3831
850.275	3808
850.41	3755
850.545	3778
850.68	3835
850.815	3797
850.95	3846
851.085	3934
851.22	3876
851.355	3892
851.49	3797
851.625	3808
851.76	3823
851.895	3766
852.03	3781
852.165	3785
852.299	3857
852.434	3922
852.569	3873
852.703	3934
852.838	3941
852.973	3994
853.107	3987
853.242	3857
853.376	3808
853.511	3770
853.645	3842
853.78	3960
853.914	3922
854.048	3941
854.183	3907
854.317	3937
854.451	4074
854.585	4025
854.72	3960
854.854	4013
854.988	3987
855.122	3983
855.256	3915
855.39	4006
855.524	4101
855.658	4120
855.792	4086
855.926	4135
856.06	4158
856.194	4227
856.327	4162
856.461	4105
856.595	4196
856.729	4207
856.862	4291
856.996	4284
857.13	4325
857.263	4360
857.397	4383
857.53	4303
857.664	4341
857.797	4363
857.931	4428
858.064	4402
858.197	4451
858.331	4337
858.464	4333
858.597	4424
858.731	4493
858.864	4455
858.997	4466
859.13	4554
859.263	4504
859.396	4592
859.529	4497
859.662	4542
859.795	4489
859.928	4615
860.061	4672
860.194	4721
860.327	4622
860.46	4675
860.592	4774
860.725	4786
860.858	4767
860.99	4714
861.123	4744
861.256	4706
861.388	4744
861.521	5391
861.653	4767
861.786	4668
861.918	4725
862.05	4755
862.183	4850
862.315	4934
862.447	4938
862.58	4866
862.712	4793
862.844	4786
862.976	4911
863.108	4908
863.24	5235
863.372	4767
863.504	4870
863.636	4873
863.768	4987
863.9	4995
864.032	4965
864.164	4953
864.296	5006
864.428	5083
864.559	5113
864.691	5151
864.823	5128
864.954	5086
865.086	5143
865.217	5124
865.349	5117
865.48	5204
865.612	5204
865.743	5303
865.875	5189
866.006	5140
866.137	5273
866.269	5242
866.4	5265
866.531	5273
866.662	5235
866.793	5288
866.924	5341
867.055	5337
867.186	5322
867.317	5341
867.448	5284
867.579	5379
867.71	5372
867.841	5398
867.972	5463
868.103	5497
868.233	5471
868.364	5497
868.495	5524
868.625	5672
868.756	5798
868.886	5714
869.017	5733
869.147	5863
869.278	5870
869.408	5798
869.539	5874
869.669	5912
869.799	5961
869.929	5999
870.06	6049
870.19	6220
870.32	6201
870.45	6243
870.58	6311
870.71	6452
870.84	6513
870.97	6452
871.1	6509
871.23	6623
871.36	6662
871.489	6665
871.619	6749
871.749	6798
871.879	6848
872.008	6981
872.138	6985
872.267	6977
872.397	6996
872.526	7091
872.656	7069
872.785	7236
872.915	7396
873.044	7487
873.173	7556
873.303	7674
873.432	7738
873.561	7898
873.69	7894
873.819	8054
873.948	8233
874.077	8225
874.206	8286
874.335	8480
874.464	8724
874.593	8880
874.722	8842
874.851	9161
874.979	9279
875.108	9382
875.237	9485
875.365	9469
875.494	9736
875.623	9766
875.751	9827
875.88	10036
876.008	10177
876.136	10249
876.265	10527
876.393	10786
876.521	10793
876.65	10892
876.778	10869
876.906	10946
877.034	11041
877.162	11060
877.29	11094
877.418	11387
877.546	11376
877.674	11467
877.802	11459
877.93	11581
878.058	11608
878.185	11535
878.313	11623
878.441	11790
878.568	11680
878.696	11821
878.824	11813
878.951	11977
879.079	12022
879.206	12182
879.333	12026
879.461	11946
879.588	12053
879.715	12011
879.842	12232
879.97	12072
880.097	11885
880.224	11908
880.351	11965
880.478	11954
880.605	11802
880.732	11813
880.859	12045
880.986	11764
881.112	11832
881.239	11748
881.366	11676
881.493	11642
881.619	11493
881.746	11646
881.872	11532
881.999	11551
882.125	11547
882.252	11551
882.378	11611
882.505	11547
882.631	11360
882.757	11265
882.883	11334
883.01	11337
883.136	11166
883.262	11132
883.388	11041
883.514	11223
883.64	11155
883.766	11060
883.892	11003
884.018	11052
884.143	11121
884.269	11159
884.395	10835
884.52	10759
884.646	10755
884.772	10702
884.897	10653
885.023	10687
885.148	10717
885.274	10816
885.399	10653
885.524	10634
885.65	10588
885.775	10558
885.9	10584
886.025	10615
886.15	10542
886.275	10504
886.4	10402
886.525	10421
886.65	10413
886.775	10348
886.9	10497
887.025	10622
887.149	10348
887.274	10310
887.399	10223
887.523	10196
887.648	10192
887.773	10120
887.897	10280
888.021	10211
888.146	10154
888.27	10242
888.395	10166
888.519	10181
888.643	10272
888.767	10200
888.891	10093
889.015	10002
889.139	10082
889.263	9972
889.387	10097
889.511	10078
889.635	10124
889.759	9979
889.883	9964
890.006	9991
890.13	10082
890.254	9964
890.377	9979
890.501	9816
890.624	9873
890.748	9884
890.871	9785
890.995	9755
891.118	9751
891.241	9751
891.364	9762
891.488	9812
891.611	9717
891.734	9743
891.857	9698
891.98	9766
892.103	9755
892.226	9667
892.349	9663
892.471	9572
892.594	9595
892.717	9603
892.839	9587
892.962	9553
893.085	9595
893.207	9580
893.33	9511
893.452	9534
893.575	9644
893.697	9515
893.819	9572
893.941	9675
894.064	9641
894.186	9523
894.308	9458
894.43	9481
894.552	9542
894.674	9538
894.796	9412
894.918	9389
895.04	9405
895.161	9378
895.283	9351
895.405	9253
895.526	9272
895.648	9272
895.769	9283
895.891	9306
896.012	9241
896.134	9211
896.255	9108
896.376	9161
896.498	9180
896.619	9116
896.74	9119
896.861	9157
896.982	9405
897.103	9389
897.224	9146
897.345	9074
897.466	8944
897.587	9055
897.708	9066
897.828	9058
897.949	9020
898.07	8872
898.19	8853
898.311	8902
898.431	8906
898.552	8929
898.672	8975
898.792	8921
898.913	8960
899.033	8762
899.153	8739
899.273	8667
899.393	8746
899.513	8743
899.633	8758
899.753	8762
899.873	8750
899.993	8739
900.113	8716
900.232	8754
900.352	8621
900.472	8663
900.591	8564
900.711	8705
900.83	8545
900.95	8632
901.069	8705
901.189	8545
901.308	8423
901.427	8396
901.546	8446
901.665	8438
901.784	8541
901.904	8404
902.023	8309
902.141	8172
902.26	8214
902.379	8313
902.498	8161
902.617	8161
902.735	8282
902.854	8298
902.973	8305
903.091	8103
903.21	8168
903.328	8153
903.446	8119
903.565	8115
903.683	8119
903.801	8092
903.919	8164
904.038	8077
904.156	7986
904.274	8043
904.392	7963
904.51	8084
904.627	7955
904.745	8103
904.863	8172
904.981	7947
905.098	7856
905.216	7898
905.334	7925
905.451	7898
905.569	7849
905.686	7955
905.803	7902
905.921	7799
906.038	7913
906.155	7761
906.272	7712
906.389	7685
906.506	7597
906.623	7677
906.74	7552
906.857	7548
906.974	7613
907.091	7620
907.208	7727
907.324	7582
907.441	7563
907.557	7499
907.674	7480
907.79	7358
907.907	7403
908.023	7495
908.139	7476
908.256	7373
908.372	7308
908.488	7392
908.604	7266
908.72	7209
908.836	7263
908.952	7217
909.068	7217
909.184	7278
909.3	7259
909.415	7339
909.531	7297
909.647	7141
909.762	7129
909.878	7088
909.993	7190
910.108	7145
910.224	7114
910.339	7023
910.454	7008
910.57	7053
910.685	6935
910.8	7160
910.915	7072
911.03	7065
911.145	6939
911.259	6935
911.374	6909
911.489	6890
911.604	6844
911.718	6711
911.833	6749
911.947	6677
912.062	6642
912.176	6696
912.291	6768
912.405	6734
912.519	6802
912.633	6779
912.748	6779
912.862	6654
912.976	6585
913.09	6532
913.204	6559
913.318	6555
913.431	6646
913.545	6681
913.659	6734
913.772	6703
913.886	6547
914	6574
914.113	6646
914.226	6627
914.34	6623
914.453	6490
914.566	6665
914.68	6513
914.793	6532
914.906	6452
915.019	6437
915.132	6338
915.245	6448
915.358	6426
915.47	6422
915.583	6479
915.696	6471
915.809	6486
915.921	6536
916.034	6460
916.146	6429
916.259	6391
916.371	6483
916.483	6475
916.595	6353
916.708	6376
916.82	6365
916.932	6410
917.044	6399
917.156	6399
917.268	6342
917.38	6350
917.491	6338
917.603	6311
917.715	6372
917.826	6452
917.938	6292
918.049	6262
918.161	6350
918.272	6448
918.384	6475
918.495	6296
918.606	6338
918.717	6201
918.828	6270
918.939	6266
919.05	6167
919.161	6228
919.272	6095
919.383	6171
919.494	6311
919.604	6395
919.715	6319
919.826	6197
919.936	6292
920.047	6315
920.157	6232
920.267	6448
920.378	6319
920.488	6304
920.598	6445
920.708	6616
920.818	6506
920.928	6448
921.038	6604
921.148	6597
921.258	6350
921.368	6277
921.477	6216
921.587	6197
921.697	6110
921.806	6224
921.916	6087
922.025	6022
922.134	5851
922.244	5893
922.353	5954
922.462	5836
922.571	5775
922.68	5779
922.789	5737
922.898	5729
923.007	5668
923.116	5733
923.224	5680
923.333	5737
923.442	5611
923.55	5554
923.659	5608
923.767	5604
923.876	5615
923.984	5611
924.092	5478
924.201	5585
924.309	5524
924.417	5611
924.525	5486
924.633	5535
924.741	6235
924.849	5360
924.956	5482
925.064	5364
925.172	5280
925.279	5322
925.387	5368
925.494	5322
925.602	5387
925.709	5391
925.816	5265
925.924	5364
926.031	5368
926.138	5318
926.245	5376
926.352	5208
926.459	5284
926.566	5383
926.673	5208
926.779	5174
926.886	5143
926.993	5045
927.099	5060
927.206	5003
927.312	4987
927.419	5025
927.525	4961
927.631	5006
927.737	4900
927.843	4850
927.95	4740
928.056	4820
928.162	4831
928.267	4839
928.373	5303
928.479	4877
928.585	4714
928.69	4778
928.796	4824
928.901	4721
929.007	4618
929.112	4668
929.218	4656
929.323	4630
929.428	4569
929.533	4675
929.638	4542
929.743	4497
929.848	4538
929.953	4516
930.058	4402
930.163	4325
930.267	4352
930.372	4440
930.477	4299
930.581	4474
930.685	4402
930.79	4268
930.894	4257
930.998	4215
931.103	4424
931.207	4162
931.311	4086
931.415	4082
931.519	3907
931.623	3945
