Data from glass_V78500241_222.txt Node
Date: Wed Sep 01 19:16:02 CST 2021
User: usil
Spectrometer: V785-0024
Trigger mode: 0
Integration Time (sec): 4.000000E-1
Scans to average: 1
Nonlinearity correction enabled: false
Boxcar width: 0
Storing dark spectrum: false
XAxis mode: Wavelengths
Number of Pixels in Spectrum: 1024
>>>>>Begin Spectral Data<<<<<
801.071	3732
801.214	3774
801.356	3743
801.499	3720
801.641	3747
801.783	3850
801.926	3884
802.068	3831
802.211	3857
802.353	3899
802.496	3816
802.638	3899
802.78	3903
802.923	3926
803.065	3926
803.208	3873
803.35	3861
803.492	3892
803.635	3926
803.777	3835
803.919	3918
804.061	4143
804.204	3934
804.346	3964
804.488	3941
804.63	4071
804.773	3964
804.915	4055
805.057	4211
805.199	4112
805.341	4139
805.483	4169
805.626	4162
805.768	4169
805.91	4219
806.052	4276
806.194	4211
806.336	4348
806.478	4265
806.62	4131
806.762	4238
806.904	4280
807.046	4299
807.188	4219
807.33	4238
807.472	4238
807.614	4204
807.756	4280
807.898	4196
808.04	4257
808.182	4299
808.324	4329
808.465	4367
808.607	4474
808.749	4474
808.891	4481
809.033	4504
809.174	4383
809.316	4268
809.458	4249
809.6	4169
809.741	4169
809.883	4200
810.025	4249
810.166	4227
810.308	4230
810.45	4207
810.591	4268
810.733	4303
810.875	4546
811.016	4866
811.158	5121
811.299	5254
811.441	5261
811.582	5083
811.724	4710
811.865	4527
812.007	4470
812.148	4459
812.29	4421
812.431	4402
812.573	4417
812.714	4440
812.855	4459
812.997	4417
813.138	4508
813.279	4489
813.421	4390
813.562	4451
813.703	4291
813.845	4356
813.986	4257
814.127	4238
814.268	4246
814.41	4280
814.551	4265
814.692	4310
814.833	4261
814.974	4287
815.115	4356
815.256	4306
815.397	4249
815.539	4242
815.68	4158
815.821	4215
815.962	4325
816.103	4325
816.244	4246
816.385	4230
816.526	4272
816.666	4200
816.807	4086
816.948	4196
817.089	4196
817.23	4192
817.371	4082
817.512	4055
817.653	4124
817.793	4082
817.934	4048
818.075	4128
818.216	4105
818.356	4051
818.497	3994
818.638	3937
818.778	3926
818.919	3888
819.06	3880
819.2	3953
819.341	3884
819.481	3865
819.622	3922
819.762	4040
819.903	3956
820.043	3873
820.184	3876
820.324	3827
820.465	3880
820.605	3869
820.746	3930
820.886	3865
821.026	3937
821.167	3903
821.307	4017
821.447	3994
821.588	3975
821.728	3968
821.868	3934
822.008	3869
822.149	3922
822.289	3915
822.429	3850
822.569	3762
822.709	3857
822.849	3709
822.99	3732
823.13	3800
823.27	3774
823.41	3720
823.55	3732
823.69	3762
823.83	3717
823.97	3698
824.11	3603
824.25	3648
824.389	3667
824.529	3675
824.669	3694
824.809	3736
824.949	3762
825.089	3747
825.228	3709
825.368	3625
825.508	3568
825.648	3591
825.787	3584
825.927	3622
826.067	3625
826.206	3679
826.346	3774
826.485	3823
826.625	3907
826.765	3934
826.904	3884
827.044	3652
827.183	3534
827.323	3439
827.462	3507
827.601	3412
827.741	3454
827.88	3481
828.02	3428
828.159	3435
828.298	3485
828.437	3572
828.577	3481
828.716	3618
828.855	3530
828.994	3401
829.134	3409
829.273	3424
829.412	3374
829.551	3348
829.69	3401
829.829	3435
829.968	3542
830.107	3454
830.246	3447
830.385	3389
830.524	3367
830.663	3340
830.802	3279
830.941	3184
831.08	3199
831.219	3260
831.357	3275
831.496	3428
831.635	3233
831.774	3203
831.913	3245
832.051	3135
832.19	3131
832.329	3218
832.467	3154
832.606	3100
832.744	3157
832.883	3203
833.022	3203
833.16	3291
833.299	3321
833.437	3389
833.576	3401
833.714	3393
833.852	3409
833.991	3511
834.129	3477
834.267	3462
834.406	3428
834.544	3450
834.682	3519
834.821	3420
834.959	3549
835.097	3401
835.235	3538
835.373	3496
835.511	3500
835.65	3473
835.788	3507
835.926	3428
836.064	3435
836.202	3447
836.34	3576
836.478	3610
836.615	3561
836.753	3580
836.891	3644
837.029	3671
837.167	3591
837.305	3591
837.443	3523
837.58	3500
837.718	3606
837.856	3580
837.993	3557
838.131	3622
838.269	3629
838.406	3637
838.544	3603
838.681	3466
838.819	3458
838.956	3393
839.094	3412
839.231	3439
839.369	3511
839.506	3785
839.643	3656
839.781	3488
839.918	3458
840.055	3591
840.193	3561
840.33	3526
840.467	3610
840.604	3610
840.742	3861
840.879	3564
841.016	3603
841.153	3637
841.29	3755
841.427	3724
841.564	3717
841.701	3766
841.838	3701
841.975	3728
842.112	3724
842.249	3667
842.385	3606
842.522	3838
842.659	3679
842.796	3679
842.933	3709
843.069	3774
843.206	3720
843.343	3876
843.479	3789
843.616	3827
843.752	3652
843.889	3671
844.025	3911
844.162	3679
844.298	3838
844.435	3823
844.571	3816
844.708	3934
844.844	4021
844.98	4067
845.117	3983
845.253	3953
845.389	3930
845.525	3998
845.661	3964
845.798	3941
845.934	4040
846.07	3956
846.206	4082
846.342	4143
846.478	4105
846.614	3987
846.75	3941
846.886	3907
847.022	4040
847.158	3987
847.294	4051
847.429	4048
847.565	4002
847.701	4204
847.837	3926
847.972	3884
848.108	4006
848.244	4051
848.379	3888
848.515	3804
848.65	3823
848.786	3850
848.921	3857
849.057	3941
849.192	4017
849.328	3918
849.463	3937
849.598	3922
849.734	3869
849.869	3838
850.004	3797
850.14	3838
850.275	3804
850.41	3755
850.545	3789
850.68	3789
850.815	3819
850.95	3743
851.085	3953
851.22	3876
851.355	3865
851.49	3743
851.625	3816
851.76	3797
851.895	3720
852.03	3736
852.165	3800
852.299	3896
852.434	3941
852.569	3842
852.703	3930
852.838	3968
852.973	4044
853.107	4010
853.242	3907
853.376	3907
853.511	3831
853.645	3835
853.78	3998
853.914	3926
854.048	3918
854.183	3907
854.317	3975
854.451	4120
854.585	4002
854.72	3949
854.854	4055
854.988	3926
855.122	4029
855.256	3953
855.39	4032
855.524	4131
855.658	4112
855.792	4101
855.926	4116
856.06	4192
856.194	4234
856.327	4147
856.461	4154
856.595	4147
856.729	4169
856.862	4295
856.996	4246
857.13	4299
857.263	4375
857.397	4333
857.53	4306
857.664	4386
857.797	4367
857.931	4398
858.064	4390
858.197	4481
858.331	4402
858.464	4402
858.597	4299
858.731	4459
858.864	4485
858.997	4516
859.13	4538
859.263	4538
859.396	4592
859.529	4546
859.662	4538
859.795	4542
859.928	4622
860.061	4736
860.194	4717
860.327	4653
860.46	4649
860.592	4752
860.725	4820
860.858	4793
860.99	4706
861.123	4717
861.256	4729
861.388	4805
861.521	5398
861.653	4691
861.786	4748
861.918	4706
862.05	4820
862.183	4820
862.315	4873
862.447	4934
862.58	4862
862.712	4816
862.844	4763
862.976	4870
863.108	4843
863.24	5181
863.372	4885
863.504	4896
863.636	4911
863.768	4987
863.9	5018
864.032	4911
864.164	4980
864.296	5056
864.428	5109
864.559	5159
864.691	5128
864.823	5147
864.954	5132
865.086	5140
865.217	5113
865.349	5086
865.48	5162
865.612	5223
865.743	5288
865.875	5250
866.006	5223
866.137	5231
866.269	5265
866.4	5242
866.531	5261
866.662	5242
866.793	5261
866.924	5273
867.055	5376
867.186	5311
867.317	5345
867.448	5311
867.579	5383
867.71	5372
867.841	5391
867.972	5490
868.103	5467
868.233	5452
868.364	5543
868.495	5558
868.625	5688
868.756	5790
868.886	5672
869.017	5745
869.147	5851
869.278	5878
869.408	5821
869.539	5851
869.669	5923
869.799	5931
869.929	6057
870.06	6038
870.19	6262
870.32	6194
870.45	6319
870.58	6361
870.71	6475
870.84	6445
870.97	6384
871.1	6498
871.23	6700
871.36	6719
871.489	6719
871.619	6764
871.749	6837
871.879	6924
872.008	7019
872.138	6977
872.267	7012
872.397	6985
872.526	7042
872.656	7122
872.785	7171
872.915	7343
873.044	7567
873.173	7533
873.303	7681
873.432	7738
873.561	7871
873.69	7974
873.819	8024
873.948	8202
874.077	8237
874.206	8298
874.335	8480
874.464	8712
874.593	8864
874.722	8975
874.851	9089
874.979	9230
875.108	9374
875.237	9408
875.365	9564
875.494	9713
875.623	9835
875.751	9823
875.88	9945
876.008	10131
876.136	10306
876.265	10531
876.393	10755
876.521	10702
876.65	10774
876.778	10824
876.906	10938
877.034	10995
877.162	11113
877.29	11227
877.418	11341
877.546	11421
877.674	11459
877.802	11463
877.93	11474
878.058	11573
878.185	11566
878.313	11615
878.441	11714
878.568	11688
878.696	11790
878.824	11805
878.951	11901
879.079	12022
879.206	12155
879.333	12053
879.461	12003
879.588	12144
879.715	12079
879.842	12224
879.97	12125
880.097	11920
880.224	11847
880.351	11745
880.478	11889
880.605	11855
880.732	11901
880.859	12019
880.986	11764
881.112	11870
881.239	11703
881.366	11676
881.493	11642
881.619	11482
881.746	11592
881.872	11539
881.999	11535
882.125	11486
882.252	11596
882.378	11463
882.505	11516
882.631	11395
882.757	11258
882.883	11322
883.01	11250
883.136	11128
883.262	11143
883.388	11140
883.514	11162
883.64	11189
883.766	11064
883.892	10987
884.018	11018
884.143	11067
884.269	11151
884.395	10896
884.52	10839
884.646	10831
884.772	10653
884.897	10710
885.023	10687
885.148	10790
885.274	10706
885.399	10702
885.524	10740
885.65	10615
885.775	10588
885.9	10561
886.025	10679
886.15	10535
886.275	10527
886.4	10402
886.525	10443
886.65	10360
886.775	10272
886.9	10481
887.025	10554
887.149	10421
887.274	10242
887.399	10268
887.523	10192
887.648	10185
887.773	10124
887.897	10242
888.021	10230
888.146	10177
888.27	10249
888.395	10211
888.519	10166
888.643	10200
888.767	10188
888.891	10105
889.015	10082
889.139	10021
889.263	10002
889.387	10112
889.511	10116
889.635	10059
889.759	9911
889.883	9972
890.006	9994
890.13	10116
890.254	9953
890.377	9937
890.501	9804
890.624	9918
890.748	9884
890.871	9861
890.995	9785
891.118	9660
891.241	9720
891.364	9759
891.488	9903
891.611	9793
891.734	9736
891.857	9781
891.98	9797
892.103	9819
892.226	9797
892.349	9660
892.471	9561
892.594	9610
892.717	9618
892.839	9591
892.962	9663
893.085	9663
893.207	9641
893.33	9561
893.452	9545
893.575	9549
893.697	9557
893.819	9648
893.941	9656
894.064	9599
894.186	9420
894.308	9435
894.43	9580
894.552	9530
894.674	9466
894.796	9363
894.918	9378
895.04	9374
895.161	9466
895.283	9325
895.405	9237
895.526	9256
895.648	9272
895.769	9283
895.891	9260
896.012	9237
896.134	9203
896.255	9195
896.376	9161
896.498	9173
896.619	9169
896.74	9062
896.861	9161
896.982	9302
897.103	9329
897.224	9169
897.345	9081
897.466	9036
897.587	9051
897.708	9154
897.828	9104
897.949	8929
898.07	8899
898.19	8918
898.311	8979
898.431	8902
898.552	8796
898.672	8906
898.792	8933
898.913	9005
899.033	8838
899.153	8819
899.273	8663
899.393	8792
899.513	8769
899.633	8754
899.753	8788
899.873	8655
899.993	8796
900.113	8746
900.232	8754
900.352	8754
900.472	8640
900.591	8537
900.711	8625
900.83	8556
900.95	8716
901.069	8655
901.189	8541
901.308	8492
901.427	8457
901.546	8446
901.665	8461
901.784	8522
901.904	8381
902.023	8389
902.141	8202
902.26	8271
902.379	8263
902.498	8252
902.617	8202
902.735	8282
902.854	8271
902.973	8237
903.091	8138
903.21	8077
903.328	8149
903.446	8111
903.565	8062
903.683	8111
903.801	8077
903.919	8199
904.038	8195
904.156	8107
904.274	8107
904.392	8077
904.51	8046
904.627	8058
904.745	8119
904.863	8161
904.981	7963
905.098	7909
905.216	7890
905.334	7955
905.451	7986
905.569	7894
905.686	7947
905.803	7928
905.921	7784
906.038	7841
906.155	7799
906.272	7708
906.389	7715
906.506	7666
906.623	7639
906.74	7552
906.857	7563
906.974	7575
907.091	7677
907.208	7731
907.324	7681
907.441	7601
907.557	7449
907.674	7438
907.79	7384
907.907	7381
908.023	7438
908.139	7434
908.256	7384
908.372	7339
908.488	7403
908.604	7255
908.72	7221
908.836	7274
908.952	7331
909.068	7259
909.184	7365
909.3	7228
909.415	7369
909.531	7251
909.647	7110
909.762	7160
909.878	7114
909.993	7183
910.108	7076
910.224	7110
910.339	7110
910.454	7023
910.57	6989
910.685	6951
910.8	7171
910.915	7141
911.03	6973
911.145	6916
911.259	6932
911.374	6901
911.489	6825
911.604	6859
911.718	6734
911.833	6753
911.947	6707
912.062	6627
912.176	6749
912.291	6688
912.405	6711
912.519	6886
912.633	6894
912.748	6730
912.862	6692
912.976	6627
913.09	6589
913.204	6604
913.318	6646
913.431	6665
913.545	6703
913.659	6745
913.772	6665
913.886	6563
914	6563
914.113	6608
914.226	6692
914.34	6654
914.453	6551
914.566	6544
914.68	6513
914.793	6559
914.906	6407
915.019	6403
915.132	6410
915.245	6456
915.358	6475
915.47	6437
915.583	6452
915.696	6486
915.809	6532
915.921	6525
916.034	6456
916.146	6452
916.259	6369
916.371	6483
916.483	6486
916.595	6483
916.708	6418
916.82	6410
916.932	6372
917.044	6414
917.156	6448
917.268	6346
917.38	6361
917.491	6331
917.603	6334
917.715	6437
917.826	6437
917.938	6376
918.049	6281
918.161	6338
918.272	6490
918.384	6395
918.495	6429
918.606	6273
918.717	6213
918.828	6228
918.939	6239
919.05	6171
919.161	6209
919.272	6144
919.383	6136
919.494	6243
919.604	6353
919.715	6334
919.826	6216
919.936	6254
920.047	6327
920.157	6239
920.267	6471
920.378	6361
920.488	6304
920.598	6437
920.708	6578
920.818	6467
920.928	6479
921.038	6601
921.148	6627
921.258	6323
921.368	6296
921.477	6224
921.587	6175
921.697	6091
921.806	6213
921.916	6140
922.025	6007
922.134	5969
922.244	5916
922.353	5977
922.462	5866
922.571	5817
922.68	5779
922.789	5699
922.898	5748
923.007	5695
923.116	5745
923.224	5680
923.333	5737
923.442	5634
923.55	5608
923.659	5589
923.767	5657
923.876	5566
923.984	5577
924.092	5501
924.201	5520
924.309	5604
924.417	5509
924.525	5501
924.633	5516
924.741	6228
924.849	5406
924.956	5501
925.064	5360
925.172	5311
925.279	5280
925.387	5376
925.494	5360
925.602	5455
925.709	5429
925.816	5315
925.924	5330
926.031	5376
926.138	5296
926.245	5345
926.352	5250
926.459	5353
926.566	5357
926.673	5193
926.779	5124
926.886	5174
926.993	5022
927.099	5048
927.206	5014
927.312	5010
927.419	5018
927.525	4999
927.631	4995
927.737	4923
927.843	4900
927.95	4763
928.056	4809
928.162	4908
928.267	4850
928.373	5235
928.479	4892
928.585	4694
928.69	4831
928.796	4782
928.901	4717
929.007	4588
929.112	4698
929.218	4660
929.323	4618
929.428	4573
929.533	4698
929.638	4558
929.743	4550
929.848	4584
929.953	4497
930.058	4455
930.163	4379
930.267	4363
930.372	4424
930.477	4322
930.581	4493
930.685	4363
930.79	4268
930.894	4284
930.998	4276
931.103	4390
931.207	4154
931.311	4128
931.415	4013
931.519	3922
931.623	3979
