Data from glass_V78500241_2432.txt Node
Date: Wed Sep 01 19:31:21 CST 2021
User: usil
Spectrometer: V785-0024
Trigger mode: 0
Integration Time (sec): 4.000000E-1
Scans to average: 1
Nonlinearity correction enabled: false
Boxcar width: 0
Storing dark spectrum: false
XAxis mode: Wavelengths
Number of Pixels in Spectrum: 1024
>>>>>Begin Spectral Data<<<<<
801.071	3679
801.214	3736
801.356	3679
801.499	3717
801.641	3717
801.783	3774
801.926	3884
802.068	3770
802.211	3816
802.353	3846
802.496	3857
802.638	3842
802.78	3911
802.923	3949
803.065	3899
803.208	3842
803.35	3861
803.492	3918
803.635	3888
803.777	3812
803.919	3930
804.061	4120
804.204	3964
804.346	3922
804.488	3930
804.63	4044
804.773	3975
804.915	4002
805.057	4093
805.199	4021
805.341	4097
805.483	4124
805.626	4143
805.768	4086
805.91	4177
806.052	4200
806.194	4169
806.336	4268
806.478	4249
806.62	4158
806.762	4223
806.904	4261
807.046	4295
807.188	4227
807.33	4112
807.472	4253
807.614	4169
807.756	4223
807.898	4246
808.04	4219
808.182	4284
808.324	4383
808.465	4329
808.607	4390
808.749	4478
808.891	4459
809.033	4550
809.174	4398
809.316	4291
809.458	4287
809.6	4150
809.741	4162
809.883	4147
810.025	4196
810.166	4200
810.308	4257
810.45	4257
810.591	4207
810.733	4291
810.875	4493
811.016	4831
811.158	5113
811.299	5239
811.441	5269
811.582	5060
811.724	4702
811.865	4481
812.007	4436
812.148	4402
812.29	4451
812.431	4386
812.573	4386
812.714	4329
812.855	4386
812.997	4402
813.138	4493
813.279	4424
813.421	4371
813.562	4398
813.703	4318
813.845	4318
813.986	4246
814.127	4249
814.268	4246
814.41	4310
814.551	4253
814.692	4344
814.833	4253
814.974	4280
815.115	4329
815.256	4223
815.397	4234
815.539	4234
815.68	4173
815.821	4207
815.962	4341
816.103	4287
816.244	4154
816.385	4230
816.526	4306
816.666	4166
816.807	4109
816.948	4169
817.089	4162
817.23	4147
817.371	3953
817.512	4059
817.653	4021
817.793	3979
817.934	4017
818.075	4116
818.216	4078
818.356	4067
818.497	4029
818.638	3907
818.778	3907
818.919	3838
819.06	3819
819.2	3911
819.341	3846
819.481	3781
819.622	3884
819.762	3991
819.903	3972
820.043	3857
820.184	3827
820.324	3816
820.465	3892
820.605	3861
820.746	3842
820.886	3770
821.026	3941
821.167	3926
821.307	3968
821.447	3983
821.588	3960
821.728	3918
821.868	3911
822.008	3857
822.149	3903
822.289	3911
822.429	3740
822.569	3747
822.709	3804
822.849	3690
822.99	3701
823.13	3762
823.27	3759
823.41	3709
823.55	3720
823.69	3732
823.83	3740
823.97	3644
824.11	3622
824.25	3568
824.389	3610
824.529	3660
824.669	3629
824.809	3713
824.949	3747
825.089	3698
825.228	3698
825.368	3606
825.508	3561
825.648	3561
825.787	3603
825.927	3660
826.067	3599
826.206	3660
826.346	3755
826.485	3804
826.625	3838
826.765	3968
826.904	3766
827.044	3614
827.183	3515
827.323	3447
827.462	3500
827.601	3405
827.741	3405
827.88	3435
828.02	3386
828.159	3443
828.298	3447
828.437	3519
828.577	3492
828.716	3591
828.855	3485
828.994	3382
829.134	3386
829.273	3378
829.412	3348
829.551	3310
829.69	3344
829.829	3389
829.968	3519
830.107	3443
830.246	3454
830.385	3367
830.524	3329
830.663	3306
830.802	3245
830.941	3199
831.08	3184
831.219	3222
831.357	3253
831.496	3405
831.635	3237
831.774	3184
831.913	3135
832.051	3131
832.19	3123
832.329	3203
832.467	3104
832.606	3119
832.744	3169
832.883	3184
833.022	3180
833.16	3272
833.299	3237
833.437	3348
833.576	3344
833.714	3431
833.852	3374
833.991	3447
834.129	3439
834.267	3389
834.406	3420
834.544	3409
834.682	3412
834.821	3424
834.959	3568
835.097	3416
835.235	3496
835.373	3447
835.511	3511
835.65	3473
835.788	3469
835.926	3389
836.064	3378
836.202	3416
836.34	3584
836.478	3595
836.615	3500
836.753	3553
836.891	3606
837.029	3584
837.167	3564
837.305	3549
837.443	3523
837.58	3504
837.718	3568
837.856	3538
837.993	3534
838.131	3618
838.269	3538
838.406	3568
838.544	3576
838.681	3462
838.819	3473
838.956	3370
839.094	3397
839.231	3401
839.369	3526
839.506	3728
839.643	3633
839.781	3481
839.918	3462
840.055	3488
840.193	3507
840.33	3500
840.467	3580
840.604	3603
840.742	3755
840.879	3572
841.016	3564
841.153	3587
841.29	3740
841.427	3724
841.564	3736
841.701	3778
841.838	3682
841.975	3633
842.112	3698
842.249	3622
842.385	3599
842.522	3804
842.659	3686
842.796	3682
842.933	3671
843.069	3717
843.206	3732
843.343	3797
843.479	3816
843.616	3781
843.752	3671
843.889	3656
844.025	3842
844.162	3709
844.298	3850
844.435	3819
844.571	3762
844.708	3903
844.844	3983
844.98	4063
845.117	3983
845.253	3926
845.389	3838
845.525	3960
845.661	3987
845.798	3918
845.934	3964
846.07	3922
846.206	4021
846.342	4097
846.478	4063
846.614	3956
846.75	3945
846.886	3899
847.022	4017
847.158	3941
847.294	4029
847.429	4017
847.565	3968
847.701	4223
847.837	3888
847.972	3869
848.108	3964
848.244	3934
848.379	3903
848.515	3850
848.65	3831
848.786	3835
848.921	3865
849.057	3884
849.192	3949
849.328	3911
849.463	3892
849.598	3842
849.734	3819
849.869	3835
850.004	3808
850.14	3797
850.275	3747
850.41	3736
850.545	3720
850.68	3797
850.815	3800
850.95	3766
851.085	3945
851.22	3873
851.355	3816
851.49	3747
851.625	3797
851.76	3804
851.895	3720
852.03	3755
852.165	3793
852.299	3854
852.434	3880
852.569	3857
852.703	3869
852.838	3915
852.973	3964
853.107	3987
853.242	3842
853.376	3846
853.511	3747
853.645	3827
853.78	3941
853.914	3854
854.048	3899
854.183	3903
854.317	3911
854.451	4051
854.585	4002
854.72	3964
854.854	4074
854.988	3968
855.122	3945
855.256	3953
855.39	4036
855.524	4139
855.658	4112
855.792	4101
855.926	4109
856.06	4139
856.194	4177
856.327	4166
856.461	4086
856.595	4093
856.729	4181
856.862	4287
856.996	4196
857.13	4280
857.263	4287
857.397	4367
857.53	4295
857.664	4398
857.797	4409
857.931	4447
858.064	4360
858.197	4428
858.331	4386
858.464	4390
858.597	4322
858.731	4489
858.864	4459
858.997	4428
859.13	4527
859.263	4516
859.396	4569
859.529	4550
859.662	4535
859.795	4481
859.928	4599
860.061	4691
860.194	4736
860.327	4675
860.46	4573
860.592	4721
860.725	4755
860.858	4748
860.99	4706
861.123	4687
861.256	4710
861.388	4774
861.521	5482
861.653	4733
861.786	4679
861.918	4778
862.05	4797
862.183	4805
862.315	4889
862.447	4946
862.58	4873
862.712	4801
862.844	4778
862.976	4892
863.108	4835
863.24	5189
863.372	4812
863.504	4889
863.636	4896
863.768	4972
863.9	5014
864.032	4923
864.164	4987
864.296	5010
864.428	5033
864.559	5147
864.691	5105
864.823	5090
864.954	5117
865.086	5147
865.217	5109
865.349	5086
865.48	5170
865.612	5147
865.743	5280
865.875	5239
866.006	5220
866.137	5212
866.269	5170
866.4	5254
866.531	5178
866.662	5273
866.793	5273
866.924	5284
867.055	5330
867.186	5307
867.317	5299
867.448	5345
867.579	5387
867.71	5357
867.841	5383
867.972	5455
868.103	5474
868.233	5383
868.364	5497
868.495	5547
868.625	5688
868.756	5790
868.886	5684
869.017	5718
869.147	5855
869.278	5885
869.408	5855
869.539	5805
869.669	5908
869.799	5958
869.929	5908
870.06	5988
870.19	6163
870.32	6163
870.45	6254
870.58	6331
870.71	6395
870.84	6448
870.97	6384
871.1	6452
871.23	6608
871.36	6696
871.489	6642
871.619	6787
871.749	6776
871.879	6897
872.008	6977
872.138	6977
872.267	7019
872.397	7027
872.526	7012
872.656	7091
872.785	7190
872.915	7411
873.044	7460
873.173	7525
873.303	7636
873.432	7715
873.561	7830
873.69	7879
873.819	7978
873.948	8115
874.077	8229
874.206	8271
874.335	8457
874.464	8663
874.593	8872
874.722	8925
874.851	9154
874.979	9275
875.108	9408
875.237	9363
875.365	9481
875.494	9637
875.623	9846
875.751	9789
875.88	10006
876.008	10025
876.136	10223
876.265	10485
876.393	10683
876.521	10634
876.65	10831
876.778	10835
876.906	10976
877.034	10968
877.162	11151
877.29	11098
877.418	11360
877.546	11334
877.674	11459
877.802	11501
877.93	11554
878.058	11490
878.185	11608
878.313	11634
878.441	11714
878.568	11726
878.696	11764
878.824	11870
878.951	11946
879.079	11942
879.206	12194
879.333	12076
879.461	11992
879.588	12076
879.715	12129
879.842	12216
879.97	12091
880.097	11809
880.224	11817
880.351	11843
880.478	11855
880.605	11950
880.732	11741
880.859	12011
880.986	11824
881.112	11859
881.239	11585
881.366	11661
881.493	11566
881.619	11467
881.746	11512
881.872	11455
881.999	11505
882.125	11471
882.252	11512
882.378	11471
882.505	11528
882.631	11391
882.757	11227
882.883	11364
883.01	11277
883.136	11181
883.262	11064
883.388	11090
883.514	11235
883.64	11083
883.766	11136
883.892	11014
884.018	11018
884.143	11064
884.269	11086
884.395	10904
884.52	10748
884.646	10710
884.772	10710
884.897	10641
885.023	10653
885.148	10744
885.274	10809
885.399	10668
885.524	10580
885.65	10573
885.775	10656
885.9	10527
886.025	10615
886.15	10599
886.275	10478
886.4	10390
886.525	10371
886.65	10417
886.775	10344
886.9	10424
887.025	10538
887.149	10337
887.274	10253
887.399	10154
887.523	10215
887.648	10116
887.773	10120
887.897	10272
888.021	10154
888.146	10158
888.27	10207
888.395	10223
888.519	10158
888.643	10249
888.767	10166
888.891	10067
889.015	10071
889.139	10006
889.263	9983
889.387	10059
889.511	10055
889.635	10078
889.759	9915
889.883	10032
890.006	10029
890.13	10101
890.254	9956
890.377	9937
890.501	9854
890.624	9873
890.748	9892
890.871	9846
890.995	9774
891.118	9732
891.241	9751
891.364	9766
891.488	9823
891.611	9781
891.734	9709
891.857	9762
891.98	9686
892.103	9698
892.226	9625
892.349	9618
892.471	9549
892.594	9591
892.717	9595
892.839	9564
892.962	9595
893.085	9584
893.207	9561
893.33	9500
893.452	9500
893.575	9504
893.697	9481
893.819	9633
893.941	9648
894.064	9564
894.186	9443
894.308	9439
894.43	9485
894.552	9568
894.674	9466
894.796	9386
894.918	9393
895.04	9302
895.161	9348
895.283	9260
895.405	9264
895.526	9351
895.648	9264
895.769	9188
895.891	9226
896.012	9256
896.134	9233
896.255	9157
896.376	9253
896.498	9176
896.619	9135
896.74	9085
896.861	9047
896.982	9249
897.103	9245
897.224	9135
897.345	9020
897.466	9093
897.587	8975
897.708	9077
897.828	9024
897.949	8990
898.07	8864
898.19	8895
898.311	9043
898.431	8906
898.552	8902
898.672	8906
898.792	8891
898.913	8800
899.033	8804
899.153	8754
899.273	8659
899.393	8724
899.513	8758
899.633	8663
899.753	8712
899.873	8708
899.993	8678
900.113	8659
900.232	8663
900.352	8651
900.472	8602
900.591	8621
900.711	8560
900.83	8484
900.95	8670
901.069	8636
901.189	8526
901.308	8389
901.427	8385
901.546	8461
901.665	8434
901.784	8423
901.904	8454
902.023	8328
902.141	8233
902.26	8221
902.379	8332
902.498	8221
902.617	8225
902.735	8168
902.854	8343
902.973	8244
903.091	8107
903.21	8115
903.328	8134
903.446	8069
903.565	8081
903.683	8130
903.801	7997
903.919	8119
904.038	8168
904.156	8050
904.274	8081
904.392	8043
904.51	7989
904.627	8024
904.745	8084
904.863	8039
904.981	7868
905.098	7860
905.216	7898
905.334	7898
905.451	7890
905.569	7833
905.686	7925
905.803	7944
905.921	7792
906.038	7864
906.155	7753
906.272	7753
906.389	7689
906.506	7616
906.623	7620
906.74	7582
906.857	7548
906.974	7540
907.091	7658
907.208	7674
907.324	7609
907.441	7578
907.557	7457
907.674	7430
907.79	7464
907.907	7430
908.023	7510
908.139	7426
908.256	7434
908.372	7369
908.488	7266
908.604	7247
908.72	7232
908.836	7282
908.952	7305
909.068	7247
909.184	7285
909.3	7244
909.415	7320
909.531	7285
909.647	7084
909.762	7072
909.878	7084
909.993	7080
910.108	7091
910.224	7050
910.339	7099
910.454	7088
910.57	7031
910.685	6920
910.8	7126
910.915	7065
911.03	7027
911.145	6924
911.259	6844
911.374	6928
911.489	6757
911.604	6745
911.718	6703
911.833	6764
911.947	6639
912.062	6547
912.176	6646
912.291	6745
912.405	6707
912.519	6863
912.633	6798
912.748	6711
912.862	6677
912.976	6635
913.09	6544
913.204	6578
913.318	6597
913.431	6597
913.545	6612
913.659	6753
913.772	6639
913.886	6506
914	6574
914.113	6551
914.226	6635
914.34	6631
914.453	6456
914.566	6597
914.68	6509
914.793	6475
914.906	6369
915.019	6410
915.132	6388
915.245	6372
915.358	6399
915.47	6456
915.583	6448
915.696	6467
915.809	6525
915.921	6570
916.034	6456
916.146	6380
916.259	6323
916.371	6448
916.483	6422
916.595	6437
916.708	6429
916.82	6365
916.932	6376
917.044	6357
917.156	6388
917.268	6300
917.38	6311
917.491	6346
917.603	6372
917.715	6319
917.826	6365
917.938	6308
918.049	6232
918.161	6331
918.272	6384
918.384	6403
918.495	6331
918.606	6281
918.717	6239
918.828	6266
918.939	6266
919.05	6125
919.161	6232
919.272	6140
919.383	6163
919.494	6247
919.604	6426
919.715	6277
919.826	6175
919.936	6277
920.047	6353
920.157	6281
920.267	6376
920.378	6338
920.488	6273
920.598	6456
920.708	6555
920.818	6475
920.928	6410
921.038	6566
921.148	6521
921.258	6319
921.368	6304
921.477	6163
921.587	6121
921.697	6053
921.806	6190
921.916	6041
922.025	6022
922.134	5920
922.244	5897
922.353	5969
922.462	5809
922.571	5805
922.68	5733
922.789	5657
922.898	5688
923.007	5638
923.116	5707
923.224	5714
923.333	5623
923.442	5634
923.55	5528
923.659	5570
923.767	5589
923.876	5547
923.984	5581
924.092	5509
924.201	5516
924.309	5528
924.417	5539
924.525	5436
924.633	5509
924.741	6262
924.849	5326
924.956	5467
925.064	5337
925.172	5288
925.279	5311
925.387	5360
925.494	5315
925.602	5440
925.709	5406
925.816	5303
925.924	5273
926.031	5368
926.138	5318
926.245	5284
926.352	5204
926.459	5307
926.566	5296
926.673	5223
926.779	5109
926.886	5155
926.993	5075
927.099	4995
927.206	4949
927.312	4999
927.419	4984
927.525	4999
927.631	4987
927.737	4877
927.843	4892
927.95	4740
928.056	4786
928.162	4816
928.267	4790
928.373	5212
928.479	4812
928.585	4668
928.69	4793
928.796	4790
928.901	4687
929.007	4565
929.112	4645
929.218	4618
929.323	4603
929.428	4561
929.533	4645
929.638	4481
929.743	4554
929.848	4538
929.953	4500
930.058	4455
930.163	4318
930.267	4352
930.372	4386
930.477	4344
930.581	4493
930.685	4383
930.79	4242
930.894	4268
930.998	4276
931.103	4363
931.207	4112
931.311	4093
931.415	4051
931.519	3899
931.623	3941
