Data from glass_V78500241_458.txt Node
Date: Wed Sep 01 19:17:40 CST 2021
User: usil
Spectrometer: V785-0024
Trigger mode: 0
Integration Time (sec): 4.000000E-1
Scans to average: 1
Nonlinearity correction enabled: false
Boxcar width: 0
Storing dark spectrum: false
XAxis mode: Wavelengths
Number of Pixels in Spectrum: 1024
>>>>>Begin Spectral Data<<<<<
801.071	3743
801.214	3743
801.356	3724
801.499	3728
801.641	3728
801.783	3759
801.926	3854
802.068	3865
802.211	3850
802.353	3884
802.496	3873
802.638	3876
802.78	3907
802.923	3934
803.065	3911
803.208	3861
803.35	3854
803.492	3907
803.635	3922
803.777	3861
803.919	3915
804.061	4139
804.204	3998
804.346	3953
804.488	3949
804.63	4044
804.773	4010
804.915	4063
805.057	4162
805.199	4082
805.341	4071
805.483	4150
805.626	4105
805.768	4101
805.91	4265
806.052	4253
806.194	4207
806.336	4363
806.478	4234
806.62	4196
806.762	4215
806.904	4246
807.046	4352
807.188	4181
807.33	4192
807.472	4223
807.614	4169
807.756	4230
807.898	4215
808.04	4230
808.182	4303
808.324	4333
808.465	4348
808.607	4500
808.749	4504
808.891	4481
809.033	4519
809.174	4405
809.316	4291
809.458	4257
809.6	4120
809.741	4169
809.883	4166
810.025	4196
810.166	4207
810.308	4185
810.45	4249
810.591	4257
810.733	4303
810.875	4519
811.016	4839
811.158	5159
811.299	5220
811.441	5269
811.582	5022
811.724	4702
811.865	4481
812.007	4481
812.148	4440
812.29	4405
812.431	4428
812.573	4371
812.714	4379
812.855	4421
812.997	4424
813.138	4497
813.279	4417
813.421	4386
813.562	4398
813.703	4367
813.845	4371
813.986	4265
814.127	4268
814.268	4272
814.41	4261
814.551	4306
814.692	4352
814.833	4306
814.974	4299
815.115	4390
815.256	4253
815.397	4246
815.539	4230
815.68	4215
815.821	4192
815.962	4360
816.103	4322
816.244	4257
816.385	4276
816.526	4337
816.666	4280
816.807	4101
816.948	4169
817.089	4177
817.23	4131
817.371	4074
817.512	4067
817.653	4128
817.793	4002
817.934	4006
818.075	4101
818.216	4055
818.356	4059
818.497	3975
818.638	3907
818.778	3911
818.919	3842
819.06	3892
819.2	3899
819.341	3884
819.481	3899
819.622	3915
819.762	4025
819.903	3937
820.043	3869
820.184	3831
820.324	3835
820.465	3918
820.605	3896
820.746	3876
820.886	3838
821.026	3926
821.167	3922
821.307	3991
821.447	4029
821.588	3922
821.728	3930
821.868	3941
822.008	3888
822.149	3911
822.289	3941
822.429	3793
822.569	3816
822.709	3831
822.849	3717
822.99	3682
823.13	3800
823.27	3819
823.41	3743
823.55	3781
823.69	3713
823.83	3778
823.97	3705
824.11	3675
824.25	3591
824.389	3625
824.529	3667
824.669	3633
824.809	3751
824.949	3770
825.089	3759
825.228	3709
825.368	3576
825.508	3595
825.648	3568
825.787	3591
825.927	3629
826.067	3622
826.206	3656
826.346	3819
826.485	3876
826.625	3896
826.765	3949
826.904	3812
827.044	3667
827.183	3549
827.323	3416
827.462	3488
827.601	3443
827.741	3477
827.88	3500
828.02	3363
828.159	3447
828.298	3447
828.437	3557
828.577	3485
828.716	3610
828.855	3523
828.994	3397
829.134	3401
829.273	3382
829.412	3370
829.551	3370
829.69	3382
829.829	3416
829.968	3561
830.107	3462
830.246	3439
830.385	3443
830.524	3389
830.663	3287
830.802	3264
830.941	3222
831.08	3218
831.219	3298
831.357	3260
831.496	3405
831.635	3245
831.774	3207
831.913	3268
832.051	3165
832.19	3169
832.329	3218
832.467	3169
832.606	3142
832.744	3192
832.883	3184
833.022	3211
833.16	3264
833.299	3332
833.437	3351
833.576	3340
833.714	3370
833.852	3416
833.991	3447
834.129	3447
834.267	3447
834.406	3424
834.544	3435
834.682	3412
834.821	3424
834.959	3599
835.097	3431
835.235	3530
835.373	3526
835.511	3477
835.65	3481
835.788	3485
835.926	3378
836.064	3363
836.202	3409
836.34	3572
836.478	3641
836.615	3564
836.753	3603
836.891	3641
837.029	3663
837.167	3614
837.305	3564
837.443	3557
837.58	3492
837.718	3633
837.856	3572
837.993	3549
838.131	3599
838.269	3599
838.406	3580
838.544	3603
838.681	3466
838.819	3447
838.956	3374
839.094	3378
839.231	3439
839.369	3542
839.506	3740
839.643	3637
839.781	3511
839.918	3496
840.055	3519
840.193	3599
840.33	3568
840.467	3561
840.604	3618
840.742	3823
840.879	3580
841.016	3538
841.153	3595
841.29	3766
841.427	3705
841.564	3762
841.701	3766
841.838	3682
841.975	3682
842.112	3698
842.249	3629
842.385	3641
842.522	3850
842.659	3694
842.796	3663
842.933	3724
843.069	3682
843.206	3743
843.343	3819
843.479	3819
843.616	3827
843.752	3652
843.889	3671
844.025	3869
844.162	3705
844.298	3861
844.435	3797
844.571	3793
844.708	3941
844.844	3994
844.98	4029
845.117	4090
845.253	3930
845.389	3968
845.525	3945
845.661	3991
845.798	3926
845.934	4017
846.07	3964
846.206	4055
846.342	4116
846.478	4071
846.614	3975
846.75	3953
846.886	3922
847.022	4044
847.158	4002
847.294	4010
847.429	4055
847.565	3994
847.701	4238
847.837	3838
847.972	3854
848.108	3960
848.244	3987
848.379	3869
848.515	3838
848.65	3880
848.786	3850
848.921	3880
849.057	3979
849.192	3941
849.328	3937
849.463	3964
849.598	3899
849.734	3896
849.869	3842
850.004	3838
850.14	3835
850.275	3774
850.41	3755
850.545	3740
850.68	3800
850.815	3797
850.95	3827
851.085	4013
851.22	3831
851.355	3850
851.49	3793
851.625	3835
851.76	3804
851.895	3736
852.03	3724
852.165	3800
852.299	3850
852.434	3941
852.569	3888
852.703	3907
852.838	3949
852.973	4051
853.107	4025
853.242	3850
853.376	3842
853.511	3774
853.645	3850
853.78	3975
853.914	3945
854.048	3907
854.183	3827
854.317	3987
854.451	4017
854.585	4002
854.72	3964
854.854	4021
854.988	3934
855.122	4025
855.256	3956
855.39	3998
855.524	4093
855.658	4112
855.792	4116
855.926	4162
856.06	4173
856.194	4284
856.327	4131
856.461	4147
856.595	4207
856.729	4162
856.862	4299
856.996	4204
857.13	4287
857.263	4325
857.397	4325
857.53	4310
857.664	4363
857.797	4341
857.931	4428
858.064	4413
858.197	4459
858.331	4383
858.464	4379
858.597	4344
858.731	4462
858.864	4481
858.997	4462
859.13	4489
859.263	4554
859.396	4596
859.529	4546
859.662	4546
859.795	4558
859.928	4634
860.061	4733
860.194	4733
860.327	4653
860.46	4641
860.592	4714
860.725	4771
860.858	4778
860.99	4725
861.123	4714
861.256	4725
861.388	4790
861.521	5353
861.653	4763
861.786	4687
861.918	4702
862.05	4790
862.183	4892
862.315	4892
862.447	4938
862.58	4885
862.712	4839
862.844	4778
862.976	4915
863.108	4930
863.24	5121
863.372	4885
863.504	4949
863.636	4862
863.768	4957
863.9	5052
864.032	4961
864.164	4965
864.296	5006
864.428	5159
864.559	5143
864.691	5174
864.823	5117
864.954	5147
865.086	5140
865.217	5128
865.349	5113
865.48	5162
865.612	5208
865.743	5280
865.875	5223
866.006	5204
866.137	5254
866.269	5254
866.4	5220
866.531	5258
866.662	5216
866.793	5337
866.924	5315
867.055	5410
867.186	5311
867.317	5299
867.448	5322
867.579	5372
867.71	5372
867.841	5402
867.972	5471
868.103	5467
868.233	5547
868.364	5471
868.495	5566
868.625	5653
868.756	5775
868.886	5748
869.017	5767
869.147	5885
869.278	5874
869.408	5870
869.539	5878
869.669	5973
869.799	5912
869.929	6015
870.06	6011
870.19	6155
870.32	6175
870.45	6220
870.58	6346
870.71	6460
870.84	6528
870.97	6407
871.1	6452
871.23	6639
871.36	6707
871.489	6627
871.619	6749
871.749	6844
871.879	6909
872.008	6996
872.138	6939
872.267	6989
872.397	6993
872.526	7034
872.656	7091
872.785	7213
872.915	7373
873.044	7476
873.173	7525
873.303	7639
873.432	7727
873.561	7837
873.69	7917
873.819	8046
873.948	8180
874.077	8252
874.206	8396
874.335	8427
874.464	8674
874.593	8857
874.722	8899
874.851	9192
874.979	9233
875.108	9348
875.237	9416
875.365	9466
875.494	9591
875.623	9827
875.751	9819
875.88	9972
876.008	10139
876.136	10318
876.265	10474
876.393	10603
876.521	10736
876.65	10869
876.778	10942
876.906	10927
877.034	10930
877.162	11102
877.29	11170
877.418	11250
877.546	11364
877.674	11452
877.802	11463
877.93	11448
878.058	11592
878.185	11642
878.313	11646
878.441	11745
878.568	11695
878.696	11847
878.824	11882
878.951	11821
879.079	11954
879.206	12102
879.333	12038
879.461	12022
879.588	12026
879.715	12041
879.842	12228
879.97	12121
880.097	11893
880.224	11980
880.351	11851
880.478	11916
880.605	11817
880.732	11863
880.859	12072
880.986	11832
881.112	11878
881.239	11745
881.366	11596
881.493	11634
881.619	11455
881.746	11577
881.872	11558
881.999	11497
882.125	11478
882.252	11589
882.378	11490
882.505	11577
882.631	11383
882.757	11318
882.883	11296
883.01	11223
883.136	11201
883.262	11121
883.388	11041
883.514	11204
883.64	11212
883.766	11124
883.892	11003
884.018	11029
884.143	11052
884.269	11102
884.395	10820
884.52	10809
884.646	10809
884.772	10740
884.897	10645
885.023	10744
885.148	10691
885.274	10752
885.399	10683
885.524	10607
885.65	10603
885.775	10634
885.9	10531
886.025	10653
886.15	10668
886.275	10478
886.4	10329
886.525	10394
886.65	10375
886.775	10413
886.9	10413
887.025	10516
887.149	10409
887.274	10337
887.399	10169
887.523	10139
887.648	10147
887.773	10135
887.897	10211
888.021	10261
888.146	10196
888.27	10211
888.395	10246
888.519	10131
888.643	10120
888.767	10253
888.891	10097
889.015	10013
889.139	10036
889.263	10002
889.387	10067
889.511	10021
889.635	10093
889.759	9934
889.883	10006
890.006	10101
890.13	10150
890.254	10002
890.377	10036
890.501	9846
890.624	9972
890.748	9895
890.871	9797
890.995	9766
891.118	9800
891.241	9740
891.364	9789
891.488	9865
891.611	9770
891.734	9667
891.857	9804
891.98	9720
892.103	9743
892.226	9667
892.349	9641
892.471	9557
892.594	9534
892.717	9564
892.839	9557
892.962	9656
893.085	9679
893.207	9511
893.33	9511
893.452	9610
893.575	9618
893.697	9549
893.819	9599
893.941	9648
894.064	9595
894.186	9507
894.308	9386
894.43	9534
894.552	9591
894.674	9523
894.796	9351
894.918	9454
895.04	9363
895.161	9450
895.283	9317
895.405	9222
895.526	9211
895.648	9256
895.769	9237
895.891	9275
896.012	9344
896.134	9283
896.255	9199
896.376	9157
896.498	9199
896.619	9214
896.74	9077
896.861	9085
896.982	9325
897.103	9283
897.224	9211
897.345	9032
897.466	9058
897.587	9024
897.708	9123
897.828	9062
897.949	8982
898.07	8937
898.19	8864
898.311	9077
898.431	8895
898.552	8941
898.672	8971
898.792	8975
898.913	8967
899.033	8785
899.153	8811
899.273	8663
899.393	8796
899.513	8708
899.633	8773
899.753	8792
899.873	8689
899.993	8697
900.113	8735
900.232	8693
900.352	8693
900.472	8640
900.591	8522
900.711	8568
900.83	8556
900.95	8712
901.069	8651
901.189	8606
901.308	8438
901.427	8503
901.546	8454
901.665	8457
901.784	8454
901.904	8309
902.023	8332
902.141	8176
902.26	8206
902.379	8279
902.498	8225
902.617	8218
902.735	8328
902.854	8290
902.973	8275
903.091	8130
903.21	8123
903.328	8221
903.446	8115
903.565	8134
903.683	8077
903.801	8096
903.919	8180
904.038	8126
904.156	8084
904.274	8096
904.392	8039
904.51	7982
904.627	8081
904.745	8081
904.863	8130
904.981	7864
905.098	7883
905.216	7909
905.334	7940
905.451	7909
905.569	7913
905.686	7978
905.803	7963
905.921	7765
906.038	7913
906.155	7849
906.272	7738
906.389	7738
906.506	7628
906.623	7700
906.74	7643
906.857	7597
906.974	7643
907.091	7734
907.208	7681
907.324	7628
907.441	7590
907.557	7460
907.674	7480
907.79	7388
907.907	7365
908.023	7487
908.139	7460
908.256	7392
908.372	7400
908.488	7350
908.604	7209
908.72	7251
908.836	7331
908.952	7305
909.068	7247
909.184	7297
909.3	7263
909.415	7270
909.531	7308
909.647	7152
909.762	7175
909.878	7160
909.993	7171
910.108	7091
910.224	7091
910.339	7133
910.454	7008
910.57	7099
910.685	6939
910.8	7187
910.915	7133
911.03	7076
911.145	6928
911.259	6894
911.374	6909
911.489	6791
911.604	6745
911.718	6646
911.833	6745
911.947	6681
912.062	6593
912.176	6673
912.291	6646
912.405	6669
912.519	6821
912.633	6863
912.748	6719
912.862	6696
912.976	6620
913.09	6570
913.204	6540
913.318	6597
913.431	6703
913.545	6719
913.659	6707
913.772	6646
913.886	6563
914	6578
914.113	6589
914.226	6711
914.34	6646
914.453	6517
914.566	6582
914.68	6498
914.793	6589
914.906	6456
915.019	6418
915.132	6395
915.245	6441
915.358	6437
915.47	6483
915.583	6521
915.696	6513
915.809	6559
915.921	6509
916.034	6464
916.146	6456
916.259	6388
916.371	6502
916.483	6479
916.595	6357
916.708	6422
916.82	6376
916.932	6395
917.044	6426
917.156	6388
917.268	6273
917.38	6395
917.491	6323
917.603	6338
917.715	6414
917.826	6388
917.938	6323
918.049	6209
918.161	6346
918.272	6456
918.384	6403
918.495	6346
918.606	6331
918.717	6239
918.828	6258
918.939	6285
919.05	6216
919.161	6243
919.272	6175
919.383	6178
919.494	6300
919.604	6456
919.715	6292
919.826	6232
919.936	6254
920.047	6296
920.157	6292
920.267	6441
920.378	6353
920.488	6285
920.598	6429
920.708	6547
920.818	6525
920.928	6506
921.038	6612
921.148	6631
921.258	6357
921.368	6296
921.477	6258
921.587	6224
921.697	6095
921.806	6136
921.916	6057
922.025	5942
922.134	5851
922.244	5908
922.353	5950
922.462	5828
922.571	5824
922.68	5722
922.789	5619
922.898	5699
923.007	5672
923.116	5745
923.224	5653
923.333	5684
923.442	5623
923.55	5657
923.659	5596
923.767	5623
923.876	5570
923.984	5623
924.092	5532
924.201	5589
924.309	5543
924.417	5547
924.525	5493
924.633	5516
924.741	6273
924.849	5414
924.956	5471
925.064	5322
925.172	5284
925.279	5288
925.387	5395
925.494	5341
925.602	5433
925.709	5395
925.816	5269
925.924	5318
926.031	5391
926.138	5277
926.245	5349
926.352	5231
926.459	5341
926.566	5345
926.673	5227
926.779	5121
926.886	5109
926.993	5048
927.099	5079
927.206	4938
927.312	4995
927.419	5022
927.525	4976
927.631	5064
927.737	4930
927.843	4839
927.95	4790
928.056	4828
928.162	4801
928.267	4854
928.373	5258
928.479	4900
928.585	4679
928.69	4774
928.796	4820
928.901	4691
929.007	4573
929.112	4687
929.218	4653
929.323	4645
929.428	4622
929.533	4702
929.638	4527
929.743	4497
929.848	4561
929.953	4546
930.058	4466
930.163	4314
930.267	4348
930.372	4405
930.477	4352
930.581	4489
930.685	4344
930.79	4238
930.894	4272
930.998	4242
931.103	4371
931.207	4112
931.311	4109
931.415	4032
931.519	3945
931.623	3960
