Data from glass_V78500241_2306.txt Node
Date: Wed Sep 01 19:30:29 CST 2021
User: usil
Spectrometer: V785-0024
Trigger mode: 0
Integration Time (sec): 4.000000E-1
Scans to average: 1
Nonlinearity correction enabled: false
Boxcar width: 0
Storing dark spectrum: false
XAxis mode: Wavelengths
Number of Pixels in Spectrum: 1024
>>>>>Begin Spectral Data<<<<<
801.071	3709
801.214	3732
801.356	3705
801.499	3698
801.641	3728
801.783	3743
801.926	3869
802.068	3793
802.211	3823
802.353	3918
802.496	3838
802.638	3876
802.78	3888
802.923	3896
803.065	3854
803.208	3854
803.35	3876
803.492	3869
803.635	3861
803.777	3793
803.919	3861
804.061	4173
804.204	3994
804.346	3903
804.488	3930
804.63	4048
804.773	3941
804.915	4044
805.057	4093
805.199	4013
805.341	4048
805.483	4112
805.626	4128
805.768	4131
805.91	4242
806.052	4234
806.194	4169
806.336	4318
806.478	4230
806.62	4166
806.762	4169
806.904	4234
807.046	4322
807.188	4192
807.33	4177
807.472	4230
807.614	4207
807.756	4291
807.898	4230
808.04	4246
808.182	4257
808.324	4337
808.465	4417
808.607	4447
808.749	4485
808.891	4462
809.033	4500
809.174	4394
809.316	4280
809.458	4223
809.6	4177
809.741	4143
809.883	4090
810.025	4150
810.166	4192
810.308	4196
810.45	4207
810.591	4207
810.733	4329
810.875	4523
811.016	4809
811.158	5140
811.299	5227
811.441	5261
811.582	5010
811.724	4702
811.865	4493
812.007	4451
812.148	4424
812.29	4421
812.431	4371
812.573	4398
812.714	4291
812.855	4394
812.997	4436
813.138	4440
813.279	4424
813.421	4383
813.562	4428
813.703	4356
813.845	4303
813.986	4223
814.127	4223
814.268	4280
814.41	4299
814.551	4242
814.692	4333
814.833	4249
814.974	4284
815.115	4329
815.256	4200
815.397	4227
815.539	4227
815.68	4166
815.821	4200
815.962	4329
816.103	4314
816.244	4215
816.385	4234
816.526	4314
816.666	4192
816.807	4086
816.948	4207
817.089	4169
817.23	4093
817.371	4051
817.512	4044
817.653	4017
817.793	4040
817.934	4059
818.075	4105
818.216	4055
818.356	4093
818.497	3945
818.638	3918
818.778	3934
818.919	3915
819.06	3884
819.2	3896
819.341	3861
819.481	3869
819.622	3892
819.762	4029
819.903	3964
820.043	3857
820.184	3800
820.324	3797
820.465	3869
820.605	3865
820.746	3876
820.886	3804
821.026	3915
821.167	3869
821.307	3979
821.447	3987
821.588	3926
821.728	3949
821.868	3930
822.008	3876
822.149	3869
822.289	3911
822.429	3751
822.569	3778
822.709	3759
822.849	3724
822.99	3660
823.13	3800
823.27	3740
823.41	3698
823.55	3736
823.69	3690
823.83	3694
823.97	3690
824.11	3622
824.25	3549
824.389	3614
824.529	3675
824.669	3614
824.809	3698
824.949	3766
825.089	3728
825.228	3701
825.368	3576
825.508	3534
825.648	3545
825.787	3587
825.927	3667
826.067	3610
826.206	3667
826.346	3759
826.485	3823
826.625	3888
826.765	3918
826.904	3778
827.044	3591
827.183	3511
827.323	3409
827.462	3488
827.601	3469
827.741	3412
827.88	3454
828.02	3367
828.159	3443
828.298	3481
828.437	3519
828.577	3424
828.716	3572
828.855	3477
828.994	3386
829.134	3363
829.273	3386
829.412	3310
829.551	3313
829.69	3367
829.829	3389
829.968	3553
830.107	3443
830.246	3397
830.385	3393
830.524	3355
830.663	3294
830.802	3256
830.941	3180
831.08	3199
831.219	3283
831.357	3272
831.496	3386
831.635	3233
831.774	3161
831.913	3165
832.051	3104
832.19	3116
832.329	3207
832.467	3116
832.606	3112
832.744	3138
832.883	3154
833.022	3192
833.16	3260
833.299	3287
833.437	3348
833.576	3367
833.714	3409
833.852	3458
833.991	3447
834.129	3496
834.267	3424
834.406	3389
834.544	3420
834.682	3424
834.821	3439
834.959	3572
835.097	3454
835.235	3511
835.373	3450
835.511	3473
835.65	3492
835.788	3477
835.926	3382
836.064	3336
836.202	3382
836.34	3561
836.478	3618
836.615	3572
836.753	3603
836.891	3610
837.029	3614
837.167	3580
837.305	3545
837.443	3545
837.58	3485
837.718	3564
837.856	3534
837.993	3538
838.131	3614
838.269	3576
838.406	3549
838.544	3553
838.681	3431
838.819	3458
838.956	3351
839.094	3382
839.231	3454
839.369	3515
839.506	3732
839.643	3629
839.781	3507
839.918	3447
840.055	3530
840.193	3515
840.33	3507
840.467	3553
840.604	3564
840.742	3759
840.879	3591
841.016	3534
841.153	3610
841.29	3759
841.427	3701
841.564	3713
841.701	3724
841.838	3690
841.975	3682
842.112	3713
842.249	3648
842.385	3614
842.522	3842
842.659	3667
842.796	3686
842.933	3698
843.069	3660
843.206	3660
843.343	3778
843.479	3797
843.616	3835
843.752	3663
843.889	3682
844.025	3835
844.162	3694
844.298	3819
844.435	3774
844.571	3812
844.708	3884
844.844	4013
844.98	3998
845.117	4006
845.253	3884
845.389	3922
845.525	3934
845.661	4002
845.798	3926
845.934	3975
846.07	3934
846.206	4071
846.342	4120
846.478	4078
846.614	3960
846.75	3945
846.886	3922
847.022	3998
847.158	3983
847.294	3975
847.429	4021
847.565	4013
847.701	4227
847.837	3876
847.972	3850
848.108	3979
848.244	3975
848.379	3861
848.515	3835
848.65	3789
848.786	3835
848.921	3873
849.057	3934
849.192	3892
849.328	3892
849.463	3857
849.598	3873
849.734	3869
849.869	3831
850.004	3736
850.14	3774
850.275	3755
850.41	3778
850.545	3766
850.68	3808
850.815	3804
850.95	3762
851.085	3907
851.22	3888
851.355	3781
851.49	3755
851.625	3762
851.76	3781
851.895	3751
852.03	3724
852.165	3766
852.299	3835
852.434	3884
852.569	3876
852.703	3869
852.838	3930
852.973	3975
853.107	4013
853.242	3869
853.376	3838
853.511	3755
853.645	3770
853.78	3972
853.914	3926
854.048	3896
854.183	3896
854.317	3934
854.451	4078
854.585	3918
854.72	3937
854.854	4032
854.988	3896
855.122	3983
855.256	3884
855.39	3975
855.524	4116
855.658	4055
855.792	4090
855.926	4131
856.06	4162
856.194	4150
856.327	4131
856.461	4128
856.595	4147
856.729	4139
856.862	4246
856.996	4219
857.13	4287
857.263	4314
857.397	4318
857.53	4261
857.664	4402
857.797	4440
857.931	4386
858.064	4356
858.197	4455
858.331	4436
858.464	4390
858.597	4322
858.731	4432
858.864	4424
858.997	4432
859.13	4485
859.263	4478
859.396	4573
859.529	4478
859.662	4538
859.795	4508
859.928	4596
860.061	4672
860.194	4649
860.327	4637
860.46	4706
860.592	4729
860.725	4759
860.858	4714
860.99	4698
861.123	4710
861.256	4679
861.388	4733
861.521	5250
861.653	4698
861.786	4752
861.918	4759
862.05	4774
862.183	4793
862.315	4850
862.447	4904
862.58	4854
862.712	4782
862.844	4786
862.976	4839
863.108	4858
863.24	5132
863.372	4820
863.504	4892
863.636	4915
863.768	4980
863.9	4984
864.032	4942
864.164	4976
864.296	5056
864.428	5086
864.559	5067
864.691	5155
864.823	5113
864.954	5121
865.086	5105
865.217	5166
865.349	5086
865.48	5117
865.612	5178
865.743	5246
865.875	5162
866.006	5204
866.137	5189
866.269	5155
866.4	5208
866.531	5216
866.662	5250
866.793	5261
866.924	5284
867.055	5326
867.186	5341
867.317	5318
867.448	5322
867.579	5387
867.71	5360
867.841	5372
867.972	5471
868.103	5417
868.233	5482
868.364	5501
868.495	5554
868.625	5661
868.756	5760
868.886	5661
869.017	5699
869.147	5908
869.278	5878
869.408	5798
869.539	5794
869.669	5946
869.799	5904
869.929	6007
870.06	6049
870.19	6171
870.32	6144
870.45	6220
870.58	6346
870.71	6391
870.84	6437
870.97	6426
871.1	6464
871.23	6597
871.36	6703
871.489	6669
871.619	6696
871.749	6791
871.879	6871
872.008	6916
872.138	6981
872.267	6958
872.397	7046
872.526	6985
872.656	7042
872.785	7225
872.915	7396
873.044	7518
873.173	7525
873.303	7628
873.432	7719
873.561	7852
873.69	7864
873.819	7940
873.948	8161
874.077	8233
874.206	8385
874.335	8461
874.464	8678
874.593	8792
874.722	8933
874.851	9142
874.979	9279
875.108	9386
875.237	9473
875.365	9542
875.494	9629
875.623	9911
875.751	9766
875.88	9960
876.008	10074
876.136	10223
876.265	10455
876.393	10702
876.521	10691
876.65	10835
876.778	10923
876.906	10824
877.034	11003
877.162	11132
877.29	11159
877.418	11322
877.546	11280
877.674	11391
877.802	11539
877.93	11493
878.058	11535
878.185	11649
878.313	11729
878.441	11748
878.568	11767
878.696	11912
878.824	11794
878.951	11893
879.079	12041
879.206	12155
879.333	12087
879.461	12003
879.588	12117
879.715	12117
879.842	12171
879.97	12114
880.097	11927
880.224	11863
880.351	11859
880.478	11870
880.605	11794
880.732	11847
880.859	11916
880.986	11813
881.112	11843
881.239	11760
881.366	11649
881.493	11630
881.619	11634
881.746	11592
881.872	11497
881.999	11505
882.125	11463
882.252	11528
882.378	11452
882.505	11520
882.631	11383
882.757	11239
882.883	11299
883.01	11280
883.136	11170
883.262	11132
883.388	11113
883.514	11223
883.64	11178
883.766	11056
883.892	10972
884.018	11033
884.143	11056
884.269	11105
884.395	10820
884.52	10782
884.646	10816
884.772	10683
884.897	10618
885.023	10702
885.148	10672
885.274	10755
885.399	10714
885.524	10611
885.65	10592
885.775	10569
885.9	10542
886.025	10565
886.15	10531
886.275	10443
886.4	10356
886.525	10386
886.65	10379
886.775	10398
886.9	10455
887.025	10440
887.149	10337
887.274	10227
887.399	10166
887.523	10166
887.648	10120
887.773	10093
887.897	10230
888.021	10154
888.146	10177
888.27	10200
888.395	10196
888.519	10147
888.643	10215
888.767	10204
888.891	10097
889.015	9991
889.139	10086
889.263	9915
889.387	10082
889.511	10196
889.635	10090
889.759	9991
889.883	9915
890.006	10002
890.13	10086
890.254	9968
890.377	9968
890.501	9854
890.624	9800
890.748	9857
890.871	9736
890.995	9759
891.118	9671
891.241	9778
891.364	9766
891.488	9827
891.611	9690
891.734	9770
891.857	9762
891.98	9686
892.103	9770
892.226	9781
892.349	9595
892.471	9519
892.594	9542
892.717	9637
892.839	9595
892.962	9595
893.085	9603
893.207	9557
893.33	9530
893.452	9504
893.575	9576
893.697	9450
893.819	9515
893.941	9648
894.064	9633
894.186	9435
894.308	9370
894.43	9606
894.552	9530
894.674	9469
894.796	9420
894.918	9386
895.04	9321
895.161	9382
895.283	9336
895.405	9310
895.526	9313
895.648	9211
895.769	9237
895.891	9233
896.012	9279
896.134	9222
896.255	9157
896.376	9188
896.498	9131
896.619	9188
896.74	9024
896.861	9036
896.982	9184
897.103	9344
897.224	9157
897.345	9055
897.466	9001
897.587	8963
897.708	9112
897.828	8986
897.949	8944
898.07	8864
898.19	8838
898.311	9032
898.431	8902
898.552	8902
898.672	8986
898.792	8982
898.913	8876
899.033	8815
899.153	8750
899.273	8651
899.393	8750
899.513	8724
899.633	8766
899.753	8788
899.873	8686
899.993	8754
900.113	8720
900.232	8708
900.352	8648
900.472	8636
900.591	8552
900.711	8499
900.83	8549
900.95	8632
901.069	8651
901.189	8556
901.308	8461
901.427	8446
901.546	8404
901.665	8404
901.784	8484
901.904	8393
902.023	8279
902.141	8206
902.26	8199
902.379	8313
902.498	8191
902.617	8210
902.735	8256
902.854	8263
902.973	8282
903.091	8153
903.21	8130
903.328	8172
903.446	8073
903.565	8176
903.683	8046
903.801	8005
903.919	8123
904.038	8134
904.156	8035
904.274	8100
904.392	7986
904.51	8027
904.627	8035
904.745	8084
904.863	8084
904.981	7947
905.098	7875
905.216	7833
905.334	7959
905.451	7921
905.569	7811
905.686	7909
905.803	7902
905.921	7746
906.038	7830
906.155	7784
906.272	7712
906.389	7704
906.506	7670
906.623	7643
906.74	7609
906.857	7533
906.974	7609
907.091	7616
907.208	7704
907.324	7594
907.441	7594
907.557	7480
907.674	7495
907.79	7331
907.907	7430
908.023	7403
908.139	7434
908.256	7369
908.372	7384
908.488	7346
908.604	7255
908.72	7198
908.836	7293
908.952	7217
909.068	7274
909.184	7297
909.3	7202
909.415	7339
909.531	7263
909.647	7034
909.762	7065
909.878	7084
909.993	7137
910.108	7103
910.224	7053
910.339	7133
910.454	7034
910.57	6989
910.685	6981
910.8	7183
910.915	7065
911.03	7019
911.145	6924
911.259	6890
911.374	6875
911.489	6852
911.604	6779
911.718	6749
911.833	6707
911.947	6597
912.062	6559
912.176	6646
912.291	6730
912.405	6658
912.519	6806
912.633	6787
912.748	6741
912.862	6711
912.976	6623
913.09	6502
913.204	6566
913.318	6597
913.431	6650
913.545	6646
913.659	6722
913.772	6589
913.886	6612
914	6513
914.113	6585
914.226	6627
914.34	6608
914.453	6498
914.566	6540
914.68	6517
914.793	6502
914.906	6361
915.019	6350
915.132	6395
915.245	6369
915.358	6460
915.47	6395
915.583	6452
915.696	6475
915.809	6517
915.921	6532
916.034	6350
916.146	6429
916.259	6391
916.371	6433
916.483	6429
916.595	6384
916.708	6407
916.82	6399
916.932	6422
917.044	6407
917.156	6365
917.268	6262
917.38	6346
917.491	6292
917.603	6388
917.715	6342
917.826	6460
917.938	6296
918.049	6220
918.161	6388
918.272	6388
918.384	6433
918.495	6319
918.606	6346
918.717	6201
918.828	6228
918.939	6220
919.05	6171
919.161	6205
919.272	6129
919.383	6159
919.494	6273
919.604	6418
919.715	6289
919.826	6201
919.936	6163
920.047	6270
920.157	6239
920.267	6441
920.378	6258
920.488	6258
920.598	6452
920.708	6540
920.818	6513
920.928	6395
921.038	6623
921.148	6566
921.258	6384
921.368	6319
921.477	6197
921.587	6178
921.697	6098
921.806	6194
921.916	6079
922.025	5923
922.134	5965
922.244	5859
922.353	5950
922.462	5855
922.571	5737
922.68	5680
922.789	5703
922.898	5672
923.007	5577
923.116	5691
923.224	5684
923.333	5623
923.442	5573
923.55	5585
923.659	5608
923.767	5600
923.876	5543
923.984	5570
924.092	5474
924.201	5478
924.309	5551
924.417	5516
924.525	5478
924.633	5512
924.741	6311
924.849	5326
924.956	5482
925.064	5379
925.172	5311
925.279	5299
925.387	5368
925.494	5391
925.602	5353
925.709	5402
925.816	5292
925.924	5311
926.031	5368
926.138	5280
926.245	5315
926.352	5201
926.459	5315
926.566	5364
926.673	5235
926.779	5132
926.886	5136
926.993	5010
927.099	4965
927.206	4934
927.312	4953
927.419	4965
927.525	4957
927.631	5006
927.737	4889
927.843	4839
927.95	4771
928.056	4866
928.162	4816
928.267	4847
928.373	5326
928.479	4831
928.585	4694
928.69	4752
928.796	4790
928.901	4710
929.007	4596
929.112	4679
929.218	4626
929.323	4611
929.428	4527
929.533	4664
929.638	4500
929.743	4550
929.848	4508
929.953	4478
930.058	4470
930.163	4325
930.267	4337
930.372	4443
930.477	4284
930.581	4489
930.685	4375
930.79	4249
930.894	4257
930.998	4253
931.103	4379
931.207	4139
931.311	4048
931.415	4048
931.519	3915
931.623	3945
