Data from glass_V78500241_1005.txt Node
Date: Wed Sep 01 19:21:27 CST 2021
User: usil
Spectrometer: V785-0024
Trigger mode: 0
Integration Time (sec): 4.000000E-1
Scans to average: 1
Nonlinearity correction enabled: false
Boxcar width: 0
Storing dark spectrum: false
XAxis mode: Wavelengths
Number of Pixels in Spectrum: 1024
>>>>>Begin Spectral Data<<<<<
801.071	3740
801.214	3774
801.356	3701
801.499	3736
801.641	3732
801.783	3766
801.926	3880
802.068	3854
802.211	3865
802.353	3892
802.496	3846
802.638	3896
802.78	3903
802.923	3930
803.065	3896
803.208	3854
803.35	3842
803.492	3892
803.635	3934
803.777	3816
803.919	3892
804.061	4147
804.204	3968
804.346	3975
804.488	3941
804.63	4082
804.773	3979
804.915	4032
805.057	4147
805.199	4051
805.341	4147
805.483	4135
805.626	4188
805.768	4124
805.91	4215
806.052	4265
806.194	4204
806.336	4337
806.478	4227
806.62	4143
806.762	4188
806.904	4246
807.046	4360
807.188	4227
807.33	4192
807.472	4295
807.614	4177
807.756	4295
807.898	4230
808.04	4211
808.182	4291
808.324	4303
808.465	4409
808.607	4462
808.749	4485
808.891	4512
809.033	4577
809.174	4409
809.316	4249
809.458	4272
809.6	4166
809.741	4101
809.883	4185
810.025	4173
810.166	4215
810.308	4223
810.45	4295
810.591	4227
810.733	4268
810.875	4497
811.016	4809
811.158	5132
811.299	5330
811.441	5299
811.582	5018
811.724	4664
811.865	4428
812.007	4504
812.148	4436
812.29	4424
812.431	4428
812.573	4432
812.714	4363
812.855	4440
812.997	4379
813.138	4481
813.279	4413
813.421	4379
813.562	4363
813.703	4333
813.845	4341
813.986	4238
814.127	4265
814.268	4272
814.41	4291
814.551	4276
814.692	4329
814.833	4257
814.974	4268
815.115	4383
815.256	4303
815.397	4242
815.539	4246
815.68	4192
815.821	4207
815.962	4303
816.103	4310
816.244	4223
816.385	4268
816.526	4268
816.666	4230
816.807	4162
816.948	4238
817.089	4150
817.23	4135
817.371	4040
817.512	4071
817.653	4147
817.793	4074
817.934	4093
818.075	4101
818.216	4097
818.356	4074
818.497	4032
818.638	3907
818.778	3930
818.919	3903
819.06	3880
819.2	3937
819.341	3888
819.481	3865
819.622	3918
819.762	4055
819.903	3960
820.043	3846
820.184	3846
820.324	3819
820.465	3873
820.605	3888
820.746	3861
820.886	3857
821.026	3987
821.167	3915
821.307	3968
821.447	4002
821.588	3964
821.728	3975
821.868	3975
822.008	3911
822.149	3937
822.289	3922
822.429	3842
822.569	3762
822.709	3797
822.849	3713
822.99	3720
823.13	3785
823.27	3808
823.41	3751
823.55	3732
823.69	3755
823.83	3747
823.97	3690
824.11	3580
824.25	3614
824.389	3644
824.529	3698
824.669	3618
824.809	3679
824.949	3751
825.089	3732
825.228	3736
825.368	3591
825.508	3561
825.648	3572
825.787	3641
825.927	3618
826.067	3641
826.206	3671
826.346	3793
826.485	3850
826.625	3869
826.765	3945
826.904	3854
827.044	3644
827.183	3542
827.323	3443
827.462	3504
827.601	3473
827.741	3469
827.88	3466
828.02	3393
828.159	3477
828.298	3481
828.437	3530
828.577	3462
828.716	3622
828.855	3504
828.994	3378
829.134	3397
829.273	3401
829.412	3336
829.551	3374
829.69	3378
829.829	3469
829.968	3488
830.107	3443
830.246	3412
830.385	3409
830.524	3344
830.663	3294
830.802	3241
830.941	3211
831.08	3199
831.219	3302
831.357	3287
831.496	3397
831.635	3237
831.774	3154
831.913	3211
832.051	3138
832.19	3157
832.329	3237
832.467	3146
832.606	3112
832.744	3184
832.883	3237
833.022	3192
833.16	3256
833.299	3298
833.437	3321
833.576	3409
833.714	3439
833.852	3416
833.991	3447
834.129	3492
834.267	3443
834.406	3378
834.544	3435
834.682	3405
834.821	3424
834.959	3584
835.097	3443
835.235	3511
835.373	3507
835.511	3519
835.65	3473
835.788	3458
835.926	3382
836.064	3367
836.202	3428
836.34	3591
836.478	3652
836.615	3561
836.753	3587
836.891	3690
837.029	3591
837.167	3625
837.305	3580
837.443	3572
837.58	3500
837.718	3572
837.856	3576
837.993	3572
838.131	3637
838.269	3599
838.406	3603
838.544	3564
838.681	3515
838.819	3473
838.956	3374
839.094	3397
839.231	3443
839.369	3511
839.506	3774
839.643	3633
839.781	3504
839.918	3469
840.055	3542
840.193	3515
840.33	3515
840.467	3557
840.604	3614
840.742	3842
840.879	3549
841.016	3584
841.153	3568
841.29	3770
841.427	3770
841.564	3709
841.701	3774
841.838	3698
841.975	3690
842.112	3766
842.249	3671
842.385	3614
842.522	3819
842.659	3709
842.796	3667
842.933	3732
843.069	3736
843.206	3686
843.343	3804
843.479	3797
843.616	3835
843.752	3701
843.889	3717
844.025	3861
844.162	3724
844.298	3846
844.435	3819
844.571	3831
844.708	3926
844.844	3994
844.98	4013
845.117	3991
845.253	3926
845.389	3888
845.525	4017
845.661	3979
845.798	3953
845.934	4048
846.07	3968
846.206	4082
846.342	4135
846.478	4086
846.614	3972
846.75	3949
846.886	3896
847.022	4059
847.158	3979
847.294	4013
847.429	3991
847.565	3994
847.701	4265
847.837	3915
847.972	3861
848.108	4067
848.244	3934
848.379	3884
848.515	3800
848.65	3842
848.786	3873
848.921	3861
849.057	3907
849.192	3915
849.328	3899
849.463	3941
849.598	3911
849.734	3850
849.869	3850
850.004	3831
850.14	3827
850.275	3793
850.41	3804
850.545	3740
850.68	3797
850.815	3835
850.95	3861
851.085	3960
851.22	3884
851.355	3869
851.49	3781
851.625	3816
851.76	3800
851.895	3762
852.03	3743
852.165	3827
852.299	3873
852.434	3907
852.569	3915
852.703	3892
852.838	3911
852.973	4002
853.107	3972
853.242	3896
853.376	3835
853.511	3781
853.645	3842
853.78	3979
853.914	3915
854.048	3953
854.183	3880
854.317	3975
854.451	4048
854.585	3975
854.72	3953
854.854	4044
854.988	3888
855.122	3994
855.256	3926
855.39	4017
855.524	4093
855.658	4082
855.792	4128
855.926	4185
856.06	4219
856.194	4234
856.327	4120
856.461	4090
856.595	4192
856.729	4150
856.862	4227
856.996	4223
857.13	4318
857.263	4322
857.397	4375
857.53	4310
857.664	4356
857.797	4394
857.931	4413
858.064	4405
858.197	4523
858.331	4367
858.464	4390
858.597	4348
858.731	4470
858.864	4512
858.997	4417
859.13	4531
859.263	4550
859.396	4618
859.529	4588
859.662	4573
859.795	4550
859.928	4599
860.061	4691
860.194	4736
860.327	4668
860.46	4664
860.592	4774
860.725	4767
860.858	4816
860.99	4683
861.123	4710
861.256	4706
861.388	4793
861.521	5478
861.653	4714
861.786	4702
861.918	4736
862.05	4831
862.183	4839
862.315	4854
862.447	4930
862.58	4866
862.712	4843
862.844	4778
862.976	4934
863.108	4908
863.24	5299
863.372	4839
863.504	4957
863.636	4942
863.768	5006
863.9	4991
864.032	4946
864.164	4946
864.296	4995
864.428	5075
864.559	5113
864.691	5159
864.823	5193
864.954	5124
865.086	5132
865.217	5151
865.349	5155
865.48	5178
865.612	5181
865.743	5250
865.875	5250
866.006	5189
866.137	5254
866.269	5212
866.4	5239
866.531	5258
866.662	5277
866.793	5296
866.924	5261
867.055	5376
867.186	5372
867.317	5353
867.448	5322
867.579	5391
867.71	5364
867.841	5376
867.972	5486
868.103	5509
868.233	5501
868.364	5486
868.495	5585
868.625	5649
868.756	5836
868.886	5649
869.017	5752
869.147	5813
869.278	5859
869.408	5813
869.539	5859
869.669	5855
869.799	5893
869.929	6015
870.06	6060
870.19	6247
870.32	6194
870.45	6216
870.58	6346
870.71	6441
870.84	6471
870.97	6437
871.1	6464
871.23	6730
871.36	6631
871.489	6650
871.619	6745
871.749	6833
871.879	6859
872.008	7019
872.138	7015
872.267	7019
872.397	7065
872.526	6985
872.656	7072
872.785	7206
872.915	7388
873.044	7502
873.173	7544
873.303	7689
873.432	7807
873.561	7890
873.69	7868
873.819	8046
873.948	8191
874.077	8248
874.206	8343
874.335	8450
874.464	8693
874.593	8788
874.722	8952
874.851	9108
874.979	9226
875.108	9408
875.237	9340
875.365	9485
875.494	9682
875.623	9865
875.751	9800
875.88	9998
876.008	10177
876.136	10249
876.265	10516
876.393	10683
876.521	10733
876.65	10862
876.778	10915
876.906	10850
877.034	11006
877.162	11117
877.29	11201
877.418	11220
877.546	11334
877.674	11429
877.802	11532
877.93	11608
878.058	11600
878.185	11482
878.313	11676
878.441	11805
878.568	11710
878.696	11874
878.824	11843
878.951	11969
879.079	12064
879.206	12201
879.333	12026
879.461	11996
879.588	12083
879.715	12133
879.842	12254
879.97	12068
880.097	11828
880.224	11912
880.351	11882
880.478	11863
880.605	11901
880.732	11817
880.859	11923
880.986	11866
881.112	11923
881.239	11756
881.366	11695
881.493	11661
881.619	11611
881.746	11581
881.872	11520
881.999	11535
882.125	11429
882.252	11608
882.378	11524
882.505	11604
882.631	11395
882.757	11337
882.883	11387
883.01	11280
883.136	11136
883.262	11124
883.388	11117
883.514	11178
883.64	11181
883.766	11083
883.892	11025
884.018	11022
884.143	11037
884.269	11102
884.395	10816
884.52	10771
884.646	10790
884.772	10649
884.897	10615
885.023	10786
885.148	10752
885.274	10831
885.399	10691
885.524	10615
885.65	10577
885.775	10584
885.9	10561
886.025	10565
886.15	10565
886.275	10363
886.4	10440
886.525	10443
886.65	10417
886.775	10360
886.9	10500
887.025	10599
887.149	10367
887.274	10128
887.399	10139
887.523	10219
887.648	10063
887.773	10109
887.897	10215
888.021	10192
888.146	10181
888.27	10200
888.395	10219
888.519	10238
888.643	10166
888.767	10204
888.891	10128
889.015	9991
889.139	10082
889.263	10017
889.387	10055
889.511	10109
889.635	10116
889.759	9972
889.883	9964
890.006	10006
890.13	10124
890.254	9964
890.377	9899
890.501	9960
890.624	9922
890.748	9888
890.871	9835
890.995	9770
891.118	9751
891.241	9720
891.364	9728
891.488	9797
891.611	9709
891.734	9789
891.857	9785
891.98	9667
892.103	9747
892.226	9717
892.349	9682
892.471	9511
892.594	9564
892.717	9660
892.839	9644
892.962	9644
893.085	9720
893.207	9545
893.33	9504
893.452	9580
893.575	9606
893.697	9485
893.819	9542
893.941	9618
894.064	9538
894.186	9447
894.308	9397
894.43	9580
894.552	9549
894.674	9488
894.796	9340
894.918	9488
895.04	9363
895.161	9431
895.283	9389
895.405	9279
895.526	9275
895.648	9321
895.769	9310
895.891	9283
896.012	9321
896.134	9226
896.255	9112
896.376	9051
896.498	9173
896.619	9146
896.74	9142
896.861	9161
896.982	9272
897.103	9249
897.224	9169
897.345	9017
897.466	9017
897.587	8990
897.708	9127
897.828	8979
897.949	8918
898.07	8921
898.19	8902
898.311	9051
898.431	8975
898.552	8979
898.672	8982
898.792	8921
898.913	8937
899.033	8819
899.153	8697
899.273	8682
899.393	8693
899.513	8743
899.633	8727
899.753	8735
899.873	8705
899.993	8773
900.113	8773
900.232	8743
900.352	8625
900.472	8632
900.591	8590
900.711	8571
900.83	8533
900.95	8659
901.069	8678
901.189	8537
901.308	8434
901.427	8431
901.546	8412
901.665	8526
901.784	8522
901.904	8313
902.023	8320
902.141	8267
902.26	8244
902.379	8294
902.498	8210
902.617	8275
902.735	8347
902.854	8286
902.973	8233
903.091	8164
903.21	8134
903.328	8149
903.446	8123
903.565	8115
903.683	8058
903.801	8065
903.919	8161
904.038	8157
904.156	8069
904.274	8111
904.392	8020
904.51	8035
904.627	8008
904.745	8077
904.863	8195
904.981	7970
905.098	7841
905.216	7925
905.334	7963
905.451	7913
905.569	7875
905.686	7909
905.803	7928
905.921	7693
906.038	7803
906.155	7830
906.272	7731
906.389	7761
906.506	7643
906.623	7636
906.74	7628
906.857	7510
906.974	7590
907.091	7689
907.208	7750
907.324	7696
907.441	7521
907.557	7533
907.674	7464
907.79	7400
907.907	7422
908.023	7449
908.139	7426
908.256	7403
908.372	7358
908.488	7301
908.604	7255
908.72	7221
908.836	7327
908.952	7312
909.068	7255
909.184	7297
909.3	7255
909.415	7365
909.531	7308
909.647	7080
909.762	7145
909.878	7091
909.993	7122
910.108	7156
910.224	7103
910.339	7118
910.454	7088
910.57	7038
910.685	6985
910.8	7164
910.915	7129
911.03	7023
911.145	6882
911.259	6890
911.374	6939
911.489	6825
911.604	6791
911.718	6787
911.833	6722
911.947	6711
912.062	6563
912.176	6673
912.291	6719
912.405	6669
912.519	6863
912.633	6840
912.748	6700
912.862	6700
912.976	6639
913.09	6494
913.204	6669
913.318	6604
913.431	6658
913.545	6601
913.659	6772
913.772	6673
913.886	6616
914	6574
914.113	6627
914.226	6631
914.34	6574
914.453	6544
914.566	6566
914.68	6547
914.793	6502
914.906	6464
915.019	6391
915.132	6372
915.245	6414
915.358	6426
915.47	6460
915.583	6490
915.696	6525
915.809	6555
915.921	6544
916.034	6437
916.146	6372
916.259	6414
916.371	6490
916.483	6506
916.595	6350
916.708	6483
916.82	6395
916.932	6437
917.044	6376
917.156	6407
917.268	6308
917.38	6323
917.491	6327
917.603	6350
917.715	6403
917.826	6403
917.938	6357
918.049	6289
918.161	6376
918.272	6418
918.384	6456
918.495	6258
918.606	6285
918.717	6197
918.828	6266
918.939	6266
919.05	6228
919.161	6235
919.272	6076
919.383	6197
919.494	6311
919.604	6464
919.715	6273
919.826	6228
919.936	6304
920.047	6334
920.157	6289
920.267	6441
920.378	6334
920.488	6281
920.598	6486
920.708	6540
920.818	6525
920.928	6513
921.038	6608
921.148	6623
921.258	6388
921.368	6304
921.477	6224
921.587	6220
921.697	6110
921.806	6098
921.916	6045
922.025	5961
922.134	5942
922.244	5912
922.353	5954
922.462	5889
922.571	5817
922.68	5790
922.789	5623
922.898	5737
923.007	5691
923.116	5710
923.224	5661
923.333	5608
923.442	5619
923.55	5619
923.659	5619
923.767	5657
923.876	5589
923.984	5714
924.092	5516
924.201	5528
924.309	5547
924.417	5509
924.525	5512
924.633	5528
924.741	6292
924.849	5410
924.956	5493
925.064	5345
925.172	5284
925.279	5284
925.387	5376
925.494	5364
925.602	5391
925.709	5357
925.816	5284
925.924	5299
926.031	5417
926.138	5322
926.245	5315
926.352	5239
926.459	5315
926.566	5376
926.673	5170
926.779	5147
926.886	5155
926.993	5029
927.099	5033
927.206	5014
927.312	4972
927.419	5052
927.525	4976
927.631	4991
927.737	4881
927.843	4908
927.95	4752
928.056	4858
928.162	4835
928.267	4919
928.373	5372
928.479	4831
928.585	4694
928.69	4786
928.796	4763
928.901	4736
929.007	4607
929.112	4694
929.218	4660
929.323	4603
929.428	4569
929.533	4691
929.638	4558
929.743	4542
929.848	4538
929.953	4565
930.058	4421
930.163	4325
930.267	4341
930.372	4440
930.477	4314
930.581	4500
930.685	4443
930.79	4295
930.894	4268
930.998	4280
931.103	4417
931.207	4101
931.311	4055
931.415	4032
931.519	3918
931.623	3960
