Data from glass_V78500241_2738.txt Node
Date: Wed Sep 01 19:33:28 CST 2021
User: usil
Spectrometer: V785-0024
Trigger mode: 0
Integration Time (sec): 4.000000E-1
Scans to average: 1
Nonlinearity correction enabled: false
Boxcar width: 0
Storing dark spectrum: false
XAxis mode: Wavelengths
Number of Pixels in Spectrum: 1024
>>>>>Begin Spectral Data<<<<<
801.071	3701
801.214	3743
801.356	3701
801.499	3747
801.641	3720
801.783	3732
801.926	3835
802.068	3793
802.211	3880
802.353	3865
802.496	3827
802.638	3892
802.78	3888
802.923	3903
803.065	3873
803.208	3835
803.35	3838
803.492	3903
803.635	3907
803.777	3793
803.919	3835
804.061	4173
804.204	3945
804.346	3865
804.488	3911
804.63	4025
804.773	3979
804.915	3998
805.057	4154
805.199	4002
805.341	4071
805.483	4128
805.626	4128
805.768	4090
805.91	4230
806.052	4196
806.194	4135
806.336	4344
806.478	4158
806.62	4177
806.762	4177
806.904	4246
807.046	4322
807.188	4188
807.33	4154
807.472	4185
807.614	4166
807.756	4280
807.898	4211
808.04	4215
808.182	4303
808.324	4303
808.465	4360
808.607	4413
808.749	4417
808.891	4424
809.033	4478
809.174	4367
809.316	4227
809.458	4227
809.6	4093
809.741	4158
809.883	4101
810.025	4200
810.166	4196
810.308	4238
810.45	4215
810.591	4185
810.733	4246
810.875	4470
811.016	4805
811.158	5140
811.299	5216
811.441	5235
811.582	5067
811.724	4694
811.865	4428
812.007	4481
812.148	4443
812.29	4348
812.431	4386
812.573	4405
812.714	4318
812.855	4375
812.997	4413
813.138	4470
813.279	4398
813.421	4333
813.562	4405
813.703	4337
813.845	4341
813.986	4276
814.127	4173
814.268	4287
814.41	4306
814.551	4242
814.692	4329
814.833	4234
814.974	4249
815.115	4280
815.256	4257
815.397	4242
815.539	4253
815.68	4173
815.821	4219
815.962	4287
816.103	4268
816.244	4246
816.385	4192
816.526	4253
816.666	4215
816.807	4082
816.948	4181
817.089	4169
817.23	4166
817.371	3998
817.512	3975
817.653	4093
817.793	3994
817.934	4010
818.075	4101
818.216	4101
818.356	4093
818.497	3949
818.638	3857
818.778	3903
818.919	3915
819.06	3846
819.2	3880
819.341	3865
819.481	3800
819.622	3896
819.762	4002
819.903	3949
820.043	3873
820.184	3808
820.324	3823
820.465	3903
820.605	3846
820.746	3850
820.886	3812
821.026	3884
821.167	3903
821.307	3979
821.447	3979
821.588	3888
821.728	3926
821.868	3937
822.008	3873
822.149	3945
822.289	3880
822.429	3774
822.569	3747
822.709	3774
822.849	3682
822.99	3701
823.13	3747
823.27	3800
823.41	3732
823.55	3717
823.69	3694
823.83	3682
823.97	3648
824.11	3599
824.25	3580
824.389	3629
824.529	3671
824.669	3633
824.809	3660
824.949	3751
825.089	3667
825.228	3671
825.368	3603
825.508	3519
825.648	3538
825.787	3557
825.927	3622
826.067	3614
826.206	3682
826.346	3762
826.485	3835
826.625	3854
826.765	3972
826.904	3808
827.044	3584
827.183	3515
827.323	3424
827.462	3469
827.601	3416
827.741	3420
827.88	3462
828.02	3405
828.159	3473
828.298	3458
828.437	3511
828.577	3458
828.716	3534
828.855	3496
828.994	3348
829.134	3306
829.273	3374
829.412	3348
829.551	3313
829.69	3332
829.829	3374
829.968	3458
830.107	3428
830.246	3431
830.385	3367
830.524	3344
830.663	3325
830.802	3245
830.941	3195
831.08	3180
831.219	3256
831.357	3249
831.496	3409
831.635	3256
831.774	3154
831.913	3161
832.051	3173
832.19	3157
832.329	3176
832.467	3116
832.606	3089
832.744	3146
832.883	3138
833.022	3142
833.16	3245
833.299	3287
833.437	3340
833.576	3332
833.714	3382
833.852	3378
833.991	3424
834.129	3439
834.267	3420
834.406	3412
834.544	3401
834.682	3393
834.821	3435
834.959	3587
835.097	3428
835.235	3526
835.373	3492
835.511	3504
835.65	3462
835.788	3466
835.926	3359
836.064	3386
836.202	3405
836.34	3545
836.478	3534
836.615	3526
836.753	3587
836.891	3625
837.029	3572
837.167	3545
837.305	3523
837.443	3542
837.58	3519
837.718	3542
837.856	3561
837.993	3500
838.131	3519
838.269	3557
838.406	3542
838.544	3564
838.681	3477
838.819	3504
838.956	3351
839.094	3367
839.231	3477
839.369	3485
839.506	3720
839.643	3625
839.781	3538
839.918	3439
840.055	3492
840.193	3515
840.33	3481
840.467	3549
840.604	3610
840.742	3759
840.879	3561
841.016	3542
841.153	3587
841.29	3667
841.427	3648
841.564	3717
841.701	3732
841.838	3663
841.975	3698
842.112	3705
842.249	3633
842.385	3610
842.522	3827
842.659	3660
842.796	3656
842.933	3679
843.069	3701
843.206	3705
843.343	3827
843.479	3770
843.616	3808
843.752	3690
843.889	3679
844.025	3831
844.162	3667
844.298	3838
844.435	3740
844.571	3823
844.708	3892
844.844	3945
844.98	4040
845.117	3987
845.253	3941
845.389	3911
845.525	3854
845.661	3915
845.798	3903
845.934	3991
846.07	3930
846.206	4051
846.342	4143
846.478	4040
846.614	3941
846.75	3922
846.886	3880
847.022	3983
847.158	3968
847.294	3949
847.429	3994
847.565	4032
847.701	4234
847.837	3888
847.972	3857
848.108	3945
848.244	3941
848.379	3857
848.515	3808
848.65	3770
848.786	3819
848.921	3819
849.057	3941
849.192	3945
849.328	3911
849.463	3937
849.598	3835
849.734	3804
849.869	3838
850.004	3800
850.14	3770
850.275	3789
850.41	3686
850.545	3743
850.68	3755
850.815	3762
850.95	3766
851.085	3926
851.22	3827
851.355	3778
851.49	3770
851.625	3774
851.76	3720
851.895	3720
852.03	3728
852.165	3831
852.299	3819
852.434	3869
852.569	3835
852.703	3892
852.838	3884
852.973	4010
853.107	3983
853.242	3876
853.376	3823
853.511	3713
853.645	3781
853.78	3964
853.914	3911
854.048	3903
854.183	3880
854.317	3918
854.451	4032
854.585	3934
854.72	3964
854.854	4044
854.988	3937
855.122	4002
855.256	3880
855.39	3994
855.524	4097
855.658	4055
855.792	4082
855.926	4143
856.06	4135
856.194	4196
856.327	4112
856.461	4116
856.595	4166
856.729	4166
856.862	4234
856.996	4242
857.13	4280
857.263	4295
857.397	4348
857.53	4261
857.664	4306
857.797	4341
857.931	4383
858.064	4413
858.197	4451
858.331	4432
858.464	4390
858.597	4337
858.731	4405
858.864	4474
858.997	4447
859.13	4500
859.263	4558
859.396	4577
859.529	4504
859.662	4516
859.795	4508
859.928	4611
860.061	4675
860.194	4702
860.327	4634
860.46	4584
860.592	4714
860.725	4694
860.858	4698
860.99	4668
861.123	4641
861.256	4687
861.388	4816
861.521	5330
861.653	4653
861.786	4645
861.918	4744
862.05	4805
862.183	4805
862.315	4877
862.447	4881
862.58	4866
862.712	4717
862.844	4767
862.976	4908
863.108	4862
863.24	5212
863.372	4797
863.504	4896
863.636	4870
863.768	4965
863.9	4942
864.032	4927
864.164	4942
864.296	5048
864.428	5064
864.559	5071
864.691	5094
864.823	5124
864.954	5090
865.086	5109
865.217	5098
865.349	5090
865.48	5185
865.612	5113
865.743	5261
865.875	5197
866.006	5181
866.137	5220
866.269	5250
866.4	5273
866.531	5197
866.662	5193
866.793	5216
866.924	5239
867.055	5341
867.186	5330
867.317	5315
867.448	5337
867.579	5334
867.71	5379
867.841	5311
867.972	5455
868.103	5406
868.233	5497
868.364	5493
868.495	5589
868.625	5642
868.756	5771
868.886	5646
869.017	5703
869.147	5817
869.278	5874
869.408	5794
869.539	5824
869.669	5920
869.799	5874
869.929	5977
870.06	5996
870.19	6171
870.32	6159
870.45	6281
870.58	6327
870.71	6350
870.84	6437
870.97	6399
871.1	6426
871.23	6684
871.36	6711
871.489	6650
871.619	6703
871.749	6833
871.879	6833
872.008	6977
872.138	6913
872.267	6932
872.397	7042
872.526	7027
872.656	7118
872.785	7202
872.915	7381
873.044	7499
873.173	7464
873.303	7666
873.432	7704
873.561	7864
873.69	7879
873.819	8031
873.948	8157
874.077	8187
874.206	8328
874.335	8423
874.464	8583
874.593	8788
874.722	8925
874.851	9119
874.979	9207
875.108	9355
875.237	9374
875.365	9412
875.494	9576
875.623	9850
875.751	9816
875.88	10048
876.008	10135
876.136	10192
876.265	10485
876.393	10679
876.521	10714
876.65	10782
876.778	10820
876.906	10892
877.034	10972
877.162	11113
877.29	11117
877.418	11185
877.546	11311
877.674	11417
877.802	11463
877.93	11581
878.058	11459
878.185	11532
878.313	11615
878.441	11684
878.568	11649
878.696	11722
878.824	11855
878.951	11939
879.079	11946
879.206	12041
879.333	12026
879.461	11977
879.588	12133
879.715	11980
879.842	12175
879.97	11980
880.097	11813
880.224	11855
880.351	11980
880.478	11923
880.605	11942
880.732	11828
880.859	11969
880.986	11779
881.112	11824
881.239	11680
881.366	11741
881.493	11600
881.619	11455
881.746	11547
881.872	11455
881.999	11516
882.125	11455
882.252	11596
882.378	11436
882.505	11562
882.631	11322
882.757	11261
882.883	11292
883.01	11269
883.136	11212
883.262	11147
883.388	11060
883.514	11181
883.64	11212
883.766	11029
883.892	11010
884.018	11025
884.143	11067
884.269	11045
884.395	10790
884.52	10733
884.646	10721
884.772	10649
884.897	10596
885.023	10615
885.148	10763
885.274	10714
885.399	10710
885.524	10698
885.65	10588
885.775	10584
885.9	10500
886.025	10558
886.15	10523
886.275	10470
886.4	10390
886.525	10459
886.65	10402
886.775	10386
886.9	10394
887.025	10470
887.149	10246
887.274	10215
887.399	10101
887.523	10177
887.648	10112
887.773	10048
887.897	10230
888.021	10185
888.146	10078
888.27	10139
888.395	10177
888.519	10162
888.643	10124
888.767	10131
888.891	10109
889.015	9960
889.139	10074
889.263	9941
889.387	10090
889.511	10101
889.635	10086
889.759	9975
889.883	9964
890.006	10021
890.13	10059
890.254	9941
890.377	10010
890.501	9873
890.624	9762
890.748	9861
890.871	9766
890.995	9755
891.118	9709
891.241	9713
891.364	9793
891.488	9778
891.611	9778
891.734	9770
891.857	9770
891.98	9648
892.103	9736
892.226	9625
892.349	9637
892.471	9549
892.594	9652
892.717	9660
892.839	9542
892.962	9564
893.085	9648
893.207	9542
893.33	9477
893.452	9492
893.575	9629
893.697	9500
893.819	9553
893.941	9618
894.064	9485
894.186	9466
894.308	9310
894.43	9511
894.552	9587
894.674	9496
894.796	9374
894.918	9412
895.04	9351
895.161	9325
895.283	9332
895.405	9241
895.526	9233
895.648	9192
895.769	9192
895.891	9279
896.012	9329
896.134	9222
896.255	9214
896.376	9074
896.498	9135
896.619	9074
896.74	8979
896.861	9104
896.982	9321
897.103	9294
897.224	9150
897.345	9085
897.466	8998
897.587	8948
897.708	9104
897.828	9028
897.949	8906
898.07	8853
898.19	8861
898.311	8956
898.431	8857
898.552	8880
898.672	8891
898.792	8921
898.913	8887
899.033	8769
899.153	8708
899.273	8648
899.393	8640
899.513	8739
899.633	8686
899.753	8724
899.873	8636
899.993	8678
900.113	8693
900.232	8678
900.352	8621
900.472	8541
900.591	8511
900.711	8621
900.83	8587
900.95	8632
901.069	8667
901.189	8549
901.308	8404
901.427	8336
901.546	8339
901.665	8400
901.784	8434
901.904	8366
902.023	8309
902.141	8275
902.26	8191
902.379	8263
902.498	8145
902.617	8225
902.735	8267
902.854	8168
902.973	8214
903.091	8081
903.21	8088
903.328	8111
903.446	7970
903.565	8039
903.683	8058
903.801	8035
903.919	8092
904.038	8126
904.156	7978
904.274	8073
904.392	8024
904.51	7993
904.627	8012
904.745	8046
904.863	8046
904.981	7932
905.098	7811
905.216	7799
905.334	7856
905.451	7871
905.569	7917
905.686	7921
905.803	7928
905.921	7772
906.038	7879
906.155	7788
906.272	7715
906.389	7712
906.506	7639
906.623	7636
906.74	7601
906.857	7525
906.974	7525
907.091	7639
907.208	7655
907.324	7662
907.441	7544
907.557	7480
907.674	7445
907.79	7354
907.907	7415
908.023	7460
908.139	7415
908.256	7381
908.372	7369
908.488	7289
908.604	7266
908.72	7221
908.836	7293
908.952	7236
909.068	7217
909.184	7289
909.3	7209
909.415	7259
909.531	7282
909.647	7118
909.762	7034
909.878	7091
909.993	7129
910.108	7069
910.224	7046
910.339	7061
910.454	7072
910.57	6905
910.685	6932
910.8	7160
910.915	7050
911.03	7015
911.145	6901
911.259	6833
911.374	6935
911.489	6886
911.604	6772
911.718	6707
911.833	6738
911.947	6665
912.062	6593
912.176	6707
912.291	6684
912.405	6741
912.519	6791
912.633	6821
912.748	6726
912.862	6677
912.976	6646
913.09	6570
913.204	6597
913.318	6616
913.431	6597
913.545	6669
913.659	6635
913.772	6688
913.886	6517
914	6532
914.113	6570
914.226	6604
914.34	6635
914.453	6593
914.566	6620
914.68	6486
914.793	6528
914.906	6369
915.019	6327
915.132	6372
915.245	6403
915.358	6456
915.47	6422
915.583	6407
915.696	6441
915.809	6509
915.921	6544
916.034	6395
916.146	6426
916.259	6433
916.371	6399
916.483	6365
916.595	6395
916.708	6407
916.82	6388
916.932	6452
917.044	6300
917.156	6353
917.268	6319
917.38	6311
917.491	6311
917.603	6353
917.715	6361
917.826	6403
917.938	6315
918.049	6262
918.161	6304
918.272	6380
918.384	6361
918.495	6315
918.606	6235
918.717	6209
918.828	6205
918.939	6281
919.05	6201
919.161	6186
919.272	6091
919.383	6136
919.494	6239
919.604	6422
919.715	6251
919.826	6239
919.936	6258
920.047	6281
920.157	6239
920.267	6437
920.378	6361
920.488	6270
920.598	6498
920.708	6555
920.818	6452
920.928	6532
921.038	6616
921.148	6528
921.258	6350
921.368	6262
921.477	6182
921.587	6171
921.697	6091
921.806	6152
921.916	6038
922.025	5912
922.134	5897
922.244	5836
922.353	5855
922.462	5840
922.571	5805
922.68	5722
922.789	5649
922.898	5703
923.007	5573
923.116	5737
923.224	5634
923.333	5710
923.442	5547
923.55	5539
923.659	5570
923.767	5566
923.876	5509
923.984	5554
924.092	5493
924.201	5524
924.309	5524
924.417	5493
924.525	5490
924.633	5482
924.741	6213
924.849	5398
924.956	5417
925.064	5337
925.172	5292
925.279	5258
925.387	5364
925.494	5326
925.602	5387
925.709	5387
925.816	5250
925.924	5250
926.031	5292
926.138	5269
926.245	5250
926.352	5197
926.459	5315
926.566	5303
926.673	5193
926.779	5147
926.886	5109
926.993	5029
927.099	4961
927.206	4961
927.312	4908
927.419	4995
927.525	4976
927.631	4999
927.737	4862
927.843	4858
927.95	4740
928.056	4816
928.162	4809
928.267	4820
928.373	5311
928.479	4831
928.585	4691
928.69	4733
928.796	4790
928.901	4645
929.007	4558
929.112	4622
929.218	4637
929.323	4588
929.428	4527
929.533	4622
929.638	4478
929.743	4523
929.848	4531
929.953	4489
930.058	4383
930.163	4314
930.267	4348
930.372	4363
930.477	4295
930.581	4436
930.685	4348
930.79	4207
930.894	4257
930.998	4234
931.103	4329
931.207	4112
931.311	4063
931.415	4017
931.519	3937
931.623	3903
