Data from glass_V78500241_2302.txt Node
Date: Wed Sep 01 19:30:27 CST 2021
User: usil
Spectrometer: V785-0024
Trigger mode: 0
Integration Time (sec): 4.000000E-1
Scans to average: 1
Nonlinearity correction enabled: false
Boxcar width: 0
Storing dark spectrum: false
XAxis mode: Wavelengths
Number of Pixels in Spectrum: 1024
>>>>>Begin Spectral Data<<<<<
801.071	3686
801.214	3804
801.356	3686
801.499	3736
801.641	3717
801.783	3778
801.926	3808
802.068	3800
802.211	3819
802.353	3865
802.496	3831
802.638	3850
802.78	3903
802.923	3888
803.065	3899
803.208	3823
803.35	3816
803.492	3915
803.635	3888
803.777	3800
803.919	3911
804.061	4101
804.204	4017
804.346	3911
804.488	3896
804.63	4021
804.773	3972
804.915	4029
805.057	4147
805.199	4055
805.341	4097
805.483	4086
805.626	4135
805.768	4097
805.91	4211
806.052	4204
806.194	4215
806.336	4314
806.478	4211
806.62	4177
806.762	4188
806.904	4219
807.046	4352
807.188	4207
807.33	4196
807.472	4219
807.614	4234
807.756	4291
807.898	4215
808.04	4196
808.182	4291
808.324	4329
808.465	4390
808.607	4447
808.749	4417
808.891	4447
809.033	4504
809.174	4352
809.316	4204
809.458	4234
809.6	4109
809.741	4162
809.883	4109
810.025	4238
810.166	4181
810.308	4223
810.45	4246
810.591	4230
810.733	4287
810.875	4493
811.016	4816
811.158	5105
811.299	5246
811.441	5273
811.582	5045
811.724	4710
811.865	4443
812.007	4443
812.148	4421
812.29	4436
812.431	4379
812.573	4379
812.714	4375
812.855	4386
812.997	4436
813.138	4466
813.279	4402
813.421	4390
813.562	4360
813.703	4295
813.845	4318
813.986	4211
814.127	4204
814.268	4295
814.41	4249
814.551	4246
814.692	4284
814.833	4299
814.974	4295
815.115	4341
815.256	4261
815.397	4223
815.539	4223
815.68	4207
815.821	4246
815.962	4272
816.103	4234
816.244	4227
816.385	4227
816.526	4268
816.666	4200
816.807	4116
816.948	4196
817.089	4139
817.23	4150
817.371	4067
817.512	4063
817.653	4067
817.793	4010
817.934	4006
818.075	4071
818.216	4082
818.356	4071
818.497	4017
818.638	3903
818.778	3941
818.919	3880
819.06	3865
819.2	3922
819.341	3846
819.481	3835
819.622	3922
819.762	4032
819.903	3949
820.043	3854
820.184	3793
820.324	3804
820.465	3846
820.605	3873
820.746	3865
820.886	3850
821.026	3956
821.167	3937
821.307	3998
821.447	3983
821.588	4002
821.728	3915
821.868	3949
822.008	3907
822.149	3922
822.289	3915
822.429	3785
822.569	3785
822.709	3778
822.849	3614
822.99	3743
823.13	3781
823.27	3728
823.41	3686
823.55	3671
823.69	3751
823.83	3724
823.97	3660
824.11	3553
824.25	3629
824.389	3599
824.529	3637
824.669	3625
824.809	3720
824.949	3720
825.089	3747
825.228	3682
825.368	3610
825.508	3576
825.648	3557
825.787	3618
825.927	3622
826.067	3591
826.206	3675
826.346	3759
826.485	3823
826.625	3861
826.765	3949
826.904	3819
827.044	3629
827.183	3538
827.323	3428
827.462	3496
827.601	3428
827.741	3409
827.88	3424
828.02	3344
828.159	3431
828.298	3492
828.437	3538
828.577	3454
828.716	3561
828.855	3466
828.994	3382
829.134	3367
829.273	3397
829.412	3359
829.551	3355
829.69	3336
829.829	3443
829.968	3511
830.107	3447
830.246	3458
830.385	3363
830.524	3348
830.663	3294
830.802	3272
830.941	3222
831.08	3226
831.219	3283
831.357	3253
831.496	3439
831.635	3253
831.774	3192
831.913	3233
832.051	3123
832.19	3142
832.329	3214
832.467	3097
832.606	3131
832.744	3146
832.883	3165
833.022	3169
833.16	3245
833.299	3245
833.437	3325
833.576	3340
833.714	3386
833.852	3420
833.991	3450
834.129	3466
834.267	3428
834.406	3367
834.544	3393
834.682	3363
834.821	3447
834.959	3557
835.097	3424
835.235	3534
835.373	3481
835.511	3500
835.65	3462
835.788	3507
835.926	3359
836.064	3397
836.202	3450
836.34	3542
836.478	3606
836.615	3553
836.753	3561
836.891	3652
837.029	3584
837.167	3584
837.305	3545
837.443	3492
837.58	3542
837.718	3549
837.856	3576
837.993	3557
838.131	3580
838.269	3580
838.406	3580
838.544	3580
838.681	3473
838.819	3477
838.956	3351
839.094	3382
839.231	3382
839.369	3538
839.506	3686
839.643	3603
839.781	3523
839.918	3485
840.055	3526
840.193	3500
840.33	3507
840.467	3526
840.604	3603
840.742	3774
840.879	3530
841.016	3564
841.153	3557
841.29	3747
841.427	3720
841.564	3709
841.701	3713
841.838	3679
841.975	3675
842.112	3713
842.249	3675
842.385	3633
842.522	3854
842.659	3648
842.796	3667
842.933	3717
843.069	3644
843.206	3728
843.343	3827
843.479	3766
843.616	3759
843.752	3698
843.889	3720
844.025	3797
844.162	3705
844.298	3823
844.435	3789
844.571	3800
844.708	3907
844.844	3953
844.98	3998
845.117	3975
845.253	3903
845.389	3915
845.525	3983
845.661	3991
845.798	3892
845.934	3960
846.07	3953
846.206	4090
846.342	4097
846.478	4071
846.614	3956
846.75	3907
846.886	3865
847.022	4032
847.158	3968
847.294	4021
847.429	4010
847.565	3983
847.701	4227
847.837	3865
847.972	3884
848.108	4021
848.244	3964
848.379	3846
848.515	3774
848.65	3774
848.786	3831
848.921	3873
849.057	3926
849.192	3968
849.328	3892
849.463	3964
849.598	3899
849.734	3842
849.869	3808
850.004	3785
850.14	3778
850.275	3785
850.41	3766
850.545	3720
850.68	3781
850.815	3819
850.95	3774
851.085	3907
851.22	3823
851.355	3835
851.49	3778
851.625	3812
851.76	3774
851.895	3679
852.03	3732
852.165	3785
852.299	3816
852.434	3873
852.569	3861
852.703	3892
852.838	3960
852.973	3968
853.107	3953
853.242	3854
853.376	3838
853.511	3781
853.645	3857
853.78	3964
853.914	3884
854.048	3865
854.183	3934
854.317	3941
854.451	4090
854.585	3975
854.72	3964
854.854	4051
854.988	3964
855.122	3979
855.256	3926
855.39	4025
855.524	4074
855.658	4093
855.792	4067
855.926	4131
856.06	4177
856.194	4181
856.327	4154
856.461	4147
856.595	4124
856.729	4177
856.862	4291
856.996	4192
857.13	4257
857.263	4329
857.397	4352
857.53	4242
857.664	4421
857.797	4367
857.931	4413
858.064	4398
858.197	4470
858.331	4356
858.464	4379
858.597	4356
858.731	4398
858.864	4481
858.997	4451
859.13	4497
859.263	4523
859.396	4599
859.529	4497
859.662	4558
859.795	4481
859.928	4550
860.061	4721
860.194	4717
860.327	4630
860.46	4637
860.592	4706
860.725	4767
860.858	4694
860.99	4679
861.123	4649
861.256	4596
861.388	4801
861.521	5379
861.653	4725
861.786	4679
861.918	4710
862.05	4786
862.183	4828
862.315	4889
862.447	4892
862.58	4866
862.712	4778
862.844	4771
862.976	4885
863.108	4911
863.24	5174
863.372	4828
863.504	4873
863.636	4938
863.768	4984
863.9	4987
864.032	4930
864.164	4938
864.296	4999
864.428	5086
864.559	5071
864.691	5052
864.823	5124
864.954	5117
865.086	5117
865.217	5113
865.349	5045
865.48	5174
865.612	5151
865.743	5235
865.875	5193
866.006	5212
866.137	5204
866.269	5227
866.4	5204
866.531	5242
866.662	5258
866.793	5277
866.924	5250
867.055	5337
867.186	5296
867.317	5318
867.448	5307
867.579	5387
867.71	5387
867.841	5402
867.972	5436
868.103	5452
868.233	5482
868.364	5471
868.495	5509
868.625	5665
868.756	5718
868.886	5619
869.017	5737
869.147	5916
869.278	5874
869.408	5832
869.539	5771
869.669	5897
869.799	5866
869.929	6003
870.06	6034
870.19	6175
870.32	6205
870.45	6247
870.58	6353
870.71	6376
870.84	6448
870.97	6460
871.1	6361
871.23	6642
871.36	6688
871.489	6658
871.619	6734
871.749	6833
871.879	6871
872.008	6932
872.138	7004
872.267	6973
872.397	7046
872.526	7027
872.656	7076
872.785	7198
872.915	7335
873.044	7540
873.173	7590
873.303	7597
873.432	7723
873.561	7811
873.69	7852
873.819	8050
873.948	8183
874.077	8229
874.206	8305
874.335	8511
874.464	8640
874.593	8785
874.722	8880
874.851	9116
874.979	9173
875.108	9370
875.237	9275
875.365	9424
875.494	9656
875.623	9819
875.751	9819
875.88	9922
876.008	10101
876.136	10242
876.265	10508
876.393	10714
876.521	10736
876.65	10755
876.778	10820
876.906	10858
877.034	10999
877.162	11079
877.29	11159
877.418	11250
877.546	11349
877.674	11459
877.802	11455
877.93	11516
878.058	11509
878.185	11581
878.313	11646
878.441	11745
878.568	11642
878.696	11783
878.824	11805
878.951	11916
879.079	12026
879.206	12213
879.333	12007
879.461	12030
879.588	12064
879.715	12079
879.842	12228
879.97	12095
880.097	11973
880.224	11866
880.351	11942
880.478	11836
880.605	11817
880.732	11767
880.859	11961
880.986	11843
881.112	11805
881.239	11710
881.366	11672
881.493	11623
881.619	11433
881.746	11615
881.872	11600
881.999	11528
882.125	11421
882.252	11558
882.378	11444
882.505	11528
882.631	11364
882.757	11242
882.883	11349
883.01	11220
883.136	11166
883.262	11204
883.388	11117
883.514	11132
883.64	11174
883.766	11056
883.892	10987
884.018	10999
884.143	11014
884.269	11109
884.395	10831
884.52	10714
884.646	10828
884.772	10649
884.897	10702
885.023	10691
885.148	10694
885.274	10771
885.399	10729
885.524	10588
885.65	10596
885.775	10558
885.9	10459
886.025	10596
886.15	10599
886.275	10497
886.4	10386
886.525	10390
886.65	10417
886.775	10295
886.9	10478
887.025	10504
887.149	10405
887.274	10196
887.399	10185
887.523	10143
887.648	10131
887.773	10154
887.897	10207
888.021	10154
888.146	10055
888.27	10223
888.395	10207
888.519	10131
888.643	10181
888.767	10242
888.891	10135
889.015	10032
889.139	10116
889.263	10017
889.387	10025
889.511	10093
889.635	10071
889.759	9945
889.883	10025
890.006	10040
890.13	10120
890.254	9964
890.377	9994
890.501	9823
890.624	9956
890.748	9895
890.871	9732
890.995	9751
891.118	9728
891.241	9694
891.364	9732
891.488	9781
891.611	9766
891.734	9740
891.857	9778
891.98	9751
892.103	9682
892.226	9682
892.349	9660
892.471	9542
892.594	9496
892.717	9614
892.839	9595
892.962	9534
893.085	9705
893.207	9568
893.33	9504
893.452	9431
893.575	9572
893.697	9454
893.819	9644
893.941	9603
894.064	9515
894.186	9462
894.308	9397
894.43	9553
894.552	9523
894.674	9519
894.796	9439
894.918	9458
895.04	9359
895.161	9325
895.283	9336
895.405	9279
895.526	9306
895.648	9253
895.769	9230
895.891	9211
896.012	9279
896.134	9233
896.255	9222
896.376	9119
896.498	9150
896.619	9169
896.74	9085
896.861	9058
896.982	9161
897.103	9344
897.224	9169
897.345	8994
897.466	9070
897.587	9051
897.708	9131
897.828	9036
897.949	8925
898.07	8944
898.19	8952
898.311	9001
898.431	8921
898.552	8956
898.672	8986
898.792	8918
898.913	8910
899.033	8769
899.153	8724
899.273	8640
899.393	8697
899.513	8762
899.633	8773
899.753	8754
899.873	8682
899.993	8663
900.113	8701
900.232	8712
900.352	8693
900.472	8625
900.591	8610
900.711	8556
900.83	8560
900.95	8636
901.069	8724
901.189	8530
901.308	8484
901.427	8374
901.546	8427
901.665	8434
901.784	8476
901.904	8343
902.023	8370
902.141	8248
902.26	8176
902.379	8233
902.498	8210
902.617	8244
902.735	8282
902.854	8225
902.973	8267
903.091	8103
903.21	8123
903.328	8126
903.446	8069
903.565	8092
903.683	8062
903.801	8012
903.919	8058
904.038	8039
904.156	7986
904.274	8039
904.392	8031
904.51	8012
904.627	8058
904.745	8012
904.863	8107
904.981	7906
905.098	7864
905.216	7879
905.334	7883
905.451	7902
905.569	7883
905.686	7913
905.803	7947
905.921	7818
906.038	7902
906.155	7772
906.272	7719
906.389	7689
906.506	7578
906.623	7639
906.74	7639
906.857	7521
906.974	7559
907.091	7658
907.208	7700
907.324	7655
907.441	7605
907.557	7464
907.674	7445
907.79	7381
907.907	7369
908.023	7354
908.139	7362
908.256	7381
908.372	7324
908.488	7331
908.604	7232
908.72	7228
908.836	7240
908.952	7221
909.068	7240
909.184	7282
909.3	7225
909.415	7331
909.531	7308
909.647	7084
909.762	7103
909.878	7103
909.993	7065
910.108	7034
910.224	7099
910.339	7031
910.454	6993
910.57	6932
910.685	7019
910.8	7141
910.915	7084
911.03	7053
911.145	6913
911.259	6859
911.374	6875
911.489	6837
911.604	6829
911.718	6722
911.833	6749
911.947	6612
912.062	6631
912.176	6692
912.291	6684
912.405	6734
912.519	6764
912.633	6764
912.748	6654
912.862	6665
912.976	6612
913.09	6517
913.204	6627
913.318	6528
913.431	6635
913.545	6650
913.659	6726
913.772	6642
913.886	6544
914	6597
914.113	6654
914.226	6639
914.34	6566
914.453	6494
914.566	6604
914.68	6536
914.793	6494
914.906	6353
915.019	6445
915.132	6357
915.245	6441
915.358	6437
915.47	6437
915.583	6479
915.696	6456
915.809	6528
915.921	6578
916.034	6399
916.146	6399
916.259	6331
916.371	6502
916.483	6380
916.595	6376
916.708	6399
916.82	6357
916.932	6327
917.044	6399
917.156	6384
917.268	6353
917.38	6380
917.491	6311
917.603	6395
917.715	6372
917.826	6433
917.938	6308
918.049	6220
918.161	6331
918.272	6448
918.384	6426
918.495	6350
918.606	6258
918.717	6163
918.828	6258
918.939	6243
919.05	6224
919.161	6270
919.272	6106
919.383	6163
919.494	6285
919.604	6414
919.715	6277
919.826	6243
919.936	6243
920.047	6315
920.157	6251
920.267	6517
920.378	6281
920.488	6308
920.598	6418
920.708	6528
920.818	6517
920.928	6422
921.038	6597
921.148	6566
921.258	6350
921.368	6292
921.477	6262
921.587	6171
921.697	6022
921.806	6201
921.916	6068
922.025	5954
922.134	5866
922.244	5813
922.353	5969
922.462	5893
922.571	5794
922.68	5688
922.789	5676
922.898	5710
923.007	5619
923.116	5722
923.224	5661
923.333	5665
923.442	5566
923.55	5570
923.659	5592
923.767	5623
923.876	5558
923.984	5581
924.092	5512
924.201	5535
924.309	5577
924.417	5581
924.525	5581
924.633	5528
924.741	6258
924.849	5353
924.956	5433
925.064	5345
925.172	5269
925.279	5292
925.387	5322
925.494	5341
925.602	5391
925.709	5406
925.816	5185
925.924	5334
926.031	5299
926.138	5349
926.245	5322
926.352	5132
926.459	5288
926.566	5345
926.673	5204
926.779	5143
926.886	5132
926.993	5052
927.099	5010
927.206	4987
927.312	4965
927.419	5014
927.525	4923
927.631	4949
927.737	4927
927.843	4812
927.95	4767
928.056	4812
928.162	4797
928.267	4908
928.373	5318
928.479	4816
928.585	4615
928.69	4771
928.796	4797
928.901	4656
929.007	4558
929.112	4668
929.218	4622
929.323	4626
929.428	4603
929.533	4630
929.638	4531
929.743	4538
929.848	4535
929.953	4535
930.058	4432
930.163	4318
930.267	4314
930.372	4405
930.477	4303
930.581	4390
930.685	4341
930.79	4295
930.894	4253
930.998	4219
931.103	4394
931.207	4086
931.311	4021
931.415	4017
931.519	3930
931.623	3888
