Data from glass_V78500241_2089.txt Node
Date: Wed Sep 01 19:28:58 CST 2021
User: usil
Spectrometer: V785-0024
Trigger mode: 0
Integration Time (sec): 4.000000E-1
Scans to average: 1
Nonlinearity correction enabled: false
Boxcar width: 0
Storing dark spectrum: false
XAxis mode: Wavelengths
Number of Pixels in Spectrum: 1024
>>>>>Begin Spectral Data<<<<<
801.071	3743
801.214	3732
801.356	3724
801.499	3747
801.641	3732
801.783	3743
801.926	3861
802.068	3823
802.211	3846
802.353	3911
802.496	3880
802.638	3873
802.78	3941
802.923	3941
803.065	3854
803.208	3869
803.35	3869
803.492	3896
803.635	3892
803.777	3861
803.919	3899
804.061	4131
804.204	3949
804.346	3915
804.488	3956
804.63	4025
804.773	3979
804.915	4021
805.057	4124
805.199	4025
805.341	4048
805.483	4120
805.626	4101
805.768	4074
805.91	4204
806.052	4227
806.194	4192
806.336	4356
806.478	4181
806.62	4181
806.762	4200
806.904	4268
807.046	4303
807.188	4207
807.33	4173
807.472	4219
807.614	4166
807.756	4230
807.898	4242
808.04	4181
808.182	4287
808.324	4329
808.465	4333
808.607	4470
808.749	4485
808.891	4451
809.033	4489
809.174	4390
809.316	4253
809.458	4238
809.6	4143
809.741	4109
809.883	4093
810.025	4192
810.166	4204
810.308	4238
810.45	4227
810.591	4227
810.733	4268
810.875	4508
811.016	4805
811.158	5105
811.299	5242
811.441	5265
811.582	5025
811.724	4687
811.865	4485
812.007	4481
812.148	4489
812.29	4417
812.431	4383
812.573	4379
812.714	4367
812.855	4421
812.997	4409
813.138	4470
813.279	4394
813.421	4367
813.562	4360
813.703	4310
813.845	4333
813.986	4268
814.127	4162
814.268	4280
814.41	4310
814.551	4291
814.692	4310
814.833	4287
814.974	4246
815.115	4329
815.256	4284
815.397	4253
815.539	4215
815.68	4207
815.821	4204
815.962	4295
816.103	4234
816.244	4207
816.385	4204
816.526	4295
816.666	4196
816.807	4128
816.948	4181
817.089	4177
817.23	4074
817.371	3987
817.512	4090
817.653	4055
817.793	4010
817.934	3994
818.075	4128
818.216	4051
818.356	4051
818.497	3960
818.638	3915
818.778	3876
818.919	3865
819.06	3846
819.2	3884
819.341	3846
819.481	3861
819.622	3869
819.762	4006
819.903	3975
820.043	3831
820.184	3835
820.324	3789
820.465	3873
820.605	3861
820.746	3846
820.886	3793
821.026	3899
821.167	3876
821.307	3987
821.447	4032
821.588	3941
821.728	3907
821.868	3911
822.008	3819
822.149	3926
822.289	3903
822.429	3800
822.569	3774
822.709	3793
822.849	3698
822.99	3728
823.13	3728
823.27	3766
823.41	3717
823.55	3728
823.69	3728
823.83	3755
823.97	3694
824.11	3561
824.25	3663
824.389	3656
824.529	3656
824.669	3603
824.809	3736
824.949	3778
825.089	3736
825.228	3667
825.368	3538
825.508	3515
825.648	3542
825.787	3603
825.927	3644
826.067	3614
826.206	3637
826.346	3770
826.485	3846
826.625	3850
826.765	3930
826.904	3861
827.044	3652
827.183	3481
827.323	3397
827.462	3488
827.601	3397
827.741	3401
827.88	3477
828.02	3378
828.159	3374
828.298	3469
828.437	3519
828.577	3469
828.716	3568
828.855	3485
828.994	3370
829.134	3363
829.273	3359
829.412	3340
829.551	3348
829.69	3374
829.829	3409
829.968	3507
830.107	3409
830.246	3435
830.385	3374
830.524	3370
830.663	3306
830.802	3245
830.941	3195
831.08	3230
831.219	3325
831.357	3287
831.496	3367
831.635	3226
831.774	3150
831.913	3199
832.051	3116
832.19	3150
832.329	3169
832.467	3154
832.606	3085
832.744	3173
832.883	3192
833.022	3154
833.16	3275
833.299	3294
833.437	3321
833.576	3386
833.714	3401
833.852	3435
833.991	3439
834.129	3416
834.267	3428
834.406	3367
834.544	3393
834.682	3454
834.821	3397
834.959	3549
835.097	3389
835.235	3507
835.373	3504
835.511	3557
835.65	3473
835.788	3477
835.926	3393
836.064	3393
836.202	3409
836.34	3576
836.478	3595
836.615	3511
836.753	3587
836.891	3618
837.029	3629
837.167	3572
837.305	3545
837.443	3530
837.58	3511
837.718	3603
837.856	3523
837.993	3591
838.131	3576
838.269	3610
838.406	3580
838.544	3599
838.681	3481
838.819	3420
838.956	3405
839.094	3389
839.231	3466
839.369	3496
839.506	3690
839.643	3603
839.781	3488
839.918	3447
840.055	3523
840.193	3557
840.33	3561
840.467	3557
840.604	3606
840.742	3823
840.879	3507
841.016	3568
841.153	3572
841.29	3755
841.427	3720
841.564	3732
841.701	3728
841.838	3701
841.975	3675
842.112	3686
842.249	3610
842.385	3660
842.522	3838
842.659	3690
842.796	3652
842.933	3724
843.069	3736
843.206	3732
843.343	3793
843.479	3781
843.616	3835
843.752	3663
843.889	3671
844.025	3842
844.162	3705
844.298	3823
844.435	3778
844.571	3751
844.708	3827
844.844	3968
844.98	3994
845.117	3994
845.253	3896
845.389	3857
845.525	3949
845.661	3922
845.798	3899
845.934	3991
846.07	3926
846.206	4010
846.342	4109
846.478	4021
846.614	3953
846.75	3953
846.886	3876
847.022	3991
847.158	3930
847.294	3979
847.429	4002
847.565	3975
847.701	4249
847.837	3876
847.972	3823
848.108	4013
848.244	3975
848.379	3865
848.515	3793
848.65	3797
848.786	3831
848.921	3884
849.057	3949
849.192	3953
849.328	3869
849.463	3892
849.598	3907
849.734	3892
849.869	3812
850.004	3781
850.14	3793
850.275	3755
850.41	3713
850.545	3755
850.68	3819
850.815	3835
850.95	3755
851.085	3930
851.22	3854
851.355	3842
851.49	3762
851.625	3747
851.76	3785
851.895	3743
852.03	3743
852.165	3762
852.299	3880
852.434	3907
852.569	3846
852.703	3880
852.838	3915
852.973	3968
853.107	3994
853.242	3876
853.376	3880
853.511	3774
853.645	3842
853.78	3964
853.914	3876
854.048	3884
854.183	3892
854.317	3937
854.451	4074
854.585	3937
854.72	3953
854.854	4036
854.988	3960
855.122	3994
855.256	3922
855.39	3998
855.524	4082
855.658	4093
855.792	4128
855.926	4150
856.06	4150
856.194	4196
856.327	4143
856.461	4082
856.595	4169
856.729	4200
856.862	4272
856.996	4185
857.13	4314
857.263	4344
857.397	4390
857.53	4299
857.664	4303
857.797	4413
857.931	4413
858.064	4383
858.197	4432
858.331	4367
858.464	4413
858.597	4363
858.731	4443
858.864	4428
858.997	4413
859.13	4497
859.263	4500
859.396	4577
859.529	4550
859.662	4535
859.795	4508
859.928	4615
860.061	4710
860.194	4748
860.327	4645
860.46	4584
860.592	4763
860.725	4790
860.858	4763
860.99	4675
861.123	4683
861.256	4698
861.388	4759
861.521	5490
861.653	4733
861.786	4664
861.918	4774
862.05	4763
862.183	4839
862.315	4904
862.447	4900
862.58	4908
862.712	4793
862.844	4744
862.976	4904
863.108	4858
863.24	5181
863.372	4805
863.504	4892
863.636	4889
863.768	4908
863.9	4984
864.032	4934
864.164	4957
864.296	5033
864.428	5098
864.559	5071
864.691	5060
864.823	5143
864.954	5094
865.086	5147
865.217	5174
865.349	5086
865.48	5090
865.612	5189
865.743	5326
865.875	5178
866.006	5102
866.137	5189
866.269	5258
866.4	5239
866.531	5208
866.662	5220
866.793	5296
866.924	5223
867.055	5265
867.186	5315
867.317	5284
867.448	5288
867.579	5353
867.71	5395
867.841	5402
867.972	5448
868.103	5448
868.233	5429
868.364	5467
868.495	5551
868.625	5627
868.756	5767
868.886	5668
869.017	5779
869.147	5897
869.278	5866
869.408	5813
869.539	5863
869.669	5923
869.799	5863
869.929	6034
870.06	5942
870.19	6167
870.32	6163
870.45	6251
870.58	6384
870.71	6445
870.84	6445
870.97	6418
871.1	6448
871.23	6604
871.36	6642
871.489	6612
871.619	6635
871.749	6863
871.879	6856
872.008	6951
872.138	6966
872.267	7004
872.397	6951
872.526	6954
872.656	7057
872.785	7236
872.915	7301
873.044	7499
873.173	7514
873.303	7689
873.432	7708
873.561	7852
873.69	7967
873.819	8008
873.948	8149
874.077	8240
874.206	8301
874.335	8473
874.464	8606
874.593	8902
874.722	9009
874.851	9142
874.979	9241
875.108	9340
875.237	9462
875.365	9488
875.494	9633
875.623	9823
875.751	9854
875.88	9960
876.008	10067
876.136	10253
876.265	10432
876.393	10729
876.521	10672
876.65	10812
876.778	10881
876.906	10911
877.034	10987
877.162	11128
877.29	11143
877.418	11246
877.546	11391
877.674	11383
877.802	11444
877.93	11467
878.058	11627
878.185	11516
878.313	11627
878.441	11688
878.568	11589
878.696	11764
878.824	11901
878.951	11927
879.079	11973
879.206	12110
879.333	11920
879.461	11942
879.588	11999
879.715	12026
879.842	12216
879.97	12125
880.097	11832
880.224	11912
880.351	11832
880.478	11836
880.605	11783
880.732	11870
880.859	12022
880.986	11832
881.112	11870
881.239	11642
881.366	11627
881.493	11543
881.619	11619
881.746	11535
881.872	11467
881.999	11421
882.125	11505
882.252	11505
882.378	11520
882.505	11547
882.631	11444
882.757	11242
882.883	11246
883.01	11250
883.136	11185
883.262	11121
883.388	11045
883.514	11102
883.64	11090
883.766	11121
883.892	10991
884.018	11025
884.143	11075
884.269	11151
884.395	10748
884.52	10828
884.646	10733
884.772	10706
884.897	10656
885.023	10645
885.148	10683
885.274	10778
885.399	10717
885.524	10660
885.65	10584
885.775	10656
885.9	10588
886.025	10637
886.15	10550
886.275	10405
886.4	10379
886.525	10371
886.65	10341
886.775	10352
886.9	10478
887.025	10531
887.149	10375
887.274	10147
887.399	10185
887.523	10173
887.648	10120
887.773	10143
887.897	10234
888.021	10181
888.146	10215
888.27	10162
888.395	10200
888.519	10188
888.643	10169
888.767	10204
888.891	10093
889.015	10036
889.139	10093
889.263	9987
889.387	10078
889.511	10124
889.635	10036
889.759	9903
889.883	9956
890.006	9983
890.13	10162
890.254	9964
890.377	9972
890.501	9835
890.624	9903
890.748	9876
890.871	9797
890.995	9740
891.118	9713
891.241	9789
891.364	9766
891.488	9797
891.611	9675
891.734	9770
891.857	9770
891.98	9705
892.103	9747
892.226	9747
892.349	9675
892.471	9523
892.594	9648
892.717	9564
892.839	9603
892.962	9564
893.085	9705
893.207	9568
893.33	9542
893.452	9488
893.575	9542
893.697	9477
893.819	9633
893.941	9694
894.064	9538
894.186	9363
894.308	9447
894.43	9492
894.552	9603
894.674	9526
894.796	9416
894.918	9424
895.04	9325
895.161	9367
895.283	9325
895.405	9306
895.526	9249
895.648	9233
895.769	9294
895.891	9230
896.012	9321
896.134	9154
896.255	9161
896.376	9077
896.498	9131
896.619	9173
896.74	9043
896.861	9058
896.982	9264
897.103	9298
897.224	9157
897.345	9104
897.466	9032
897.587	9043
897.708	9039
897.828	9009
897.949	8899
898.07	8838
898.19	8899
898.311	8982
898.431	8948
898.552	8902
898.672	8975
898.792	8853
898.913	8868
899.033	8823
899.153	8724
899.273	8697
899.393	8758
899.513	8781
899.633	8724
899.753	8750
899.873	8621
899.993	8777
900.113	8636
900.232	8697
900.352	8636
900.472	8617
900.591	8514
900.711	8514
900.83	8556
900.95	8613
901.069	8716
901.189	8549
901.308	8434
901.427	8454
901.546	8408
901.665	8450
901.784	8434
901.904	8355
902.023	8336
902.141	8191
902.26	8221
902.379	8191
902.498	8183
902.617	8176
902.735	8301
902.854	8271
902.973	8240
903.091	8077
903.21	8058
903.328	8191
903.446	8088
903.565	8073
903.683	8126
903.801	8024
903.919	8100
904.038	8107
904.156	8035
904.274	8100
904.392	7944
904.51	8035
904.627	7986
904.745	8043
904.863	8020
904.981	7963
905.098	7849
905.216	7875
905.334	7871
905.451	7898
905.569	7906
905.686	7932
905.803	7906
905.921	7803
906.038	7887
906.155	7811
906.272	7712
906.389	7742
906.506	7613
906.623	7628
906.74	7582
906.857	7502
906.974	7597
907.091	7662
907.208	7658
907.324	7594
907.441	7575
907.557	7453
907.674	7445
907.79	7392
907.907	7422
908.023	7362
908.139	7400
908.256	7373
908.372	7346
908.488	7270
908.604	7278
908.72	7247
908.836	7327
908.952	7232
909.068	7331
909.184	7270
909.3	7255
909.415	7285
909.531	7251
909.647	7107
909.762	7175
909.878	7061
909.993	7129
910.108	7069
910.224	7061
910.339	7137
910.454	7057
910.57	6962
910.685	6897
910.8	7171
910.915	7057
911.03	7000
911.145	6897
911.259	6863
911.374	6867
911.489	6837
911.604	6844
911.718	6658
911.833	6711
911.947	6635
912.062	6578
912.176	6696
912.291	6734
912.405	6639
912.519	6840
912.633	6760
912.748	6749
912.862	6654
912.976	6639
913.09	6521
913.204	6608
913.318	6601
913.431	6665
913.545	6768
913.659	6726
913.772	6658
913.886	6582
914	6551
914.113	6658
914.226	6711
914.34	6658
914.453	6490
914.566	6578
914.68	6528
914.793	6498
914.906	6395
915.019	6353
915.132	6331
915.245	6426
915.358	6467
915.47	6388
915.583	6467
915.696	6494
915.809	6532
915.921	6521
916.034	6391
916.146	6365
916.259	6338
916.371	6475
916.483	6433
916.595	6361
916.708	6391
916.82	6361
916.932	6426
917.044	6327
917.156	6384
917.268	6315
917.38	6262
917.491	6270
917.603	6270
917.715	6422
917.826	6372
917.938	6285
918.049	6273
918.161	6331
918.272	6403
918.384	6452
918.495	6300
918.606	6251
918.717	6197
918.828	6308
918.939	6254
919.05	6171
919.161	6216
919.272	6072
919.383	6106
919.494	6289
919.604	6467
919.715	6315
919.826	6254
919.936	6300
920.047	6323
920.157	6258
920.267	6460
920.378	6296
920.488	6281
920.598	6414
920.708	6528
920.818	6437
920.928	6414
921.038	6566
921.148	6536
921.258	6334
921.368	6346
921.477	6182
921.587	6201
921.697	6083
921.806	6186
921.916	6083
922.025	5973
922.134	5969
922.244	5882
922.353	5897
922.462	5866
922.571	5771
922.68	5676
922.789	5642
922.898	5638
923.007	5646
923.116	5642
923.224	5695
923.333	5604
923.442	5596
923.55	5493
923.659	5596
923.767	5581
923.876	5501
923.984	5539
924.092	5543
924.201	5539
924.309	5535
924.417	5554
924.525	5482
924.633	5448
924.741	6254
924.849	5353
924.956	5448
925.064	5311
925.172	5330
925.279	5296
925.387	5341
925.494	5349
925.602	5436
925.709	5322
925.816	5303
925.924	5299
926.031	5360
926.138	5345
926.245	5273
926.352	5189
926.459	5261
926.566	5235
926.673	5166
926.779	5075
926.886	5083
926.993	5060
927.099	4961
927.206	5010
927.312	4919
927.419	5025
927.525	4965
927.631	4999
927.737	4839
927.843	4824
927.95	4786
928.056	4824
928.162	4805
928.267	4862
928.373	5307
928.479	4858
928.585	4615
928.69	4790
928.796	4763
928.901	4683
929.007	4592
929.112	4664
929.218	4637
929.323	4573
929.428	4565
929.533	4748
929.638	4497
929.743	4538
929.848	4569
929.953	4508
930.058	4451
930.163	4348
930.267	4363
930.372	4424
930.477	4318
930.581	4466
930.685	4344
930.79	4261
930.894	4291
930.998	4253
931.103	4371
931.207	4124
931.311	4128
931.415	4048
931.519	3953
931.623	3975
