Data from glass_V78500241_1010.txt Node
Date: Wed Sep 01 19:21:30 CST 2021
User: usil
Spectrometer: V785-0024
Trigger mode: 0
Integration Time (sec): 4.000000E-1
Scans to average: 1
Nonlinearity correction enabled: false
Boxcar width: 0
Storing dark spectrum: false
XAxis mode: Wavelengths
Number of Pixels in Spectrum: 1024
>>>>>Begin Spectral Data<<<<<
801.071	3766
801.214	3778
801.356	3686
801.499	3778
801.641	3705
801.783	3759
801.926	3873
802.068	3835
802.211	3873
802.353	3915
802.496	3857
802.638	3888
802.78	3926
802.923	3956
803.065	3915
803.208	3861
803.35	3911
803.492	3911
803.635	3922
803.777	3896
803.919	3899
804.061	4166
804.204	3964
804.346	3987
804.488	3899
804.63	3998
804.773	3975
804.915	4059
805.057	4166
805.199	4063
805.341	4105
805.483	4131
805.626	4143
805.768	4109
805.91	4207
806.052	4249
806.194	4227
806.336	4363
806.478	4211
806.62	4249
806.762	4173
806.904	4322
807.046	4352
807.188	4181
807.33	4185
807.472	4276
807.614	4215
807.756	4272
807.898	4234
808.04	4211
808.182	4291
808.324	4333
808.465	4379
808.607	4451
808.749	4436
808.891	4504
809.033	4500
809.174	4325
809.316	4234
809.458	4257
809.6	4162
809.741	4131
809.883	4196
810.025	4230
810.166	4234
810.308	4242
810.45	4265
810.591	4261
810.733	4314
810.875	4546
811.016	4854
811.158	5174
811.299	5254
811.441	5292
811.582	5071
811.724	4679
811.865	4451
812.007	4478
812.148	4455
812.29	4421
812.431	4413
812.573	4428
812.714	4367
812.855	4405
812.997	4443
813.138	4554
813.279	4462
813.421	4405
813.562	4413
813.703	4383
813.845	4348
813.986	4284
814.127	4211
814.268	4253
814.41	4287
814.551	4238
814.692	4325
814.833	4299
814.974	4371
815.115	4333
815.256	4284
815.397	4257
815.539	4253
815.68	4223
815.821	4227
815.962	4303
816.103	4284
816.244	4284
816.385	4246
816.526	4299
816.666	4249
816.807	4112
816.948	4200
817.089	4162
817.23	4135
817.371	4090
817.512	4048
817.653	4048
817.793	4051
817.934	4032
818.075	4154
818.216	4074
818.356	4059
818.497	3998
818.638	3896
818.778	3949
818.919	3873
819.06	3907
819.2	3930
819.341	3884
819.481	3819
819.622	3876
819.762	4074
819.903	3983
820.043	3869
820.184	3861
820.324	3816
820.465	3899
820.605	3880
820.746	3850
820.886	3808
821.026	3994
821.167	3907
821.307	4021
821.447	4029
821.588	3968
821.728	3937
821.868	3949
822.008	3884
822.149	3899
822.289	3960
822.429	3793
822.569	3778
822.709	3774
822.849	3663
822.99	3751
823.13	3774
823.27	3846
823.41	3701
823.55	3709
823.69	3755
823.83	3778
823.97	3690
824.11	3644
824.25	3629
824.389	3648
824.529	3701
824.669	3618
824.809	3698
824.949	3724
825.089	3732
825.228	3728
825.368	3610
825.508	3561
825.648	3568
825.787	3641
825.927	3671
826.067	3667
826.206	3679
826.346	3762
826.485	3846
826.625	3819
826.765	3964
826.904	3812
827.044	3595
827.183	3557
827.323	3466
827.462	3500
827.601	3454
827.741	3473
827.88	3469
828.02	3416
828.159	3443
828.298	3496
828.437	3523
828.577	3473
828.716	3618
828.855	3488
828.994	3424
829.134	3378
829.273	3416
829.412	3359
829.551	3351
829.69	3420
829.829	3435
829.968	3504
830.107	3416
830.246	3409
830.385	3393
830.524	3340
830.663	3283
830.802	3264
830.941	3176
831.08	3180
831.219	3272
831.357	3283
831.496	3405
831.635	3268
831.774	3188
831.913	3211
832.051	3127
832.19	3176
832.329	3218
832.467	3135
832.606	3154
832.744	3184
832.883	3199
833.022	3199
833.16	3287
833.299	3306
833.437	3340
833.576	3389
833.714	3397
833.852	3443
833.991	3496
834.129	3523
834.267	3454
834.406	3389
834.544	3439
834.682	3401
834.821	3439
834.959	3580
835.097	3431
835.235	3553
835.373	3511
835.511	3534
835.65	3481
835.788	3488
835.926	3363
836.064	3348
836.202	3439
836.34	3576
836.478	3618
836.615	3572
836.753	3606
836.891	3633
837.029	3595
837.167	3633
837.305	3564
837.443	3549
837.58	3523
837.718	3633
837.856	3584
837.993	3572
838.131	3629
838.269	3614
838.406	3614
838.544	3595
838.681	3481
838.819	3405
838.956	3374
839.094	3412
839.231	3409
839.369	3523
839.506	3720
839.643	3629
839.781	3477
839.918	3454
840.055	3568
840.193	3561
840.33	3538
840.467	3564
840.604	3599
840.742	3850
840.879	3572
841.016	3595
841.153	3610
841.29	3766
841.427	3720
841.564	3698
841.701	3747
841.838	3682
841.975	3675
842.112	3667
842.249	3637
842.385	3622
842.522	3850
842.659	3724
842.796	3698
842.933	3713
843.069	3724
843.206	3728
843.343	3774
843.479	3785
843.616	3842
843.752	3652
843.889	3705
844.025	3842
844.162	3709
844.298	3854
844.435	3766
844.571	3831
844.708	3861
844.844	4002
844.98	4051
845.117	4025
845.253	3960
845.389	3907
845.525	3987
845.661	3987
845.798	3949
845.934	4006
846.07	4002
846.206	4029
846.342	4131
846.478	4071
846.614	3968
846.75	3945
846.886	3956
847.022	4051
847.158	4013
847.294	4006
847.429	4074
847.565	4040
847.701	4253
847.837	3880
847.972	3819
848.108	3937
848.244	3964
848.379	3888
848.515	3835
848.65	3869
848.786	3869
848.921	3854
849.057	3911
849.192	3964
849.328	3915
849.463	3892
849.598	3911
849.734	3903
849.869	3846
850.004	3808
850.14	3819
850.275	3785
850.41	3740
850.545	3724
850.68	3759
850.815	3808
850.95	3797
851.085	3968
851.22	3854
851.355	3804
851.49	3819
851.625	3804
851.76	3812
851.895	3736
852.03	3724
852.165	3781
852.299	3857
852.434	3896
852.569	3888
852.703	3880
852.838	3937
852.973	3998
853.107	3975
853.242	3884
853.376	3857
853.511	3800
853.645	3838
853.78	3964
853.914	3915
854.048	3907
854.183	3896
854.317	3991
854.451	4105
854.585	3972
854.72	3960
854.854	4112
854.988	3953
855.122	3956
855.256	3903
855.39	4032
855.524	4143
855.658	4071
855.792	4082
855.926	4135
856.06	4158
856.194	4185
856.327	4154
856.461	4105
856.595	4215
856.729	4196
856.862	4238
856.996	4272
857.13	4265
857.263	4337
857.397	4398
857.53	4306
857.664	4363
857.797	4398
857.931	4436
858.064	4390
858.197	4413
858.331	4398
858.464	4413
858.597	4383
858.731	4508
858.864	4493
858.997	4481
859.13	4531
859.263	4550
859.396	4577
859.529	4523
859.662	4550
859.795	4561
859.928	4599
860.061	4752
860.194	4748
860.327	4653
860.46	4656
860.592	4714
860.725	4812
860.858	4801
860.99	4710
861.123	4710
861.256	4694
861.388	4782
861.521	5501
861.653	4729
861.786	4725
861.918	4782
862.05	4797
862.183	4816
862.315	4930
862.447	4923
862.58	4892
862.712	4763
862.844	4843
862.976	4854
863.108	4858
863.24	5277
863.372	4809
863.504	4889
863.636	4930
863.768	5010
863.9	4980
864.032	4961
864.164	4949
864.296	5048
864.428	5109
864.559	5155
864.691	5124
864.823	5128
864.954	5060
865.086	5189
865.217	5155
865.349	5067
865.48	5140
865.612	5166
865.743	5288
865.875	5181
866.006	5201
866.137	5254
866.269	5212
866.4	5231
866.531	5216
866.662	5254
866.793	5250
866.924	5269
867.055	5353
867.186	5395
867.317	5337
867.448	5330
867.579	5444
867.71	5372
867.841	5448
867.972	5570
868.103	5440
868.233	5573
868.364	5528
868.495	5566
868.625	5684
868.756	5802
868.886	5638
869.017	5714
869.147	5859
869.278	5870
869.408	5847
869.539	5844
869.669	5847
869.799	5878
869.929	6026
870.06	6068
870.19	6117
870.32	6186
870.45	6350
870.58	6315
870.71	6376
870.84	6479
870.97	6391
871.1	6490
871.23	6593
871.36	6749
871.489	6700
871.619	6738
871.749	6856
871.879	6863
872.008	6973
872.138	6928
872.267	7023
872.397	7023
872.526	7110
872.656	7095
872.785	7221
872.915	7388
873.044	7495
873.173	7586
873.303	7655
873.432	7746
873.561	7890
873.69	7898
873.819	8027
873.948	8134
874.077	8210
874.206	8309
874.335	8514
874.464	8659
874.593	8929
874.722	8963
874.851	9085
874.979	9260
875.108	9317
875.237	9408
875.365	9561
875.494	9652
875.623	9884
875.751	9846
875.88	10021
876.008	10128
876.136	10318
876.265	10470
876.393	10698
876.521	10733
876.65	10828
876.778	10934
876.906	10976
877.034	10965
877.162	11128
877.29	11140
877.418	11299
877.546	11326
877.674	11471
877.802	11520
877.93	11463
878.058	11566
878.185	11596
878.313	11714
878.441	11779
878.568	11729
878.696	11870
878.824	11866
878.951	11969
879.079	12011
879.206	12186
879.333	12030
879.461	12034
879.588	12121
879.715	12076
879.842	12197
879.97	12095
880.097	11897
880.224	11908
880.351	11836
880.478	11878
880.605	11798
880.732	11809
880.859	12091
880.986	11840
881.112	11798
881.239	11718
881.366	11646
881.493	11646
881.619	11543
881.746	11627
881.872	11539
881.999	11577
882.125	11474
882.252	11596
882.378	11589
882.505	11562
882.631	11334
882.757	11292
882.883	11280
883.01	11220
883.136	11064
883.262	11159
883.388	11079
883.514	11174
883.64	11223
883.766	11064
883.892	11022
884.018	10968
884.143	11181
884.269	11159
884.395	10885
884.52	10710
884.646	10744
884.772	10774
884.897	10637
885.023	10691
885.148	10725
885.274	10812
885.399	10679
885.524	10649
885.65	10573
885.775	10615
885.9	10550
886.025	10622
886.15	10622
886.275	10462
886.4	10375
886.525	10367
886.65	10405
886.775	10325
886.9	10481
887.025	10504
887.149	10360
887.274	10204
887.399	10265
887.523	10158
887.648	10143
887.773	10188
887.897	10257
888.021	10158
888.146	10124
888.27	10246
888.395	10200
888.519	10188
888.643	10120
888.767	10227
888.891	10120
889.015	10078
889.139	10078
889.263	9941
889.387	10090
889.511	10131
889.635	10067
889.759	9953
889.883	9956
890.006	10013
890.13	10143
890.254	9953
890.377	9903
890.501	9838
890.624	9850
890.748	9941
890.871	9880
890.995	9743
891.118	9755
891.241	9732
891.364	9743
891.488	9907
891.611	9759
891.734	9797
891.857	9846
891.98	9785
892.103	9823
892.226	9717
892.349	9667
892.471	9530
892.594	9648
892.717	9576
892.839	9599
892.962	9568
893.085	9633
893.207	9580
893.33	9526
893.452	9591
893.575	9603
893.697	9504
893.819	9633
893.941	9618
894.064	9610
894.186	9439
894.308	9401
894.43	9538
894.552	9561
894.674	9564
894.796	9412
894.918	9332
895.04	9336
895.161	9355
895.283	9431
895.405	9268
895.526	9275
895.648	9287
895.769	9249
895.891	9317
896.012	9298
896.134	9211
896.255	9211
896.376	9127
896.498	9180
896.619	9195
896.74	9047
896.861	9165
896.982	9222
897.103	9424
897.224	9218
897.345	9089
897.466	9013
897.587	8971
897.708	9089
897.828	9032
897.949	8975
898.07	8838
898.19	8944
898.311	9055
898.431	8876
898.552	8895
898.672	9055
898.792	8925
898.913	8910
899.033	8864
899.153	8823
899.273	8667
899.393	8708
899.513	8769
899.633	8750
899.753	8807
899.873	8705
899.993	8758
900.113	8712
900.232	8743
900.352	8667
900.472	8651
900.591	8568
900.711	8640
900.83	8583
900.95	8670
901.069	8689
901.189	8602
901.308	8465
901.427	8419
901.546	8408
901.665	8454
901.784	8480
901.904	8351
902.023	8347
902.141	8301
902.26	8244
902.379	8259
902.498	8183
902.617	8221
902.735	8324
902.854	8282
902.973	8259
903.091	8145
903.21	8206
903.328	8168
903.446	8111
903.565	8111
903.683	8073
903.801	8058
903.919	8168
904.038	8142
904.156	8008
904.274	8092
904.392	8062
904.51	8046
904.627	8088
904.745	8111
904.863	8164
904.981	7951
905.098	7925
905.216	7833
905.334	7894
905.451	7921
905.569	7845
905.686	7951
905.803	7909
905.921	7807
906.038	7883
906.155	7799
906.272	7719
906.389	7731
906.506	7628
906.623	7636
906.74	7624
906.857	7563
906.974	7548
907.091	7689
907.208	7677
907.324	7670
907.441	7567
907.557	7502
907.674	7499
907.79	7365
907.907	7426
908.023	7483
908.139	7438
908.256	7430
908.372	7301
908.488	7316
908.604	7297
908.72	7270
908.836	7316
908.952	7297
909.068	7282
909.184	7293
909.3	7255
909.415	7255
909.531	7282
909.647	7103
909.762	7187
909.878	7126
909.993	7118
910.108	7069
910.224	7099
910.339	7175
910.454	7038
910.57	7000
910.685	6943
910.8	7141
910.915	7137
911.03	7027
911.145	6924
911.259	6825
911.374	6935
911.489	6928
911.604	6719
911.718	6681
911.833	6760
911.947	6631
912.062	6601
912.176	6703
912.291	6688
912.405	6684
912.519	6821
912.633	6856
912.748	6734
912.862	6639
912.976	6551
913.09	6540
913.204	6559
913.318	6677
913.431	6707
913.545	6696
913.659	6700
913.772	6627
913.886	6540
914	6563
914.113	6608
914.226	6566
914.34	6673
914.453	6502
914.566	6608
914.68	6517
914.793	6536
914.906	6376
915.019	6353
915.132	6384
915.245	6353
915.358	6448
915.47	6475
915.583	6467
915.696	6532
915.809	6498
915.921	6506
916.034	6460
916.146	6426
916.259	6429
916.371	6441
916.483	6395
916.595	6429
916.708	6426
916.82	6429
916.932	6395
917.044	6365
917.156	6391
917.268	6331
917.38	6346
917.491	6292
917.603	6353
917.715	6399
917.826	6475
917.938	6376
918.049	6251
918.161	6346
918.272	6391
918.384	6456
918.495	6357
918.606	6273
918.717	6213
918.828	6289
918.939	6239
919.05	6247
919.161	6266
919.272	6178
919.383	6186
919.494	6262
919.604	6498
919.715	6323
919.826	6251
919.936	6296
920.047	6350
920.157	6300
920.267	6452
920.378	6372
920.488	6308
920.598	6437
920.708	6551
920.818	6494
920.928	6471
921.038	6684
921.148	6570
921.258	6384
921.368	6311
921.477	6273
921.587	6182
921.697	6129
921.806	6239
921.916	6087
922.025	5946
922.134	5942
922.244	5904
922.353	6015
922.462	5847
922.571	5828
922.68	5710
922.789	5691
922.898	5722
923.007	5638
923.116	5718
923.224	5695
923.333	5672
923.442	5608
923.55	5600
923.659	5558
923.767	5653
923.876	5524
923.984	5649
924.092	5547
924.201	5573
924.309	5562
924.417	5573
924.525	5551
924.633	5478
924.741	6277
924.849	5318
924.956	5482
925.064	5444
925.172	5318
925.279	5326
925.387	5360
925.494	5303
925.602	5402
925.709	5387
925.816	5265
925.924	5334
926.031	5395
926.138	5265
926.245	5379
926.352	5269
926.459	5395
926.566	5345
926.673	5231
926.779	5140
926.886	5124
926.993	5048
927.099	4999
927.206	5010
927.312	4991
927.419	5045
927.525	4987
927.631	5003
927.737	4930
927.843	4843
927.95	4790
928.056	4858
928.162	4843
928.267	4843
928.373	5387
928.479	4881
928.585	4729
928.69	4740
928.796	4755
928.901	4702
929.007	4611
929.112	4710
929.218	4656
929.323	4611
929.428	4565
929.533	4691
929.638	4535
929.743	4561
929.848	4588
929.953	4485
930.058	4413
930.163	4383
930.267	4383
930.372	4459
930.477	4329
930.581	4470
930.685	4409
930.79	4280
930.894	4306
930.998	4249
931.103	4432
931.207	4158
931.311	4063
931.415	4071
931.519	3956
931.623	3991
