Data from glass_V78500241_680.txt Node
Date: Wed Sep 01 19:19:12 CST 2021
User: usil
Spectrometer: V785-0024
Trigger mode: 0
Integration Time (sec): 4.000000E-1
Scans to average: 1
Nonlinearity correction enabled: false
Boxcar width: 0
Storing dark spectrum: false
XAxis mode: Wavelengths
Number of Pixels in Spectrum: 1024
>>>>>Begin Spectral Data<<<<<
801.071	3812
801.214	3755
801.356	3656
801.499	3759
801.641	3732
801.783	3755
801.926	3850
802.068	3880
802.211	3907
802.353	3896
802.496	3899
802.638	3899
802.78	3987
802.923	3975
803.065	3899
803.208	3854
803.35	3896
803.492	3896
803.635	3884
803.777	3838
803.919	3941
804.061	4204
804.204	3964
804.346	3953
804.488	3987
804.63	4063
804.773	4006
804.915	4051
805.057	4169
805.199	4044
805.341	4082
805.483	4166
805.626	4154
805.768	4147
805.91	4207
806.052	4219
806.194	4207
806.336	4306
806.478	4238
806.62	4143
806.762	4223
806.904	4253
807.046	4375
807.188	4223
807.33	4204
807.472	4295
807.614	4196
807.756	4242
807.898	4196
808.04	4204
808.182	4310
808.324	4394
808.465	4344
808.607	4497
808.749	4455
808.891	4478
809.033	4516
809.174	4451
809.316	4295
809.458	4272
809.6	4116
809.741	4131
809.883	4150
810.025	4276
810.166	4242
810.308	4230
810.45	4257
810.591	4238
810.733	4291
810.875	4500
811.016	4847
811.158	5136
811.299	5277
811.441	5280
811.582	5079
811.724	4710
811.865	4516
812.007	4470
812.148	4402
812.29	4409
812.431	4405
812.573	4417
812.714	4367
812.855	4402
812.997	4424
813.138	4497
813.279	4383
813.421	4409
813.562	4352
813.703	4310
813.845	4356
813.986	4291
814.127	4253
814.268	4299
814.41	4280
814.551	4344
814.692	4356
814.833	4295
814.974	4337
815.115	4341
815.256	4291
815.397	4272
815.539	4280
815.68	4150
815.821	4242
815.962	4257
816.103	4238
816.244	4284
816.385	4272
816.526	4299
816.666	4246
816.807	4120
816.948	4200
817.089	4242
817.23	4128
817.371	4074
817.512	4086
817.653	4135
817.793	4002
817.934	4090
818.075	4112
818.216	4074
818.356	4090
818.497	4021
818.638	3937
818.778	3934
818.919	3926
819.06	3873
819.2	3915
819.341	3827
819.481	3850
819.622	3915
819.762	4025
819.903	3945
820.043	3876
820.184	3823
820.324	3861
820.465	3903
820.605	3876
820.746	3857
820.886	3808
821.026	3941
821.167	3911
821.307	3987
821.447	3979
821.588	3949
821.728	3960
821.868	3968
822.008	3846
822.149	3934
822.289	3934
822.429	3812
822.569	3759
822.709	3819
822.849	3701
822.99	3766
823.13	3778
823.27	3774
823.41	3762
823.55	3797
823.69	3789
823.83	3743
823.97	3694
824.11	3614
824.25	3603
824.389	3644
824.529	3671
824.669	3663
824.809	3713
824.949	3717
825.089	3747
825.228	3690
825.368	3625
825.508	3557
825.648	3591
825.787	3606
825.927	3698
826.067	3633
826.206	3701
826.346	3800
826.485	3831
826.625	3861
826.765	3930
826.904	3827
827.044	3599
827.183	3538
827.323	3466
827.462	3515
827.601	3431
827.741	3435
827.88	3462
828.02	3397
828.159	3481
828.298	3515
828.437	3545
828.577	3492
828.716	3614
828.855	3515
828.994	3386
829.134	3348
829.273	3424
829.412	3382
829.551	3325
829.69	3378
829.829	3450
829.968	3553
830.107	3443
830.246	3477
830.385	3405
830.524	3397
830.663	3329
830.802	3291
830.941	3237
831.08	3192
831.219	3287
831.357	3283
831.496	3412
831.635	3272
831.774	3214
831.913	3233
832.051	3135
832.19	3146
832.329	3211
832.467	3138
832.606	3097
832.744	3188
832.883	3230
833.022	3195
833.16	3245
833.299	3351
833.437	3306
833.576	3386
833.714	3397
833.852	3416
833.991	3420
834.129	3519
834.267	3428
834.406	3439
834.544	3412
834.682	3412
834.821	3416
834.959	3564
835.097	3481
835.235	3519
835.373	3511
835.511	3473
835.65	3500
835.788	3507
835.926	3416
836.064	3389
836.202	3374
836.34	3599
836.478	3606
836.615	3564
836.753	3599
836.891	3652
837.029	3641
837.167	3584
837.305	3595
837.443	3572
837.58	3504
837.718	3587
837.856	3580
837.993	3549
838.131	3599
838.269	3568
838.406	3603
838.544	3595
838.681	3507
838.819	3439
838.956	3389
839.094	3405
839.231	3424
839.369	3507
839.506	3740
839.643	3652
839.781	3507
839.918	3469
840.055	3530
840.193	3542
840.33	3526
840.467	3606
840.604	3614
840.742	3793
840.879	3587
841.016	3564
841.153	3603
841.29	3743
841.427	3766
841.564	3705
841.701	3759
841.838	3698
841.975	3755
842.112	3717
842.249	3667
842.385	3644
842.522	3873
842.659	3720
842.796	3652
842.933	3720
843.069	3698
843.206	3732
843.343	3793
843.479	3740
843.616	3869
843.752	3690
843.889	3667
844.025	3903
844.162	3709
844.298	3873
844.435	3797
844.571	3778
844.708	3892
844.844	4051
844.98	4036
845.117	4029
845.253	3968
845.389	3941
845.525	3987
845.661	3964
845.798	3907
845.934	4071
846.07	3991
846.206	4086
846.342	4090
846.478	4044
846.614	4021
846.75	3949
846.886	3922
847.022	4074
847.158	4029
847.294	4017
847.429	4029
847.565	4002
847.701	4227
847.837	3926
847.972	3873
848.108	3960
848.244	4017
848.379	3876
848.515	3876
848.65	3846
848.786	3903
848.921	3861
849.057	3964
849.192	3960
849.328	3956
849.463	3934
849.598	3865
849.734	3865
849.869	3793
850.004	3800
850.14	3819
850.275	3789
850.41	3781
850.545	3755
850.68	3766
850.815	3816
850.95	3800
851.085	3915
851.22	3880
851.355	3857
851.49	3819
851.625	3850
851.76	3838
851.895	3759
852.03	3736
852.165	3819
852.299	3823
852.434	3915
852.569	3873
852.703	3903
852.838	3945
852.973	3998
853.107	3998
853.242	3888
853.376	3850
853.511	3759
853.645	3816
853.78	3991
853.914	3918
854.048	3899
854.183	3911
854.317	3960
854.451	4105
854.585	3983
854.72	3915
854.854	4051
854.988	3953
855.122	4032
855.256	3953
855.39	4032
855.524	4093
855.658	4086
855.792	4109
855.926	4139
856.06	4173
856.194	4215
856.327	4154
856.461	4162
856.595	4135
856.729	4177
856.862	4291
856.996	4265
857.13	4299
857.263	4363
857.397	4348
857.53	4344
857.664	4375
857.797	4363
857.931	4432
858.064	4417
858.197	4428
858.331	4421
858.464	4417
858.597	4371
858.731	4459
858.864	4481
858.997	4497
859.13	4535
859.263	4516
859.396	4569
859.529	4500
859.662	4527
859.795	4542
859.928	4603
860.061	4759
860.194	4736
860.327	4664
860.46	4679
860.592	4805
860.725	4778
860.858	4793
860.99	4698
861.123	4679
861.256	4683
861.388	4805
861.521	5288
861.653	4733
861.786	4675
861.918	4782
862.05	4801
862.183	4835
862.315	4904
862.447	4946
862.58	4896
862.712	4816
862.844	4790
862.976	4881
863.108	4904
863.24	5326
863.372	4889
863.504	4896
863.636	4904
863.768	4980
863.9	4953
864.032	4930
864.164	5003
864.296	4984
864.428	5113
864.559	5102
864.691	5121
864.823	5174
864.954	5060
865.086	5170
865.217	5075
865.349	5102
865.48	5227
865.612	5223
865.743	5303
865.875	5220
866.006	5193
866.137	5242
866.269	5220
866.4	5280
866.531	5258
866.662	5239
866.793	5296
866.924	5299
867.055	5349
867.186	5341
867.317	5292
867.448	5299
867.579	5372
867.71	5353
867.841	5402
867.972	5478
868.103	5459
868.233	5493
868.364	5577
868.495	5596
868.625	5733
868.756	5756
868.886	5691
869.017	5783
869.147	5866
869.278	5859
869.408	5844
869.539	5855
869.669	5980
869.799	5889
869.929	6068
870.06	6015
870.19	6232
870.32	6213
870.45	6281
870.58	6376
870.71	6486
870.84	6467
870.97	6441
871.1	6467
871.23	6616
871.36	6696
871.489	6711
871.619	6757
871.749	6806
871.879	6871
872.008	6932
872.138	7027
872.267	6962
872.397	7008
872.526	7046
872.656	7179
872.785	7209
872.915	7407
873.044	7487
873.173	7594
873.303	7681
873.432	7792
873.561	7879
873.69	7868
873.819	8005
873.948	8180
874.077	8176
874.206	8355
874.335	8545
874.464	8625
874.593	8914
874.722	8948
874.851	9135
874.979	9169
875.108	9287
875.237	9382
875.365	9466
875.494	9709
875.623	9888
875.751	9861
875.88	10044
876.008	10143
876.136	10257
876.265	10558
876.393	10744
876.521	10698
876.65	10793
876.778	10949
876.906	10911
877.034	10976
877.162	11140
877.29	11117
877.418	11379
877.546	11440
877.674	11444
877.802	11497
877.93	11589
878.058	11547
878.185	11528
878.313	11634
878.441	11794
878.568	11630
878.696	11783
878.824	11889
878.951	11878
879.079	12049
879.206	12125
879.333	12053
879.461	11996
879.588	12136
879.715	12121
879.842	12228
879.97	12064
880.097	11893
880.224	11874
880.351	11958
880.478	11946
880.605	11798
880.732	11843
880.859	12007
880.986	11775
881.112	11813
881.239	11695
881.366	11615
881.493	11589
881.619	11589
881.746	11509
881.872	11554
881.999	11573
882.125	11440
882.252	11611
882.378	11501
882.505	11551
882.631	11410
882.757	11189
882.883	11322
883.01	11322
883.136	11216
883.262	11136
883.388	11147
883.514	11231
883.64	11181
883.766	11151
883.892	11029
884.018	11098
884.143	11159
884.269	11147
884.395	10854
884.52	10812
884.646	10847
884.772	10752
884.897	10714
885.023	10679
885.148	10767
885.274	10759
885.399	10782
885.524	10611
885.65	10615
885.775	10607
885.9	10599
886.025	10656
886.15	10561
886.275	10500
886.4	10348
886.525	10432
886.65	10306
886.775	10344
886.9	10481
887.025	10470
887.149	10386
887.274	10207
887.399	10139
887.523	10158
887.648	10246
887.773	10169
887.897	10249
888.021	10227
888.146	10063
888.27	10242
888.395	10276
888.519	10230
888.643	10169
888.767	10177
888.891	10109
889.015	10051
889.139	10025
889.263	10013
889.387	10044
889.511	10067
889.635	10143
889.759	9934
889.883	9987
890.006	10128
890.13	10158
890.254	9991
890.377	9922
890.501	9918
890.624	9846
890.748	9884
890.871	9846
890.995	9785
891.118	9873
891.241	9819
891.364	9789
891.488	9873
891.611	9736
891.734	9690
891.857	9850
891.98	9759
892.103	9755
892.226	9751
892.349	9701
892.471	9485
892.594	9622
892.717	9682
892.839	9606
892.962	9603
893.085	9660
893.207	9648
893.33	9538
893.452	9488
893.575	9610
893.697	9515
893.819	9701
893.941	9652
894.064	9625
894.186	9473
894.308	9382
894.43	9538
894.552	9614
894.674	9488
894.796	9386
894.918	9473
895.04	9412
895.161	9428
895.283	9336
895.405	9203
895.526	9329
895.648	9310
895.769	9272
895.891	9283
896.012	9298
896.134	9169
896.255	9207
896.376	9108
896.498	9180
896.619	9112
896.74	9081
896.861	9142
896.982	9298
897.103	9336
897.224	9135
897.345	9119
897.466	9032
897.587	9077
897.708	9081
897.828	9005
897.949	8960
898.07	8937
898.19	8944
898.311	9013
898.431	8960
898.552	8872
898.672	8963
898.792	8933
898.913	8895
899.033	8769
899.153	8777
899.273	8674
899.393	8716
899.513	8773
899.633	8804
899.753	8735
899.873	8724
899.993	8845
900.113	8777
900.232	8659
900.352	8667
900.472	8602
900.591	8571
900.711	8640
900.83	8560
900.95	8693
901.069	8682
901.189	8602
901.308	8396
901.427	8457
901.546	8473
901.665	8465
901.784	8495
901.904	8385
902.023	8377
902.141	8256
902.26	8244
902.379	8221
902.498	8218
902.617	8229
902.735	8351
902.854	8305
902.973	8328
903.091	8202
903.21	8214
903.328	8157
903.446	8168
903.565	8050
903.683	8164
903.801	8016
903.919	8126
904.038	8100
904.156	8043
904.274	8069
904.392	8058
904.51	8069
904.627	8149
904.745	8103
904.863	8065
904.981	7986
905.098	7856
905.216	7871
905.334	7909
905.451	7928
905.569	7909
905.686	7898
905.803	7909
905.921	7769
906.038	7875
906.155	7845
906.272	7712
906.389	7731
906.506	7704
906.623	7620
906.74	7594
906.857	7529
906.974	7620
907.091	7670
907.208	7689
907.324	7575
907.441	7567
907.557	7544
907.674	7460
907.79	7430
907.907	7434
908.023	7457
908.139	7373
908.256	7381
908.372	7373
908.488	7377
908.604	7251
908.72	7289
908.836	7236
908.952	7301
909.068	7251
909.184	7312
909.3	7350
909.415	7358
909.531	7301
909.647	7179
909.762	7149
909.878	7114
909.993	7129
910.108	7171
910.224	7118
910.339	7110
910.454	7122
910.57	7038
910.685	6962
910.8	7217
910.915	7171
911.03	7038
911.145	6966
911.259	6954
911.374	6886
911.489	6787
911.604	6840
911.718	6726
911.833	6798
911.947	6654
912.062	6639
912.176	6696
912.291	6749
912.405	6700
912.519	6859
912.633	6863
912.748	6745
912.862	6696
912.976	6654
913.09	6456
913.204	6574
913.318	6642
913.431	6722
913.545	6646
913.659	6677
913.772	6726
913.886	6582
914	6593
914.113	6623
914.226	6665
914.34	6593
914.453	6536
914.566	6642
914.68	6517
914.793	6570
914.906	6441
915.019	6372
915.132	6422
915.245	6369
915.358	6445
915.47	6456
915.583	6460
915.696	6456
915.809	6513
915.921	6547
916.034	6388
916.146	6429
916.259	6407
916.371	6498
916.483	6448
916.595	6380
916.708	6441
916.82	6391
916.932	6353
917.044	6418
917.156	6388
917.268	6353
917.38	6357
917.491	6350
917.603	6292
917.715	6414
917.826	6422
917.938	6338
918.049	6216
918.161	6353
918.272	6403
918.384	6490
918.495	6331
918.606	6235
918.717	6262
918.828	6311
918.939	6243
919.05	6235
919.161	6289
919.272	6159
919.383	6235
919.494	6323
919.604	6490
919.715	6281
919.826	6254
919.936	6254
920.047	6384
920.157	6277
920.267	6433
920.378	6376
920.488	6300
920.598	6551
920.708	6502
920.818	6456
920.928	6494
921.038	6631
921.148	6566
921.258	6429
921.368	6311
921.477	6239
921.587	6171
921.697	6110
921.806	6201
921.916	6140
922.025	5942
922.134	5950
922.244	5969
922.353	5958
922.462	5878
922.571	5817
922.68	5737
922.789	5707
922.898	5760
923.007	5718
923.116	5710
923.224	5707
923.333	5726
923.442	5638
923.55	5539
923.659	5581
923.767	5638
923.876	5577
923.984	5604
924.092	5512
924.201	5554
924.309	5581
924.417	5532
924.525	5532
924.633	5501
924.741	6064
924.849	5398
924.956	5516
925.064	5410
925.172	5318
925.279	5334
925.387	5360
925.494	5292
925.602	5436
925.709	5368
925.816	5277
925.924	5299
926.031	5353
926.138	5341
926.245	5337
926.352	5250
926.459	5288
926.566	5337
926.673	5185
926.779	5124
926.886	5159
926.993	5018
927.099	5060
927.206	4991
927.312	4961
927.419	5014
927.525	4995
927.631	4999
927.737	4900
927.843	4877
927.95	4793
928.056	4820
928.162	4877
928.267	4885
928.373	5334
928.479	4870
928.585	4698
928.69	4752
928.796	4740
928.901	4702
929.007	4611
929.112	4679
929.218	4641
929.323	4626
929.428	4561
929.533	4675
929.638	4535
929.743	4592
929.848	4596
929.953	4481
930.058	4443
930.163	4329
930.267	4379
930.372	4443
930.477	4242
930.581	4493
930.685	4371
930.79	4306
930.894	4310
930.998	4272
931.103	4421
931.207	4116
931.311	4078
931.415	4059
931.519	3945
931.623	3968
