Data from glass_V78500241_1098.txt Node
Date: Wed Sep 01 19:22:06 CST 2021
User: usil
Spectrometer: V785-0024
Trigger mode: 0
Integration Time (sec): 4.000000E-1
Scans to average: 1
Nonlinearity correction enabled: false
Boxcar width: 0
Storing dark spectrum: false
XAxis mode: Wavelengths
Number of Pixels in Spectrum: 1024
>>>>>Begin Spectral Data<<<<<
801.071	3751
801.214	3728
801.356	3709
801.499	3736
801.641	3781
801.783	3793
801.926	3896
802.068	3816
802.211	3831
802.353	3930
802.496	3838
802.638	3899
802.78	3884
802.923	3911
803.065	3964
803.208	3823
803.35	3915
803.492	3956
803.635	3949
803.777	3774
803.919	3876
804.061	4200
804.204	3979
804.346	3972
804.488	3979
804.63	4048
804.773	3972
804.915	4044
805.057	4131
805.199	4055
805.341	4101
805.483	4124
805.626	4147
805.768	4128
805.91	4246
806.052	4200
806.194	4223
806.336	4363
806.478	4257
806.62	4204
806.762	4200
806.904	4261
807.046	4360
807.188	4204
807.33	4192
807.472	4204
807.614	4196
807.756	4318
807.898	4242
808.04	4261
808.182	4295
808.324	4318
808.465	4386
808.607	4470
808.749	4424
808.891	4512
809.033	4531
809.174	4443
809.316	4276
809.458	4268
809.6	4135
809.741	4139
809.883	4181
810.025	4219
810.166	4257
810.308	4272
810.45	4246
810.591	4242
810.733	4246
810.875	4546
811.016	4778
811.158	5189
811.299	5318
811.441	5261
811.582	5083
811.724	4702
811.865	4440
812.007	4478
812.148	4367
812.29	4413
812.431	4440
812.573	4394
812.714	4371
812.855	4413
812.997	4424
813.138	4459
813.279	4413
813.421	4390
813.562	4379
813.703	4352
813.845	4356
813.986	4329
814.127	4249
814.268	4261
814.41	4261
814.551	4280
814.692	4394
814.833	4242
814.974	4318
815.115	4333
815.256	4253
815.397	4242
815.539	4314
815.68	4207
815.821	4242
815.962	4318
816.103	4257
816.244	4215
816.385	4219
816.526	4272
816.666	4204
816.807	4124
816.948	4192
817.089	4188
817.23	4147
817.371	4090
817.512	4067
817.653	4082
817.793	4044
817.934	4074
818.075	4128
818.216	4051
818.356	4093
818.497	3983
818.638	3892
818.778	3968
818.919	3907
819.06	3850
819.2	3960
819.341	3880
819.481	3869
819.622	3888
819.762	4040
819.903	3956
820.043	3865
820.184	3838
820.324	3823
820.465	3873
820.605	3880
820.746	3918
820.886	3816
821.026	3941
821.167	3896
821.307	3949
821.447	3953
821.588	3983
821.728	3960
821.868	3949
822.008	3899
822.149	3884
822.289	3930
822.429	3793
822.569	3743
822.709	3808
822.849	3682
822.99	3705
823.13	3766
823.27	3762
823.41	3724
823.55	3770
823.69	3720
823.83	3766
823.97	3717
824.11	3603
824.25	3610
824.389	3656
824.529	3720
824.669	3671
824.809	3778
824.949	3770
825.089	3762
825.228	3717
825.368	3591
825.508	3545
825.648	3561
825.787	3587
825.927	3610
826.067	3625
826.206	3675
826.346	3778
826.485	3838
826.625	3854
826.765	3926
826.904	3842
827.044	3629
827.183	3576
827.323	3416
827.462	3515
827.601	3431
827.741	3401
827.88	3469
828.02	3378
828.159	3473
828.298	3485
828.437	3584
828.577	3496
828.716	3625
828.855	3488
828.994	3374
829.134	3382
829.273	3420
829.412	3378
829.551	3317
829.69	3351
829.829	3401
829.968	3511
830.107	3435
830.246	3477
830.385	3370
830.524	3329
830.663	3313
830.802	3237
830.941	3192
831.08	3230
831.219	3283
831.357	3268
831.496	3428
831.635	3233
831.774	3226
831.913	3207
832.051	3169
832.19	3138
832.329	3218
832.467	3138
832.606	3089
832.744	3176
832.883	3165
833.022	3195
833.16	3264
833.299	3355
833.437	3325
833.576	3378
833.714	3424
833.852	3401
833.991	3447
834.129	3447
834.267	3454
834.406	3355
834.544	3420
834.682	3363
834.821	3412
834.959	3564
835.097	3466
835.235	3515
835.373	3530
835.511	3507
835.65	3462
835.788	3530
835.926	3382
836.064	3351
836.202	3412
836.34	3580
836.478	3599
836.615	3564
836.753	3584
836.891	3629
837.029	3618
837.167	3633
837.305	3561
837.443	3523
837.58	3530
837.718	3591
837.856	3584
837.993	3584
838.131	3618
838.269	3549
838.406	3622
838.544	3576
838.681	3473
838.819	3473
838.956	3363
839.094	3389
839.231	3439
839.369	3538
839.506	3732
839.643	3656
839.781	3492
839.918	3485
840.055	3526
840.193	3526
840.33	3542
840.467	3534
840.604	3637
840.742	3766
840.879	3564
841.016	3622
841.153	3599
841.29	3774
841.427	3732
841.564	3736
841.701	3766
841.838	3690
841.975	3690
842.112	3766
842.249	3663
842.385	3637
842.522	3823
842.659	3720
842.796	3652
842.933	3709
843.069	3713
843.206	3736
843.343	3850
843.479	3797
843.616	3857
843.752	3637
843.889	3701
844.025	3884
844.162	3720
844.298	3873
844.435	3812
844.571	3778
844.708	3922
844.844	3953
844.98	4002
845.117	4036
845.253	3922
845.389	3884
845.525	4006
845.661	3998
845.798	3899
845.934	4036
846.07	3960
846.206	4086
846.342	4143
846.478	4078
846.614	3991
846.75	3968
846.886	3907
847.022	4055
847.158	3983
847.294	3953
847.429	4036
847.565	4002
847.701	4249
847.837	3869
847.972	3873
848.108	3998
848.244	4013
848.379	3873
848.515	3808
848.65	3823
848.786	3842
848.921	3899
849.057	3991
849.192	3941
849.328	3911
849.463	3915
849.598	3907
849.734	3842
849.869	3846
850.004	3804
850.14	3808
850.275	3842
850.41	3724
850.545	3743
850.68	3797
850.815	3835
850.95	3804
851.085	3911
851.22	3896
851.355	3827
851.49	3797
851.625	3819
851.76	3812
851.895	3705
852.03	3728
852.165	3850
852.299	3854
852.434	3941
852.569	3873
852.703	3876
852.838	3937
852.973	4017
853.107	3960
853.242	3934
853.376	3823
853.511	3800
853.645	3846
853.78	3991
853.914	3899
854.048	3926
854.183	3907
854.317	3960
854.451	4067
854.585	3941
854.72	3975
854.854	4074
854.988	3968
855.122	4055
855.256	3892
855.39	4025
855.524	4147
855.658	4143
855.792	4120
855.926	4158
856.06	4135
856.194	4192
856.327	4120
856.461	4166
856.595	4131
856.729	4211
856.862	4265
856.996	4234
857.13	4280
857.263	4306
857.397	4325
857.53	4284
857.664	4341
857.797	4409
857.931	4462
858.064	4436
858.197	4462
858.331	4360
858.464	4394
858.597	4386
858.731	4455
858.864	4550
858.997	4466
859.13	4512
859.263	4523
859.396	4565
859.529	4527
859.662	4527
859.795	4516
859.928	4592
860.061	4656
860.194	4782
860.327	4675
860.46	4641
860.592	4710
860.725	4763
860.858	4733
860.99	4653
861.123	4694
861.256	4675
861.388	4771
861.521	5395
861.653	4721
861.786	4706
861.918	4740
862.05	4805
862.183	4835
862.315	4885
862.447	4934
862.58	4862
862.712	4793
862.844	4801
862.976	4915
863.108	4877
863.24	5223
863.372	4835
863.504	4915
863.636	4927
863.768	4999
863.9	4904
864.032	4938
864.164	4927
864.296	5006
864.428	5109
864.559	5117
864.691	5132
864.823	5128
864.954	5105
865.086	5151
865.217	5162
865.349	5071
865.48	5185
865.612	5223
865.743	5315
865.875	5269
866.006	5140
866.137	5265
866.269	5246
866.4	5212
866.531	5280
866.662	5246
866.793	5239
866.924	5303
867.055	5330
867.186	5349
867.317	5326
867.448	5292
867.579	5383
867.71	5402
867.841	5406
867.972	5467
868.103	5474
868.233	5482
868.364	5520
868.495	5471
868.625	5680
868.756	5847
868.886	5691
869.017	5764
869.147	5840
869.278	5908
869.408	5798
869.539	5866
869.669	5992
869.799	5908
869.929	5954
870.06	5961
870.19	6254
870.32	6144
870.45	6270
870.58	6353
870.71	6475
870.84	6441
870.97	6372
871.1	6460
871.23	6612
871.36	6681
871.489	6654
871.619	6802
871.749	6840
871.879	6894
872.008	6958
872.138	6996
872.267	6993
872.397	7015
872.526	7099
872.656	7175
872.785	7168
872.915	7362
873.044	7525
873.173	7594
873.303	7670
873.432	7738
873.561	7906
873.69	7898
873.819	8001
873.948	8202
874.077	8248
874.206	8381
874.335	8537
874.464	8689
874.593	8826
874.722	8872
874.851	9161
874.979	9298
875.108	9443
875.237	9397
875.365	9462
875.494	9682
875.623	9884
875.751	9861
875.88	10124
876.008	10074
876.136	10211
876.265	10527
876.393	10793
876.521	10763
876.65	10778
876.778	10896
876.906	10919
877.034	11018
877.162	11056
877.29	11109
877.418	11292
877.546	11334
877.674	11440
877.802	11520
877.93	11505
878.058	11532
878.185	11592
878.313	11699
878.441	11729
878.568	11726
878.696	11748
878.824	11840
878.951	12030
879.079	12076
879.206	12068
879.333	12045
879.461	11961
879.588	12110
879.715	12083
879.842	12228
879.97	12163
880.097	11969
880.224	11859
880.351	11893
880.478	11874
880.605	11882
880.732	11771
880.859	11965
880.986	11821
881.112	11870
881.239	11733
881.366	11623
881.493	11615
881.619	11535
881.746	11539
881.872	11512
881.999	11524
882.125	11474
882.252	11570
882.378	11551
882.505	11592
882.631	11406
882.757	11299
882.883	11330
883.01	11307
883.136	11193
883.262	11105
883.388	11075
883.514	11246
883.64	11181
883.766	11121
883.892	11014
884.018	10957
884.143	11014
884.269	11079
884.395	10793
884.52	10812
884.646	10771
884.772	10714
884.897	10668
885.023	10641
885.148	10755
885.274	10763
885.399	10816
885.524	10603
885.65	10649
885.775	10660
885.9	10554
886.025	10656
886.15	10580
886.275	10523
886.4	10367
886.525	10470
886.65	10436
886.775	10322
886.9	10485
887.025	10519
887.149	10272
887.274	10261
887.399	10162
887.523	10169
887.648	10112
887.773	10162
887.897	10200
888.021	10154
888.146	10150
888.27	10310
888.395	10154
888.519	10204
888.643	10169
888.767	10185
888.891	10051
889.015	10051
889.139	10090
889.263	10025
889.387	10071
889.511	10158
889.635	10040
889.759	10002
889.883	10017
890.006	10063
890.13	10143
890.254	9922
890.377	9911
890.501	9831
890.624	9835
890.748	9907
890.871	9698
890.995	9713
891.118	9755
891.241	9804
891.364	9762
891.488	9861
891.611	9778
891.734	9743
891.857	9846
891.98	9816
892.103	9732
892.226	9743
892.349	9747
892.471	9523
892.594	9584
892.717	9610
892.839	9656
892.962	9629
893.085	9641
893.207	9564
893.33	9549
893.452	9473
893.575	9580
893.697	9553
893.819	9633
893.941	9591
894.064	9629
894.186	9477
894.308	9359
894.43	9485
894.552	9610
894.674	9504
894.796	9424
894.918	9397
895.04	9344
895.161	9416
895.283	9325
895.405	9180
895.526	9245
895.648	9214
895.769	9241
895.891	9306
896.012	9325
896.134	9279
896.255	9192
896.376	9195
896.498	9089
896.619	9104
896.74	9100
896.861	9161
896.982	9264
897.103	9233
897.224	9161
897.345	9055
897.466	9013
897.587	9017
897.708	9097
897.828	9028
897.949	8979
898.07	8899
898.19	8914
898.311	9077
898.431	8925
898.552	8925
898.672	9013
898.792	8967
898.913	8891
899.033	8815
899.153	8731
899.273	8735
899.393	8750
899.513	8807
899.633	8804
899.753	8773
899.873	8746
899.993	8758
900.113	8743
900.232	8701
900.352	8621
900.472	8629
900.591	8526
900.711	8606
900.83	8598
900.95	8663
901.069	8743
901.189	8571
901.308	8404
901.427	8438
901.546	8457
901.665	8484
901.784	8442
901.904	8358
902.023	8362
902.141	8259
902.26	8202
902.379	8282
902.498	8210
902.617	8195
902.735	8320
902.854	8286
902.973	8267
903.091	8199
903.21	8153
903.328	8142
903.446	8119
903.565	8084
903.683	8138
903.801	8008
903.919	8115
904.038	8081
904.156	8027
904.274	8134
904.392	8043
904.51	8005
904.627	8039
904.745	8138
904.863	8046
904.981	7902
905.098	7803
905.216	7925
905.334	7925
905.451	7921
905.569	7845
905.686	7856
905.803	7974
905.921	7780
906.038	7875
906.155	7738
906.272	7772
906.389	7731
906.506	7639
906.623	7643
906.74	7628
906.857	7567
906.974	7590
907.091	7674
907.208	7712
907.324	7605
907.441	7609
907.557	7422
907.674	7449
907.79	7411
907.907	7373
908.023	7407
908.139	7426
908.256	7415
908.372	7381
908.488	7411
908.604	7266
908.72	7270
908.836	7270
908.952	7259
909.068	7263
909.184	7259
909.3	7270
909.415	7285
909.531	7301
909.647	7129
909.762	7103
909.878	7114
909.993	7152
910.108	7076
910.224	7042
910.339	7095
910.454	7084
910.57	6989
910.685	6993
910.8	7118
910.915	7099
911.03	6943
911.145	6913
911.259	6894
911.374	6939
911.489	6882
911.604	6818
911.718	6688
911.833	6749
911.947	6696
912.062	6597
912.176	6719
912.291	6730
912.405	6715
912.519	6894
912.633	6833
912.748	6734
912.862	6700
912.976	6631
913.09	6532
913.204	6601
913.318	6578
913.431	6726
913.545	6646
913.659	6692
913.772	6631
913.886	6540
914	6620
914.113	6673
914.226	6612
914.34	6631
914.453	6555
914.566	6578
914.68	6582
914.793	6563
914.906	6418
915.019	6384
915.132	6399
915.245	6467
915.358	6448
915.47	6429
915.583	6414
915.696	6494
915.809	6563
915.921	6570
916.034	6437
916.146	6483
916.259	6426
916.371	6429
916.483	6509
916.595	6429
916.708	6410
916.82	6388
916.932	6410
917.044	6391
917.156	6407
917.268	6342
917.38	6296
917.491	6323
917.603	6319
917.715	6410
917.826	6471
917.938	6334
918.049	6258
918.161	6357
918.272	6426
918.384	6410
918.495	6319
918.606	6300
918.717	6228
918.828	6315
918.939	6350
919.05	6224
919.161	6235
919.272	6152
919.383	6182
919.494	6323
919.604	6384
919.715	6319
919.826	6232
919.936	6239
920.047	6315
920.157	6235
920.267	6395
920.378	6315
920.488	6239
920.598	6433
920.708	6528
920.818	6475
920.928	6483
921.038	6601
921.148	6559
921.258	6369
921.368	6327
921.477	6292
921.587	6163
921.697	6064
921.806	6144
921.916	6114
922.025	5965
922.134	5958
922.244	5878
922.353	5977
922.462	5794
922.571	5817
922.68	5752
922.789	5688
922.898	5695
923.007	5649
923.116	5695
923.224	5703
923.333	5729
923.442	5623
923.55	5577
923.659	5627
923.767	5611
923.876	5554
923.984	5589
924.092	5551
924.201	5562
924.309	5577
924.417	5547
924.525	5512
924.633	5471
924.741	6323
924.849	5440
924.956	5467
925.064	5345
925.172	5258
925.279	5311
925.387	5410
925.494	5357
925.602	5452
925.709	5353
925.816	5273
925.924	5334
926.031	5372
926.138	5360
926.245	5364
926.352	5227
926.459	5330
926.566	5322
926.673	5235
926.779	5113
926.886	5109
926.993	5029
927.099	5018
927.206	5029
927.312	5006
927.419	4980
927.525	4930
927.631	5006
927.737	4908
927.843	4900
927.95	4752
928.056	4866
928.162	4816
928.267	4885
928.373	5307
928.479	4854
928.585	4717
928.69	4809
928.796	4744
928.901	4714
929.007	4580
929.112	4687
929.218	4630
929.323	4592
929.428	4558
929.533	4626
929.638	4508
929.743	4497
929.848	4546
929.953	4508
930.058	4462
930.163	4344
930.267	4386
930.372	4424
930.477	4310
930.581	4519
930.685	4348
930.79	4234
930.894	4299
930.998	4242
931.103	4413
931.207	4128
931.311	4078
931.415	4071
931.519	3926
931.623	3972
