Data from glass_V78500241_2358.txt Node
Date: Wed Sep 01 19:30:50 CST 2021
User: usil
Spectrometer: V785-0024
Trigger mode: 0
Integration Time (sec): 4.000000E-1
Scans to average: 1
Nonlinearity correction enabled: false
Boxcar width: 0
Storing dark spectrum: false
XAxis mode: Wavelengths
Number of Pixels in Spectrum: 1024
>>>>>Begin Spectral Data<<<<<
801.071	3717
801.214	3789
801.356	3660
801.499	3698
801.641	3743
801.783	3736
801.926	3827
802.068	3808
802.211	3892
802.353	3876
802.496	3846
802.638	3823
802.78	3903
802.923	3888
803.065	3899
803.208	3846
803.35	3869
803.492	3892
803.635	3888
803.777	3793
803.919	3884
804.061	4154
804.204	3930
804.346	3930
804.488	3899
804.63	4044
804.773	3937
804.915	4048
805.057	4162
805.199	4048
805.341	4082
805.483	4128
805.626	4086
805.768	4093
805.91	4173
806.052	4215
806.194	4166
806.336	4333
806.478	4173
806.62	4162
806.762	4185
806.904	4246
807.046	4329
807.188	4207
807.33	4185
807.472	4207
807.614	4211
807.756	4223
807.898	4265
808.04	4166
808.182	4280
808.324	4291
808.465	4318
808.607	4440
808.749	4459
808.891	4432
809.033	4421
809.174	4394
809.316	4287
809.458	4249
809.6	4166
809.741	4143
809.883	4169
810.025	4173
810.166	4207
810.308	4196
810.45	4249
810.591	4238
810.733	4284
810.875	4466
811.016	4839
811.158	5113
811.299	5277
811.441	5277
811.582	5025
811.724	4691
811.865	4443
812.007	4474
812.148	4424
812.29	4409
812.431	4421
812.573	4386
812.714	4413
812.855	4398
812.997	4371
813.138	4489
813.279	4409
813.421	4379
813.562	4379
813.703	4333
813.845	4341
813.986	4242
814.127	4196
814.268	4265
814.41	4314
814.551	4246
814.692	4303
814.833	4257
814.974	4375
815.115	4333
815.256	4253
815.397	4219
815.539	4234
815.68	4204
815.821	4242
815.962	4299
816.103	4261
816.244	4223
816.385	4204
816.526	4325
816.666	4265
816.807	4109
816.948	4196
817.089	4158
817.23	4093
817.371	4036
817.512	4063
817.653	4082
817.793	3987
817.934	4051
818.075	4048
818.216	4044
818.356	4044
818.497	3983
818.638	3873
818.778	3907
818.919	3892
819.06	3880
819.2	3911
819.341	3861
819.481	3819
819.622	3903
819.762	3994
819.903	3953
820.043	3892
820.184	3816
820.324	3827
820.465	3896
820.605	3865
820.746	3861
820.886	3797
821.026	3934
821.167	3926
821.307	3972
821.447	3968
821.588	3949
821.728	3941
821.868	3949
822.008	3865
822.149	3907
822.289	3922
822.429	3774
822.569	3793
822.709	3781
822.849	3660
822.99	3671
823.13	3789
823.27	3766
823.41	3652
823.55	3774
823.69	3755
823.83	3736
823.97	3618
824.11	3599
824.25	3576
824.389	3576
824.529	3656
824.669	3633
824.809	3644
824.949	3705
825.089	3701
825.228	3698
825.368	3591
825.508	3584
825.648	3576
825.787	3591
825.927	3603
826.067	3629
826.206	3667
826.346	3781
826.485	3827
826.625	3865
826.765	3915
826.904	3789
827.044	3641
827.183	3553
827.323	3405
827.462	3477
827.601	3420
827.741	3431
827.88	3462
828.02	3348
828.159	3416
828.298	3424
828.437	3462
828.577	3420
828.716	3584
828.855	3523
828.994	3386
829.134	3393
829.273	3386
829.412	3306
829.551	3329
829.69	3351
829.829	3428
829.968	3481
830.107	3431
830.246	3466
830.385	3374
830.524	3355
830.663	3313
830.802	3241
830.941	3195
831.08	3237
831.219	3283
831.357	3245
831.496	3386
831.635	3222
831.774	3184
831.913	3195
832.051	3138
832.19	3138
832.329	3214
832.467	3150
832.606	3058
832.744	3214
832.883	3199
833.022	3207
833.16	3230
833.299	3287
833.437	3374
833.576	3351
833.714	3355
833.852	3420
833.991	3420
834.129	3458
834.267	3405
834.406	3370
834.544	3435
834.682	3447
834.821	3389
834.959	3553
835.097	3412
835.235	3545
835.373	3450
835.511	3473
835.65	3431
835.788	3504
835.926	3416
836.064	3378
836.202	3416
836.34	3542
836.478	3595
836.615	3542
836.753	3587
836.891	3629
837.029	3603
837.167	3587
837.305	3542
837.443	3519
837.58	3485
837.718	3576
837.856	3523
837.993	3534
838.131	3591
838.269	3557
838.406	3549
838.544	3568
838.681	3477
838.819	3439
838.956	3374
839.094	3374
839.231	3450
839.369	3507
839.506	3713
839.643	3603
839.781	3458
839.918	3466
840.055	3519
840.193	3538
840.33	3523
840.467	3549
840.604	3591
840.742	3819
840.879	3580
841.016	3587
841.153	3580
841.29	3724
841.427	3682
841.564	3686
841.701	3694
841.838	3675
841.975	3656
842.112	3690
842.249	3610
842.385	3595
842.522	3816
842.659	3686
842.796	3686
842.933	3686
843.069	3694
843.206	3709
843.343	3804
843.479	3743
843.616	3850
843.752	3724
843.889	3690
844.025	3854
844.162	3694
844.298	3854
844.435	3759
844.571	3812
844.708	3911
844.844	3960
844.98	4021
845.117	4002
845.253	3907
845.389	3854
845.525	3975
845.661	3968
845.798	3911
845.934	3994
846.07	3956
846.206	4032
846.342	4063
846.478	4051
846.614	3994
846.75	3884
846.886	3880
847.022	4025
847.158	3945
847.294	3972
847.429	4006
847.565	3983
847.701	4246
847.837	3907
847.972	3876
848.108	3964
848.244	3987
848.379	3842
848.515	3797
848.65	3804
848.786	3812
848.921	3865
849.057	3937
849.192	3922
849.328	3899
849.463	3896
849.598	3892
849.734	3899
849.869	3800
850.004	3808
850.14	3797
850.275	3774
850.41	3728
850.545	3770
850.68	3823
850.815	3819
850.95	3778
851.085	3903
851.22	3842
851.355	3827
851.49	3797
851.625	3743
851.76	3759
851.895	3701
852.03	3709
852.165	3759
852.299	3854
852.434	3888
852.569	3854
852.703	3819
852.838	3888
852.973	4021
853.107	3953
853.242	3873
853.376	3808
853.511	3770
853.645	3865
853.78	3953
853.914	3838
854.048	3907
854.183	3922
854.317	3937
854.451	4105
854.585	3964
854.72	3903
854.854	4051
854.988	3930
855.122	4025
855.256	3941
855.39	3998
855.524	4105
855.658	4105
855.792	4082
855.926	4116
856.06	4166
856.194	4200
856.327	4120
856.461	4086
856.595	4150
856.729	4150
856.862	4242
856.996	4284
857.13	4253
857.263	4284
857.397	4356
857.53	4314
857.664	4375
857.797	4379
857.931	4402
858.064	4360
858.197	4485
858.331	4386
858.464	4409
858.597	4299
858.731	4485
858.864	4459
858.997	4428
859.13	4512
859.263	4481
859.396	4580
859.529	4500
859.662	4531
859.795	4531
859.928	4607
860.061	4725
860.194	4752
860.327	4618
860.46	4672
860.592	4725
860.725	4744
860.858	4763
860.99	4706
861.123	4687
861.256	4660
861.388	4733
861.521	5391
861.653	4694
861.786	4679
861.918	4725
862.05	4790
862.183	4858
862.315	4911
862.447	4946
862.58	4847
862.712	4782
862.844	4767
862.976	4892
863.108	4854
863.24	5185
863.372	4828
863.504	4927
863.636	4870
863.768	5018
863.9	4965
864.032	4919
864.164	5010
864.296	4999
864.428	5094
864.559	5086
864.691	5117
864.823	5128
864.954	5109
865.086	5128
865.217	5151
865.349	5090
865.48	5121
865.612	5201
865.743	5311
865.875	5170
866.006	5159
866.137	5204
866.269	5208
866.4	5261
866.531	5258
866.662	5193
866.793	5277
866.924	5258
867.055	5341
867.186	5372
867.317	5360
867.448	5292
867.579	5429
867.71	5372
867.841	5372
867.972	5490
868.103	5455
868.233	5478
868.364	5448
868.495	5600
868.625	5665
868.756	5726
868.886	5691
869.017	5722
869.147	5794
869.278	5889
869.408	5851
869.539	5741
869.669	5916
869.799	6007
869.929	5961
870.06	6011
870.19	6167
870.32	6258
870.45	6247
870.58	6292
870.71	6380
870.84	6471
870.97	6429
871.1	6380
871.23	6665
871.36	6719
871.489	6665
871.619	6711
871.749	6798
871.879	6859
872.008	6962
872.138	6985
872.267	6981
872.397	7015
872.526	7042
872.656	7031
872.785	7179
872.915	7438
873.044	7518
873.173	7525
873.303	7700
873.432	7742
873.561	7864
873.69	7902
873.819	8001
873.948	8195
874.077	8298
874.206	8343
874.335	8423
874.464	8682
874.593	8777
874.722	8883
874.851	9161
874.979	9203
875.108	9374
875.237	9428
875.365	9477
875.494	9599
875.623	9884
875.751	9797
875.88	10048
876.008	10181
876.136	10272
876.265	10531
876.393	10710
876.521	10683
876.65	10729
876.778	10824
876.906	10828
877.034	10919
877.162	11083
877.29	11143
877.418	11277
877.546	11341
877.674	11490
877.802	11490
877.93	11589
878.058	11592
878.185	11577
878.313	11752
878.441	11756
878.568	11710
878.696	11783
878.824	11931
878.951	11958
879.079	11996
879.206	12083
879.333	12072
879.461	11980
879.588	12019
879.715	12053
879.842	12216
879.97	12038
880.097	11836
880.224	11885
880.351	11843
880.478	11927
880.605	11832
880.732	11809
880.859	12030
880.986	11733
881.112	11988
881.239	11691
881.366	11630
881.493	11585
881.619	11512
881.746	11562
881.872	11505
881.999	11490
882.125	11474
882.252	11547
882.378	11463
882.505	11577
882.631	11288
882.757	11322
882.883	11296
883.01	11269
883.136	11147
883.262	11159
883.388	11102
883.514	11109
883.64	11079
883.766	11147
883.892	10984
884.018	10957
884.143	11067
884.269	11174
884.395	10790
884.52	10759
884.646	10790
884.772	10733
884.897	10603
885.023	10698
885.148	10710
885.274	10714
885.399	10672
885.524	10603
885.65	10656
885.775	10584
885.9	10599
886.025	10641
886.15	10611
886.275	10432
886.4	10322
886.525	10356
886.65	10379
886.775	10295
886.9	10485
887.025	10500
887.149	10299
887.274	10265
887.399	10185
887.523	10200
887.648	10101
887.773	10059
887.897	10230
888.021	10230
888.146	10101
888.27	10177
888.395	10124
888.519	10261
888.643	10173
888.767	10181
888.891	10086
889.015	10048
889.139	10048
889.263	9926
889.387	10051
889.511	10112
889.635	9953
889.759	9979
889.883	9960
890.006	9983
890.13	10093
890.254	9930
890.377	9956
890.501	9808
890.624	9873
890.748	9880
890.871	9861
890.995	9740
891.118	9675
891.241	9682
891.364	9728
891.488	9800
891.611	9755
891.734	9679
891.857	9831
891.98	9667
892.103	9778
892.226	9705
892.349	9675
892.471	9538
892.594	9481
892.717	9614
892.839	9580
892.962	9610
893.085	9671
893.207	9561
893.33	9473
893.452	9530
893.575	9545
893.697	9469
893.819	9606
893.941	9595
894.064	9576
894.186	9412
894.308	9397
894.43	9462
894.552	9599
894.674	9500
894.796	9424
894.918	9428
895.04	9321
895.161	9386
895.283	9351
895.405	9226
895.526	9272
895.648	9291
895.769	9291
895.891	9207
896.012	9313
896.134	9233
896.255	9131
896.376	9203
896.498	9081
896.619	9081
896.74	9104
896.861	9116
896.982	9245
897.103	9332
897.224	9112
897.345	9077
897.466	8933
897.587	9028
897.708	9135
897.828	9112
897.949	8933
898.07	8845
898.19	8891
898.311	8994
898.431	8891
898.552	8910
898.672	8944
898.792	8960
898.913	8868
899.033	8838
899.153	8724
899.273	8617
899.393	8648
899.513	8750
899.633	8708
899.753	8716
899.873	8712
899.993	8785
900.113	8720
900.232	8716
900.352	8606
900.472	8560
900.591	8545
900.711	8560
900.83	8533
900.95	8644
901.069	8686
901.189	8541
901.308	8374
901.427	8370
901.546	8438
901.665	8431
901.784	8469
901.904	8423
902.023	8313
902.141	8298
902.26	8172
902.379	8275
902.498	8206
902.617	8195
902.735	8347
902.854	8248
902.973	8256
903.091	8180
903.21	8062
903.328	8195
903.446	8050
903.565	8035
903.683	8081
903.801	7993
903.919	8111
904.038	8145
904.156	8020
904.274	8058
904.392	8043
904.51	8062
904.627	8081
904.745	8035
904.863	8050
904.981	7902
905.098	7856
905.216	7887
905.334	7871
905.451	7986
905.569	7833
905.686	7925
905.803	7951
905.921	7772
906.038	7845
906.155	7750
906.272	7693
906.389	7700
906.506	7590
906.623	7620
906.74	7582
906.857	7590
906.974	7556
907.091	7685
907.208	7769
907.324	7537
907.441	7529
907.557	7460
907.674	7480
907.79	7407
907.907	7415
908.023	7506
908.139	7419
908.256	7339
908.372	7324
908.488	7316
908.604	7282
908.72	7152
908.836	7285
908.952	7274
909.068	7285
909.184	7270
909.3	7240
909.415	7255
909.531	7293
909.647	7110
909.762	7099
909.878	7107
909.993	7080
910.108	7046
910.224	7038
910.339	7110
910.454	6981
910.57	6966
910.685	6954
910.8	7160
910.915	7122
911.03	6973
911.145	6932
911.259	6875
911.374	6905
911.489	6833
911.604	6882
911.718	6627
911.833	6700
911.947	6684
912.062	6669
912.176	6604
912.291	6741
912.405	6646
912.519	6863
912.633	6795
912.748	6726
912.862	6711
912.976	6616
913.09	6441
913.204	6612
913.318	6593
913.431	6684
913.545	6753
913.659	6684
913.772	6623
913.886	6544
914	6555
914.113	6597
914.226	6566
914.34	6612
914.453	6502
914.566	6589
914.68	6521
914.793	6517
914.906	6403
915.019	6365
915.132	6456
915.245	6467
915.358	6437
915.47	6452
915.583	6418
915.696	6464
915.809	6490
915.921	6490
916.034	6490
916.146	6334
916.259	6365
916.371	6479
916.483	6483
916.595	6384
916.708	6338
916.82	6452
916.932	6357
917.044	6353
917.156	6376
917.268	6292
917.38	6334
917.491	6357
917.603	6384
917.715	6403
917.826	6418
917.938	6327
918.049	6228
918.161	6384
918.272	6460
918.384	6357
918.495	6331
918.606	6289
918.717	6201
918.828	6247
918.939	6270
919.05	6171
919.161	6201
919.272	6095
919.383	6133
919.494	6292
919.604	6399
919.715	6281
919.826	6232
919.936	6258
920.047	6319
920.157	6273
920.267	6365
920.378	6331
920.488	6296
920.598	6395
920.708	6536
920.818	6471
920.928	6376
921.038	6612
921.148	6563
921.258	6365
921.368	6270
921.477	6213
921.587	6125
921.697	6110
921.806	6186
921.916	6114
922.025	5946
922.134	5885
922.244	5878
922.353	5942
922.462	5863
922.571	5764
922.68	5726
922.789	5657
922.898	5653
923.007	5688
923.116	5695
923.224	5623
923.333	5638
923.442	5619
923.55	5547
923.659	5566
923.767	5680
923.876	5520
923.984	5672
924.092	5471
924.201	5516
924.309	5535
924.417	5471
924.525	5505
924.633	5539
924.741	6216
924.849	5345
924.956	5452
925.064	5360
925.172	5311
925.279	5280
925.387	5345
925.494	5318
925.602	5452
925.709	5387
925.816	5288
925.924	5303
926.031	5296
926.138	5292
926.245	5299
926.352	5189
926.459	5296
926.566	5364
926.673	5181
926.779	5121
926.886	5128
926.993	5010
927.099	4991
927.206	4961
927.312	4957
927.419	5006
927.525	4961
927.631	5003
927.737	4889
927.843	4850
927.95	4801
928.056	4809
928.162	4850
928.267	4816
928.373	5337
928.479	4805
928.585	4645
928.69	4744
928.796	4748
928.901	4649
929.007	4580
929.112	4645
929.218	4668
929.323	4630
929.428	4554
929.533	4660
929.638	4531
929.743	4523
929.848	4527
929.953	4470
930.058	4447
930.163	4341
930.267	4348
930.372	4379
930.477	4322
930.581	4493
930.685	4325
930.79	4287
930.894	4268
930.998	4265
931.103	4360
931.207	4112
931.311	4051
931.415	4013
931.519	3930
931.623	3956
