Data from glass_V78500241_60.txt Node
Date: Wed Sep 01 19:14:54 CST 2021
User: usil
Spectrometer: V785-0024
Trigger mode: 0
Integration Time (sec): 4.000000E-1
Scans to average: 1
Nonlinearity correction enabled: false
Boxcar width: 0
Storing dark spectrum: false
XAxis mode: Wavelengths
Number of Pixels in Spectrum: 1024
>>>>>Begin Spectral Data<<<<<
801.071	3732
801.214	3785
801.356	3709
801.499	3766
801.641	3762
801.783	3759
801.926	3857
802.068	3831
802.211	3865
802.353	3911
802.496	3857
802.638	3899
802.78	3941
802.923	3960
803.065	3873
803.208	3838
803.35	3941
803.492	3918
803.635	3991
803.777	3827
803.919	3945
804.061	4150
804.204	3953
804.346	3994
804.488	3953
804.63	4036
804.773	3964
804.915	4078
805.057	4196
805.199	4090
805.341	4082
805.483	4158
805.626	4158
805.768	4147
805.91	4230
806.052	4265
806.194	4196
806.336	4363
806.478	4299
806.62	4200
806.762	4207
806.904	4291
807.046	4371
807.188	4227
807.33	4227
807.472	4257
807.614	4207
807.756	4246
807.898	4242
808.04	4257
808.182	4242
808.324	4348
808.465	4390
808.607	4443
808.749	4455
808.891	4447
809.033	4535
809.174	4386
809.316	4234
809.458	4242
809.6	4211
809.741	4169
809.883	4120
810.025	4230
810.166	4276
810.308	4242
810.45	4215
810.591	4261
810.733	4276
810.875	4546
811.016	4812
811.158	5128
811.299	5250
811.441	5296
811.582	5060
811.724	4729
811.865	4500
812.007	4478
812.148	4455
812.29	4390
812.431	4424
812.573	4424
812.714	4386
812.855	4371
812.997	4402
813.138	4516
813.279	4443
813.421	4409
813.562	4398
813.703	4390
813.845	4329
813.986	4253
814.127	4223
814.268	4303
814.41	4276
814.551	4284
814.692	4295
814.833	4272
814.974	4329
815.115	4379
815.256	4291
815.397	4257
815.539	4325
815.68	4234
815.821	4242
815.962	4341
816.103	4306
816.244	4276
816.385	4200
816.526	4299
816.666	4234
816.807	4112
816.948	4200
817.089	4238
817.23	4128
817.371	4082
817.512	4078
817.653	4090
817.793	4078
817.934	4051
818.075	4150
818.216	4078
818.356	4071
818.497	3979
818.638	3930
818.778	3934
818.919	3884
819.06	3907
819.2	3968
819.341	3937
819.481	3854
819.622	3937
819.762	4006
819.903	3998
820.043	3918
820.184	3797
820.324	3865
820.465	3865
820.605	3854
820.746	3892
820.886	3816
821.026	3960
821.167	3926
821.307	3994
821.447	4025
821.588	3960
821.728	3949
821.868	3972
822.008	3857
822.149	3956
822.289	3945
822.429	3812
822.569	3762
822.709	3819
822.849	3713
822.99	3736
823.13	3793
823.27	3762
823.41	3698
823.55	3747
823.69	3713
823.83	3755
823.97	3694
824.11	3633
824.25	3618
824.389	3641
824.529	3694
824.669	3633
824.809	3759
824.949	3740
825.089	3743
825.228	3755
825.368	3614
825.508	3564
825.648	3603
825.787	3633
825.927	3648
826.067	3652
826.206	3671
826.346	3838
826.485	3854
826.625	3899
826.765	3960
826.904	3857
827.044	3644
827.183	3530
827.323	3401
827.462	3504
827.601	3443
827.741	3412
827.88	3473
828.02	3412
828.159	3458
828.298	3511
828.437	3603
828.577	3485
828.716	3591
828.855	3504
828.994	3332
829.134	3355
829.273	3393
829.412	3351
829.551	3359
829.69	3397
829.829	3431
829.968	3549
830.107	3473
830.246	3488
830.385	3397
830.524	3412
830.663	3332
830.802	3268
830.941	3218
831.08	3207
831.219	3275
831.357	3291
831.496	3447
831.635	3256
831.774	3203
831.913	3218
832.051	3154
832.19	3169
832.329	3203
832.467	3154
832.606	3123
832.744	3207
832.883	3226
833.022	3214
833.16	3253
833.299	3310
833.437	3378
833.576	3397
833.714	3424
833.852	3447
833.991	3447
834.129	3496
834.267	3435
834.406	3405
834.544	3485
834.682	3500
834.821	3443
834.959	3580
835.097	3458
835.235	3538
835.373	3507
835.511	3504
835.65	3477
835.788	3523
835.926	3443
836.064	3435
836.202	3409
836.34	3561
836.478	3603
836.615	3564
836.753	3580
836.891	3682
837.029	3641
837.167	3652
837.305	3572
837.443	3530
837.58	3507
837.718	3591
837.856	3515
837.993	3549
838.131	3599
838.269	3622
838.406	3603
838.544	3576
838.681	3485
838.819	3458
838.956	3405
839.094	3424
839.231	3435
839.369	3477
839.506	3781
839.643	3637
839.781	3542
839.918	3443
840.055	3523
840.193	3595
840.33	3572
840.467	3557
840.604	3622
840.742	3816
840.879	3568
841.016	3564
841.153	3599
841.29	3766
841.427	3720
841.564	3728
841.701	3778
841.838	3736
841.975	3709
842.112	3717
842.249	3648
842.385	3686
842.522	3827
842.659	3701
842.796	3713
842.933	3717
843.069	3724
843.206	3717
843.343	3797
843.479	3808
843.616	3835
843.752	3682
843.889	3671
844.025	3903
844.162	3736
844.298	3873
844.435	3747
844.571	3762
844.708	3922
844.844	3964
844.98	4036
845.117	4006
845.253	3949
845.389	3956
845.525	3968
845.661	3968
845.798	3960
845.934	3987
846.07	4044
846.206	4025
846.342	4150
846.478	4059
846.614	3972
846.75	3926
846.886	3915
847.022	4040
847.158	3991
847.294	4006
847.429	4021
847.565	4017
847.701	4215
847.837	3953
847.972	3873
848.108	4006
848.244	3998
848.379	3884
848.515	3831
848.65	3835
848.786	3907
848.921	3873
849.057	3937
849.192	3953
849.328	3907
849.463	3922
849.598	3911
849.734	3899
849.869	3869
850.004	3770
850.14	3838
850.275	3800
850.41	3766
850.545	3740
850.68	3762
850.815	3762
850.95	3812
851.085	3934
851.22	3922
851.355	3869
851.49	3812
851.625	3846
851.76	3838
851.895	3717
852.03	3694
852.165	3812
852.299	3850
852.434	3911
852.569	3873
852.703	3930
852.838	3953
852.973	4051
853.107	4036
853.242	3922
853.376	3873
853.511	3793
853.645	3846
853.78	4002
853.914	3903
854.048	3915
854.183	3899
854.317	3941
854.451	4071
854.585	3991
854.72	3964
854.854	4082
854.988	3934
855.122	4021
855.256	3964
855.39	4059
855.524	4139
855.658	4150
855.792	4071
855.926	4166
856.06	4192
856.194	4230
856.327	4196
856.461	4128
856.595	4139
856.729	4207
856.862	4295
856.996	4276
857.13	4287
857.263	4341
857.397	4386
857.53	4303
857.664	4371
857.797	4356
857.931	4455
858.064	4421
858.197	4470
858.331	4459
858.464	4405
858.597	4360
858.731	4455
858.864	4466
858.997	4466
859.13	4489
859.263	4531
859.396	4542
859.529	4554
859.662	4588
859.795	4550
859.928	4611
860.061	4740
860.194	4763
860.327	4649
860.46	4710
860.592	4801
860.725	4786
860.858	4759
860.99	4774
861.123	4725
861.256	4714
861.388	4831
861.521	5391
861.653	4782
861.786	4778
861.918	4809
862.05	4774
862.183	4835
862.315	4904
862.447	4999
862.58	4896
862.712	4847
862.844	4797
862.976	4870
863.108	4885
863.24	5296
863.372	4843
863.504	4942
863.636	4934
863.768	4965
863.9	5033
864.032	4923
864.164	4965
864.296	5090
864.428	5113
864.559	5136
864.691	5121
864.823	5159
864.954	5147
865.086	5128
865.217	5151
865.349	5136
865.48	5136
865.612	5242
865.743	5345
865.875	5227
866.006	5185
866.137	5322
866.269	5273
866.4	5235
866.531	5242
866.662	5292
866.793	5288
866.924	5254
867.055	5330
867.186	5364
867.317	5379
867.448	5318
867.579	5406
867.71	5455
867.841	5406
867.972	5486
868.103	5452
868.233	5509
868.364	5516
868.495	5535
868.625	5684
868.756	5767
868.886	5665
869.017	5741
869.147	5908
869.278	5885
869.408	5786
869.539	5824
869.669	5927
869.799	5863
869.929	6015
870.06	5965
870.19	6273
870.32	6159
870.45	6292
870.58	6395
870.71	6407
870.84	6513
870.97	6407
871.1	6410
871.23	6631
871.36	6681
871.489	6730
871.619	6722
871.749	6840
871.879	6848
872.008	6973
872.138	7027
872.267	6996
872.397	6947
872.526	7099
872.656	7110
872.785	7209
872.915	7407
873.044	7540
873.173	7552
873.303	7700
873.432	7799
873.561	7845
873.69	7982
873.819	8039
873.948	8206
874.077	8244
874.206	8324
874.335	8431
874.464	8682
874.593	8933
874.722	8956
874.851	9097
874.979	9237
875.108	9344
875.237	9496
875.365	9485
875.494	9618
875.623	9857
875.751	9876
875.88	9994
876.008	10105
876.136	10276
876.265	10443
876.393	10843
876.521	10801
876.65	10797
876.778	10927
876.906	10873
877.034	10946
877.162	11094
877.29	11189
877.418	11231
877.546	11467
877.674	11455
877.802	11444
877.93	11547
878.058	11627
878.185	11661
878.313	11680
878.441	11707
878.568	11649
878.696	11836
878.824	11840
878.951	11942
879.079	12057
879.206	12148
879.333	12045
879.461	11927
879.588	12060
879.715	12125
879.842	12197
879.97	12026
880.097	11805
880.224	11878
880.351	11965
880.478	11805
880.605	11805
880.732	11843
880.859	11992
880.986	11836
881.112	11927
881.239	11657
881.366	11764
881.493	11604
881.619	11543
881.746	11573
881.872	11497
881.999	11478
882.125	11516
882.252	11661
882.378	11532
882.505	11566
882.631	11379
882.757	11296
882.883	11322
883.01	11235
883.136	11212
883.262	11102
883.388	11071
883.514	11204
883.64	11197
883.766	11151
883.892	11033
884.018	10946
884.143	11056
884.269	11140
884.395	10858
884.52	10793
884.646	10820
884.772	10725
884.897	10687
885.023	10683
885.148	10790
885.274	10755
885.399	10683
885.524	10668
885.65	10588
885.775	10675
885.9	10588
886.025	10588
886.15	10546
886.275	10519
886.4	10375
886.525	10413
886.65	10409
886.775	10341
886.9	10447
887.025	10481
887.149	10371
887.274	10207
887.399	10204
887.523	10166
887.648	10162
887.773	10093
887.897	10211
888.021	10348
888.146	10143
888.27	10284
888.395	10238
888.519	10219
888.643	10169
888.767	10181
888.891	10120
889.015	10040
889.139	10074
889.263	10002
889.387	10071
889.511	10169
889.635	10173
889.759	9968
889.883	10006
890.006	10006
890.13	10093
890.254	9953
890.377	10048
890.501	9846
890.624	9884
890.748	9937
890.871	9800
890.995	9762
891.118	9717
891.241	9755
891.364	9766
891.488	9899
891.611	9713
891.734	9717
891.857	9759
891.98	9732
892.103	9800
892.226	9781
892.349	9663
892.471	9515
892.594	9587
892.717	9660
892.839	9557
892.962	9675
893.085	9690
893.207	9545
893.33	9511
893.452	9519
893.575	9603
893.697	9534
893.819	9618
893.941	9576
894.064	9545
894.186	9416
894.308	9397
894.43	9587
894.552	9580
894.674	9534
894.796	9348
894.918	9351
895.04	9397
895.161	9351
895.283	9401
895.405	9207
895.526	9313
895.648	9207
895.769	9272
895.891	9241
896.012	9302
896.134	9310
896.255	9116
896.376	9199
896.498	9127
896.619	9138
896.74	9058
896.861	9161
896.982	9298
897.103	9382
897.224	9237
897.345	9127
897.466	9070
897.587	8982
897.708	9097
897.828	9097
897.949	8960
898.07	8861
898.19	8929
898.311	9055
898.431	8880
898.552	8914
898.672	9066
898.792	8986
898.913	8914
899.033	8853
899.153	8792
899.273	8659
899.393	8766
899.513	8720
899.633	8754
899.753	8731
899.873	8678
899.993	8769
900.113	8651
900.232	8766
900.352	8648
900.472	8663
900.591	8499
900.711	8640
900.83	8587
900.95	8621
901.069	8689
901.189	8697
901.308	8400
901.427	8389
901.546	8465
901.665	8484
901.784	8518
901.904	8355
902.023	8313
902.141	8233
902.26	8168
902.379	8248
902.498	8218
902.617	8279
902.735	8259
902.854	8381
902.973	8225
903.091	8115
903.21	8225
903.328	8115
903.446	8107
903.565	8138
903.683	8058
903.801	8008
903.919	8111
904.038	8153
904.156	8020
904.274	8115
904.392	8027
904.51	8092
904.627	8111
904.745	8115
904.863	8088
904.981	7986
905.098	7841
905.216	7917
905.334	7917
905.451	8001
905.569	7917
905.686	7986
905.803	7883
905.921	7757
906.038	7909
906.155	7849
906.272	7696
906.389	7715
906.506	7693
906.623	7647
906.74	7628
906.857	7586
906.974	7578
907.091	7658
907.208	7738
907.324	7655
907.441	7548
907.557	7483
907.674	7449
907.79	7438
907.907	7453
908.023	7480
908.139	7495
908.256	7415
908.372	7350
908.488	7392
908.604	7312
908.72	7209
908.836	7244
908.952	7282
909.068	7228
909.184	7392
909.3	7282
909.415	7282
909.531	7312
909.647	7103
909.762	7183
909.878	7114
909.993	7137
910.108	7171
910.224	7126
910.339	7038
910.454	7046
910.57	7015
910.685	6970
910.8	7221
910.915	7126
911.03	7038
911.145	6897
911.259	6894
911.374	6901
911.489	6837
911.604	6829
911.718	6673
911.833	6684
911.947	6684
912.062	6601
912.176	6722
912.291	6776
912.405	6703
912.519	6878
912.633	6886
912.748	6719
912.862	6745
912.976	6631
913.09	6551
913.204	6604
913.318	6635
913.431	6669
913.545	6696
913.659	6776
913.772	6696
913.886	6574
914	6544
914.113	6639
914.226	6627
914.34	6650
914.453	6528
914.566	6700
914.68	6566
914.793	6593
914.906	6433
915.019	6433
915.132	6452
915.245	6445
915.358	6403
915.47	6475
915.583	6483
915.696	6483
915.809	6551
915.921	6601
916.034	6460
916.146	6414
916.259	6380
916.371	6460
916.483	6460
916.595	6429
916.708	6433
916.82	6437
916.932	6327
917.044	6437
917.156	6429
917.268	6403
917.38	6391
917.491	6228
917.603	6319
917.715	6464
917.826	6456
917.938	6350
918.049	6292
918.161	6369
918.272	6448
918.384	6456
918.495	6353
918.606	6277
918.717	6182
918.828	6315
918.939	6342
919.05	6224
919.161	6292
919.272	6152
919.383	6175
919.494	6289
919.604	6414
919.715	6277
919.826	6190
919.936	6254
920.047	6380
920.157	6323
920.267	6475
920.378	6365
920.488	6292
920.598	6479
920.708	6574
920.818	6490
920.928	6441
921.038	6563
921.148	6566
921.258	6346
921.368	6285
921.477	6201
921.587	6205
921.697	6129
921.806	6209
921.916	6121
922.025	5939
922.134	5977
922.244	5893
922.353	6007
922.462	5813
922.571	5855
922.68	5691
922.789	5710
922.898	5699
923.007	5668
923.116	5699
923.224	5672
923.333	5676
923.442	5615
923.55	5581
923.659	5619
923.767	5680
923.876	5543
923.984	5676
924.092	5535
924.201	5547
924.309	5543
924.417	5630
924.525	5493
924.633	5528
924.741	6216
924.849	5395
924.956	5516
925.064	5383
925.172	5322
925.279	5357
925.387	5406
925.494	5372
925.602	5395
925.709	5398
925.816	5254
925.924	5387
926.031	5387
926.138	5258
926.245	5395
926.352	5288
926.459	5315
926.566	5326
926.673	5254
926.779	5147
926.886	5117
926.993	5124
927.099	5048
927.206	4987
927.312	4972
927.419	5079
927.525	5010
927.631	4980
927.737	4870
927.843	4900
927.95	4767
928.056	4828
928.162	4793
928.267	4858
928.373	5402
928.479	4900
928.585	4706
928.69	4786
928.796	4809
928.901	4698
929.007	4599
929.112	4702
929.218	4641
929.323	4672
929.428	4596
929.533	4679
929.638	4519
929.743	4542
929.848	4592
929.953	4508
930.058	4466
930.163	4360
930.267	4383
930.372	4493
930.477	4322
930.581	4497
930.685	4375
930.79	4284
930.894	4344
930.998	4272
931.103	4405
931.207	4093
931.311	4090
931.415	4059
931.519	3956
931.623	3975
