Data from glass_V78500241_591.txt Node
Date: Wed Sep 01 19:18:35 CST 2021
User: usil
Spectrometer: V785-0024
Trigger mode: 0
Integration Time (sec): 4.000000E-1
Scans to average: 1
Nonlinearity correction enabled: false
Boxcar width: 0
Storing dark spectrum: false
XAxis mode: Wavelengths
Number of Pixels in Spectrum: 1024
>>>>>Begin Spectral Data<<<<<
801.071	3766
801.214	3759
801.356	3728
801.499	3759
801.641	3736
801.783	3762
801.926	3884
802.068	3869
802.211	3880
802.353	3857
802.496	3880
802.638	3873
802.78	3907
802.923	3949
803.065	3876
803.208	3876
803.35	3865
803.492	3922
803.635	3926
803.777	3816
803.919	3892
804.061	4150
804.204	3994
804.346	3907
804.488	3922
804.63	4040
804.773	3945
804.915	4025
805.057	4143
805.199	4071
805.341	4131
805.483	4124
805.626	4162
805.768	4112
805.91	4227
806.052	4249
806.194	4219
806.336	4360
806.478	4200
806.62	4207
806.762	4196
806.904	4265
807.046	4325
807.188	4200
807.33	4227
807.472	4204
807.614	4223
807.756	4253
807.898	4196
808.04	4200
808.182	4344
808.324	4322
808.465	4360
808.607	4485
808.749	4417
808.891	4512
809.033	4497
809.174	4451
809.316	4322
809.458	4219
809.6	4158
809.741	4169
809.883	4173
810.025	4207
810.166	4211
810.308	4200
810.45	4291
810.591	4265
810.733	4306
810.875	4516
811.016	4889
811.158	5166
811.299	5250
811.441	5311
811.582	5094
811.724	4736
811.865	4443
812.007	4500
812.148	4455
812.29	4447
812.431	4432
812.573	4383
812.714	4386
812.855	4413
812.997	4390
813.138	4504
813.279	4451
813.421	4440
813.562	4360
813.703	4341
813.845	4318
813.986	4261
814.127	4268
814.268	4234
814.41	4268
814.551	4249
814.692	4337
814.833	4284
814.974	4299
815.115	4367
815.256	4272
815.397	4246
815.539	4287
815.68	4215
815.821	4196
815.962	4325
816.103	4242
816.244	4287
816.385	4325
816.526	4299
816.666	4246
816.807	4135
816.948	4147
817.089	4169
817.23	4131
817.371	4036
817.512	4040
817.653	4040
817.793	4021
817.934	4059
818.075	4124
818.216	4082
818.356	4078
818.497	4013
818.638	3922
818.778	3930
818.919	3915
819.06	3907
819.2	3941
819.341	3861
819.481	3850
819.622	3934
819.762	4044
819.903	3975
820.043	3892
820.184	3846
820.324	3831
820.465	3850
820.605	3880
820.746	3899
820.886	3823
821.026	3918
821.167	3896
821.307	3994
821.447	4013
821.588	3945
821.728	3968
821.868	3937
822.008	3880
822.149	3941
822.289	3934
822.429	3816
822.569	3804
822.709	3808
822.849	3720
822.99	3717
823.13	3755
823.27	3819
823.41	3728
823.55	3755
823.69	3770
823.83	3755
823.97	3690
824.11	3614
824.25	3644
824.389	3625
824.529	3709
824.669	3694
824.809	3713
824.949	3747
825.089	3724
825.228	3720
825.368	3603
825.508	3587
825.648	3584
825.787	3584
825.927	3629
826.067	3660
826.206	3656
826.346	3823
826.485	3911
826.625	3949
826.765	3953
826.904	3835
827.044	3591
827.183	3549
827.323	3485
827.462	3507
827.601	3447
827.741	3447
827.88	3469
828.02	3382
828.159	3443
828.298	3496
828.437	3538
828.577	3477
828.716	3603
828.855	3526
828.994	3393
829.134	3389
829.273	3386
829.412	3378
829.551	3332
829.69	3355
829.829	3462
829.968	3454
830.107	3473
830.246	3450
830.385	3416
830.524	3397
830.663	3325
830.802	3245
830.941	3207
831.08	3192
831.219	3275
831.357	3264
831.496	3409
831.635	3245
831.774	3199
831.913	3195
832.051	3154
832.19	3127
832.329	3218
832.467	3173
832.606	3116
832.744	3176
832.883	3207
833.022	3184
833.16	3260
833.299	3329
833.437	3348
833.576	3389
833.714	3416
833.852	3447
833.991	3435
834.129	3496
834.267	3500
834.406	3458
834.544	3458
834.682	3462
834.821	3389
834.959	3591
835.097	3424
835.235	3557
835.373	3545
835.511	3545
835.65	3485
835.788	3515
835.926	3424
836.064	3420
836.202	3439
836.34	3572
836.478	3618
836.615	3549
836.753	3618
836.891	3644
837.029	3656
837.167	3603
837.305	3542
837.443	3545
837.58	3557
837.718	3610
837.856	3580
837.993	3538
838.131	3614
838.269	3595
838.406	3637
838.544	3576
838.681	3507
838.819	3469
838.956	3370
839.094	3412
839.231	3462
839.369	3519
839.506	3751
839.643	3675
839.781	3515
839.918	3431
840.055	3507
840.193	3515
840.33	3549
840.467	3580
840.604	3614
840.742	3816
840.879	3534
841.016	3549
841.153	3614
841.29	3724
841.427	3751
841.564	3736
841.701	3793
841.838	3679
841.975	3724
842.112	3732
842.249	3637
842.385	3629
842.522	3846
842.659	3732
842.796	3686
842.933	3709
843.069	3728
843.206	3698
843.343	3816
843.479	3789
843.616	3880
843.752	3652
843.889	3675
844.025	3876
844.162	3728
844.298	3873
844.435	3740
844.571	3797
844.708	3922
844.844	4017
844.98	4013
845.117	4048
845.253	3930
845.389	3907
845.525	3915
845.661	4025
845.798	3876
845.934	3975
846.07	3956
846.206	4032
846.342	4116
846.478	4074
846.614	3983
846.75	3968
846.886	3873
847.022	4048
847.158	3972
847.294	3979
847.429	3991
847.565	4032
847.701	4249
847.837	3896
847.972	3907
848.108	4002
848.244	3915
848.379	3880
848.515	3835
848.65	3869
848.786	3869
848.921	3865
849.057	3975
849.192	3930
849.328	3911
849.463	3941
849.598	3827
849.734	3861
849.869	3857
850.004	3785
850.14	3854
850.275	3793
850.41	3766
850.545	3762
850.68	3812
850.815	3800
850.95	3762
851.085	3937
851.22	3903
851.355	3842
851.49	3785
851.625	3800
851.76	3816
851.895	3762
852.03	3774
852.165	3831
852.299	3896
852.434	3899
852.569	3892
852.703	3896
852.838	3953
852.973	3998
853.107	3987
853.242	3899
853.376	3861
853.511	3774
853.645	3812
853.78	3941
853.914	3934
854.048	3922
854.183	3888
854.317	3949
854.451	4093
854.585	3945
854.72	3953
854.854	4086
854.988	4006
855.122	4029
855.256	3983
855.39	4036
855.524	4139
855.658	4109
855.792	4124
855.926	4162
856.06	4223
856.194	4196
856.327	4211
856.461	4124
856.595	4211
856.729	4192
856.862	4303
856.996	4249
857.13	4291
857.263	4356
857.397	4363
857.53	4314
857.664	4360
857.797	4409
857.931	4432
858.064	4394
858.197	4436
858.331	4379
858.464	4409
858.597	4356
858.731	4462
858.864	4466
858.997	4512
859.13	4538
859.263	4527
859.396	4611
859.529	4569
859.662	4531
859.795	4558
859.928	4573
860.061	4672
860.194	4748
860.327	4672
860.46	4615
860.592	4759
860.725	4771
860.858	4793
860.99	4721
861.123	4694
861.256	4691
861.388	4733
861.521	5345
861.653	4729
861.786	4706
861.918	4736
862.05	4839
862.183	4862
862.315	4908
862.447	4942
862.58	4885
862.712	4831
862.844	4782
862.976	4934
863.108	4942
863.24	5170
863.372	4854
863.504	4923
863.636	4930
863.768	4984
863.9	5010
864.032	4957
864.164	4953
864.296	5033
864.428	5094
864.559	5140
864.691	5105
864.823	5147
864.954	5071
865.086	5124
865.217	5109
865.349	5010
865.48	5170
865.612	5231
865.743	5292
865.875	5147
866.006	5193
866.137	5239
866.269	5242
866.4	5258
866.531	5265
866.662	5235
866.793	5292
866.924	5318
867.055	5318
867.186	5337
867.317	5307
867.448	5315
867.579	5368
867.71	5463
867.841	5353
867.972	5505
868.103	5497
868.233	5528
868.364	5490
868.495	5570
868.625	5676
868.756	5779
868.886	5695
869.017	5722
869.147	5866
869.278	5832
869.408	5821
869.539	5832
869.669	5893
869.799	5923
869.929	6022
870.06	6072
870.19	6190
870.32	6194
870.45	6277
870.58	6388
870.71	6391
870.84	6479
870.97	6407
871.1	6456
871.23	6677
871.36	6719
871.489	6684
871.619	6779
871.749	6859
871.879	6886
872.008	6970
872.138	6943
872.267	7042
872.397	6981
872.526	7057
872.656	7103
872.785	7217
872.915	7434
873.044	7495
873.173	7559
873.303	7693
873.432	7807
873.561	7879
873.69	7997
873.819	7989
873.948	8168
874.077	8233
874.206	8381
874.335	8412
874.464	8644
874.593	8914
874.722	8952
874.851	9104
874.979	9237
875.108	9382
875.237	9496
875.365	9507
875.494	9637
875.623	9892
875.751	9857
875.88	10059
876.008	10204
876.136	10280
876.265	10531
876.393	10675
876.521	10740
876.65	10797
876.778	10930
876.906	10927
877.034	11048
877.162	11060
877.29	11109
877.418	11280
877.546	11379
877.674	11383
877.802	11573
877.93	11501
878.058	11554
878.185	11589
878.313	11737
878.441	11790
878.568	11634
878.696	11779
878.824	11843
878.951	11954
879.079	11996
879.206	12140
879.333	12038
879.461	11999
879.588	12110
879.715	12079
879.842	12277
879.97	12155
880.097	11935
880.224	11843
880.351	11885
880.478	11942
880.605	11889
880.732	11882
880.859	12007
880.986	11805
881.112	11878
881.239	11760
881.366	11653
881.493	11543
881.619	11547
881.746	11516
881.872	11570
881.999	11570
882.125	11410
882.252	11600
882.378	11421
882.505	11649
882.631	11376
882.757	11296
882.883	11387
883.01	11212
883.136	11147
883.262	11090
883.388	11010
883.514	11166
883.64	11098
883.766	11109
883.892	11052
884.018	10953
884.143	11075
884.269	11136
884.395	10873
884.52	10805
884.646	10714
884.772	10649
884.897	10656
885.023	10675
885.148	10714
885.274	10790
885.399	10645
885.524	10599
885.65	10535
885.775	10649
885.9	10622
886.025	10656
886.15	10577
886.275	10462
886.4	10341
886.525	10382
886.65	10367
886.775	10413
886.9	10512
887.025	10497
887.149	10360
887.274	10219
887.399	10261
887.523	10135
887.648	10192
887.773	10147
887.897	10223
888.021	10211
888.146	10147
888.27	10238
888.395	10257
888.519	10230
888.643	10112
888.767	10192
888.891	10093
889.015	10067
889.139	10006
889.263	9941
889.387	10074
889.511	10105
889.635	10051
889.759	9968
889.883	10051
890.006	10017
890.13	10109
890.254	9956
890.377	9945
890.501	9842
890.624	9827
890.748	9854
890.871	9831
890.995	9755
891.118	9720
891.241	9759
891.364	9663
891.488	9857
891.611	9743
891.734	9789
891.857	9770
891.98	9770
892.103	9755
892.226	9671
892.349	9690
892.471	9515
892.594	9622
892.717	9603
892.839	9534
892.962	9633
893.085	9705
893.207	9595
893.33	9568
893.452	9523
893.575	9713
893.697	9450
893.819	9644
893.941	9671
894.064	9644
894.186	9435
894.308	9397
894.43	9538
894.552	9564
894.674	9557
894.796	9374
894.918	9469
895.04	9367
895.161	9359
895.283	9268
895.405	9245
895.526	9230
895.648	9218
895.769	9298
895.891	9253
896.012	9332
896.134	9241
896.255	9222
896.376	9093
896.498	9184
896.619	9222
896.74	9097
896.861	9127
896.982	9321
897.103	9321
897.224	9241
897.345	8982
897.466	9077
897.587	9051
897.708	9100
897.828	9005
897.949	8990
898.07	8963
898.19	8956
898.311	9005
898.431	8857
898.552	9001
898.672	8971
898.792	8956
898.913	8956
899.033	8849
899.153	8792
899.273	8663
899.393	8754
899.513	8674
899.633	8701
899.753	8678
899.873	8743
899.993	8754
900.113	8739
900.232	8777
900.352	8663
900.472	8606
900.591	8587
900.711	8644
900.83	8568
900.95	8678
901.069	8708
901.189	8606
901.308	8446
901.427	8415
901.546	8431
901.665	8434
901.784	8545
901.904	8454
902.023	8389
902.141	8271
902.26	8282
902.379	8298
902.498	8202
902.617	8214
902.735	8324
902.854	8248
902.973	8263
903.091	8107
903.21	8142
903.328	8138
903.446	8145
903.565	8107
903.683	8088
903.801	8050
903.919	8119
904.038	8130
904.156	8043
904.274	8130
904.392	7970
904.51	8016
904.627	8065
904.745	8092
904.863	8103
904.981	7989
905.098	7860
905.216	7925
905.334	7951
905.451	7894
905.569	7883
905.686	7875
905.803	7883
905.921	7826
906.038	7898
906.155	7841
906.272	7696
906.389	7700
906.506	7578
906.623	7651
906.74	7624
906.857	7601
906.974	7616
907.091	7742
907.208	7757
907.324	7639
907.441	7575
907.557	7468
907.674	7480
907.79	7434
907.907	7434
908.023	7388
908.139	7384
908.256	7377
908.372	7400
908.488	7339
908.604	7285
908.72	7278
908.836	7263
908.952	7324
909.068	7324
909.184	7381
909.3	7247
909.415	7278
909.531	7236
909.647	7103
909.762	7133
909.878	7050
909.993	7110
910.108	7084
910.224	7114
910.339	7122
910.454	7084
910.57	7061
910.685	6939
910.8	7145
910.915	7061
911.03	7091
911.145	6882
911.259	6939
911.374	6951
911.489	6821
911.604	6863
911.718	6722
911.833	6753
911.947	6612
912.062	6601
912.176	6681
912.291	6684
912.405	6684
912.519	6818
912.633	6848
912.748	6726
912.862	6711
912.976	6650
913.09	6563
913.204	6597
913.318	6669
913.431	6722
913.545	6722
913.659	6669
913.772	6639
913.886	6578
914	6597
914.113	6623
914.226	6620
914.34	6673
914.453	6521
914.566	6555
914.68	6578
914.793	6509
914.906	6426
915.019	6418
915.132	6403
915.245	6452
915.358	6464
915.47	6464
915.583	6448
915.696	6483
915.809	6566
915.921	6555
916.034	6429
916.146	6422
916.259	6509
916.371	6467
916.483	6479
916.595	6403
916.708	6426
916.82	6422
916.932	6353
917.044	6429
917.156	6376
917.268	6285
917.38	6369
917.491	6372
917.603	6361
917.715	6437
917.826	6403
917.938	6346
918.049	6258
918.161	6395
918.272	6441
918.384	6479
918.495	6350
918.606	6247
918.717	6243
918.828	6270
918.939	6327
919.05	6213
919.161	6323
919.272	6182
919.383	6163
919.494	6273
919.604	6460
919.715	6346
919.826	6232
919.936	6266
920.047	6319
920.157	6323
920.267	6433
920.378	6365
920.488	6319
920.598	6464
920.708	6563
920.818	6452
920.928	6528
921.038	6570
921.148	6635
921.258	6353
921.368	6342
921.477	6277
921.587	6186
921.697	6095
921.806	6235
921.916	6159
922.025	5939
922.134	5908
922.244	5870
922.353	5969
922.462	5847
922.571	5844
922.68	5699
922.789	5661
922.898	5691
923.007	5680
923.116	5718
923.224	5661
923.333	5665
923.442	5657
923.55	5619
923.659	5581
923.767	5638
923.876	5615
923.984	5623
924.092	5478
924.201	5532
924.309	5539
924.417	5558
924.525	5524
924.633	5512
924.741	6292
924.849	5379
924.956	5493
925.064	5402
925.172	5299
925.279	5360
925.387	5372
925.494	5357
925.602	5482
925.709	5383
925.816	5303
925.924	5330
926.031	5429
926.138	5326
926.245	5383
926.352	5261
926.459	5311
926.566	5330
926.673	5235
926.779	5132
926.886	5159
926.993	5018
927.099	4991
927.206	4995
927.312	4976
927.419	5022
927.525	4987
927.631	5029
927.737	4900
927.843	4915
927.95	4774
928.056	4835
928.162	4824
928.267	4835
928.373	5254
928.479	4866
928.585	4717
928.69	4752
928.796	4759
928.901	4725
929.007	4618
929.112	4729
929.218	4687
929.323	4618
929.428	4603
929.533	4653
929.638	4512
929.743	4561
929.848	4577
929.953	4538
930.058	4470
930.163	4333
930.267	4314
930.372	4451
930.477	4306
930.581	4481
930.685	4371
930.79	4249
930.894	4325
930.998	4257
931.103	4394
931.207	4166
931.311	4090
931.415	4078
931.519	3964
931.623	3975
