Data from glass_V78500241_2716.txt Node
Date: Wed Sep 01 19:33:19 CST 2021
User: usil
Spectrometer: V785-0024
Trigger mode: 0
Integration Time (sec): 4.000000E-1
Scans to average: 1
Nonlinearity correction enabled: false
Boxcar width: 0
Storing dark spectrum: false
XAxis mode: Wavelengths
Number of Pixels in Spectrum: 1024
>>>>>Begin Spectral Data<<<<<
801.071	3713
801.214	3724
801.356	3698
801.499	3766
801.641	3709
801.783	3774
801.926	3835
802.068	3781
802.211	3819
802.353	3892
802.496	3808
802.638	3884
802.78	3907
802.923	3941
803.065	3876
803.208	3808
803.35	3888
803.492	3880
803.635	3907
803.777	3770
803.919	3869
804.061	4147
804.204	3949
804.346	3956
804.488	3911
804.63	4010
804.773	3934
804.915	3991
805.057	4139
805.199	4006
805.341	4063
805.483	4131
805.626	4162
805.768	4093
805.91	4200
806.052	4253
806.194	4173
806.336	4325
806.478	4158
806.62	4154
806.762	4211
806.904	4253
807.046	4325
807.188	4181
807.33	4173
807.472	4215
807.614	4158
807.756	4265
807.898	4185
808.04	4188
808.182	4230
808.324	4306
808.465	4341
808.607	4459
808.749	4413
808.891	4478
809.033	4474
809.174	4421
809.316	4276
809.458	4227
809.6	4169
809.741	4166
809.883	4124
810.025	4253
810.166	4204
810.308	4211
810.45	4238
810.591	4257
810.733	4246
810.875	4504
811.016	4858
811.158	5094
811.299	5261
811.441	5337
811.582	5052
811.724	4679
811.865	4447
812.007	4462
812.148	4432
812.29	4398
812.431	4386
812.573	4390
812.714	4329
812.855	4371
812.997	4375
813.138	4481
813.279	4443
813.421	4352
813.562	4413
813.703	4329
813.845	4310
813.986	4268
814.127	4227
814.268	4261
814.41	4242
814.551	4238
814.692	4344
814.833	4246
814.974	4276
815.115	4341
815.256	4230
815.397	4230
815.539	4257
815.68	4196
815.821	4185
815.962	4295
816.103	4284
816.244	4242
816.385	4215
816.526	4253
816.666	4219
816.807	4090
816.948	4173
817.089	4135
817.23	4116
817.371	4036
817.512	4021
817.653	4036
817.793	4017
817.934	4055
818.075	4090
818.216	4101
818.356	4097
818.497	3937
818.638	3854
818.778	3907
818.919	3873
819.06	3869
819.2	3956
819.341	3857
819.481	3880
819.622	3888
819.762	4048
819.903	3861
820.043	3846
820.184	3865
820.324	3800
820.465	3850
820.605	3869
820.746	3846
820.886	3789
821.026	3934
821.167	3911
821.307	3918
821.447	3956
821.588	3896
821.728	3941
821.868	3899
822.008	3857
822.149	3876
822.289	3903
822.429	3770
822.569	3717
822.709	3736
822.849	3698
822.99	3713
823.13	3740
823.27	3770
823.41	3690
823.55	3671
823.69	3686
823.83	3713
823.97	3682
824.11	3568
824.25	3572
824.389	3603
824.529	3663
824.669	3622
824.809	3660
824.949	3755
825.089	3720
825.228	3682
825.368	3545
825.508	3534
825.648	3584
825.787	3542
825.927	3610
826.067	3610
826.206	3641
826.346	3747
826.485	3808
826.625	3854
826.765	3918
826.904	3846
827.044	3595
827.183	3519
827.323	3431
827.462	3458
827.601	3397
827.741	3389
827.88	3412
828.02	3374
828.159	3431
828.298	3469
828.437	3496
828.577	3469
828.716	3572
828.855	3469
828.994	3370
829.134	3370
829.273	3355
829.412	3386
829.551	3317
829.69	3370
829.829	3412
829.968	3507
830.107	3405
830.246	3416
830.385	3409
830.524	3374
830.663	3264
830.802	3245
830.941	3180
831.08	3176
831.219	3253
831.357	3256
831.496	3397
831.635	3207
831.774	3199
831.913	3169
832.051	3127
832.19	3135
832.329	3184
832.467	3142
832.606	3146
832.744	3195
832.883	3161
833.022	3192
833.16	3245
833.299	3268
833.437	3313
833.576	3370
833.714	3409
833.852	3382
833.991	3431
834.129	3439
834.267	3454
834.406	3397
834.544	3386
834.682	3454
834.821	3374
834.959	3534
835.097	3397
835.235	3462
835.373	3462
835.511	3428
835.65	3428
835.788	3473
835.926	3355
836.064	3409
836.202	3363
836.34	3564
836.478	3591
836.615	3538
836.753	3542
836.891	3618
837.029	3572
837.167	3572
837.305	3561
837.443	3534
837.58	3469
837.718	3603
837.856	3542
837.993	3504
838.131	3587
838.269	3526
838.406	3534
838.544	3557
838.681	3450
838.819	3439
838.956	3412
839.094	3378
839.231	3409
839.369	3515
839.506	3675
839.643	3667
839.781	3500
839.918	3428
840.055	3519
840.193	3492
840.33	3500
840.467	3549
840.604	3606
840.742	3774
840.879	3564
841.016	3504
841.153	3584
841.29	3736
841.427	3713
841.564	3679
841.701	3743
841.838	3667
841.975	3652
842.112	3717
842.249	3622
842.385	3652
842.522	3774
842.659	3675
842.796	3663
842.933	3701
843.069	3732
843.206	3660
843.343	3793
843.479	3770
843.616	3827
843.752	3663
843.889	3701
844.025	3850
844.162	3720
844.298	3846
844.435	3778
844.571	3781
844.708	3835
844.844	3975
844.98	3998
845.117	4032
845.253	3918
845.389	3903
845.525	3956
845.661	3960
845.798	3934
845.934	4006
846.07	3960
846.206	4051
846.342	4086
846.478	4025
846.614	3941
846.75	3915
846.886	3869
847.022	4032
847.158	3968
847.294	3975
847.429	4002
847.565	3960
847.701	4196
847.837	3831
847.972	3869
848.108	3956
848.244	3956
848.379	3842
848.515	3785
848.65	3793
848.786	3816
848.921	3865
849.057	3903
849.192	3884
849.328	3884
849.463	3915
849.598	3888
849.734	3819
849.869	3835
850.004	3762
850.14	3804
850.275	3766
850.41	3724
850.545	3770
850.68	3781
850.815	3781
850.95	3732
851.085	3922
851.22	3861
851.355	3800
851.49	3785
851.625	3793
851.76	3755
851.895	3736
852.03	3698
852.165	3789
852.299	3842
852.434	3880
852.569	3869
852.703	3869
852.838	3888
852.973	3968
853.107	3941
853.242	3869
853.376	3854
853.511	3774
853.645	3781
853.78	3953
853.914	3865
854.048	3865
854.183	3835
854.317	3896
854.451	4044
854.585	3941
854.72	3892
854.854	4021
854.988	3896
855.122	3953
855.256	3911
855.39	4002
855.524	4078
855.658	4078
855.792	4097
855.926	4109
856.06	4169
856.194	4200
856.327	4116
856.461	4109
856.595	4120
856.729	4166
856.862	4253
856.996	4192
857.13	4253
857.263	4333
857.397	4402
857.53	4230
857.664	4386
857.797	4371
857.931	4363
858.064	4367
858.197	4432
858.331	4383
858.464	4363
858.597	4325
858.731	4447
858.864	4470
858.997	4409
859.13	4500
859.263	4466
859.396	4554
859.529	4516
859.662	4535
859.795	4531
859.928	4603
860.061	4694
860.194	4687
860.327	4672
860.46	4641
860.592	4698
860.725	4755
860.858	4816
860.99	4672
861.123	4698
861.256	4687
861.388	4733
861.521	5242
861.653	4725
861.786	4672
861.918	4736
862.05	4778
862.183	4812
862.315	4877
862.447	4892
862.58	4843
862.712	4782
862.844	4733
862.976	4870
863.108	4824
863.24	5288
863.372	4805
863.504	4934
863.636	4870
863.768	5014
863.9	4968
864.032	4923
864.164	4889
864.296	4984
864.428	5105
864.559	5090
864.691	5140
864.823	5071
864.954	5083
865.086	5098
865.217	5124
865.349	5083
865.48	5132
865.612	5201
865.743	5288
865.875	5155
866.006	5181
866.137	5235
866.269	5208
866.4	5231
866.531	5208
866.662	5223
866.793	5277
866.924	5265
867.055	5284
867.186	5303
867.317	5288
867.448	5280
867.579	5341
867.71	5322
867.841	5379
867.972	5478
868.103	5463
868.233	5459
868.364	5524
868.495	5528
868.625	5653
868.756	5779
868.886	5676
869.017	5741
869.147	5859
869.278	5813
869.408	5726
869.539	5878
869.669	5878
869.799	5920
869.929	6026
870.06	6034
870.19	6209
870.32	6194
870.45	6235
870.58	6380
870.71	6391
870.84	6422
870.97	6429
871.1	6433
871.23	6620
871.36	6684
871.489	6669
871.619	6741
871.749	6810
871.879	6829
872.008	6962
872.138	6951
872.267	6962
872.397	7042
872.526	7034
872.656	7099
872.785	7198
872.915	7377
873.044	7525
873.173	7544
873.303	7601
873.432	7772
873.561	7811
873.69	7902
873.819	7982
873.948	8145
874.077	8248
874.206	8339
874.335	8457
874.464	8712
874.593	8899
874.722	8944
874.851	9138
874.979	9222
875.108	9355
875.237	9382
875.365	9466
875.494	9599
875.623	9823
875.751	9838
875.88	10013
876.008	10082
876.136	10238
876.265	10512
876.393	10645
876.521	10664
876.65	10755
876.778	10733
876.906	10854
877.034	10927
877.162	11113
877.29	11075
877.418	11307
877.546	11326
877.674	11509
877.802	11467
877.93	11440
878.058	11596
878.185	11608
878.313	11680
878.441	11756
878.568	11600
878.696	11745
878.824	11908
878.951	11954
879.079	12068
879.206	12155
879.333	12121
879.461	11958
879.588	12087
879.715	12114
879.842	12171
879.97	11984
880.097	11874
880.224	11870
880.351	11908
880.478	11832
880.605	11870
880.732	11866
880.859	12045
880.986	11775
881.112	11897
881.239	11760
881.366	11653
881.493	11592
881.619	11577
881.746	11520
881.872	11600
881.999	11509
882.125	11524
882.252	11611
882.378	11501
882.505	11509
882.631	11414
882.757	11311
882.883	11273
883.01	11242
883.136	11292
883.262	11094
883.388	11083
883.514	11189
883.64	11185
883.766	11140
883.892	10961
884.018	10999
884.143	11124
884.269	11121
884.395	10824
884.52	10824
884.646	10778
884.772	10622
884.897	10725
885.023	10630
885.148	10668
885.274	10679
885.399	10736
885.524	10554
885.65	10596
885.775	10592
885.9	10569
886.025	10611
886.15	10500
886.275	10531
886.4	10299
886.525	10447
886.65	10379
886.775	10322
886.9	10478
887.025	10519
887.149	10341
887.274	10204
887.399	10200
887.523	10101
887.648	10112
887.773	10116
887.897	10287
888.021	10150
888.146	10071
888.27	10249
888.395	10211
888.519	10188
888.643	10230
888.767	10207
888.891	10082
889.015	10032
889.139	10048
889.263	9983
889.387	10109
889.511	10158
889.635	10025
889.759	9884
889.883	9922
890.006	9998
890.13	10124
890.254	9972
890.377	9922
890.501	9873
890.624	9823
890.748	9922
890.871	9690
890.995	9675
891.118	9755
891.241	9720
891.364	9717
891.488	9774
891.611	9778
891.734	9740
891.857	9747
891.98	9694
892.103	9690
892.226	9682
892.349	9637
892.471	9534
892.594	9599
892.717	9610
892.839	9576
892.962	9564
893.085	9663
893.207	9584
893.33	9458
893.452	9519
893.575	9584
893.697	9561
893.819	9637
893.941	9580
894.064	9580
894.186	9450
894.308	9370
894.43	9477
894.552	9534
894.674	9530
894.796	9363
894.918	9344
895.04	9294
895.161	9363
895.283	9325
895.405	9283
895.526	9218
895.648	9313
895.769	9218
895.891	9237
896.012	9260
896.134	9275
896.255	9195
896.376	9135
896.498	9108
896.619	9169
896.74	8971
896.861	9116
896.982	9192
897.103	9302
897.224	9184
897.345	9051
897.466	8971
897.587	9070
897.708	9100
897.828	9093
897.949	8887
898.07	8830
898.19	8899
898.311	8994
898.431	8933
898.552	8887
898.672	8944
898.792	8975
898.913	8872
899.033	8781
899.153	8727
899.273	8613
899.393	8720
899.513	8708
899.633	8686
899.753	8701
899.873	8670
899.993	8648
900.113	8644
900.232	8750
900.352	8613
900.472	8621
900.591	8522
900.711	8621
900.83	8514
900.95	8659
901.069	8701
901.189	8625
901.308	8450
901.427	8377
901.546	8431
901.665	8492
901.784	8507
901.904	8419
902.023	8328
902.141	8237
902.26	8172
902.379	8313
902.498	8214
902.617	8138
902.735	8252
902.854	8206
902.973	8290
903.091	8123
903.21	8073
903.328	8134
903.446	8069
903.565	8123
903.683	8043
903.801	8020
903.919	8081
904.038	8123
904.156	8062
904.274	8065
904.392	8043
904.51	8039
904.627	8069
904.745	8088
904.863	8062
904.981	7928
905.098	7871
905.216	7826
905.334	7856
905.451	7875
905.569	7845
905.686	7925
905.803	7925
905.921	7833
906.038	7814
906.155	7761
906.272	7700
906.389	7753
906.506	7563
906.623	7601
906.74	7628
906.857	7499
906.974	7537
907.091	7601
907.208	7670
907.324	7563
907.441	7533
907.557	7460
907.674	7457
907.79	7415
907.907	7392
908.023	7476
908.139	7411
908.256	7373
908.372	7434
908.488	7320
908.604	7217
908.72	7190
908.836	7217
908.952	7259
909.068	7183
909.184	7358
909.3	7285
909.415	7289
909.531	7327
909.647	7088
909.762	7088
909.878	7046
909.993	7110
910.108	7061
910.224	7072
910.339	7129
910.454	7019
910.57	6985
910.685	6939
910.8	7156
910.915	7069
911.03	6970
911.145	6837
911.259	6821
911.374	6928
911.489	6818
911.604	6779
911.718	6662
911.833	6658
911.947	6601
912.062	6620
912.176	6627
912.291	6673
912.405	6681
912.519	6810
912.633	6810
912.748	6677
912.862	6696
912.976	6623
913.09	6521
913.204	6536
913.318	6578
913.431	6741
913.545	6646
913.659	6688
913.772	6620
913.886	6490
914	6521
914.113	6574
914.226	6627
914.34	6555
914.453	6486
914.566	6574
914.68	6498
914.793	6532
914.906	6433
915.019	6376
915.132	6399
915.245	6395
915.358	6426
915.47	6418
915.583	6426
915.696	6486
915.809	6479
915.921	6460
916.034	6350
916.146	6369
916.259	6323
916.371	6422
916.483	6403
916.595	6433
916.708	6407
916.82	6380
916.932	6414
917.044	6357
917.156	6399
917.268	6315
917.38	6315
917.491	6235
917.603	6338
917.715	6380
917.826	6433
917.938	6334
918.049	6239
918.161	6327
918.272	6399
918.384	6376
918.495	6353
918.606	6270
918.717	6277
918.828	6220
918.939	6213
919.05	6125
919.161	6239
919.272	6125
919.383	6102
919.494	6224
919.604	6395
919.715	6247
919.826	6216
919.936	6251
920.047	6331
920.157	6247
920.267	6498
920.378	6315
920.488	6292
920.598	6448
920.708	6528
920.818	6407
920.928	6460
921.038	6563
921.148	6551
921.258	6277
921.368	6285
921.477	6194
921.587	6144
921.697	6045
921.806	6140
921.916	6076
922.025	5942
922.134	5870
922.244	5863
922.353	5954
922.462	5809
922.571	5813
922.68	5676
922.789	5665
922.898	5707
923.007	5600
923.116	5665
923.224	5676
923.333	5646
923.442	5547
923.55	5611
923.659	5577
923.767	5623
923.876	5516
923.984	5562
924.092	5474
924.201	5547
924.309	5505
924.417	5532
924.525	5478
924.633	5524
924.741	6273
924.849	5318
924.956	5474
925.064	5334
925.172	5269
925.279	5315
925.387	5357
925.494	5311
925.602	5376
925.709	5357
925.816	5254
925.924	5254
926.031	5341
926.138	5265
926.245	5303
926.352	5216
926.459	5303
926.566	5296
926.673	5277
926.779	5155
926.886	5098
926.993	5003
927.099	5003
927.206	4961
927.312	4968
927.419	5006
927.525	4965
927.631	4995
927.737	4866
927.843	4885
927.95	4763
928.056	4786
928.162	4828
928.267	4839
928.373	5322
928.479	4835
928.585	4694
928.69	4744
928.796	4710
928.901	4611
929.007	4592
929.112	4664
929.218	4596
929.323	4580
929.428	4554
929.533	4626
929.638	4542
929.743	4542
929.848	4542
929.953	4481
930.058	4436
930.163	4352
930.267	4341
930.372	4390
930.477	4280
930.581	4447
930.685	4379
930.79	4261
930.894	4280
930.998	4280
931.103	4363
931.207	4131
931.311	4116
931.415	4025
931.519	3911
931.623	3953
