Data from glass_V78500241_721.txt Node
Date: Wed Sep 01 19:19:29 CST 2021
User: usil
Spectrometer: V785-0024
Trigger mode: 0
Integration Time (sec): 4.000000E-1
Scans to average: 1
Nonlinearity correction enabled: false
Boxcar width: 0
Storing dark spectrum: false
XAxis mode: Wavelengths
Number of Pixels in Spectrum: 1024
>>>>>Begin Spectral Data<<<<<
801.071	3747
801.214	3701
801.356	3728
801.499	3770
801.641	3736
801.783	3850
801.926	3911
802.068	3846
802.211	3884
802.353	3915
802.496	3823
802.638	3911
802.78	3918
802.923	3964
803.065	3915
803.208	3861
803.35	3880
803.492	3907
803.635	3896
803.777	3838
803.919	3888
804.061	4188
804.204	4055
804.346	3949
804.488	3972
804.63	4029
804.773	3994
804.915	4002
805.057	4124
805.199	4032
805.341	4131
805.483	4158
805.626	4139
805.768	4112
805.91	4200
806.052	4276
806.194	4223
806.336	4379
806.478	4230
806.62	4162
806.762	4253
806.904	4253
807.046	4322
807.188	4227
807.33	4215
807.472	4272
807.614	4215
807.756	4261
807.898	4253
808.04	4219
808.182	4318
808.324	4356
808.465	4329
808.607	4447
808.749	4428
808.891	4470
809.033	4500
809.174	4428
809.316	4322
809.458	4299
809.6	4188
809.741	4200
809.883	4185
810.025	4272
810.166	4246
810.308	4234
810.45	4257
810.591	4227
810.733	4306
810.875	4516
811.016	4824
811.158	5132
811.299	5258
811.441	5307
811.582	5079
811.724	4714
811.865	4527
812.007	4485
812.148	4462
812.29	4428
812.431	4451
812.573	4402
812.714	4394
812.855	4432
812.997	4443
813.138	4478
813.279	4421
813.421	4375
813.562	4402
813.703	4318
813.845	4344
813.986	4287
814.127	4227
814.268	4261
814.41	4261
814.551	4257
814.692	4337
814.833	4310
814.974	4284
815.115	4356
815.256	4284
815.397	4215
815.539	4257
815.68	4200
815.821	4246
815.962	4314
816.103	4299
816.244	4257
816.385	4261
816.526	4310
816.666	4268
816.807	4101
816.948	4177
817.089	4211
817.23	4158
817.371	4093
817.512	4071
817.653	4128
817.793	4032
817.934	4040
818.075	4082
818.216	4086
818.356	4128
818.497	4010
818.638	3918
818.778	3937
818.919	3888
819.06	3888
819.2	3956
819.341	3873
819.481	3854
819.622	3880
819.762	4067
819.903	3975
820.043	3903
820.184	3816
820.324	3827
820.465	3873
820.605	3880
820.746	3876
820.886	3831
821.026	3968
821.167	4006
821.307	3987
821.447	4036
821.588	3953
821.728	3975
821.868	3949
822.008	3880
822.149	3915
822.289	3968
822.429	3774
822.569	3804
822.709	3838
822.849	3717
822.99	3732
823.13	3759
823.27	3747
823.41	3740
823.55	3762
823.69	3720
823.83	3724
823.97	3717
824.11	3656
824.25	3606
824.389	3641
824.529	3663
824.669	3648
824.809	3724
824.949	3762
825.089	3713
825.228	3705
825.368	3580
825.508	3591
825.648	3580
825.787	3656
825.927	3679
826.067	3618
826.206	3675
826.346	3823
826.485	3831
826.625	3907
826.765	3918
826.904	3850
827.044	3603
827.183	3519
827.323	3450
827.462	3515
827.601	3443
827.741	3435
827.88	3507
828.02	3374
828.159	3488
828.298	3542
828.437	3545
828.577	3492
828.716	3641
828.855	3545
828.994	3374
829.134	3401
829.273	3397
829.412	3348
829.551	3351
829.69	3412
829.829	3466
829.968	3515
830.107	3462
830.246	3473
830.385	3382
830.524	3363
830.663	3317
830.802	3260
830.941	3211
831.08	3218
831.219	3287
831.357	3283
831.496	3428
831.635	3256
831.774	3146
831.913	3161
832.051	3104
832.19	3157
832.329	3230
832.467	3135
832.606	3119
832.744	3146
832.883	3188
833.022	3211
833.16	3283
833.299	3310
833.437	3363
833.576	3389
833.714	3428
833.852	3450
833.991	3454
834.129	3492
834.267	3435
834.406	3435
834.544	3386
834.682	3409
834.821	3431
834.959	3591
835.097	3431
835.235	3530
835.373	3473
835.511	3496
835.65	3481
835.788	3477
835.926	3374
836.064	3378
836.202	3378
836.34	3564
836.478	3633
836.615	3545
836.753	3622
836.891	3648
837.029	3660
837.167	3648
837.305	3534
837.443	3564
837.58	3530
837.718	3652
837.856	3587
837.993	3599
838.131	3606
838.269	3599
838.406	3576
838.544	3591
838.681	3485
838.819	3443
838.956	3397
839.094	3405
839.231	3462
839.369	3526
839.506	3793
839.643	3656
839.781	3530
839.918	3450
840.055	3507
840.193	3557
840.33	3553
840.467	3595
840.604	3644
840.742	3842
840.879	3530
841.016	3530
841.153	3587
841.29	3793
841.427	3709
841.564	3720
841.701	3755
841.838	3736
841.975	3740
842.112	3717
842.249	3637
842.385	3698
842.522	3808
842.659	3690
842.796	3679
842.933	3720
843.069	3724
843.206	3720
843.343	3812
843.479	3774
843.616	3819
843.752	3667
843.889	3701
844.025	3835
844.162	3682
844.298	3880
844.435	3785
844.571	3762
844.708	3926
844.844	3991
844.98	4063
845.117	4059
845.253	3934
845.389	3873
845.525	3964
845.661	3994
845.798	3915
845.934	3998
846.07	3915
846.206	4067
846.342	4086
846.478	4078
846.614	3991
846.75	3941
846.886	3899
847.022	4067
847.158	3983
847.294	4017
847.429	4021
847.565	4002
847.701	4242
847.837	3888
847.972	3869
848.108	3956
848.244	3972
848.379	3861
848.515	3804
848.65	3797
848.786	3876
848.921	3922
849.057	3998
849.192	3998
849.328	3903
849.463	3945
849.598	3896
849.734	3896
849.869	3857
850.004	3770
850.14	3842
850.275	3736
850.41	3762
850.545	3720
850.68	3781
850.815	3804
850.95	3774
851.085	3937
851.22	3869
851.355	3831
851.49	3800
851.625	3804
851.76	3793
851.895	3740
852.03	3740
852.165	3778
852.299	3873
852.434	3930
852.569	3873
852.703	3915
852.838	3972
852.973	4025
853.107	4025
853.242	3888
853.376	3831
853.511	3778
853.645	3850
853.78	4029
853.914	3903
854.048	3930
854.183	3911
854.317	3972
854.451	4082
854.585	3941
854.72	3926
854.854	4048
854.988	3930
855.122	4010
855.256	3903
855.39	4002
855.524	4124
855.658	4139
855.792	4120
855.926	4116
856.06	4196
856.194	4268
856.327	4166
856.461	4131
856.595	4207
856.729	4154
856.862	4280
856.996	4291
857.13	4322
857.263	4318
857.397	4337
857.53	4261
857.664	4432
857.797	4447
857.931	4375
858.064	4443
858.197	4470
858.331	4409
858.464	4417
858.597	4291
858.731	4440
858.864	4413
858.997	4489
859.13	4470
859.263	4588
859.396	4577
859.529	4592
859.662	4550
859.795	4512
859.928	4622
860.061	4721
860.194	4672
860.327	4679
860.46	4634
860.592	4763
860.725	4786
860.858	4771
860.99	4729
861.123	4668
861.256	4687
861.388	4771
861.521	5372
861.653	4729
861.786	4675
861.918	4763
862.05	4831
862.183	4866
862.315	4881
862.447	4927
862.58	4934
862.712	4812
862.844	4809
862.976	4873
863.108	4892
863.24	5261
863.372	4854
863.504	4858
863.636	4896
863.768	4968
863.9	4904
864.032	5014
864.164	4946
864.296	5071
864.428	5079
864.559	5155
864.691	5109
864.823	5105
864.954	5128
865.086	5147
865.217	5121
865.349	5098
865.48	5181
865.612	5254
865.743	5337
865.875	5242
866.006	5204
866.137	5242
866.269	5265
866.4	5239
866.531	5307
866.662	5235
866.793	5311
866.924	5311
867.055	5372
867.186	5353
867.317	5345
867.448	5334
867.579	5376
867.71	5414
867.841	5459
867.972	5433
868.103	5486
868.233	5505
868.364	5516
868.495	5535
868.625	5695
868.756	5726
868.886	5665
869.017	5710
869.147	5866
869.278	5824
869.408	5840
869.539	5817
869.669	5946
869.799	5916
869.929	6026
870.06	5961
870.19	6201
870.32	6197
870.45	6292
870.58	6273
870.71	6437
870.84	6464
870.97	6418
871.1	6467
871.23	6623
871.36	6711
871.489	6700
871.619	6768
871.749	6764
871.879	6871
872.008	6996
872.138	6920
872.267	6981
872.397	6973
872.526	7023
872.656	7057
872.785	7206
872.915	7422
873.044	7567
873.173	7578
873.303	7666
873.432	7772
873.561	7868
873.69	7936
873.819	8016
873.948	8187
874.077	8275
874.206	8343
874.335	8431
874.464	8648
874.593	8823
874.722	8933
874.851	9146
874.979	9237
875.108	9370
875.237	9393
875.365	9485
875.494	9660
875.623	9816
875.751	9816
875.88	10036
876.008	10112
876.136	10333
876.265	10577
876.393	10702
876.521	10706
876.65	10927
876.778	10885
876.906	10961
877.034	10995
877.162	11231
877.29	11109
877.418	11341
877.546	11387
877.674	11471
877.802	11436
877.93	11547
878.058	11524
878.185	11558
878.313	11657
878.441	11634
878.568	11798
878.696	11878
878.824	11885
878.951	11935
879.079	12045
879.206	12216
879.333	12041
879.461	12007
879.588	12026
879.715	12026
879.842	12273
879.97	12053
880.097	11859
880.224	11912
880.351	11935
880.478	11889
880.605	11779
880.732	11798
880.859	11988
880.986	11809
881.112	11817
881.239	11760
881.366	11695
881.493	11638
881.619	11668
881.746	11547
881.872	11524
881.999	11532
882.125	11512
882.252	11604
882.378	11497
882.505	11596
882.631	11391
882.757	11337
882.883	11356
883.01	11326
883.136	11284
883.262	11143
883.388	11090
883.514	11185
883.64	11109
883.766	11102
883.892	10915
884.018	11102
884.143	11079
884.269	11056
884.395	10866
884.52	10774
884.646	10771
884.772	10729
884.897	10656
885.023	10691
885.148	10725
885.274	10752
885.399	10744
885.524	10653
885.65	10565
885.775	10561
885.9	10596
886.025	10558
886.15	10565
886.275	10451
886.4	10417
886.525	10409
886.65	10402
886.775	10394
886.9	10516
887.025	10474
887.149	10409
887.274	10215
887.399	10188
887.523	10280
887.648	10192
887.773	10188
887.897	10230
888.021	10192
888.146	10131
888.27	10257
888.395	10287
888.519	10265
888.643	10276
888.767	10169
888.891	10181
889.015	10036
889.139	10017
889.263	10044
889.387	10059
889.511	10173
889.635	10093
889.759	9949
889.883	9899
890.006	10013
890.13	10112
890.254	9918
890.377	10006
890.501	9831
890.624	9899
890.748	9956
890.871	9838
890.995	9728
891.118	9770
891.241	9770
891.364	9762
891.488	9785
891.611	9770
891.734	9736
891.857	9808
891.98	9701
892.103	9762
892.226	9740
892.349	9728
892.471	9599
892.594	9625
892.717	9576
892.839	9660
892.962	9629
893.085	9675
893.207	9690
893.33	9545
893.452	9519
893.575	9625
893.697	9542
893.819	9720
893.941	9663
894.064	9610
894.186	9439
894.308	9386
894.43	9576
894.552	9553
894.674	9511
894.796	9412
894.918	9507
895.04	9386
895.161	9351
895.283	9302
895.405	9245
895.526	9348
895.648	9203
895.769	9249
895.891	9214
896.012	9329
896.134	9283
896.255	9157
896.376	9116
896.498	9154
896.619	9116
896.74	9028
896.861	9009
896.982	9268
897.103	9321
897.224	9142
897.345	9097
897.466	9043
897.587	9062
897.708	9161
897.828	9039
897.949	8982
898.07	8941
898.19	8883
898.311	9028
898.431	8876
898.552	8887
898.672	8929
898.792	9017
898.913	8929
899.033	8842
899.153	8777
899.273	8689
899.393	8678
899.513	8746
899.633	8705
899.753	8834
899.873	8686
899.993	8735
900.113	8705
900.232	8731
900.352	8629
900.472	8579
900.591	8571
900.711	8610
900.83	8530
900.95	8739
901.069	8655
901.189	8545
901.308	8480
901.427	8381
901.546	8423
901.665	8473
901.784	8484
901.904	8385
902.023	8347
902.141	8290
902.26	8187
902.379	8290
902.498	8187
902.617	8218
902.735	8347
902.854	8298
902.973	8294
903.091	8088
903.21	8123
903.328	8126
903.446	8088
903.565	8065
903.683	8062
903.801	8016
903.919	8168
904.038	8168
904.156	8069
904.274	8100
904.392	8012
904.51	8054
904.627	8012
904.745	8103
904.863	8054
904.981	7921
905.098	7860
905.216	7936
905.334	7925
905.451	7951
905.569	7909
905.686	7974
905.803	7959
905.921	7822
906.038	7864
906.155	7868
906.272	7674
906.389	7708
906.506	7647
906.623	7616
906.74	7601
906.857	7525
906.974	7575
907.091	7693
907.208	7734
907.324	7632
907.441	7548
907.557	7377
907.674	7460
907.79	7460
907.907	7365
908.023	7403
908.139	7457
908.256	7400
908.372	7403
908.488	7403
908.604	7331
908.72	7259
908.836	7301
908.952	7202
909.068	7278
909.184	7377
909.3	7308
909.415	7335
909.531	7327
909.647	7145
909.762	7141
909.878	7088
909.993	7251
910.108	7126
910.224	7050
910.339	7129
910.454	7099
910.57	7019
910.685	6920
910.8	7183
910.915	7084
911.03	7053
911.145	6947
911.259	6878
911.374	6818
911.489	6859
911.604	6844
911.718	6692
911.833	6772
911.947	6677
912.062	6654
912.176	6726
912.291	6677
912.405	6681
912.519	6791
912.633	6863
912.748	6734
912.862	6707
912.976	6669
913.09	6528
913.204	6559
913.318	6582
913.431	6639
913.545	6700
913.659	6726
913.772	6688
913.886	6532
914	6582
914.113	6623
914.226	6681
914.34	6582
914.453	6551
914.566	6623
914.68	6536
914.793	6517
914.906	6456
915.019	6475
915.132	6399
915.245	6414
915.358	6475
915.47	6471
915.583	6483
915.696	6471
915.809	6597
915.921	6544
916.034	6445
916.146	6448
916.259	6429
916.371	6525
916.483	6452
916.595	6391
916.708	6407
916.82	6399
916.932	6338
917.044	6445
917.156	6403
917.268	6315
917.38	6388
917.491	6311
917.603	6353
917.715	6399
917.826	6395
917.938	6365
918.049	6224
918.161	6296
918.272	6403
918.384	6452
918.495	6395
918.606	6289
918.717	6243
918.828	6201
918.939	6285
919.05	6224
919.161	6277
919.272	6079
919.383	6254
919.494	6262
919.604	6441
919.715	6266
919.826	6251
919.936	6266
920.047	6334
920.157	6319
920.267	6418
920.378	6331
920.488	6277
920.598	6483
920.708	6555
920.818	6471
920.928	6456
921.038	6665
921.148	6620
921.258	6331
921.368	6342
921.477	6243
921.587	6178
921.697	6201
921.806	6182
921.916	6034
922.025	6026
922.134	5935
922.244	5859
922.353	5920
922.462	5897
922.571	5836
922.68	5703
922.789	5684
922.898	5756
923.007	5668
923.116	5718
923.224	5657
923.333	5714
923.442	5619
923.55	5532
923.659	5577
923.767	5604
923.876	5512
923.984	5668
924.092	5547
924.201	5585
924.309	5547
924.417	5581
924.525	5524
924.633	5486
924.741	6155
924.849	5345
924.956	5482
925.064	5311
925.172	5318
925.279	5337
925.387	5429
925.494	5303
925.602	5421
925.709	5383
925.816	5254
925.924	5307
926.031	5368
926.138	5292
926.245	5307
926.352	5284
926.459	5292
926.566	5353
926.673	5239
926.779	5143
926.886	5132
926.993	5022
927.099	4999
927.206	4987
927.312	4968
927.419	5025
927.525	4980
927.631	5014
927.737	4870
927.843	4908
927.95	4805
928.056	4854
928.162	4797
928.267	4908
928.373	5296
928.479	4858
928.585	4660
928.69	4782
928.796	4763
928.901	4675
929.007	4584
929.112	4729
929.218	4656
929.323	4618
929.428	4577
929.533	4710
929.638	4474
929.743	4580
929.848	4599
929.953	4504
930.058	4478
930.163	4360
930.267	4337
930.372	4478
930.477	4291
930.581	4508
930.685	4348
930.79	4306
930.894	4280
930.998	4268
931.103	4360
931.207	4128
931.311	4055
931.415	4055
931.519	3941
931.623	3930
