Data from glass_V78500241_1379.txt Node
Date: Wed Sep 01 19:24:03 CST 2021
User: usil
Spectrometer: V785-0024
Trigger mode: 0
Integration Time (sec): 4.000000E-1
Scans to average: 1
Nonlinearity correction enabled: false
Boxcar width: 0
Storing dark spectrum: false
XAxis mode: Wavelengths
Number of Pixels in Spectrum: 1024
>>>>>Begin Spectral Data<<<<<
801.071	3713
801.214	3789
801.356	3755
801.499	3736
801.641	3736
801.783	3800
801.926	3911
802.068	3857
802.211	3903
802.353	3869
802.496	3838
802.638	3888
802.78	3880
802.923	3915
803.065	3960
803.208	3823
803.35	3907
803.492	3892
803.635	3880
803.777	3819
803.919	3903
804.061	4177
804.204	3972
804.346	3972
804.488	3911
804.63	4006
804.773	3972
804.915	4036
805.057	4147
805.199	4025
805.341	4097
805.483	4162
805.626	4097
805.768	4139
805.91	4230
806.052	4207
806.194	4200
806.336	4383
806.478	4227
806.62	4188
806.762	4196
806.904	4223
807.046	4360
807.188	4215
807.33	4196
807.472	4276
807.614	4185
807.756	4242
807.898	4177
808.04	4207
808.182	4295
808.324	4325
808.465	4322
808.607	4447
808.749	4489
808.891	4466
809.033	4516
809.174	4409
809.316	4253
809.458	4257
809.6	4139
809.741	4131
809.883	4166
810.025	4204
810.166	4215
810.308	4246
810.45	4223
810.591	4234
810.733	4284
810.875	4508
811.016	4816
811.158	5098
811.299	5201
811.441	5265
811.582	5083
811.724	4691
811.865	4504
812.007	4459
812.148	4413
812.29	4424
812.431	4398
812.573	4390
812.714	4394
812.855	4405
812.997	4402
813.138	4512
813.279	4386
813.421	4398
813.562	4405
813.703	4356
813.845	4329
813.986	4261
814.127	4227
814.268	4306
814.41	4306
814.551	4249
814.692	4329
814.833	4299
814.974	4276
815.115	4306
815.256	4246
815.397	4295
815.539	4284
815.68	4223
815.821	4215
815.962	4348
816.103	4314
816.244	4287
816.385	4280
816.526	4284
816.666	4223
816.807	4116
816.948	4173
817.089	4169
817.23	4120
817.371	4036
817.512	4036
817.653	4059
817.793	4063
817.934	4074
818.075	4147
818.216	4055
818.356	4067
818.497	3968
818.638	3888
818.778	3937
818.919	3873
819.06	3865
819.2	3915
819.341	3850
819.481	3869
819.622	3949
819.762	4013
819.903	4006
820.043	3892
820.184	3816
820.324	3861
820.465	3846
820.605	3880
820.746	3903
820.886	3831
821.026	3926
821.167	3941
821.307	3998
821.447	3968
821.588	3949
821.728	3964
821.868	3941
822.008	3896
822.149	3907
822.289	3930
822.429	3736
822.569	3759
822.709	3781
822.849	3686
822.99	3656
823.13	3781
823.27	3747
823.41	3709
823.55	3755
823.69	3724
823.83	3774
823.97	3709
824.11	3572
824.25	3568
824.389	3633
824.529	3656
824.669	3682
824.809	3698
824.949	3724
825.089	3736
825.228	3736
825.368	3564
825.508	3587
825.648	3549
825.787	3599
825.927	3606
826.067	3686
826.206	3675
826.346	3774
826.485	3854
826.625	3857
826.765	3972
826.904	3854
827.044	3599
827.183	3542
827.323	3450
827.462	3492
827.601	3424
827.741	3409
827.88	3466
828.02	3370
828.159	3431
828.298	3466
828.437	3557
828.577	3492
828.716	3603
828.855	3504
828.994	3397
829.134	3344
829.273	3382
829.412	3367
829.551	3355
829.69	3412
829.829	3409
829.968	3549
830.107	3450
830.246	3462
830.385	3374
830.524	3348
830.663	3306
830.802	3230
830.941	3203
831.08	3241
831.219	3211
831.357	3256
831.496	3393
831.635	3260
831.774	3245
831.913	3211
832.051	3085
832.19	3146
832.329	3199
832.467	3146
832.606	3135
832.744	3184
832.883	3195
833.022	3214
833.16	3283
833.299	3321
833.437	3382
833.576	3389
833.714	3424
833.852	3431
833.991	3466
834.129	3492
834.267	3443
834.406	3409
834.544	3424
834.682	3420
834.821	3409
834.959	3595
835.097	3405
835.235	3515
835.373	3511
835.511	3507
835.65	3481
835.788	3511
835.926	3401
836.064	3359
836.202	3397
836.34	3606
836.478	3614
836.615	3561
836.753	3603
836.891	3625
837.029	3618
837.167	3606
837.305	3530
837.443	3553
837.58	3500
837.718	3625
837.856	3542
837.993	3564
838.131	3580
838.269	3584
838.406	3606
838.544	3580
838.681	3511
838.819	3447
838.956	3428
839.094	3416
839.231	3435
839.369	3515
839.506	3751
839.643	3641
839.781	3538
839.918	3439
840.055	3530
840.193	3511
840.33	3515
840.467	3553
840.604	3587
840.742	3785
840.879	3564
841.016	3595
841.153	3568
841.29	3785
841.427	3755
841.564	3755
841.701	3728
841.838	3709
841.975	3667
842.112	3709
842.249	3637
842.385	3599
842.522	3819
842.659	3698
842.796	3698
842.933	3720
843.069	3736
843.206	3701
843.343	3800
843.479	3789
843.616	3819
843.752	3652
843.889	3694
844.025	3797
844.162	3705
844.298	3800
844.435	3827
844.571	3762
844.708	3865
844.844	4010
844.98	4029
845.117	3994
845.253	3956
845.389	3896
845.525	3987
845.661	3934
845.798	3972
845.934	3960
846.07	3983
846.206	4082
846.342	4097
846.478	4109
846.614	4013
846.75	3926
846.886	3922
847.022	4029
847.158	4006
847.294	4017
847.429	3998
847.565	4044
847.701	4230
847.837	3888
847.972	3846
848.108	4013
848.244	4002
848.379	3846
848.515	3823
848.65	3838
848.786	3823
848.921	3876
849.057	3926
849.192	3915
849.328	3903
849.463	3930
849.598	3880
849.734	3888
849.869	3827
850.004	3781
850.14	3838
850.275	3804
850.41	3717
850.545	3774
850.68	3785
850.815	3770
850.95	3808
851.085	3956
851.22	3892
851.355	3835
851.49	3770
851.625	3747
851.76	3808
851.895	3728
852.03	3740
852.165	3846
852.299	3888
852.434	3918
852.569	3873
852.703	3854
852.838	3956
852.973	3956
853.107	3987
853.242	3926
853.376	3869
853.511	3823
853.645	3857
853.78	3960
853.914	3899
854.048	3899
854.183	3873
854.317	3937
854.451	4082
854.585	3991
854.72	3956
854.854	4074
854.988	3953
855.122	3979
855.256	3926
855.39	4029
855.524	4147
855.658	4063
855.792	4120
855.926	4097
856.06	4162
856.194	4207
856.327	4135
856.461	4139
856.595	4154
856.729	4188
856.862	4284
856.996	4246
857.13	4341
857.263	4352
857.397	4405
857.53	4280
857.664	4379
857.797	4417
857.931	4409
858.064	4360
858.197	4428
858.331	4363
858.464	4348
858.597	4314
858.731	4421
858.864	4432
858.997	4481
859.13	4493
859.263	4558
859.396	4584
859.529	4516
859.662	4523
859.795	4538
859.928	4603
860.061	4710
860.194	4733
860.327	4683
860.46	4588
860.592	4755
860.725	4748
860.858	4793
860.99	4694
861.123	4702
861.256	4725
861.388	4725
861.521	5307
861.653	4672
861.786	4702
861.918	4717
862.05	4763
862.183	4771
862.315	4896
862.447	4961
862.58	4904
862.712	4835
862.844	4736
862.976	4847
863.108	4946
863.24	5147
863.372	4786
863.504	4930
863.636	4908
863.768	4968
863.9	4946
864.032	4885
864.164	4949
864.296	5010
864.428	5132
864.559	5124
864.691	5109
864.823	5128
864.954	5109
865.086	5124
865.217	5162
865.349	5090
865.48	5155
865.612	5231
865.743	5330
865.875	5181
866.006	5220
866.137	5212
866.269	5235
866.4	5204
866.531	5231
866.662	5197
866.793	5208
866.924	5303
867.055	5337
867.186	5315
867.317	5357
867.448	5326
867.579	5395
867.71	5345
867.841	5410
867.972	5467
868.103	5433
868.233	5490
868.364	5497
868.495	5547
868.625	5688
868.756	5824
868.886	5703
869.017	5771
869.147	5817
869.278	5847
869.408	5836
869.539	5855
869.669	5912
869.799	5901
869.929	6022
870.06	6007
870.19	6224
870.32	6178
870.45	6319
870.58	6331
870.71	6407
870.84	6407
870.97	6513
871.1	6448
871.23	6658
871.36	6764
871.489	6662
871.619	6768
871.749	6818
871.879	6878
872.008	6977
872.138	6977
872.267	6947
872.397	6985
872.526	6989
872.656	7118
872.785	7221
872.915	7362
873.044	7594
873.173	7529
873.303	7685
873.432	7792
873.561	7921
873.69	7898
873.819	8027
873.948	8161
874.077	8279
874.206	8339
874.335	8492
874.464	8663
874.593	8902
874.722	8956
874.851	9146
874.979	9184
875.108	9363
875.237	9367
875.365	9447
875.494	9717
875.623	9903
875.751	9846
875.88	10013
876.008	10124
876.136	10310
876.265	10493
876.393	10763
876.521	10797
876.65	10763
876.778	10877
876.906	10900
877.034	10972
877.162	11071
877.29	11216
877.418	11311
877.546	11315
877.674	11398
877.802	11512
877.93	11512
878.058	11501
878.185	11520
878.313	11649
878.441	11699
878.568	11665
878.696	11821
878.824	11752
878.951	11893
879.079	12076
879.206	12121
879.333	12106
879.461	12011
879.588	12083
879.715	11992
879.842	12239
879.97	12060
880.097	11824
880.224	11935
880.351	11946
880.478	11866
880.605	11866
880.732	11832
880.859	11980
880.986	11828
881.112	11783
881.239	11661
881.366	11600
881.493	11642
881.619	11570
881.746	11623
881.872	11490
881.999	11558
882.125	11471
882.252	11539
882.378	11524
882.505	11577
882.631	11395
882.757	11254
882.883	11337
883.01	11220
883.136	11147
883.262	11181
883.388	11193
883.514	11250
883.64	11239
883.766	11159
883.892	10968
884.018	11064
884.143	11162
884.269	11124
884.395	10831
884.52	10873
884.646	10850
884.772	10710
884.897	10672
885.023	10694
885.148	10714
885.274	10714
885.399	10698
885.524	10668
885.65	10660
885.775	10615
885.9	10565
886.025	10611
886.15	10531
886.275	10497
886.4	10379
886.525	10504
886.65	10375
886.775	10382
886.9	10447
887.025	10577
887.149	10360
887.274	10234
887.399	10215
887.523	10173
887.648	10185
887.773	10093
887.897	10215
888.021	10314
888.146	10093
888.27	10276
888.395	10207
888.519	10234
888.643	10120
888.767	10128
888.891	10067
889.015	9930
889.139	10032
889.263	10013
889.387	10150
889.511	10139
889.635	10051
889.759	9945
889.883	9983
890.006	10006
890.13	10086
890.254	10013
890.377	10013
890.501	9789
890.624	9869
890.748	9865
890.871	9804
890.995	9816
891.118	9751
891.241	9762
891.364	9724
891.488	9804
891.611	9797
891.734	9648
891.857	9774
891.98	9663
892.103	9770
892.226	9671
892.349	9656
892.471	9591
892.594	9557
892.717	9682
892.839	9519
892.962	9553
893.085	9637
893.207	9568
893.33	9492
893.452	9519
893.575	9538
893.697	9507
893.819	9637
893.941	9644
894.064	9652
894.186	9477
894.308	9469
894.43	9523
894.552	9568
894.674	9561
894.796	9412
894.918	9389
895.04	9351
895.161	9340
895.283	9313
895.405	9306
895.526	9302
895.648	9237
895.769	9253
895.891	9329
896.012	9283
896.134	9176
896.255	9138
896.376	9180
896.498	9161
896.619	9161
896.74	9108
896.861	9154
896.982	9253
897.103	9275
897.224	9127
897.345	9188
897.466	9032
897.587	9039
897.708	9104
897.828	9028
897.949	8952
898.07	8853
898.19	8948
898.311	8982
898.431	8864
898.552	8937
898.672	8899
898.792	8941
898.913	8849
899.033	8891
899.153	8686
899.273	8640
899.393	8735
899.513	8758
899.633	8716
899.753	8739
899.873	8655
899.993	8735
900.113	8663
900.232	8670
900.352	8655
900.472	8621
900.591	8530
900.711	8526
900.83	8503
900.95	8644
901.069	8648
901.189	8530
901.308	8434
901.427	8393
901.546	8393
901.665	8438
901.784	8503
901.904	8362
902.023	8279
902.141	8218
902.26	8210
902.379	8279
902.498	8199
902.617	8225
902.735	8275
902.854	8301
902.973	8221
903.091	8111
903.21	8164
903.328	8199
903.446	8119
903.565	8062
903.683	8073
903.801	8054
903.919	8088
904.038	8145
904.156	8024
904.274	8126
904.392	8096
904.51	8069
904.627	8043
904.745	8202
904.863	8081
904.981	7967
905.098	7799
905.216	7917
905.334	7814
905.451	7925
905.569	7921
905.686	7875
905.803	7894
905.921	7788
906.038	7852
906.155	7792
906.272	7685
906.389	7696
906.506	7670
906.623	7723
906.74	7597
906.857	7563
906.974	7605
907.091	7719
907.208	7757
907.324	7715
907.441	7575
907.557	7441
907.674	7422
907.79	7457
907.907	7491
908.023	7430
908.139	7407
908.256	7324
908.372	7373
908.488	7369
908.604	7255
908.72	7255
908.836	7282
908.952	7278
909.068	7263
909.184	7369
909.3	7270
909.415	7316
909.531	7312
909.647	7137
909.762	7072
909.878	7175
909.993	7110
910.108	7069
910.224	7084
910.339	7084
910.454	7084
910.57	7012
910.685	6943
910.8	7129
910.915	7133
911.03	6985
911.145	6909
911.259	6890
911.374	6913
911.489	6863
911.604	6867
911.718	6711
911.833	6711
911.947	6692
912.062	6608
912.176	6700
912.291	6726
912.405	6745
912.519	6840
912.633	6825
912.748	6772
912.862	6681
912.976	6623
913.09	6509
913.204	6559
913.318	6570
913.431	6700
913.545	6662
913.659	6730
913.772	6604
913.886	6566
914	6563
914.113	6608
914.226	6681
914.34	6593
914.453	6486
914.566	6620
914.68	6456
914.793	6517
914.906	6452
915.019	6418
915.132	6361
915.245	6433
915.358	6384
915.47	6437
915.583	6456
915.696	6509
915.809	6513
915.921	6589
916.034	6448
916.146	6433
916.259	6319
916.371	6445
916.483	6547
916.595	6388
916.708	6433
916.82	6380
916.932	6350
917.044	6365
917.156	6414
917.268	6331
917.38	6353
917.491	6323
917.603	6304
917.715	6334
917.826	6395
917.938	6300
918.049	6289
918.161	6391
918.272	6388
918.384	6391
918.495	6380
918.606	6281
918.717	6194
918.828	6304
918.939	6323
919.05	6224
919.161	6232
919.272	6155
919.383	6136
919.494	6308
919.604	6384
919.715	6251
919.826	6228
919.936	6254
920.047	6308
920.157	6289
920.267	6437
920.378	6304
920.488	6262
920.598	6467
920.708	6528
920.818	6498
920.928	6479
921.038	6578
921.148	6559
921.258	6331
921.368	6323
921.477	6296
921.587	6175
921.697	6083
921.806	6178
921.916	6068
922.025	5939
922.134	5885
922.244	5897
922.353	5939
922.462	5828
922.571	5779
922.68	5771
922.789	5691
922.898	5691
923.007	5672
923.116	5665
923.224	5714
923.333	5684
923.442	5638
923.55	5551
923.659	5596
923.767	5657
923.876	5512
923.984	5581
924.092	5570
924.201	5577
924.309	5520
924.417	5592
924.525	5459
924.633	5512
924.741	6304
924.849	5406
924.956	5478
925.064	5383
925.172	5288
925.279	5349
925.387	5387
925.494	5383
925.602	5463
925.709	5372
925.816	5307
925.924	5334
926.031	5364
926.138	5280
926.245	5303
926.352	5273
926.459	5341
926.566	5315
926.673	5189
926.779	5170
926.886	5136
926.993	5033
927.099	5006
927.206	5003
927.312	4934
927.419	5025
927.525	4927
927.631	4991
927.737	4900
927.843	4927
927.95	4778
928.056	4809
928.162	4896
928.267	4805
928.373	5254
928.479	4831
928.585	4668
928.69	4782
928.796	4778
928.901	4664
929.007	4634
929.112	4653
929.218	4630
929.323	4637
929.428	4558
929.533	4656
929.638	4485
929.743	4580
929.848	4599
929.953	4485
930.058	4459
930.163	4322
930.267	4341
930.372	4432
930.477	4333
930.581	4440
930.685	4390
930.79	4295
930.894	4276
930.998	4280
931.103	4398
931.207	4097
931.311	4116
931.415	4063
931.519	3960
931.623	3968
