Data from glass_V78500241_167.txt Node
Date: Wed Sep 01 19:15:39 CST 2021
User: usil
Spectrometer: V785-0024
Trigger mode: 0
Integration Time (sec): 4.000000E-1
Scans to average: 1
Nonlinearity correction enabled: false
Boxcar width: 0
Storing dark spectrum: false
XAxis mode: Wavelengths
Number of Pixels in Spectrum: 1024
>>>>>Begin Spectral Data<<<<<
801.071	3781
801.214	3774
801.356	3720
801.499	3717
801.641	3766
801.783	3838
801.926	3873
802.068	3846
802.211	3854
802.353	3896
802.496	3850
802.638	3861
802.78	3922
802.923	3911
803.065	3911
803.208	3903
803.35	3941
803.492	3888
803.635	3915
803.777	3831
803.919	3892
804.061	4162
804.204	3960
804.346	3968
804.488	3926
804.63	4071
804.773	3998
804.915	4048
805.057	4135
805.199	4044
805.341	4093
805.483	4185
805.626	4143
805.768	4131
805.91	4211
806.052	4230
806.194	4242
806.336	4344
806.478	4204
806.62	4204
806.762	4177
806.904	4280
807.046	4341
807.188	4253
807.33	4177
807.472	4238
807.614	4177
807.756	4337
807.898	4196
808.04	4185
808.182	4310
808.324	4379
808.465	4417
808.607	4512
808.749	4459
808.891	4440
809.033	4512
809.174	4402
809.316	4291
809.458	4265
809.6	4196
809.741	4196
809.883	4173
810.025	4234
810.166	4177
810.308	4200
810.45	4261
810.591	4280
810.733	4322
810.875	4565
811.016	4854
811.158	5121
811.299	5334
811.441	5235
811.582	5056
811.724	4721
811.865	4489
812.007	4478
812.148	4500
812.29	4417
812.431	4405
812.573	4428
812.714	4390
812.855	4451
812.997	4405
813.138	4485
813.279	4459
813.421	4379
813.562	4402
813.703	4402
813.845	4325
813.986	4276
814.127	4246
814.268	4246
814.41	4280
814.551	4268
814.692	4322
814.833	4291
814.974	4276
815.115	4348
815.256	4257
815.397	4287
815.539	4261
815.68	4211
815.821	4196
815.962	4333
816.103	4303
816.244	4227
816.385	4238
816.526	4261
816.666	4246
816.807	4067
816.948	4158
817.089	4192
817.23	4139
817.371	4078
817.512	4074
817.653	4109
817.793	4082
817.934	4044
818.075	4109
818.216	4093
818.356	4078
818.497	4044
818.638	3907
818.778	3907
818.919	3915
819.06	3884
819.2	3915
819.341	3892
819.481	3865
819.622	3922
819.762	4029
819.903	3926
820.043	3873
820.184	3865
820.324	3850
820.465	3915
820.605	3907
820.746	3918
820.886	3789
821.026	3998
821.167	3888
821.307	3994
821.447	3991
821.588	3975
821.728	3960
821.868	3937
822.008	3934
822.149	3907
822.289	3892
822.429	3827
822.569	3762
822.709	3823
822.849	3720
822.99	3713
823.13	3770
823.27	3812
823.41	3720
823.55	3698
823.69	3732
823.83	3701
823.97	3682
824.11	3595
824.25	3610
824.389	3663
824.529	3709
824.669	3671
824.809	3717
824.949	3785
825.089	3755
825.228	3736
825.368	3614
825.508	3587
825.648	3603
825.787	3618
825.927	3679
826.067	3637
826.206	3705
826.346	3774
826.485	3869
826.625	3892
826.765	3987
826.904	3842
827.044	3614
827.183	3530
827.323	3462
827.462	3485
827.601	3447
827.741	3443
827.88	3492
828.02	3405
828.159	3485
828.298	3492
828.437	3481
828.577	3504
828.716	3637
828.855	3466
828.994	3382
829.134	3409
829.273	3431
829.412	3336
829.551	3389
829.69	3370
829.829	3409
829.968	3549
830.107	3428
830.246	3504
830.385	3363
830.524	3389
830.663	3313
830.802	3336
830.941	3237
831.08	3195
831.219	3283
831.357	3264
831.496	3412
831.635	3298
831.774	3233
831.913	3211
832.051	3131
832.19	3161
832.329	3249
832.467	3116
832.606	3081
832.744	3173
832.883	3207
833.022	3256
833.16	3272
833.299	3302
833.437	3351
833.576	3370
833.714	3447
833.852	3469
833.991	3443
834.129	3500
834.267	3439
834.406	3382
834.544	3462
834.682	3454
834.821	3412
834.959	3610
835.097	3447
835.235	3530
835.373	3534
835.511	3542
835.65	3500
835.788	3538
835.926	3397
836.064	3386
836.202	3409
836.34	3572
836.478	3644
836.615	3580
836.753	3599
836.891	3637
837.029	3663
837.167	3629
837.305	3587
837.443	3572
837.58	3504
837.718	3618
837.856	3576
837.993	3568
838.131	3629
838.269	3599
838.406	3557
838.544	3618
838.681	3500
838.819	3454
838.956	3409
839.094	3420
839.231	3435
839.369	3572
839.506	3751
839.643	3629
839.781	3538
839.918	3447
840.055	3519
840.193	3530
840.33	3549
840.467	3587
840.604	3622
840.742	3808
840.879	3580
841.016	3614
841.153	3606
841.29	3778
841.427	3717
841.564	3728
841.701	3785
841.838	3709
841.975	3675
842.112	3709
842.249	3648
842.385	3667
842.522	3838
842.659	3717
842.796	3736
842.933	3705
843.069	3740
843.206	3724
843.343	3873
843.479	3766
843.616	3835
843.752	3705
843.889	3713
844.025	3876
844.162	3740
844.298	3880
844.435	3838
844.571	3846
844.708	3926
844.844	4036
844.98	4017
845.117	4021
845.253	3922
845.389	3960
845.525	3991
845.661	3949
845.798	3930
845.934	4021
846.07	3968
846.206	4090
846.342	4105
846.478	4086
846.614	4017
846.75	3949
846.886	3884
847.022	4071
847.158	3979
847.294	3994
847.429	4006
847.565	4051
847.701	4242
847.837	3861
847.972	3876
848.108	3949
848.244	4013
848.379	3857
848.515	3857
848.65	3785
848.786	3884
848.921	3857
849.057	3949
849.192	3956
849.328	3915
849.463	3972
849.598	3884
849.734	3857
849.869	3846
850.004	3747
850.14	3842
850.275	3793
850.41	3717
850.545	3785
850.68	3785
850.815	3838
850.95	3846
851.085	3956
851.22	3861
851.355	3816
851.49	3800
851.625	3827
851.76	3850
851.895	3736
852.03	3740
852.165	3819
852.299	3880
852.434	3884
852.569	3888
852.703	3899
852.838	3945
852.973	3998
853.107	3998
853.242	3892
853.376	3865
853.511	3804
853.645	3876
853.78	3994
853.914	3922
854.048	3922
854.183	3953
854.317	3949
854.451	4071
854.585	4010
854.72	3934
854.854	4044
854.988	3930
855.122	4013
855.256	3983
855.39	4013
855.524	4101
855.658	4158
855.792	4128
855.926	4135
856.06	4177
856.194	4230
856.327	4188
856.461	4143
856.595	4211
856.729	4150
856.862	4276
856.996	4238
857.13	4325
857.263	4352
857.397	4341
857.53	4318
857.664	4383
857.797	4440
857.931	4459
858.064	4421
858.197	4497
858.331	4386
858.464	4405
858.597	4394
858.731	4478
858.864	4481
858.997	4462
859.13	4542
859.263	4535
859.396	4573
859.529	4542
859.662	4535
859.795	4508
859.928	4649
860.061	4740
860.194	4698
860.327	4660
860.46	4668
860.592	4782
860.725	4801
860.858	4801
860.99	4725
861.123	4759
861.256	4736
861.388	4805
861.521	5360
861.653	4744
861.786	4706
861.918	4725
862.05	4790
862.183	4858
862.315	4885
862.447	4942
862.58	4892
862.712	4850
862.844	4809
862.976	4820
863.108	4911
863.24	5296
863.372	4877
863.504	4942
863.636	4904
863.768	4991
863.9	4957
864.032	4957
864.164	5014
864.296	5006
864.428	5105
864.559	5140
864.691	5075
864.823	5151
864.954	5147
865.086	5181
865.217	5136
865.349	5136
865.48	5174
865.612	5208
865.743	5258
865.875	5246
866.006	5223
866.137	5223
866.269	5288
866.4	5242
866.531	5246
866.662	5242
866.793	5277
866.924	5296
867.055	5326
867.186	5322
867.317	5330
867.448	5303
867.579	5376
867.71	5402
867.841	5417
867.972	5467
868.103	5497
868.233	5482
868.364	5543
868.495	5551
868.625	5695
868.756	5821
868.886	5688
869.017	5760
869.147	5882
869.278	5885
869.408	5813
869.539	5893
869.669	5931
869.799	5927
869.929	6045
870.06	6022
870.19	6213
870.32	6197
870.45	6266
870.58	6369
870.71	6475
870.84	6475
870.97	6433
871.1	6422
871.23	6654
871.36	6646
871.489	6692
871.619	6764
871.749	6886
871.879	6840
872.008	6989
872.138	7000
872.267	7050
872.397	7042
872.526	7110
872.656	7129
872.785	7251
872.915	7369
873.044	7514
873.173	7597
873.303	7628
873.432	7750
873.561	7890
873.69	7906
873.819	8020
873.948	8210
874.077	8279
874.206	8389
874.335	8522
874.464	8686
874.593	8811
874.722	8979
874.851	9211
874.979	9260
875.108	9355
875.237	9504
875.365	9435
875.494	9671
875.623	9816
875.751	9873
875.88	9983
876.008	10154
876.136	10268
876.265	10538
876.393	10721
876.521	10710
876.65	10793
876.778	10843
876.906	10953
877.034	10934
877.162	11151
877.29	11254
877.418	11356
877.546	11353
877.674	11436
877.802	11490
877.93	11596
878.058	11585
878.185	11596
878.313	11714
878.441	11840
878.568	11623
878.696	11908
878.824	11882
878.951	12022
879.079	12091
879.206	12155
879.333	12064
879.461	12038
879.588	12076
879.715	12038
879.842	12224
879.97	12098
880.097	11904
880.224	11885
880.351	11866
880.478	11851
880.605	11889
880.732	11737
880.859	11984
880.986	11767
881.112	11798
881.239	11672
881.366	11611
881.493	11608
881.619	11520
881.746	11596
881.872	11505
881.999	11535
882.125	11490
882.252	11566
882.378	11547
882.505	11539
882.631	11364
882.757	11273
882.883	11391
883.01	11334
883.136	11216
883.262	11124
883.388	11048
883.514	11280
883.64	11159
883.766	11113
883.892	10984
884.018	11041
884.143	10991
884.269	11079
884.395	10778
884.52	10824
884.646	10824
884.772	10858
884.897	10717
885.023	10748
885.148	10744
885.274	10786
885.399	10622
885.524	10687
885.65	10637
885.775	10550
885.9	10519
886.025	10588
886.15	10512
886.275	10447
886.4	10421
886.525	10405
886.65	10348
886.775	10306
886.9	10497
887.025	10500
887.149	10382
887.274	10261
887.399	10169
887.523	10268
887.648	10223
887.773	10105
887.897	10303
888.021	10207
888.146	10139
888.27	10261
888.395	10242
888.519	10238
888.643	10227
888.767	10196
888.891	10090
889.015	10051
889.139	10002
889.263	10010
889.387	10044
889.511	10074
889.635	10147
889.759	9983
889.883	9991
890.006	10017
890.13	10105
890.254	9964
890.377	10006
890.501	9884
890.624	9953
890.748	9972
890.871	9823
890.995	9778
891.118	9660
891.241	9770
891.364	9751
891.488	9774
891.611	9709
891.734	9755
891.857	9736
891.98	9774
892.103	9759
892.226	9686
892.349	9698
892.471	9553
892.594	9610
892.717	9679
892.839	9591
892.962	9682
893.085	9648
893.207	9584
893.33	9545
893.452	9553
893.575	9622
893.697	9481
893.819	9606
893.941	9622
894.064	9610
894.186	9473
894.308	9374
894.43	9595
894.552	9572
894.674	9549
894.796	9431
894.918	9401
895.04	9412
895.161	9386
895.283	9332
895.405	9306
895.526	9272
895.648	9272
895.769	9233
895.891	9260
896.012	9272
896.134	9233
896.255	9226
896.376	9203
896.498	9165
896.619	9154
896.74	9070
896.861	9176
896.982	9306
897.103	9302
897.224	9207
897.345	9047
897.466	9070
897.587	9058
897.708	9108
897.828	9077
897.949	8925
898.07	8941
898.19	8921
898.311	9001
898.431	8899
898.552	8937
898.672	9017
898.792	8979
898.913	9009
899.033	8838
899.153	8754
899.273	8739
899.393	8785
899.513	8693
899.633	8777
899.753	8750
899.873	8693
899.993	8743
900.113	8689
900.232	8800
900.352	8667
900.472	8629
900.591	8522
900.711	8636
900.83	8613
900.95	8701
901.069	8697
901.189	8617
901.308	8473
901.427	8370
901.546	8434
901.665	8454
901.784	8533
901.904	8381
902.023	8370
902.141	8229
902.26	8233
902.379	8237
902.498	8252
902.617	8176
902.735	8343
902.854	8362
902.973	8286
903.091	8157
903.21	8157
903.328	8195
903.446	8115
903.565	8043
903.683	8145
903.801	8069
903.919	8111
904.038	8180
904.156	8107
904.274	8187
904.392	8008
904.51	8077
904.627	8054
904.745	8088
904.863	8115
904.981	8012
905.098	7955
905.216	7871
905.334	7868
905.451	7951
905.569	7852
905.686	7909
905.803	7993
905.921	7841
906.038	7974
906.155	7780
906.272	7799
906.389	7723
906.506	7655
906.623	7670
906.74	7597
906.857	7590
906.974	7590
907.091	7746
907.208	7715
907.324	7677
907.441	7529
907.557	7506
907.674	7495
907.79	7373
907.907	7343
908.023	7449
908.139	7449
908.256	7415
908.372	7388
908.488	7384
908.604	7301
908.72	7297
908.836	7293
908.952	7217
909.068	7259
909.184	7350
909.3	7297
909.415	7270
909.531	7346
909.647	7069
909.762	7110
909.878	7091
909.993	7168
910.108	7137
910.224	7129
910.339	7133
910.454	7057
910.57	7012
910.685	6913
910.8	7171
910.915	7091
911.03	7031
911.145	6878
911.259	6909
911.374	6901
911.489	6833
911.604	6844
911.718	6688
911.833	6772
911.947	6658
912.062	6654
912.176	6776
912.291	6703
912.405	6726
912.519	6856
912.633	6791
912.748	6719
912.862	6684
912.976	6696
913.09	6566
913.204	6654
913.318	6662
913.431	6639
913.545	6650
913.659	6707
913.772	6707
913.886	6608
914	6582
914.113	6620
914.226	6601
914.34	6627
914.453	6513
914.566	6700
914.68	6623
914.793	6521
914.906	6399
915.019	6441
915.132	6399
915.245	6456
915.358	6494
915.47	6410
915.583	6479
915.696	6448
915.809	6574
915.921	6593
916.034	6403
916.146	6414
916.259	6448
916.371	6467
916.483	6426
916.595	6388
916.708	6410
916.82	6388
916.932	6410
917.044	6407
917.156	6388
917.268	6277
917.38	6384
917.491	6319
917.603	6304
917.715	6380
917.826	6407
917.938	6338
918.049	6285
918.161	6372
918.272	6445
918.384	6460
918.495	6395
918.606	6270
918.717	6232
918.828	6319
918.939	6262
919.05	6186
919.161	6258
919.272	6117
919.383	6159
919.494	6319
919.604	6407
919.715	6323
919.826	6289
919.936	6300
920.047	6334
920.157	6292
920.267	6460
920.378	6388
920.488	6311
920.598	6418
920.708	6517
920.818	6456
920.928	6521
921.038	6650
921.148	6608
921.258	6361
921.368	6334
921.477	6232
921.587	6182
921.697	6064
921.806	6228
921.916	6091
922.025	5961
922.134	5920
922.244	5874
922.353	5958
922.462	5794
922.571	5847
922.68	5695
922.789	5680
922.898	5699
923.007	5710
923.116	5733
923.224	5646
923.333	5672
923.442	5577
923.55	5562
923.659	5596
923.767	5638
923.876	5551
923.984	5646
924.092	5493
924.201	5581
924.309	5562
924.417	5581
924.525	5505
924.633	5532
924.741	6171
924.849	5410
924.956	5471
925.064	5360
925.172	5311
925.279	5315
925.387	5349
925.494	5357
925.602	5391
925.709	5421
925.816	5280
925.924	5345
926.031	5357
926.138	5372
926.245	5395
926.352	5193
926.459	5334
926.566	5322
926.673	5201
926.779	5147
926.886	5132
926.993	5052
927.099	5022
927.206	5003
927.312	4987
927.419	5006
927.525	4976
927.631	5010
927.737	4904
927.843	4911
927.95	4793
928.056	4835
928.162	4850
928.267	4824
928.373	5307
928.479	4843
928.585	4725
928.69	4771
928.796	4767
928.901	4721
929.007	4584
929.112	4717
929.218	4656
929.323	4634
929.428	4599
929.533	4668
929.638	4485
929.743	4584
929.848	4607
929.953	4462
930.058	4443
930.163	4314
930.267	4383
930.372	4402
930.477	4314
930.581	4462
930.685	4363
930.79	4280
930.894	4352
930.998	4276
931.103	4386
931.207	4093
931.311	4097
931.415	3991
931.519	3983
931.623	3937
