Data from glass_V78500241_1261.txt Node
Date: Wed Sep 01 19:23:14 CST 2021
User: usil
Spectrometer: V785-0024
Trigger mode: 0
Integration Time (sec): 4.000000E-1
Scans to average: 1
Nonlinearity correction enabled: false
Boxcar width: 0
Storing dark spectrum: false
XAxis mode: Wavelengths
Number of Pixels in Spectrum: 1024
>>>>>Begin Spectral Data<<<<<
801.071	3781
801.214	3740
801.356	3686
801.499	3766
801.641	3724
801.783	3774
801.926	3880
802.068	3850
802.211	3903
802.353	3907
802.496	3838
802.638	3888
802.78	3876
802.923	3972
803.065	3869
803.208	3846
803.35	3869
803.492	3865
803.635	3911
803.777	3827
803.919	3911
804.061	4166
804.204	3975
804.346	3953
804.488	3945
804.63	4032
804.773	3998
804.915	4078
805.057	4181
805.199	4051
805.341	4071
805.483	4112
805.626	4135
805.768	4090
805.91	4238
806.052	4234
806.194	4249
806.336	4325
806.478	4188
806.62	4238
806.762	4166
806.904	4242
807.046	4337
807.188	4249
807.33	4230
807.472	4211
807.614	4150
807.756	4249
807.898	4234
808.04	4188
808.182	4265
808.324	4310
808.465	4398
808.607	4474
808.749	4489
808.891	4489
809.033	4523
809.174	4402
809.316	4265
809.458	4257
809.6	4147
809.741	4139
809.883	4196
810.025	4158
810.166	4230
810.308	4242
810.45	4261
810.591	4276
810.733	4318
810.875	4516
811.016	4850
811.158	5155
811.299	5311
811.441	5311
811.582	5048
811.724	4687
811.865	4478
812.007	4470
812.148	4451
812.29	4436
812.431	4371
812.573	4417
812.714	4383
812.855	4386
812.997	4405
813.138	4497
813.279	4413
813.421	4379
813.562	4352
813.703	4348
813.845	4344
813.986	4249
814.127	4234
814.268	4287
814.41	4314
814.551	4284
814.692	4287
814.833	4341
814.974	4333
815.115	4333
815.256	4257
815.397	4261
815.539	4257
815.68	4215
815.821	4196
815.962	4276
816.103	4303
816.244	4230
816.385	4234
816.526	4295
816.666	4185
816.807	4147
816.948	4188
817.089	4204
817.23	4154
817.371	4059
817.512	4021
817.653	4097
817.793	4036
817.934	4082
818.075	4112
818.216	4078
818.356	4086
818.497	4010
818.638	3937
818.778	3915
818.919	3869
819.06	3896
819.2	3956
819.341	3835
819.481	3838
819.622	3907
819.762	4013
819.903	3956
820.043	3861
820.184	3827
820.324	3854
820.465	3911
820.605	3911
820.746	3869
820.886	3808
821.026	3922
821.167	3945
821.307	3968
821.447	4017
821.588	3915
821.728	3941
821.868	3972
822.008	3831
822.149	3903
822.289	3915
822.429	3778
822.569	3759
822.709	3819
822.849	3717
822.99	3740
823.13	3781
823.27	3755
823.41	3694
823.55	3743
823.69	3694
823.83	3724
823.97	3667
824.11	3667
824.25	3629
824.389	3663
824.529	3663
824.669	3637
824.809	3701
824.949	3789
825.089	3774
825.228	3682
825.368	3595
825.508	3553
825.648	3576
825.787	3599
825.927	3648
826.067	3633
826.206	3671
826.346	3804
826.485	3888
826.625	3911
826.765	3945
826.904	3827
827.044	3644
827.183	3526
827.323	3450
827.462	3469
827.601	3447
827.741	3454
827.88	3447
828.02	3367
828.159	3428
828.298	3477
828.437	3523
828.577	3477
828.716	3633
828.855	3507
828.994	3416
829.134	3329
829.273	3382
829.412	3344
829.551	3355
829.69	3359
829.829	3428
829.968	3530
830.107	3439
830.246	3500
830.385	3416
830.524	3340
830.663	3336
830.802	3256
830.941	3230
831.08	3222
831.219	3272
831.357	3241
831.496	3443
831.635	3184
831.774	3199
831.913	3233
832.051	3077
832.19	3157
832.329	3256
832.467	3207
832.606	3131
832.744	3195
832.883	3165
833.022	3199
833.16	3226
833.299	3348
833.437	3367
833.576	3386
833.714	3435
833.852	3443
833.991	3439
834.129	3485
834.267	3428
834.406	3416
834.544	3439
834.682	3428
834.821	3397
834.959	3545
835.097	3428
835.235	3530
835.373	3507
835.511	3481
835.65	3492
835.788	3504
835.926	3412
836.064	3386
836.202	3416
836.34	3572
836.478	3648
836.615	3538
836.753	3641
836.891	3629
837.029	3614
837.167	3576
837.305	3549
837.443	3523
837.58	3477
837.718	3614
837.856	3591
837.993	3564
838.131	3618
838.269	3576
838.406	3591
838.544	3595
838.681	3507
838.819	3439
838.956	3382
839.094	3393
839.231	3443
839.369	3526
839.506	3743
839.643	3701
839.781	3523
839.918	3473
840.055	3572
840.193	3523
840.33	3507
840.467	3561
840.604	3633
840.742	3831
840.879	3534
841.016	3587
841.153	3557
841.29	3770
841.427	3740
841.564	3755
841.701	3770
841.838	3701
841.975	3701
842.112	3713
842.249	3679
842.385	3610
842.522	3816
842.659	3701
842.796	3656
842.933	3751
843.069	3698
843.206	3694
843.343	3816
843.479	3755
843.616	3819
843.752	3652
843.889	3709
844.025	3865
844.162	3705
844.298	3880
844.435	3770
844.571	3789
844.708	3899
844.844	4017
844.98	4071
845.117	4029
845.253	3930
845.389	3876
845.525	3994
845.661	3918
845.798	3911
845.934	3998
846.07	3949
846.206	4036
846.342	4120
846.478	4124
846.614	3960
846.75	3930
846.886	3915
847.022	4013
847.158	4013
847.294	4010
847.429	4067
847.565	3987
847.701	4249
847.837	3892
847.972	3865
848.108	4017
848.244	3987
848.379	3869
848.515	3789
848.65	3850
848.786	3873
848.921	3842
849.057	3930
849.192	3975
849.328	3903
849.463	3918
849.598	3888
849.734	3876
849.869	3854
850.004	3800
850.14	3857
850.275	3778
850.41	3728
850.545	3785
850.68	3827
850.815	3789
850.95	3797
851.085	3953
851.22	3857
851.355	3797
851.49	3774
851.625	3797
851.76	3793
851.895	3751
852.03	3732
852.165	3766
852.299	3823
852.434	3899
852.569	3888
852.703	3903
852.838	3915
852.973	3991
853.107	4025
853.242	3907
853.376	3892
853.511	3781
853.645	3816
853.78	3979
853.914	3884
854.048	3835
854.183	3884
854.317	3941
854.451	4071
854.585	3972
854.72	3960
854.854	4029
854.988	3911
855.122	3983
855.256	3934
855.39	4010
855.524	4101
855.658	4101
855.792	4162
855.926	4169
856.06	4124
856.194	4192
856.327	4143
856.461	4124
856.595	4128
856.729	4223
856.862	4291
856.996	4284
857.13	4314
857.263	4341
857.397	4367
857.53	4246
857.664	4341
857.797	4383
857.931	4417
858.064	4432
858.197	4497
858.331	4413
858.464	4356
858.597	4394
858.731	4485
858.864	4447
858.997	4470
859.13	4500
859.263	4546
859.396	4596
859.529	4565
859.662	4573
859.795	4531
859.928	4561
860.061	4694
860.194	4736
860.327	4660
860.46	4683
860.592	4729
860.725	4820
860.858	4793
860.99	4710
861.123	4668
861.256	4733
861.388	4820
861.521	5395
861.653	4687
861.786	4706
861.918	4748
862.05	4793
862.183	4809
862.315	4915
862.447	4930
862.58	4919
862.712	4778
862.844	4752
862.976	4850
863.108	4850
863.24	5159
863.372	4839
863.504	4908
863.636	4911
863.768	4949
863.9	4991
864.032	4965
864.164	4938
864.296	4984
864.428	5109
864.559	5151
864.691	5121
864.823	5193
864.954	5113
865.086	5102
865.217	5140
865.349	5090
865.48	5117
865.612	5155
865.743	5235
865.875	5220
866.006	5193
866.137	5227
866.269	5250
866.4	5246
866.531	5227
866.662	5261
866.793	5269
866.924	5341
867.055	5402
867.186	5322
867.317	5379
867.448	5318
867.579	5330
867.71	5368
867.841	5387
867.972	5474
868.103	5417
868.233	5493
868.364	5505
868.495	5592
868.625	5676
868.756	5775
868.886	5714
869.017	5707
869.147	5832
869.278	5817
869.408	5783
869.539	5828
869.669	5958
869.799	5931
869.929	6007
870.06	6045
870.19	6247
870.32	6190
870.45	6251
870.58	6315
870.71	6471
870.84	6506
870.97	6418
871.1	6414
871.23	6688
871.36	6646
871.489	6669
871.619	6779
871.749	6791
871.879	6894
872.008	6973
872.138	6939
872.267	6981
872.397	6996
872.526	7004
872.656	7107
872.785	7198
872.915	7396
873.044	7495
873.173	7544
873.303	7639
873.432	7723
873.561	7890
873.69	7887
873.819	8058
873.948	8183
874.077	8263
874.206	8370
874.335	8533
874.464	8686
874.593	8910
874.722	8952
874.851	9123
874.979	9306
875.108	9420
875.237	9382
875.365	9481
875.494	9633
875.623	9793
875.751	9861
875.88	9968
876.008	10093
876.136	10303
876.265	10512
876.393	10622
876.521	10687
876.65	10831
876.778	10915
876.906	10835
877.034	11060
877.162	11132
877.29	11170
877.418	11368
877.546	11391
877.674	11452
877.802	11471
877.93	11638
878.058	11627
878.185	11573
878.313	11642
878.441	11821
878.568	11668
878.696	11878
878.824	11805
878.951	11980
879.079	11999
879.206	12129
879.333	12049
879.461	11965
879.588	12133
879.715	12022
879.842	12277
879.97	12125
880.097	11882
880.224	11931
880.351	11836
880.478	11912
880.605	11828
880.732	11847
880.859	12038
880.986	11843
881.112	11802
881.239	11714
881.366	11630
881.493	11710
881.619	11524
881.746	11543
881.872	11547
881.999	11463
882.125	11459
882.252	11482
882.378	11440
882.505	11505
882.631	11387
882.757	11322
882.883	11345
883.01	11265
883.136	11250
883.262	11124
883.388	11109
883.514	11136
883.64	11204
883.766	11113
883.892	11033
884.018	10949
884.143	11041
884.269	11098
884.395	10900
884.52	10759
884.646	10790
884.772	10748
884.897	10641
885.023	10698
885.148	10706
885.274	10736
885.399	10668
885.524	10603
885.65	10558
885.775	10653
885.9	10580
886.025	10550
886.15	10535
886.275	10447
886.4	10424
886.525	10421
886.65	10337
886.775	10417
886.9	10405
887.025	10558
887.149	10386
887.274	10234
887.399	10200
887.523	10158
887.648	10162
887.773	10131
887.897	10276
888.021	10234
888.146	10082
888.27	10272
888.395	10253
888.519	10131
888.643	10048
888.767	10280
888.891	10059
889.015	10074
889.139	10109
889.263	9941
889.387	10071
889.511	10021
889.635	10147
889.759	10006
889.883	9918
890.006	10002
890.13	10082
890.254	9960
890.377	9972
890.501	9892
890.624	9831
890.748	9949
890.871	9831
890.995	9797
891.118	9709
891.241	9781
891.364	9785
891.488	9800
891.611	9671
891.734	9713
891.857	9812
891.98	9751
892.103	9808
892.226	9690
892.349	9648
892.471	9576
892.594	9603
892.717	9622
892.839	9599
892.962	9595
893.085	9648
893.207	9599
893.33	9553
893.452	9538
893.575	9515
893.697	9561
893.819	9584
893.941	9641
894.064	9553
894.186	9447
894.308	9454
894.43	9515
894.552	9648
894.674	9526
894.796	9332
894.918	9397
895.04	9458
895.161	9378
895.283	9374
895.405	9336
895.526	9237
895.648	9165
895.769	9237
895.891	9321
896.012	9310
896.134	9199
896.255	9176
896.376	9085
896.498	9051
896.619	9127
896.74	9066
896.861	9081
896.982	9192
897.103	9321
897.224	9165
897.345	9097
897.466	9062
897.587	9055
897.708	9047
897.828	9138
897.949	8994
898.07	8880
898.19	8895
898.311	9032
898.431	8929
898.552	9005
898.672	8937
898.792	8986
898.913	8910
899.033	8804
899.153	8712
899.273	8670
899.393	8739
899.513	8766
899.633	8682
899.753	8769
899.873	8659
899.993	8727
900.113	8693
900.232	8716
900.352	8621
900.472	8640
900.591	8541
900.711	8610
900.83	8575
900.95	8594
901.069	8659
901.189	8606
901.308	8450
901.427	8362
901.546	8431
901.665	8438
901.784	8518
901.904	8473
902.023	8351
902.141	8298
902.26	8206
902.379	8180
902.498	8206
902.617	8225
902.735	8324
902.854	8313
902.973	8191
903.091	8145
903.21	8183
903.328	8206
903.446	8100
903.565	8115
903.683	8084
903.801	8016
903.919	8111
904.038	8191
904.156	8039
904.274	8100
904.392	8020
904.51	7997
904.627	7993
904.745	8126
904.863	8069
904.981	7932
905.098	7852
905.216	7856
905.334	7864
905.451	7871
905.569	7940
905.686	8046
905.803	7925
905.921	7852
906.038	7902
906.155	7818
906.272	7734
906.389	7746
906.506	7601
906.623	7666
906.74	7601
906.857	7472
906.974	7571
907.091	7666
907.208	7723
907.324	7677
907.441	7578
907.557	7441
907.674	7422
907.79	7460
907.907	7476
908.023	7476
908.139	7438
908.256	7384
908.372	7369
908.488	7369
908.604	7308
908.72	7232
908.836	7285
908.952	7259
909.068	7285
909.184	7285
909.3	7228
909.415	7285
909.531	7255
909.647	7099
909.762	7133
909.878	7122
909.993	7145
910.108	7122
910.224	7095
910.339	7107
910.454	7057
910.57	7046
910.685	6989
910.8	7175
910.915	7160
911.03	7053
911.145	6932
911.259	6894
911.374	6901
911.489	6833
911.604	6791
911.718	6700
911.833	6760
911.947	6722
912.062	6616
912.176	6719
912.291	6738
912.405	6719
912.519	6840
912.633	6821
912.748	6768
912.862	6681
912.976	6608
913.09	6597
913.204	6616
913.318	6574
913.431	6684
913.545	6741
913.659	6715
913.772	6677
913.886	6601
914	6582
914.113	6601
914.226	6631
914.34	6620
914.453	6517
914.566	6646
914.68	6559
914.793	6540
914.906	6418
915.019	6426
915.132	6376
915.245	6433
915.358	6441
915.47	6471
915.583	6456
915.696	6437
915.809	6547
915.921	6486
916.034	6414
916.146	6471
916.259	6452
916.371	6563
916.483	6509
916.595	6403
916.708	6422
916.82	6407
916.932	6372
917.044	6433
917.156	6422
917.268	6292
917.38	6365
917.491	6350
917.603	6380
917.715	6353
917.826	6422
917.938	6300
918.049	6205
918.161	6300
918.272	6422
918.384	6407
918.495	6384
918.606	6304
918.717	6239
918.828	6266
918.939	6273
919.05	6213
919.161	6228
919.272	6144
919.383	6194
919.494	6254
919.604	6467
919.715	6296
919.826	6243
919.936	6262
920.047	6308
920.157	6277
920.267	6486
920.378	6338
920.488	6292
920.598	6456
920.708	6528
920.818	6460
920.928	6433
921.038	6574
921.148	6612
921.258	6353
921.368	6311
921.477	6232
921.587	6201
921.697	6148
921.806	6228
921.916	6152
922.025	5912
922.134	5942
922.244	5855
922.353	5973
922.462	5824
922.571	5836
922.68	5649
922.789	5726
922.898	5722
923.007	5638
923.116	5695
923.224	5688
923.333	5676
923.442	5611
923.55	5630
923.659	5562
923.767	5634
923.876	5547
923.984	5630
924.092	5543
924.201	5573
924.309	5566
924.417	5528
924.525	5452
924.633	5486
924.741	6285
924.849	5387
924.956	5497
925.064	5391
925.172	5288
925.279	5318
925.387	5349
925.494	5360
925.602	5429
925.709	5429
925.816	5322
925.924	5296
926.031	5337
926.138	5326
926.245	5318
926.352	5261
926.459	5372
926.566	5334
926.673	5181
926.779	5178
926.886	5166
926.993	5045
927.099	5010
927.206	5010
927.312	4965
927.419	5056
927.525	5014
927.631	5025
927.737	4877
927.843	4885
927.95	4801
928.056	4835
928.162	4847
928.267	4847
928.373	5288
928.479	4835
928.585	4725
928.69	4839
928.796	4782
928.901	4725
929.007	4615
929.112	4725
929.218	4675
929.323	4611
929.428	4588
929.533	4691
929.638	4580
929.743	4580
929.848	4588
929.953	4527
930.058	4455
930.163	4314
930.267	4325
930.372	4436
930.477	4291
930.581	4516
930.685	4394
930.79	4211
930.894	4322
930.998	4257
931.103	4443
931.207	4131
931.311	4078
931.415	4063
931.519	3907
931.623	3937
