Data from glass_V78500241_771.txt Node
Date: Wed Sep 01 19:19:50 CST 2021
User: usil
Spectrometer: V785-0024
Trigger mode: 0
Integration Time (sec): 4.000000E-1
Scans to average: 1
Nonlinearity correction enabled: false
Boxcar width: 0
Storing dark spectrum: false
XAxis mode: Wavelengths
Number of Pixels in Spectrum: 1024
>>>>>Begin Spectral Data<<<<<
801.071	3740
801.214	3785
801.356	3717
801.499	3724
801.641	3736
801.783	3804
801.926	3850
802.068	3865
802.211	3873
802.353	3888
802.496	3846
802.638	3869
802.78	3945
802.923	3945
803.065	3918
803.208	3819
803.35	3876
803.492	3907
803.635	3934
803.777	3827
803.919	3907
804.061	4154
804.204	3945
804.346	3956
804.488	3903
804.63	4048
804.773	3991
804.915	4021
805.057	4116
805.199	4051
805.341	4059
805.483	4154
805.626	4192
805.768	4112
805.91	4207
806.052	4230
806.194	4211
806.336	4371
806.478	4223
806.62	4173
806.762	4207
806.904	4280
807.046	4318
807.188	4249
807.33	4219
807.472	4234
807.614	4166
807.756	4272
807.898	4230
808.04	4276
808.182	4291
808.324	4322
808.465	4375
808.607	4489
808.749	4459
808.891	4493
809.033	4508
809.174	4390
809.316	4337
809.458	4238
809.6	4154
809.741	4177
809.883	4166
810.025	4204
810.166	4204
810.308	4211
810.45	4265
810.591	4234
810.733	4333
810.875	4531
811.016	4866
811.158	5197
811.299	5315
811.441	5277
811.582	5056
811.724	4687
811.865	4424
812.007	4451
812.148	4405
812.29	4424
812.431	4409
812.573	4371
812.714	4398
812.855	4394
812.997	4402
813.138	4489
813.279	4394
813.421	4394
813.562	4402
813.703	4341
813.845	4352
813.986	4280
814.127	4249
814.268	4234
814.41	4337
814.551	4287
814.692	4303
814.833	4299
814.974	4295
815.115	4306
815.256	4207
815.397	4265
815.539	4303
815.68	4227
815.821	4227
815.962	4314
816.103	4276
816.244	4238
816.385	4204
816.526	4284
816.666	4200
816.807	4154
816.948	4188
817.089	4143
817.23	4188
817.371	4074
817.512	4067
817.653	4135
817.793	4082
817.934	4055
818.075	4101
818.216	4067
818.356	4055
818.497	3991
818.638	3956
818.778	3949
818.919	3911
819.06	3907
819.2	3941
819.341	3865
819.481	3812
819.622	3903
819.762	4090
819.903	3975
820.043	3835
820.184	3880
820.324	3842
820.465	3880
820.605	3838
820.746	3880
820.886	3838
821.026	3949
821.167	3926
821.307	3998
821.447	3991
821.588	3949
821.728	3937
821.868	3964
822.008	3880
822.149	3899
822.289	3983
822.429	3785
822.569	3762
822.709	3846
822.849	3679
822.99	3717
823.13	3785
823.27	3789
823.41	3682
823.55	3743
823.69	3766
823.83	3770
823.97	3701
824.11	3629
824.25	3606
824.389	3641
824.529	3728
824.669	3644
824.809	3732
824.949	3720
825.089	3751
825.228	3728
825.368	3580
825.508	3549
825.648	3587
825.787	3641
825.927	3682
826.067	3648
826.206	3663
826.346	3781
826.485	3850
826.625	3869
826.765	3941
826.904	3827
827.044	3644
827.183	3496
827.323	3393
827.462	3500
827.601	3443
827.741	3405
827.88	3424
828.02	3351
828.159	3458
828.298	3485
828.437	3553
828.577	3504
828.716	3572
828.855	3572
828.994	3393
829.134	3359
829.273	3386
829.412	3386
829.551	3336
829.69	3409
829.829	3466
829.968	3504
830.107	3462
830.246	3435
830.385	3393
830.524	3348
830.663	3313
830.802	3214
830.941	3237
831.08	3192
831.219	3298
831.357	3279
831.496	3420
831.635	3241
831.774	3195
831.913	3207
832.051	3150
832.19	3176
832.329	3218
832.467	3138
832.606	3131
832.744	3207
832.883	3203
833.022	3214
833.16	3291
833.299	3294
833.437	3302
833.576	3420
833.714	3405
833.852	3450
833.991	3447
834.129	3469
834.267	3473
834.406	3409
834.544	3466
834.682	3428
834.821	3431
834.959	3591
835.097	3435
835.235	3496
835.373	3485
835.511	3526
835.65	3477
835.788	3469
835.926	3420
836.064	3397
836.202	3458
836.34	3584
836.478	3629
836.615	3561
836.753	3648
836.891	3606
837.029	3629
837.167	3633
837.305	3595
837.443	3572
837.58	3492
837.718	3625
837.856	3568
837.993	3523
838.131	3641
838.269	3641
838.406	3584
838.544	3618
838.681	3488
838.819	3466
838.956	3401
839.094	3405
839.231	3416
839.369	3504
839.506	3751
839.643	3648
839.781	3492
839.918	3492
840.055	3545
840.193	3568
840.33	3557
840.467	3591
840.604	3660
840.742	3804
840.879	3549
841.016	3591
841.153	3591
841.29	3762
841.427	3690
841.564	3751
841.701	3785
841.838	3740
841.975	3690
842.112	3740
842.249	3667
842.385	3641
842.522	3876
842.659	3690
842.796	3728
842.933	3717
843.069	3717
843.206	3740
843.343	3835
843.479	3793
843.616	3808
843.752	3740
843.889	3682
844.025	3918
844.162	3686
844.298	3831
844.435	3797
844.571	3747
844.708	3903
844.844	3983
844.98	4059
845.117	4055
845.253	3911
845.389	3896
845.525	3994
845.661	4013
845.798	3937
845.934	4029
846.07	3972
846.206	4051
846.342	4147
846.478	4105
846.614	3960
846.75	3934
846.886	3972
847.022	4029
847.158	3991
847.294	3987
847.429	3991
847.565	3979
847.701	4257
847.837	3880
847.972	3869
848.108	4010
848.244	3994
848.379	3880
848.515	3827
848.65	3835
848.786	3873
848.921	3892
849.057	3937
849.192	3922
849.328	3960
849.463	3907
849.598	3873
849.734	3930
849.869	3869
850.004	3812
850.14	3861
850.275	3797
850.41	3743
850.545	3797
850.68	3778
850.815	3835
850.95	3816
851.085	3960
851.22	3854
851.355	3835
851.49	3838
851.625	3781
851.76	3800
851.895	3740
852.03	3724
852.165	3823
852.299	3831
852.434	3899
852.569	3903
852.703	3899
852.838	3896
852.973	3968
853.107	3998
853.242	3903
853.376	3846
853.511	3785
853.645	3838
853.78	3983
853.914	3896
854.048	3896
854.183	3926
854.317	4006
854.451	4021
854.585	3964
854.72	3983
854.854	4044
854.988	3956
855.122	3983
855.256	3884
855.39	4044
855.524	4074
855.658	4143
855.792	4139
855.926	4097
856.06	4192
856.194	4230
856.327	4181
856.461	4071
856.595	4196
856.729	4223
856.862	4291
856.996	4215
857.13	4306
857.263	4352
857.397	4379
857.53	4329
857.664	4386
857.797	4375
857.931	4417
858.064	4405
858.197	4462
858.331	4440
858.464	4440
858.597	4409
858.731	4443
858.864	4462
858.997	4500
859.13	4558
859.263	4573
859.396	4573
859.529	4535
859.662	4584
859.795	4550
859.928	4626
860.061	4706
860.194	4729
860.327	4672
860.46	4634
860.592	4706
860.725	4752
860.858	4759
860.99	4660
861.123	4698
861.256	4721
861.388	4774
861.521	5455
861.653	4717
861.786	4767
861.918	4786
862.05	4771
862.183	4824
862.315	4900
862.447	4987
862.58	4862
862.712	4793
862.844	4801
862.976	4892
863.108	4911
863.24	5250
863.372	4843
863.504	4911
863.636	4904
863.768	4961
863.9	4999
864.032	4949
864.164	4965
864.296	5029
864.428	5140
864.559	5094
864.691	5117
864.823	5113
864.954	5113
865.086	5109
865.217	5090
865.349	5162
865.48	5121
865.612	5288
865.743	5288
865.875	5246
866.006	5212
866.137	5254
866.269	5277
866.4	5277
866.531	5235
866.662	5231
866.793	5284
866.924	5315
867.055	5311
867.186	5349
867.317	5341
867.448	5273
867.579	5368
867.71	5379
867.841	5372
867.972	5455
868.103	5512
868.233	5512
868.364	5528
868.495	5528
868.625	5672
868.756	5786
868.886	5676
869.017	5767
869.147	5912
869.278	5885
869.408	5809
869.539	5855
869.669	5961
869.799	5904
869.929	6068
870.06	6083
870.19	6220
870.32	6209
870.45	6281
870.58	6323
870.71	6441
870.84	6475
870.97	6410
871.1	6422
871.23	6711
871.36	6749
871.489	6684
871.619	6859
871.749	6852
871.879	6871
872.008	6989
872.138	6962
872.267	7057
872.397	6985
872.526	7042
872.656	7084
872.785	7175
872.915	7377
873.044	7548
873.173	7556
873.303	7639
873.432	7738
873.561	7811
873.69	7917
873.819	7997
873.948	8157
874.077	8218
874.206	8309
874.335	8488
874.464	8655
874.593	8849
874.722	8910
874.851	9119
874.979	9313
875.108	9313
875.237	9408
875.365	9477
875.494	9709
875.623	9785
875.751	9880
875.88	10010
876.008	10166
876.136	10375
876.265	10500
876.393	10733
876.521	10744
876.65	10858
876.778	10858
876.906	10835
877.034	10946
877.162	11162
877.29	11162
877.418	11315
877.546	11360
877.674	11535
877.802	11463
877.93	11532
878.058	11543
878.185	11562
878.313	11672
878.441	11779
878.568	11661
878.696	11855
878.824	11764
878.951	11939
879.079	11950
879.206	12201
879.333	12053
879.461	12030
879.588	12083
879.715	12053
879.842	12197
879.97	12034
880.097	11840
880.224	11969
880.351	11893
880.478	11912
880.605	11882
880.732	11832
880.859	11992
880.986	11828
881.112	11874
881.239	11733
881.366	11710
881.493	11672
881.619	11543
881.746	11551
881.872	11547
881.999	11619
882.125	11512
882.252	11493
882.378	11520
882.505	11642
882.631	11356
882.757	11280
882.883	11334
883.01	11223
883.136	11174
883.262	11170
883.388	11041
883.514	11147
883.64	11174
883.766	11109
883.892	10976
884.018	10980
884.143	11025
884.269	11025
884.395	10850
884.52	10790
884.646	10752
884.772	10748
884.897	10706
885.023	10714
885.148	10717
885.274	10771
885.399	10672
885.524	10641
885.65	10470
885.775	10599
885.9	10618
886.025	10588
886.15	10577
886.275	10455
886.4	10360
886.525	10447
886.65	10409
886.775	10375
886.9	10497
887.025	10493
887.149	10432
887.274	10253
887.399	10242
887.523	10128
887.648	10154
887.773	10112
887.897	10284
888.021	10253
888.146	10150
888.27	10230
888.395	10272
888.519	10116
888.643	10188
888.767	10200
888.891	10131
889.015	10017
889.139	10036
889.263	9975
889.387	10078
889.511	10116
889.635	10063
889.759	9922
889.883	9983
890.006	9968
890.13	10010
890.254	9945
890.377	10051
890.501	9907
890.624	9876
890.748	9987
890.871	9797
890.995	9762
891.118	9717
891.241	9838
891.364	9720
891.488	9842
891.611	9648
891.734	9778
891.857	9823
891.98	9709
892.103	9827
892.226	9698
892.349	9732
892.471	9511
892.594	9599
892.717	9591
892.839	9606
892.962	9610
893.085	9667
893.207	9519
893.33	9557
893.452	9530
893.575	9568
893.697	9481
893.819	9618
893.941	9614
894.064	9637
894.186	9382
894.308	9355
894.43	9568
894.552	9545
894.674	9534
894.796	9397
894.918	9431
895.04	9268
895.161	9420
895.283	9348
895.405	9268
895.526	9317
895.648	9199
895.769	9222
895.891	9291
896.012	9268
896.134	9180
896.255	9188
896.376	9135
896.498	9135
896.619	9188
896.74	9207
896.861	9116
896.982	9283
897.103	9275
897.224	9264
897.345	9127
897.466	9047
897.587	9032
897.708	9123
897.828	9047
897.949	8902
898.07	8842
898.19	8899
898.311	9070
898.431	8952
898.552	8998
898.672	8956
898.792	9001
898.913	8864
899.033	8853
899.153	8769
899.273	8712
899.393	8754
899.513	8697
899.633	8788
899.753	8746
899.873	8708
899.993	8754
900.113	8693
900.232	8716
900.352	8648
900.472	8606
900.591	8556
900.711	8594
900.83	8568
900.95	8670
901.069	8746
901.189	8594
901.308	8488
901.427	8457
901.546	8415
901.665	8476
901.784	8488
901.904	8419
902.023	8377
902.141	8210
902.26	8267
902.379	8286
902.498	8195
902.617	8275
902.735	8317
902.854	8282
902.973	8309
903.091	8084
903.21	8161
903.328	8183
903.446	8138
903.565	8088
903.683	8149
903.801	8001
903.919	8138
904.038	8191
904.156	8043
904.274	8062
904.392	8058
904.51	8050
904.627	8092
904.745	8111
904.863	8123
904.981	7921
905.098	7887
905.216	7909
905.334	7890
905.451	7902
905.569	7826
905.686	7921
905.803	7951
905.921	7734
906.038	7887
906.155	7833
906.272	7708
906.389	7715
906.506	7700
906.623	7597
906.74	7677
906.857	7597
906.974	7578
907.091	7693
907.208	7765
907.324	7719
907.441	7636
907.557	7476
907.674	7468
907.79	7407
907.907	7407
908.023	7480
908.139	7415
908.256	7362
908.372	7384
908.488	7339
908.604	7308
908.72	7221
908.836	7324
908.952	7270
909.068	7263
909.184	7339
909.3	7270
909.415	7285
909.531	7217
909.647	7107
909.762	7145
909.878	7141
909.993	7118
910.108	7126
910.224	7095
910.339	7187
910.454	7095
910.57	7019
910.685	6954
910.8	7156
910.915	7110
911.03	7042
911.145	6924
911.259	6932
911.374	6894
911.489	6776
911.604	6844
911.718	6673
911.833	6703
911.947	6688
912.062	6616
912.176	6738
912.291	6738
912.405	6673
912.519	6821
912.633	6798
912.748	6745
912.862	6757
912.976	6627
913.09	6536
913.204	6604
913.318	6623
913.431	6642
913.545	6662
913.659	6791
913.772	6627
913.886	6555
914	6517
914.113	6597
914.226	6662
914.34	6574
914.453	6464
914.566	6623
914.68	6566
914.793	6536
914.906	6437
915.019	6346
915.132	6407
915.245	6418
915.358	6456
915.47	6452
915.583	6490
915.696	6475
915.809	6509
915.921	6536
916.034	6445
916.146	6445
916.259	6399
916.371	6517
916.483	6429
916.595	6399
916.708	6407
916.82	6414
916.932	6456
917.044	6391
917.156	6376
917.268	6292
917.38	6361
917.491	6300
917.603	6331
917.715	6327
917.826	6407
917.938	6323
918.049	6308
918.161	6319
918.272	6448
918.384	6521
918.495	6361
918.606	6296
918.717	6224
918.828	6277
918.939	6247
919.05	6201
919.161	6262
919.272	6114
919.383	6205
919.494	6315
919.604	6437
919.715	6300
919.826	6251
919.936	6281
920.047	6350
920.157	6292
920.267	6437
920.378	6342
920.488	6304
920.598	6513
920.708	6593
920.818	6433
920.928	6540
921.038	6623
921.148	6585
921.258	6388
921.368	6281
921.477	6251
921.587	6239
921.697	6136
921.806	6220
921.916	6148
922.025	5946
922.134	5859
922.244	5851
922.353	5984
922.462	5832
922.571	5828
922.68	5771
922.789	5703
922.898	5741
923.007	5661
923.116	5699
923.224	5722
923.333	5775
923.442	5592
923.55	5539
923.659	5608
923.767	5657
923.876	5558
923.984	5642
924.092	5543
924.201	5604
924.309	5577
924.417	5516
924.525	5493
924.633	5543
924.741	6140
924.849	5398
924.956	5467
925.064	5379
925.172	5345
925.279	5353
925.387	5296
925.494	5334
925.602	5410
925.709	5398
925.816	5261
925.924	5337
926.031	5368
926.138	5330
926.245	5311
926.352	5242
926.459	5353
926.566	5360
926.673	5239
926.779	5128
926.886	5132
926.993	5052
927.099	5029
927.206	5006
927.312	4976
927.419	5060
927.525	4953
927.631	5033
927.737	4930
927.843	4873
927.95	4782
928.056	4904
928.162	4877
928.267	4885
928.373	5334
928.479	4881
928.585	4744
928.69	4805
928.796	4831
928.901	4691
929.007	4565
929.112	4683
929.218	4645
929.323	4637
929.428	4577
929.533	4698
929.638	4504
929.743	4577
929.848	4569
929.953	4508
930.058	4447
930.163	4356
930.267	4337
930.372	4402
930.477	4295
930.581	4485
930.685	4398
930.79	4261
930.894	4299
930.998	4272
931.103	4421
931.207	4105
931.311	4082
931.415	4032
931.519	3926
931.623	3975
