Data from glass_V78500241_1280.txt Node
Date: Wed Sep 01 19:23:22 CST 2021
User: usil
Spectrometer: V785-0024
Trigger mode: 0
Integration Time (sec): 4.000000E-1
Scans to average: 1
Nonlinearity correction enabled: false
Boxcar width: 0
Storing dark spectrum: false
XAxis mode: Wavelengths
Number of Pixels in Spectrum: 1024
>>>>>Begin Spectral Data<<<<<
801.071	3732
801.214	3728
801.356	3751
801.499	3740
801.641	3732
801.783	3755
801.926	3812
802.068	3819
802.211	3850
802.353	3899
802.496	3835
802.638	3888
802.78	3899
802.923	3945
803.065	3918
803.208	3842
803.35	3907
803.492	3876
803.635	3918
803.777	3800
803.919	3896
804.061	4181
804.204	3941
804.346	3960
804.488	3899
804.63	4097
804.773	3964
804.915	4067
805.057	4158
805.199	4067
805.341	4112
805.483	4173
805.626	4124
805.768	4128
805.91	4234
806.052	4238
806.194	4223
806.336	4344
806.478	4188
806.62	4185
806.762	4196
806.904	4230
807.046	4356
807.188	4211
807.33	4192
807.472	4207
807.614	4143
807.756	4276
807.898	4230
808.04	4223
808.182	4287
808.324	4329
808.465	4371
808.607	4440
808.749	4443
808.891	4508
809.033	4516
809.174	4421
809.316	4284
809.458	4280
809.6	4204
809.741	4169
809.883	4150
810.025	4185
810.166	4211
810.308	4211
810.45	4230
810.591	4196
810.733	4272
810.875	4542
811.016	4793
811.158	5124
811.299	5250
811.441	5284
811.582	5109
811.724	4725
811.865	4474
812.007	4459
812.148	4421
812.29	4436
812.431	4375
812.573	4383
812.714	4375
812.855	4428
812.997	4462
813.138	4451
813.279	4405
813.421	4394
813.562	4348
813.703	4306
813.845	4325
813.986	4265
814.127	4204
814.268	4280
814.41	4303
814.551	4276
814.692	4306
814.833	4280
814.974	4314
815.115	4344
815.256	4219
815.397	4242
815.539	4280
815.68	4211
815.821	4207
815.962	4280
816.103	4234
816.244	4234
816.385	4227
816.526	4284
816.666	4211
816.807	4112
816.948	4211
817.089	4139
817.23	4143
817.371	4055
817.512	4044
817.653	4120
817.793	4048
817.934	4078
818.075	4128
818.216	4078
818.356	4101
818.497	4048
818.638	3934
818.778	3903
818.919	3934
819.06	3873
819.2	3907
819.341	3819
819.481	3892
819.622	3918
819.762	4051
819.903	3930
820.043	3876
820.184	3804
820.324	3816
820.465	3846
820.605	3835
820.746	3861
820.886	3793
821.026	3918
821.167	3911
821.307	3979
821.447	4002
821.588	3964
821.728	3949
821.868	3941
822.008	3888
822.149	3888
822.289	3915
822.429	3793
822.569	3759
822.709	3800
822.849	3701
822.99	3713
823.13	3800
823.27	3797
823.41	3743
823.55	3743
823.69	3736
823.83	3740
823.97	3694
824.11	3603
824.25	3542
824.389	3675
824.529	3690
824.669	3656
824.809	3698
824.949	3720
825.089	3755
825.228	3698
825.368	3633
825.508	3564
825.648	3576
825.787	3641
825.927	3701
826.067	3648
826.206	3637
826.346	3812
826.485	3823
826.625	3850
826.765	3934
826.904	3865
827.044	3572
827.183	3526
827.323	3450
827.462	3500
827.601	3416
827.741	3435
827.88	3496
828.02	3378
828.159	3439
828.298	3492
828.437	3496
828.577	3500
828.716	3587
828.855	3538
828.994	3401
829.134	3386
829.273	3409
829.412	3351
829.551	3370
829.69	3359
829.829	3409
829.968	3515
830.107	3458
830.246	3458
830.385	3401
830.524	3329
830.663	3275
830.802	3264
830.941	3249
831.08	3184
831.219	3291
831.357	3317
831.496	3439
831.635	3230
831.774	3180
831.913	3207
832.051	3116
832.19	3131
832.329	3249
832.467	3154
832.606	3108
832.744	3188
832.883	3211
833.022	3211
833.16	3291
833.299	3313
833.437	3332
833.576	3386
833.714	3405
833.852	3435
833.991	3435
834.129	3496
834.267	3443
834.406	3382
834.544	3469
834.682	3439
834.821	3439
834.959	3568
835.097	3420
835.235	3526
835.373	3473
835.511	3488
835.65	3439
835.788	3458
835.926	3386
836.064	3370
836.202	3401
836.34	3584
836.478	3580
836.615	3591
836.753	3545
836.891	3618
837.029	3648
837.167	3595
837.305	3572
837.443	3545
837.58	3534
837.718	3568
837.856	3568
837.993	3587
838.131	3595
838.269	3576
838.406	3606
838.544	3603
838.681	3485
838.819	3473
838.956	3359
839.094	3340
839.231	3420
839.369	3469
839.506	3793
839.643	3660
839.781	3496
839.918	3435
840.055	3530
840.193	3599
840.33	3488
840.467	3538
840.604	3599
840.742	3797
840.879	3530
841.016	3549
841.153	3606
841.29	3766
841.427	3732
841.564	3732
841.701	3759
841.838	3740
841.975	3663
842.112	3762
842.249	3656
842.385	3625
842.522	3808
842.659	3709
842.796	3675
842.933	3701
843.069	3675
843.206	3698
843.343	3797
843.479	3766
843.616	3762
843.752	3671
843.889	3675
844.025	3842
844.162	3736
844.298	3857
844.435	3800
844.571	3785
844.708	3903
844.844	3994
844.98	4010
845.117	4059
845.253	3926
845.389	3903
845.525	3953
845.661	3983
845.798	3911
845.934	4006
846.07	3991
846.206	4082
846.342	4112
846.478	4082
846.614	3956
846.75	3922
846.886	3922
847.022	4067
847.158	3983
847.294	4002
847.429	4010
847.565	3994
847.701	4234
847.837	3907
847.972	3857
848.108	3994
848.244	4002
848.379	3850
848.515	3846
848.65	3823
848.786	3819
848.921	3888
849.057	3937
849.192	3975
849.328	3922
849.463	3937
849.598	3903
849.734	3865
849.869	3819
850.004	3850
850.14	3808
850.275	3759
850.41	3724
850.545	3797
850.68	3755
850.815	3800
850.95	3838
851.085	3983
851.22	3903
851.355	3846
851.49	3770
851.625	3819
851.76	3816
851.895	3717
852.03	3740
852.165	3781
852.299	3850
852.434	3915
852.569	3838
852.703	3899
852.838	3949
852.973	4002
853.107	3979
853.242	3888
853.376	3838
853.511	3736
853.645	3835
853.78	3979
853.914	3930
854.048	3956
854.183	3907
854.317	3945
854.451	4101
854.585	4017
854.72	3968
854.854	4055
854.988	3926
855.122	3953
855.256	3941
855.39	4051
855.524	4173
855.658	4086
855.792	4112
855.926	4097
856.06	4162
856.194	4223
856.327	4101
856.461	4116
856.595	4124
856.729	4177
856.862	4310
856.996	4234
857.13	4295
857.263	4333
857.397	4337
857.53	4253
857.664	4379
857.797	4375
857.931	4428
858.064	4451
858.197	4459
858.331	4481
858.464	4440
858.597	4344
858.731	4485
858.864	4508
858.997	4443
859.13	4523
859.263	4561
859.396	4599
859.529	4493
859.662	4550
859.795	4512
859.928	4611
860.061	4729
860.194	4706
860.327	4656
860.46	4691
860.592	4721
860.725	4744
860.858	4748
860.99	4675
861.123	4694
861.256	4691
861.388	4771
861.521	5372
861.653	4725
861.786	4717
861.918	4740
862.05	4786
862.183	4809
862.315	4896
862.447	4873
862.58	4873
862.712	4824
862.844	4778
862.976	4889
863.108	4889
863.24	5162
863.372	4828
863.504	4908
863.636	4900
863.768	4957
863.9	4961
864.032	4930
864.164	4957
864.296	5006
864.428	5048
864.559	5098
864.691	5109
864.823	5136
864.954	5109
865.086	5117
865.217	5079
865.349	5071
865.48	5140
865.612	5189
865.743	5284
865.875	5162
866.006	5220
866.137	5193
866.269	5288
866.4	5265
866.531	5242
866.662	5261
866.793	5227
866.924	5292
867.055	5307
867.186	5345
867.317	5353
867.448	5326
867.579	5364
867.71	5360
867.841	5398
867.972	5421
868.103	5501
868.233	5512
868.364	5497
868.495	5501
868.625	5672
868.756	5832
868.886	5646
869.017	5729
869.147	5878
869.278	5874
869.408	5790
869.539	5855
869.669	5942
869.799	5977
869.929	5965
870.06	6019
870.19	6175
870.32	6224
870.45	6254
870.58	6338
870.71	6456
870.84	6532
870.97	6426
871.1	6399
871.23	6597
871.36	6707
871.489	6658
871.619	6677
871.749	6852
871.879	6886
872.008	7031
872.138	6951
872.267	7072
872.397	6962
872.526	7110
872.656	7133
872.785	7198
872.915	7422
873.044	7563
873.173	7620
873.303	7662
873.432	7757
873.561	7894
873.69	7917
873.819	7974
873.948	8161
874.077	8267
874.206	8355
874.335	8408
874.464	8693
874.593	8872
874.722	8910
874.851	9116
874.979	9207
875.108	9431
875.237	9424
875.365	9545
875.494	9587
875.623	9812
875.751	9842
875.88	10044
876.008	10147
876.136	10299
876.265	10493
876.393	10702
876.521	10672
876.65	10908
876.778	10927
876.906	10911
877.034	11014
877.162	11060
877.29	11223
877.418	11235
877.546	11337
877.674	11448
877.802	11532
877.93	11570
878.058	11604
878.185	11482
878.313	11592
878.441	11733
878.568	11638
878.696	11828
878.824	11874
878.951	11920
879.079	12068
879.206	12072
879.333	12072
879.461	11958
879.588	12030
879.715	12026
879.842	12209
879.97	12125
880.097	11863
880.224	11866
880.351	11817
880.478	11927
880.605	11870
880.732	11802
880.859	11977
880.986	11794
881.112	11863
881.239	11748
881.366	11646
881.493	11623
881.619	11604
881.746	11608
881.872	11577
881.999	11532
882.125	11490
882.252	11688
882.378	11459
882.505	11524
882.631	11364
882.757	11315
882.883	11296
883.01	11280
883.136	11155
883.262	11117
883.388	11124
883.514	11189
883.64	11181
883.766	11113
883.892	11006
884.018	11006
884.143	11064
884.269	11075
884.395	10835
884.52	10786
884.646	10748
884.772	10626
884.897	10763
885.023	10637
885.148	10706
885.274	10812
885.399	10752
885.524	10675
885.65	10637
885.775	10573
885.9	10535
886.025	10630
886.15	10550
886.275	10470
886.4	10413
886.525	10413
886.65	10363
886.775	10291
886.9	10443
887.025	10550
887.149	10440
887.274	10234
887.399	10207
887.523	10257
887.648	10124
887.773	10112
887.897	10329
888.021	10257
888.146	10181
888.27	10268
888.395	10261
888.519	10128
888.643	10207
888.767	10124
888.891	10112
889.015	10017
889.139	10044
889.263	10029
889.387	10154
889.511	10124
889.635	10021
889.759	9968
889.883	9956
890.006	9983
890.13	10131
890.254	9941
890.377	10013
890.501	9888
890.624	9823
890.748	9903
890.871	9827
890.995	9755
891.118	9720
891.241	9793
891.364	9751
891.488	9873
891.611	9774
891.734	9728
891.857	9846
891.98	9762
892.103	9717
892.226	9800
892.349	9728
892.471	9553
892.594	9599
892.717	9614
892.839	9591
892.962	9633
893.085	9652
893.207	9538
893.33	9568
893.452	9519
893.575	9625
893.697	9496
893.819	9637
893.941	9625
894.064	9618
894.186	9523
894.308	9416
894.43	9542
894.552	9614
894.674	9568
894.796	9386
894.918	9336
895.04	9351
895.161	9340
895.283	9359
895.405	9256
895.526	9279
895.648	9218
895.769	9249
895.891	9302
896.012	9348
896.134	9180
896.255	9161
896.376	9097
896.498	9169
896.619	9127
896.74	9150
896.861	9047
896.982	9298
897.103	9264
897.224	9173
897.345	9077
897.466	9001
897.587	9013
897.708	9039
897.828	9047
897.949	8982
898.07	8887
898.19	8963
898.311	8979
898.431	8960
898.552	8883
898.672	9005
898.792	8952
898.913	8941
899.033	8838
899.153	8746
899.273	8678
899.393	8682
899.513	8727
899.633	8735
899.753	8743
899.873	8708
899.993	8754
900.113	8758
900.232	8697
900.352	8659
900.472	8663
900.591	8560
900.711	8663
900.83	8549
900.95	8697
901.069	8682
901.189	8606
901.308	8434
901.427	8339
901.546	8427
901.665	8400
901.784	8530
901.904	8396
902.023	8362
902.141	8263
902.26	8221
902.379	8290
902.498	8214
902.617	8275
902.735	8286
902.854	8328
902.973	8305
903.091	8054
903.21	8180
903.328	8145
903.446	8130
903.565	8107
903.683	8126
903.801	8035
903.919	8123
904.038	8107
904.156	8073
904.274	8069
904.392	8062
904.51	8062
904.627	8043
904.745	8115
904.863	8138
904.981	7967
905.098	7894
905.216	7845
905.334	7864
905.451	7936
905.569	7913
905.686	7864
905.803	7947
905.921	7727
906.038	7913
906.155	7776
906.272	7750
906.389	7750
906.506	7647
906.623	7605
906.74	7658
906.857	7601
906.974	7620
907.091	7658
907.208	7742
907.324	7651
907.441	7575
907.557	7381
907.674	7422
907.79	7430
907.907	7373
908.023	7426
908.139	7407
908.256	7396
908.372	7297
908.488	7358
908.604	7232
908.72	7228
908.836	7282
908.952	7244
909.068	7266
909.184	7308
909.3	7270
909.415	7331
909.531	7240
909.647	7091
909.762	7088
909.878	7034
909.993	7069
910.108	7091
910.224	7107
910.339	7084
910.454	7031
910.57	7004
910.685	7008
910.8	7175
910.915	7129
911.03	6989
911.145	6875
911.259	6875
911.374	6913
911.489	6886
911.604	6783
911.718	6738
911.833	6757
911.947	6654
912.062	6589
912.176	6703
912.291	6741
912.405	6753
912.519	6871
912.633	6833
912.748	6757
912.862	6719
912.976	6681
913.09	6521
913.204	6601
913.318	6555
913.431	6688
913.545	6616
913.659	6719
913.772	6631
913.886	6566
914	6490
914.113	6639
914.226	6658
914.34	6604
914.453	6475
914.566	6681
914.68	6517
914.793	6593
914.906	6357
915.019	6391
915.132	6334
915.245	6422
915.358	6410
915.47	6483
915.583	6467
915.696	6471
915.809	6532
915.921	6536
916.034	6410
916.146	6384
916.259	6414
916.371	6525
916.483	6486
916.595	6353
916.708	6410
916.82	6395
916.932	6338
917.044	6365
917.156	6376
917.268	6357
917.38	6350
917.491	6372
917.603	6361
917.715	6414
917.826	6456
917.938	6407
918.049	6220
918.161	6384
918.272	6441
918.384	6418
918.495	6376
918.606	6258
918.717	6216
918.828	6266
918.939	6334
919.05	6182
919.161	6266
919.272	6125
919.383	6148
919.494	6300
919.604	6456
919.715	6251
919.826	6213
919.936	6251
920.047	6399
920.157	6292
920.267	6410
920.378	6292
920.488	6292
920.598	6445
920.708	6551
920.818	6483
920.928	6486
921.038	6646
921.148	6589
921.258	6338
921.368	6254
921.477	6258
921.587	6155
921.697	6117
921.806	6136
921.916	6125
922.025	5984
922.134	5931
922.244	5851
922.353	5984
922.462	5897
922.571	5805
922.68	5729
922.789	5688
922.898	5718
923.007	5649
923.116	5703
923.224	5661
923.333	5672
923.442	5592
923.55	5547
923.659	5608
923.767	5615
923.876	5558
923.984	5535
924.092	5520
924.201	5577
924.309	5581
924.417	5554
924.525	5490
924.633	5459
924.741	6334
924.849	5334
924.956	5486
925.064	5334
925.172	5326
925.279	5292
925.387	5398
925.494	5345
925.602	5448
925.709	5421
925.816	5254
925.924	5368
926.031	5368
926.138	5292
926.245	5334
926.352	5239
926.459	5368
926.566	5292
926.673	5212
926.779	5155
926.886	5143
926.993	5071
927.099	5075
927.206	4953
927.312	4927
927.419	5041
927.525	4968
927.631	5010
927.737	4889
927.843	4923
927.95	4797
928.056	4831
928.162	4850
928.267	4854
928.373	5341
928.479	4900
928.585	4687
928.69	4805
928.796	4736
928.901	4717
929.007	4561
929.112	4672
929.218	4691
929.323	4630
929.428	4588
929.533	4687
929.638	4535
929.743	4531
929.848	4603
929.953	4565
930.058	4428
930.163	4318
930.267	4386
930.372	4451
930.477	4299
930.581	4459
930.685	4367
930.79	4280
930.894	4310
930.998	4246
931.103	4409
931.207	4143
931.311	4093
931.415	4051
931.519	3972
931.623	3968
