Data from glass_V78500241_590.txt Node
Date: Wed Sep 01 19:18:35 CST 2021
User: usil
Spectrometer: V785-0024
Trigger mode: 0
Integration Time (sec): 4.000000E-1
Scans to average: 1
Nonlinearity correction enabled: false
Boxcar width: 0
Storing dark spectrum: false
XAxis mode: Wavelengths
Number of Pixels in Spectrum: 1024
>>>>>Begin Spectral Data<<<<<
801.071	3793
801.214	3755
801.356	3705
801.499	3747
801.641	3774
801.783	3751
801.926	3880
802.068	3857
802.211	3857
802.353	3899
802.496	3857
802.638	3918
802.78	3899
802.923	3926
803.065	3907
803.208	3876
803.35	3880
803.492	3956
803.635	3915
803.777	3816
803.919	3899
804.061	4158
804.204	4002
804.346	3945
804.488	3960
804.63	4013
804.773	3983
804.915	4090
805.057	4177
805.199	4048
805.341	4071
805.483	4131
805.626	4120
805.768	4112
805.91	4257
806.052	4246
806.194	4227
806.336	4375
806.478	4234
806.62	4158
806.762	4227
806.904	4253
807.046	4356
807.188	4238
807.33	4234
807.472	4295
807.614	4246
807.756	4291
807.898	4242
808.04	4246
808.182	4325
808.324	4325
808.465	4390
808.607	4508
808.749	4451
808.891	4478
809.033	4519
809.174	4375
809.316	4265
809.458	4204
809.6	4150
809.741	4131
809.883	4150
810.025	4196
810.166	4177
810.308	4230
810.45	4242
810.591	4249
810.733	4314
810.875	4535
811.016	4843
811.158	5086
811.299	5284
811.441	5269
811.582	5064
811.724	4725
811.865	4462
812.007	4432
812.148	4440
812.29	4432
812.431	4417
812.573	4402
812.714	4417
812.855	4432
812.997	4402
813.138	4489
813.279	4367
813.421	4360
813.562	4440
813.703	4310
813.845	4318
813.986	4291
814.127	4207
814.268	4303
814.41	4295
814.551	4265
814.692	4341
814.833	4261
814.974	4322
815.115	4356
815.256	4265
815.397	4246
815.539	4219
815.68	4154
815.821	4207
815.962	4363
816.103	4253
816.244	4223
816.385	4257
816.526	4268
816.666	4185
816.807	4124
816.948	4192
817.089	4211
817.23	4090
817.371	4090
817.512	4044
817.653	4086
817.793	4074
817.934	4055
818.075	4150
818.216	4067
818.356	4154
818.497	4036
818.638	3960
818.778	3975
818.919	3892
819.06	3854
819.2	3941
819.341	3876
819.481	3831
819.622	3960
819.762	4036
819.903	3968
820.043	3892
820.184	3876
820.324	3816
820.465	3884
820.605	3876
820.746	3899
820.886	3804
821.026	3922
821.167	3857
821.307	4006
821.447	4032
821.588	3975
821.728	3960
821.868	3972
822.008	3911
822.149	3945
822.289	3934
822.429	3785
822.569	3797
822.709	3797
822.849	3679
822.99	3736
823.13	3778
823.27	3819
823.41	3724
823.55	3740
823.69	3770
823.83	3720
823.97	3720
824.11	3595
824.25	3587
824.389	3667
824.529	3675
824.669	3591
824.809	3694
824.949	3808
825.089	3740
825.228	3705
825.368	3625
825.508	3545
825.648	3564
825.787	3648
825.927	3610
826.067	3644
826.206	3709
826.346	3812
826.485	3873
826.625	3880
826.765	3960
826.904	3854
827.044	3595
827.183	3564
827.323	3439
827.462	3500
827.601	3454
827.741	3401
827.88	3462
828.02	3378
828.159	3443
828.298	3469
828.437	3500
828.577	3481
828.716	3618
828.855	3500
828.994	3393
829.134	3412
829.273	3428
829.412	3367
829.551	3317
829.69	3340
829.829	3447
829.968	3526
830.107	3454
830.246	3409
830.385	3370
830.524	3405
830.663	3325
830.802	3233
830.941	3226
831.08	3207
831.219	3291
831.357	3268
831.496	3435
831.635	3230
831.774	3195
831.913	3176
832.051	3123
832.19	3165
832.329	3237
832.467	3104
832.606	3119
832.744	3207
832.883	3176
833.022	3199
833.16	3268
833.299	3306
833.437	3355
833.576	3397
833.714	3420
833.852	3454
833.991	3488
834.129	3462
834.267	3458
834.406	3405
834.544	3439
834.682	3454
834.821	3450
834.959	3580
835.097	3458
835.235	3523
835.373	3492
835.511	3538
835.65	3488
835.788	3515
835.926	3378
836.064	3378
836.202	3389
836.34	3572
836.478	3584
836.615	3587
836.753	3587
836.891	3694
837.029	3641
837.167	3591
837.305	3545
837.443	3534
837.58	3519
837.718	3637
837.856	3576
837.993	3549
838.131	3618
838.269	3557
838.406	3595
838.544	3572
838.681	3454
838.819	3469
838.956	3382
839.094	3428
839.231	3485
839.369	3568
839.506	3759
839.643	3663
839.781	3496
839.918	3515
840.055	3553
840.193	3549
840.33	3542
840.467	3553
840.604	3606
840.742	3823
840.879	3587
841.016	3557
841.153	3622
841.29	3774
841.427	3682
841.564	3736
841.701	3740
841.838	3694
841.975	3709
842.112	3682
842.249	3679
842.385	3637
842.522	3861
842.659	3705
842.796	3633
842.933	3736
843.069	3690
843.206	3717
843.343	3800
843.479	3740
843.616	3861
843.752	3690
843.889	3701
844.025	3880
844.162	3751
844.298	3873
844.435	3804
844.571	3793
844.708	3911
844.844	4006
844.98	4055
845.117	4002
845.253	3922
845.389	3915
845.525	3945
845.661	3983
845.798	3930
845.934	3991
846.07	3960
846.206	4078
846.342	4131
846.478	4059
846.614	4013
846.75	3930
846.886	3949
847.022	4051
847.158	3983
847.294	4017
847.429	4048
847.565	4010
847.701	4284
847.837	3930
847.972	3888
848.108	3979
848.244	3979
848.379	3857
848.515	3823
848.65	3823
848.786	3850
848.921	3884
849.057	3968
849.192	3937
849.328	3903
849.463	3876
849.598	3911
849.734	3884
849.869	3804
850.004	3827
850.14	3838
850.275	3819
850.41	3778
850.545	3766
850.68	3793
850.815	3816
850.95	3838
851.085	3968
851.22	3888
851.355	3884
851.49	3770
851.625	3838
851.76	3808
851.895	3770
852.03	3701
852.165	3842
852.299	3884
852.434	3892
852.569	3854
852.703	3884
852.838	3949
852.973	4002
853.107	4021
853.242	3892
853.376	3880
853.511	3766
853.645	3857
853.78	4002
853.914	3884
854.048	3937
854.183	3918
854.317	4006
854.451	4036
854.585	3956
854.72	3945
854.854	4090
854.988	3911
855.122	4017
855.256	3922
855.39	3998
855.524	4162
855.658	4150
855.792	4112
855.926	4188
856.06	4192
856.194	4177
856.327	4120
856.461	4116
856.595	4192
856.729	4196
856.862	4314
856.996	4242
857.13	4322
857.263	4356
857.397	4352
857.53	4314
857.664	4379
857.797	4360
857.931	4440
858.064	4386
858.197	4451
858.331	4398
858.464	4398
858.597	4344
858.731	4440
858.864	4493
858.997	4440
859.13	4542
859.263	4546
859.396	4577
859.529	4565
859.662	4558
859.795	4550
859.928	4596
860.061	4714
860.194	4725
860.327	4694
860.46	4675
860.592	4812
860.725	4733
860.858	4809
860.99	4740
861.123	4714
861.256	4691
861.388	4790
861.521	5387
861.653	4717
861.786	4752
861.918	4714
862.05	4820
862.183	4873
862.315	4843
862.447	4904
862.58	4881
862.712	4862
862.844	4744
862.976	4946
863.108	4908
863.24	5181
863.372	4862
863.504	4915
863.636	4938
863.768	4980
863.9	5014
864.032	4919
864.164	4911
864.296	5025
864.428	5117
864.559	5121
864.691	5121
864.823	5166
864.954	5189
865.086	5136
865.217	5113
865.349	5147
865.48	5178
865.612	5147
865.743	5307
865.875	5231
866.006	5185
866.137	5277
866.269	5216
866.4	5227
866.531	5265
866.662	5220
866.793	5258
866.924	5254
867.055	5353
867.186	5368
867.317	5326
867.448	5337
867.579	5376
867.71	5414
867.841	5395
867.972	5440
868.103	5471
868.233	5520
868.364	5493
868.495	5554
868.625	5668
868.756	5756
868.886	5684
869.017	5729
869.147	5855
869.278	5832
869.408	5840
869.539	5817
869.669	5931
869.799	5916
869.929	5927
870.06	6019
870.19	6186
870.32	6197
870.45	6254
870.58	6414
870.71	6433
870.84	6483
870.97	6452
871.1	6471
871.23	6639
871.36	6711
871.489	6734
871.619	6738
871.749	6798
871.879	6924
872.008	7023
872.138	6954
872.267	7004
872.397	7072
872.526	7004
872.656	7141
872.785	7255
872.915	7411
873.044	7556
873.173	7552
873.303	7704
873.432	7746
873.561	7936
873.69	7921
873.819	8027
873.948	8172
874.077	8256
874.206	8362
874.335	8457
874.464	8621
874.593	8853
874.722	9028
874.851	9131
874.979	9241
875.108	9454
875.237	9443
875.365	9496
875.494	9660
875.623	9793
875.751	9865
875.88	9987
876.008	10074
876.136	10303
876.265	10519
876.393	10729
876.521	10809
876.65	10782
876.778	10824
876.906	10854
877.034	11010
877.162	11014
877.29	11220
877.418	11303
877.546	11265
877.674	11482
877.802	11524
877.93	11528
878.058	11535
878.185	11581
878.313	11646
878.441	11760
878.568	11684
878.696	11733
878.824	11870
878.951	11931
879.079	11977
879.206	12175
879.333	12110
879.461	12022
879.588	12091
879.715	12007
879.842	12266
879.97	12083
880.097	11855
880.224	11855
880.351	11836
880.478	11851
880.605	11870
880.732	11805
880.859	12045
880.986	11771
881.112	11916
881.239	11748
881.366	11722
881.493	11634
881.619	11566
881.746	11570
881.872	11581
881.999	11512
882.125	11547
882.252	11562
882.378	11589
882.505	11585
882.631	11414
882.757	11254
882.883	11299
883.01	11254
883.136	11235
883.262	11121
883.388	11067
883.514	11151
883.64	11162
883.766	11113
883.892	11014
884.018	10957
884.143	11060
884.269	11075
884.395	10752
884.52	10778
884.646	10820
884.772	10634
884.897	10668
885.023	10698
885.148	10721
885.274	10759
885.399	10812
885.524	10603
885.65	10660
885.775	10626
885.9	10592
886.025	10630
886.15	10573
886.275	10443
886.4	10497
886.525	10462
886.65	10344
886.775	10375
886.9	10459
887.025	10554
887.149	10459
887.274	10287
887.399	10211
887.523	10135
887.648	10131
887.773	10135
887.897	10249
888.021	10234
888.146	10112
888.27	10238
888.395	10299
888.519	10219
888.643	10227
888.767	10185
888.891	10173
889.015	10051
889.139	10048
889.263	9983
889.387	10013
889.511	10131
889.635	10029
889.759	10025
889.883	9953
890.006	9972
890.13	10063
890.254	10025
890.377	9945
890.501	9766
890.624	9888
890.748	9895
890.871	9778
890.995	9812
891.118	9732
891.241	9823
891.364	9743
891.488	9759
891.611	9705
891.734	9751
891.857	9762
891.98	9762
892.103	9808
892.226	9675
892.349	9720
892.471	9557
892.594	9603
892.717	9618
892.839	9618
892.962	9492
893.085	9694
893.207	9580
893.33	9561
893.452	9545
893.575	9587
893.697	9530
893.819	9622
893.941	9622
894.064	9557
894.186	9481
894.308	9424
894.43	9534
894.552	9618
894.674	9504
894.796	9408
894.918	9477
895.04	9382
895.161	9408
895.283	9401
895.405	9180
895.526	9298
895.648	9283
895.769	9291
895.891	9275
896.012	9218
896.134	9230
896.255	9237
896.376	9176
896.498	9165
896.619	9207
896.74	9085
896.861	9108
896.982	9306
897.103	9389
897.224	9165
897.345	9154
897.466	9070
897.587	9028
897.708	9112
897.828	9058
897.949	8960
898.07	8880
898.19	8921
898.311	9077
898.431	8979
898.552	8998
898.672	8914
898.792	8925
898.913	8914
899.033	8777
899.153	8724
899.273	8697
899.393	8727
899.513	8811
899.633	8743
899.753	8766
899.873	8724
899.993	8769
900.113	8651
900.232	8697
900.352	8655
900.472	8617
900.591	8701
900.711	8587
900.83	8545
900.95	8712
901.069	8708
901.189	8568
901.308	8454
901.427	8404
901.546	8492
901.665	8484
901.784	8564
901.904	8423
902.023	8343
902.141	8317
902.26	8142
902.379	8248
902.498	8271
902.617	8237
902.735	8298
902.854	8271
902.973	8290
903.091	8221
903.21	8115
903.328	8225
903.446	8138
903.565	8073
903.683	8119
903.801	8054
903.919	8176
904.038	8183
904.156	8035
904.274	8100
904.392	7989
904.51	8035
904.627	8046
904.745	8073
904.863	8134
904.981	7925
905.098	7890
905.216	7860
905.334	7868
905.451	7959
905.569	7898
905.686	7947
905.803	7890
905.921	7811
906.038	7852
906.155	7818
906.272	7734
906.389	7670
906.506	7651
906.623	7624
906.74	7605
906.857	7594
906.974	7563
907.091	7685
907.208	7727
907.324	7677
907.441	7594
907.557	7510
907.674	7487
907.79	7464
907.907	7411
908.023	7396
908.139	7445
908.256	7415
908.372	7422
908.488	7308
908.604	7282
908.72	7297
908.836	7278
908.952	7209
909.068	7289
909.184	7301
909.3	7244
909.415	7255
909.531	7324
909.647	7133
909.762	7103
909.878	7175
909.993	7183
910.108	7141
910.224	7080
910.339	7126
910.454	7095
910.57	7046
910.685	6939
910.8	7194
910.915	7152
911.03	7057
911.145	6913
911.259	6905
911.374	6901
911.489	6863
911.604	6856
911.718	6753
911.833	6779
911.947	6654
912.062	6673
912.176	6711
912.291	6764
912.405	6760
912.519	6844
912.633	6867
912.748	6722
912.862	6707
912.976	6635
913.09	6547
913.204	6570
913.318	6669
913.431	6669
913.545	6627
913.659	6696
913.772	6669
913.886	6574
914	6570
914.113	6662
914.226	6642
914.34	6608
914.453	6536
914.566	6658
914.68	6563
914.793	6555
914.906	6391
915.019	6399
915.132	6399
915.245	6498
915.358	6460
915.47	6418
915.583	6426
915.696	6506
915.809	6570
915.921	6574
916.034	6498
916.146	6445
916.259	6433
916.371	6475
916.483	6456
916.595	6426
916.708	6502
916.82	6361
916.932	6338
917.044	6422
917.156	6384
917.268	6262
917.38	6372
917.491	6346
917.603	6361
917.715	6403
917.826	6418
917.938	6300
918.049	6262
918.161	6407
918.272	6445
918.384	6399
918.495	6399
918.606	6247
918.717	6262
918.828	6308
918.939	6296
919.05	6175
919.161	6239
919.272	6167
919.383	6224
919.494	6323
919.604	6391
919.715	6292
919.826	6178
919.936	6281
920.047	6304
920.157	6254
920.267	6467
920.378	6258
920.488	6296
920.598	6448
920.708	6570
920.818	6471
920.928	6486
921.038	6616
921.148	6620
921.258	6342
921.368	6266
921.477	6178
921.587	6209
921.697	6133
921.806	6235
921.916	6083
922.025	5923
922.134	5927
922.244	5901
922.353	5920
922.462	5874
922.571	5836
922.68	5707
922.789	5703
922.898	5722
923.007	5691
923.116	5684
923.224	5680
923.333	5627
923.442	5600
923.55	5623
923.659	5562
923.767	5657
923.876	5600
923.984	5573
924.092	5581
924.201	5615
924.309	5562
924.417	5543
924.525	5493
924.633	5520
924.741	6258
924.849	5383
924.956	5524
925.064	5299
925.172	5296
925.279	5311
925.387	5353
925.494	5383
925.602	5417
925.709	5425
925.816	5303
925.924	5379
926.031	5349
926.138	5322
926.245	5387
926.352	5223
926.459	5322
926.566	5379
926.673	5273
926.779	5147
926.886	5132
926.993	5083
927.099	5025
927.206	4999
927.312	4968
927.419	5029
927.525	4972
927.631	4987
927.737	4942
927.843	4892
927.95	4812
928.056	4839
928.162	4797
928.267	4870
928.373	5280
928.479	4877
928.585	4675
928.69	4774
928.796	4824
928.901	4706
929.007	4637
929.112	4706
929.218	4694
929.323	4626
929.428	4558
929.533	4679
929.638	4535
929.743	4573
929.848	4622
929.953	4546
930.058	4474
930.163	4367
930.267	4333
930.372	4500
930.477	4268
930.581	4443
930.685	4409
930.79	4242
930.894	4310
930.998	4261
931.103	4386
931.207	4124
931.311	4067
931.415	4006
931.519	3964
931.623	3972
