Data from glass_V78500241_1226.txt Node
Date: Wed Sep 01 19:22:59 CST 2021
User: usil
Spectrometer: V785-0024
Trigger mode: 0
Integration Time (sec): 4.000000E-1
Scans to average: 1
Nonlinearity correction enabled: false
Boxcar width: 0
Storing dark spectrum: false
XAxis mode: Wavelengths
Number of Pixels in Spectrum: 1024
>>>>>Begin Spectral Data<<<<<
801.071	3797
801.214	3770
801.356	3717
801.499	3766
801.641	3774
801.783	3770
801.926	3819
802.068	3850
802.211	3911
802.353	3937
802.496	3838
802.638	3876
802.78	3899
802.923	3979
803.065	3861
803.208	3861
803.35	3827
803.492	3915
803.635	3956
803.777	3800
803.919	3903
804.061	4169
804.204	3934
804.346	3956
804.488	3880
804.63	4055
804.773	3983
804.915	4044
805.057	4150
805.199	4048
805.341	4101
805.483	4143
805.626	4154
805.768	4082
805.91	4272
806.052	4284
806.194	4204
806.336	4379
806.478	4238
806.62	4177
806.762	4177
806.904	4287
807.046	4314
807.188	4242
807.33	4246
807.472	4230
807.614	4234
807.756	4303
807.898	4249
808.04	4219
808.182	4322
808.324	4337
808.465	4371
808.607	4459
808.749	4478
808.891	4428
809.033	4474
809.174	4394
809.316	4272
809.458	4246
809.6	4181
809.741	4150
809.883	4147
810.025	4242
810.166	4204
810.308	4177
810.45	4261
810.591	4261
810.733	4265
810.875	4516
811.016	4824
811.158	5166
811.299	5280
811.441	5303
811.582	5121
811.724	4687
811.865	4485
812.007	4508
812.148	4451
812.29	4443
812.431	4459
812.573	4405
812.714	4356
812.855	4413
812.997	4455
813.138	4508
813.279	4379
813.421	4390
813.562	4344
813.703	4341
813.845	4352
813.986	4238
814.127	4223
814.268	4284
814.41	4291
814.551	4284
814.692	4306
814.833	4314
814.974	4284
815.115	4394
815.256	4207
815.397	4238
815.539	4230
815.68	4268
815.821	4249
815.962	4284
816.103	4280
816.244	4238
816.385	4268
816.526	4291
816.666	4173
816.807	4120
816.948	4196
817.089	4139
817.23	4105
817.371	4017
817.512	4105
817.653	4090
817.793	4025
817.934	4067
818.075	4109
818.216	4067
818.356	4109
818.497	3964
818.638	3915
818.778	3960
818.919	3915
819.06	3876
819.2	3918
819.341	3907
819.481	3880
819.622	3937
819.762	4048
819.903	3979
820.043	3873
820.184	3827
820.324	3846
820.465	3892
820.605	3884
820.746	3880
820.886	3819
821.026	3975
821.167	3911
821.307	3991
821.447	3960
821.588	3979
821.728	3975
821.868	3960
822.008	3846
822.149	3926
822.289	3934
822.429	3778
822.569	3751
822.709	3835
822.849	3660
822.99	3720
823.13	3789
823.27	3797
823.41	3713
823.55	3743
823.69	3686
823.83	3774
823.97	3682
824.11	3633
824.25	3595
824.389	3682
824.529	3709
824.669	3663
824.809	3736
824.949	3808
825.089	3755
825.228	3747
825.368	3564
825.508	3568
825.648	3584
825.787	3629
825.927	3641
826.067	3625
826.206	3660
826.346	3785
826.485	3835
826.625	3861
826.765	3983
826.904	3831
827.044	3580
827.183	3564
827.323	3458
827.462	3496
827.601	3443
827.741	3466
827.88	3481
828.02	3401
828.159	3435
828.298	3481
828.437	3526
828.577	3469
828.716	3610
828.855	3504
828.994	3420
829.134	3401
829.273	3435
829.412	3355
829.551	3386
829.69	3382
829.829	3412
829.968	3526
830.107	3435
830.246	3462
830.385	3370
830.524	3340
830.663	3336
830.802	3272
830.941	3188
831.08	3230
831.219	3264
831.357	3302
831.496	3382
831.635	3245
831.774	3180
831.913	3214
832.051	3097
832.19	3154
832.329	3176
832.467	3089
832.606	3100
832.744	3184
832.883	3195
833.022	3226
833.16	3256
833.299	3329
833.437	3351
833.576	3363
833.714	3412
833.852	3458
833.991	3447
834.129	3515
834.267	3424
834.406	3424
834.544	3450
834.682	3428
834.821	3416
834.959	3576
835.097	3420
835.235	3564
835.373	3485
835.511	3507
835.65	3481
835.788	3584
835.926	3405
836.064	3401
836.202	3416
836.34	3603
836.478	3618
836.615	3549
836.753	3591
836.891	3606
837.029	3663
837.167	3587
837.305	3564
837.443	3591
837.58	3534
837.718	3587
837.856	3538
837.993	3564
838.131	3603
838.269	3584
838.406	3610
838.544	3568
838.681	3462
838.819	3424
838.956	3416
839.094	3405
839.231	3431
839.369	3519
839.506	3762
839.643	3648
839.781	3492
839.918	3477
840.055	3530
840.193	3557
840.33	3557
840.467	3553
840.604	3618
840.742	3774
840.879	3587
841.016	3584
841.153	3572
841.29	3732
841.427	3759
841.564	3751
841.701	3781
841.838	3698
841.975	3690
842.112	3709
842.249	3660
842.385	3660
842.522	3846
842.659	3720
842.796	3656
842.933	3701
843.069	3705
843.206	3682
843.343	3812
843.479	3831
843.616	3884
843.752	3682
843.889	3660
844.025	3884
844.162	3743
844.298	3861
844.435	3831
844.571	3823
844.708	3911
844.844	3987
844.98	3994
845.117	4044
845.253	3911
845.389	3880
845.525	4010
845.661	3975
845.798	3896
845.934	4013
846.07	3956
846.206	4090
846.342	4120
846.478	4101
846.614	3972
846.75	3964
846.886	3857
847.022	4040
847.158	4013
847.294	4013
847.429	4044
847.565	3998
847.701	4295
847.837	3896
847.972	3876
848.108	3998
848.244	3972
848.379	3861
848.515	3808
848.65	3816
848.786	3819
848.921	3888
849.057	3941
849.192	3922
849.328	3945
849.463	3956
849.598	3869
849.734	3888
849.869	3861
850.004	3766
850.14	3808
850.275	3793
850.41	3747
850.545	3751
850.68	3823
850.815	3789
850.95	3785
851.085	3972
851.22	3899
851.355	3831
851.49	3770
851.625	3797
851.76	3800
851.895	3778
852.03	3785
852.165	3789
852.299	3819
852.434	3846
852.569	3857
852.703	3869
852.838	3953
852.973	4044
853.107	3983
853.242	3892
853.376	3850
853.511	3759
853.645	3827
853.78	3994
853.914	3873
854.048	3934
854.183	3930
854.317	3956
854.451	4071
854.585	3960
854.72	3907
854.854	4071
854.988	3911
855.122	4032
855.256	3918
855.39	3983
855.524	4074
855.658	4101
855.792	4124
855.926	4128
856.06	4192
856.194	4219
856.327	4128
856.461	4173
856.595	4147
856.729	4177
856.862	4261
856.996	4246
857.13	4276
857.263	4322
857.397	4318
857.53	4318
857.664	4379
857.797	4409
857.931	4421
858.064	4405
858.197	4424
858.331	4402
858.464	4379
858.597	4379
858.731	4462
858.864	4443
858.997	4500
859.13	4531
859.263	4527
859.396	4561
859.529	4535
859.662	4481
859.795	4512
859.928	4554
860.061	4694
860.194	4721
860.327	4626
860.46	4683
860.592	4733
860.725	4714
860.858	4809
860.99	4706
861.123	4717
861.256	4668
861.388	4793
861.521	5258
861.653	4763
861.786	4706
861.918	4710
862.05	4755
862.183	4812
862.315	4900
862.447	4953
862.58	4870
862.712	4839
862.844	4812
862.976	4843
863.108	4900
863.24	5151
863.372	4904
863.504	4900
863.636	4885
863.768	4987
863.9	4980
864.032	4927
864.164	4942
864.296	5010
864.428	5037
864.559	5105
864.691	5170
864.823	5143
864.954	5105
865.086	5216
865.217	5121
865.349	5124
865.48	5140
865.612	5174
865.743	5307
865.875	5231
866.006	5204
866.137	5235
866.269	5258
866.4	5216
866.531	5273
866.662	5269
866.793	5277
866.924	5269
867.055	5307
867.186	5334
867.317	5280
867.448	5334
867.579	5421
867.71	5383
867.841	5379
867.972	5444
868.103	5425
868.233	5501
868.364	5558
868.495	5543
868.625	5661
868.756	5855
868.886	5695
869.017	5745
869.147	5859
869.278	5878
869.408	5805
869.539	5897
869.669	5916
869.799	5912
869.929	5920
870.06	6053
870.19	6171
870.32	6182
870.45	6300
870.58	6388
870.71	6414
870.84	6517
870.97	6407
871.1	6460
871.23	6627
871.36	6669
871.489	6677
871.619	6741
871.749	6802
871.879	6871
872.008	7015
872.138	7000
872.267	6993
872.397	7031
872.526	7057
872.656	7076
872.785	7198
872.915	7324
873.044	7510
873.173	7601
873.303	7681
873.432	7746
873.561	7830
873.69	7944
873.819	8054
873.948	8172
874.077	8252
874.206	8298
874.335	8499
874.464	8636
874.593	8868
874.722	8899
874.851	9119
874.979	9291
875.108	9405
875.237	9447
875.365	9477
875.494	9663
875.623	9857
875.751	9911
875.88	9983
876.008	10192
876.136	10299
876.265	10481
876.393	10752
876.521	10748
876.65	10854
876.778	10885
876.906	10968
877.034	10980
877.162	11083
877.29	11170
877.418	11296
877.546	11368
877.674	11414
877.802	11509
877.93	11497
878.058	11562
878.185	11604
878.313	11611
878.441	11783
878.568	11634
878.696	11771
878.824	11866
878.951	11946
879.079	12041
879.206	12163
879.333	12175
879.461	12003
879.588	12171
879.715	12083
879.842	12190
879.97	12030
880.097	11863
880.224	11980
880.351	11855
880.478	11912
880.605	11843
880.732	11752
880.859	11999
880.986	11908
881.112	11874
881.239	11752
881.366	11665
881.493	11566
881.619	11539
881.746	11630
881.872	11512
881.999	11512
882.125	11455
882.252	11528
882.378	11524
882.505	11585
882.631	11353
882.757	11299
882.883	11349
883.01	11280
883.136	11155
883.262	11174
883.388	11155
883.514	11220
883.64	11166
883.766	11124
883.892	10900
884.018	10976
884.143	11105
884.269	11075
884.395	10896
884.52	10786
884.646	10774
884.772	10664
884.897	10752
885.023	10759
885.148	10809
885.274	10778
885.399	10721
885.524	10679
885.65	10592
885.775	10603
885.9	10561
886.025	10580
886.15	10561
886.275	10478
886.4	10382
886.525	10386
886.65	10409
886.775	10363
886.9	10432
887.025	10561
887.149	10382
887.274	10265
887.399	10230
887.523	10135
887.648	10124
887.773	10093
887.897	10230
888.021	10188
888.146	10173
888.27	10295
888.395	10242
888.519	10249
888.643	10177
888.767	10196
888.891	10116
889.015	9987
889.139	10090
889.263	9991
889.387	10097
889.511	10090
889.635	10071
889.759	10032
889.883	9979
890.006	9941
890.13	10120
890.254	9975
890.377	9998
890.501	9907
890.624	9915
890.748	9880
890.871	9781
890.995	9774
891.118	9732
891.241	9762
891.364	9694
891.488	9850
891.611	9823
891.734	9766
891.857	9797
891.98	9701
892.103	9762
892.226	9724
892.349	9610
892.471	9511
892.594	9553
892.717	9587
892.839	9641
892.962	9629
893.085	9637
893.207	9545
893.33	9485
893.452	9584
893.575	9584
893.697	9469
893.819	9625
893.941	9663
894.064	9603
894.186	9447
894.308	9416
894.43	9500
894.552	9629
894.674	9587
894.796	9424
894.918	9332
895.04	9222
895.161	9386
895.283	9428
895.405	9275
895.526	9268
895.648	9317
895.769	9226
895.891	9363
896.012	9249
896.134	9199
896.255	9207
896.376	9135
896.498	9260
896.619	9154
896.74	9093
896.861	9062
896.982	9283
897.103	9424
897.224	9180
897.345	9013
897.466	9047
897.587	8986
897.708	9089
897.828	9074
897.949	8944
898.07	8834
898.19	8906
898.311	8998
898.431	8971
898.552	8918
898.672	8986
898.792	8910
898.913	8883
899.033	8834
899.153	8766
899.273	8701
899.393	8663
899.513	8769
899.633	8769
899.753	8788
899.873	8743
899.993	8785
900.113	8727
900.232	8724
900.352	8667
900.472	8617
900.591	8530
900.711	8587
900.83	8560
900.95	8720
901.069	8735
901.189	8579
901.308	8431
901.427	8393
901.546	8412
901.665	8450
901.784	8511
901.904	8366
902.023	8355
902.141	8229
902.26	8218
902.379	8275
902.498	8259
902.617	8229
902.735	8282
902.854	8279
902.973	8271
903.091	8107
903.21	8176
903.328	8111
903.446	8111
903.565	8115
903.683	8107
903.801	7997
903.919	8176
904.038	8183
904.156	8020
904.274	8107
904.392	8130
904.51	7951
904.627	8054
904.745	8031
904.863	8115
904.981	7898
905.098	7860
905.216	7841
905.334	7898
905.451	7944
905.569	7856
905.686	7925
905.803	7909
905.921	7772
906.038	7909
906.155	7753
906.272	7734
906.389	7693
906.506	7655
906.623	7696
906.74	7616
906.857	7567
906.974	7571
907.091	7696
907.208	7761
907.324	7609
907.441	7556
907.557	7472
907.674	7491
907.79	7426
907.907	7388
908.023	7407
908.139	7483
908.256	7392
908.372	7415
908.488	7369
908.604	7301
908.72	7221
908.836	7270
908.952	7259
909.068	7289
909.184	7343
909.3	7308
909.415	7255
909.531	7263
909.647	7118
909.762	7080
909.878	7091
909.993	7122
910.108	7084
910.224	7061
910.339	7084
910.454	7042
910.57	6981
910.685	6954
910.8	7168
910.915	7103
911.03	7042
911.145	6916
911.259	6966
911.374	6859
911.489	6837
911.604	6741
911.718	6730
911.833	6764
911.947	6658
912.062	6627
912.176	6707
912.291	6726
912.405	6707
912.519	6814
912.633	6878
912.748	6760
912.862	6692
912.976	6601
913.09	6578
913.204	6570
913.318	6635
913.431	6688
913.545	6734
913.659	6719
913.772	6684
913.886	6525
914	6593
914.113	6654
914.226	6665
914.34	6604
914.453	6490
914.566	6574
914.68	6574
914.793	6528
914.906	6433
915.019	6357
915.132	6388
915.245	6426
915.358	6433
915.47	6441
915.583	6475
915.696	6464
915.809	6532
915.921	6506
916.034	6464
916.146	6448
916.259	6384
916.371	6479
916.483	6486
916.595	6384
916.708	6407
916.82	6407
916.932	6407
917.044	6365
917.156	6429
917.268	6323
917.38	6350
917.491	6334
917.603	6342
917.715	6448
917.826	6422
917.938	6414
918.049	6247
918.161	6353
918.272	6456
918.384	6426
918.495	6361
918.606	6270
918.717	6220
918.828	6289
918.939	6285
919.05	6182
919.161	6209
919.272	6114
919.383	6159
919.494	6296
919.604	6403
919.715	6197
919.826	6232
919.936	6251
920.047	6327
920.157	6220
920.267	6498
920.378	6300
920.488	6289
920.598	6433
920.708	6563
920.818	6437
920.928	6460
921.038	6593
921.148	6639
921.258	6380
921.368	6327
921.477	6216
921.587	6228
921.697	6095
921.806	6171
921.916	6117
922.025	5927
922.134	5942
922.244	5912
922.353	5908
922.462	5844
922.571	5790
922.68	5707
922.789	5714
922.898	5726
923.007	5653
923.116	5649
923.224	5684
923.333	5619
923.442	5653
923.55	5570
923.659	5577
923.767	5619
923.876	5562
923.984	5646
924.092	5570
924.201	5577
924.309	5562
924.417	5600
924.525	5471
924.633	5532
924.741	6319
924.849	5353
924.956	5520
925.064	5311
925.172	5357
925.279	5341
925.387	5406
925.494	5341
925.602	5459
925.709	5379
925.816	5273
925.924	5322
926.031	5406
926.138	5269
926.245	5284
926.352	5246
926.459	5326
926.566	5357
926.673	5231
926.779	5162
926.886	5083
926.993	5029
927.099	5037
927.206	4995
927.312	4980
927.419	5014
927.525	4972
927.631	4991
927.737	4908
927.843	4881
927.95	4809
928.056	4809
928.162	4843
928.267	4881
928.373	5353
928.479	4866
928.585	4660
928.69	4759
928.796	4740
928.901	4710
929.007	4607
929.112	4706
929.218	4668
929.323	4599
929.428	4584
929.533	4679
929.638	4531
929.743	4554
929.848	4577
929.953	4516
930.058	4447
930.163	4272
930.267	4413
930.372	4432
930.477	4303
930.581	4546
930.685	4413
930.79	4230
930.894	4272
930.998	4238
931.103	4421
931.207	4169
931.311	4086
931.415	4044
931.519	3918
931.623	3972
