Data from glass_V78500241_1062.txt Node
Date: Wed Sep 01 19:21:51 CST 2021
User: usil
Spectrometer: V785-0024
Trigger mode: 0
Integration Time (sec): 4.000000E-1
Scans to average: 1
Nonlinearity correction enabled: false
Boxcar width: 0
Storing dark spectrum: false
XAxis mode: Wavelengths
Number of Pixels in Spectrum: 1024
>>>>>Begin Spectral Data<<<<<
801.071	3751
801.214	3755
801.356	3724
801.499	3743
801.641	3743
801.783	3785
801.926	3846
802.068	3831
802.211	3884
802.353	3896
802.496	3835
802.638	3918
802.78	3907
802.923	3979
803.065	3930
803.208	3915
803.35	3857
803.492	3953
803.635	3934
803.777	3835
803.919	3903
804.061	4215
804.204	3937
804.346	3968
804.488	3949
804.63	4078
804.773	4010
804.915	4021
805.057	4124
805.199	4097
805.341	4093
805.483	4177
805.626	4147
805.768	4105
805.91	4242
806.052	4253
806.194	4200
806.336	4371
806.478	4230
806.62	4188
806.762	4230
806.904	4306
807.046	4375
807.188	4227
807.33	4215
807.472	4238
807.614	4219
807.756	4249
807.898	4268
808.04	4230
808.182	4318
808.324	4337
808.465	4375
808.607	4462
808.749	4504
808.891	4489
809.033	4493
809.174	4402
809.316	4253
809.458	4249
809.6	4173
809.741	4177
809.883	4131
810.025	4196
810.166	4200
810.308	4227
810.45	4261
810.591	4238
810.733	4257
810.875	4508
811.016	4843
811.158	5147
811.299	5280
811.441	5315
811.582	5090
811.724	4759
811.865	4466
812.007	4459
812.148	4443
812.29	4451
812.431	4360
812.573	4432
812.714	4394
812.855	4432
812.997	4367
813.138	4489
813.279	4455
813.421	4375
813.562	4337
813.703	4375
813.845	4360
813.986	4257
814.127	4242
814.268	4246
814.41	4299
814.551	4291
814.692	4344
814.833	4246
814.974	4310
815.115	4318
815.256	4227
815.397	4265
815.539	4249
815.68	4219
815.821	4173
815.962	4333
816.103	4280
816.244	4257
816.385	4295
816.526	4261
816.666	4223
816.807	4135
816.948	4192
817.089	4204
817.23	4124
817.371	4071
817.512	4029
817.653	4112
817.793	4040
817.934	4036
818.075	4116
818.216	4150
818.356	4071
818.497	4006
818.638	3899
818.778	3911
818.919	3911
819.06	3896
819.2	3892
819.341	3907
819.481	3838
819.622	3934
819.762	4036
819.903	3945
820.043	3850
820.184	3831
820.324	3846
820.465	3873
820.605	3869
820.746	3861
820.886	3819
821.026	3949
821.167	3968
821.307	4002
821.447	3975
821.588	3956
821.728	3949
821.868	3983
822.008	3884
822.149	3953
822.289	3964
822.429	3819
822.569	3781
822.709	3797
822.849	3690
822.99	3713
823.13	3747
823.27	3797
823.41	3728
823.55	3705
823.69	3740
823.83	3781
823.97	3671
824.11	3622
824.25	3633
824.389	3690
824.529	3663
824.669	3686
824.809	3720
824.949	3770
825.089	3751
825.228	3736
825.368	3564
825.508	3553
825.648	3599
825.787	3633
825.927	3633
826.067	3625
826.206	3713
826.346	3804
826.485	3808
826.625	3865
826.765	3926
826.904	3819
827.044	3633
827.183	3542
827.323	3454
827.462	3500
827.601	3447
827.741	3416
827.88	3458
828.02	3386
828.159	3477
828.298	3477
828.437	3572
828.577	3477
828.716	3637
828.855	3507
828.994	3370
829.134	3401
829.273	3412
829.412	3382
829.551	3378
829.69	3382
829.829	3477
829.968	3534
830.107	3462
830.246	3435
830.385	3374
830.524	3389
830.663	3336
830.802	3245
830.941	3195
831.08	3138
831.219	3291
831.357	3275
831.496	3397
831.635	3226
831.774	3203
831.913	3207
832.051	3165
832.19	3154
832.329	3241
832.467	3123
832.606	3108
832.744	3169
832.883	3184
833.022	3192
833.16	3268
833.299	3317
833.437	3355
833.576	3374
833.714	3405
833.852	3435
833.991	3462
834.129	3473
834.267	3473
834.406	3405
834.544	3428
834.682	3416
834.821	3420
834.959	3595
835.097	3473
835.235	3542
835.373	3473
835.511	3515
835.65	3458
835.788	3492
835.926	3378
836.064	3367
836.202	3420
836.34	3618
836.478	3625
836.615	3561
836.753	3584
836.891	3660
837.029	3599
837.167	3606
837.305	3595
837.443	3530
837.58	3519
837.718	3568
837.856	3530
837.993	3538
838.131	3629
838.269	3599
838.406	3584
838.544	3580
838.681	3504
838.819	3424
838.956	3431
839.094	3409
839.231	3473
839.369	3549
839.506	3686
839.643	3648
839.781	3507
839.918	3466
840.055	3526
840.193	3538
840.33	3564
840.467	3557
840.604	3599
840.742	3827
840.879	3534
841.016	3557
841.153	3618
841.29	3736
841.427	3740
841.564	3743
841.701	3778
841.838	3705
841.975	3690
842.112	3705
842.249	3633
842.385	3690
842.522	3774
842.659	3679
842.796	3675
842.933	3717
843.069	3705
843.206	3698
843.343	3781
843.479	3804
843.616	3819
843.752	3663
843.889	3720
844.025	3876
844.162	3728
844.298	3884
844.435	3800
844.571	3831
844.708	3918
844.844	4006
844.98	4029
845.117	4017
845.253	3915
845.389	3941
845.525	3956
845.661	3941
845.798	3915
845.934	4013
846.07	3941
846.206	4044
846.342	4090
846.478	4082
846.614	3994
846.75	3930
846.886	3941
847.022	4044
847.158	4036
847.294	4040
847.429	4025
847.565	4010
847.701	4265
847.837	3869
847.972	3884
848.108	4010
848.244	4048
848.379	3880
848.515	3884
848.65	3804
848.786	3846
848.921	3888
849.057	3945
849.192	3941
849.328	3873
849.463	3926
849.598	3922
849.734	3884
849.869	3831
850.004	3781
850.14	3846
850.275	3812
850.41	3770
850.545	3770
850.68	3789
850.815	3804
850.95	3812
851.085	3915
851.22	3884
851.355	3873
851.49	3812
851.625	3762
851.76	3808
851.895	3751
852.03	3717
852.165	3835
852.299	3846
852.434	3907
852.569	3861
852.703	3892
852.838	3899
852.973	3983
853.107	4025
853.242	3846
853.376	3816
853.511	3762
853.645	3835
853.78	3960
853.914	3880
854.048	3922
854.183	3903
854.317	3930
854.451	4055
854.585	3998
854.72	3956
854.854	4086
854.988	3964
855.122	4010
855.256	3934
855.39	4006
855.524	4101
855.658	4109
855.792	4135
855.926	4120
856.06	4181
856.194	4242
856.327	4154
856.461	4093
856.595	4181
856.729	4188
856.862	4295
856.996	4249
857.13	4276
857.263	4356
857.397	4344
857.53	4329
857.664	4379
857.797	4375
857.931	4432
858.064	4402
858.197	4470
858.331	4360
858.464	4421
858.597	4360
858.731	4466
858.864	4478
858.997	4451
859.13	4516
859.263	4554
859.396	4569
859.529	4538
859.662	4607
859.795	4500
859.928	4603
860.061	4721
860.194	4729
860.327	4672
860.46	4649
860.592	4717
860.725	4809
860.858	4748
860.99	4740
861.123	4664
861.256	4694
861.388	4835
861.521	5379
861.653	4698
861.786	4740
861.918	4767
862.05	4847
862.183	4850
862.315	4900
862.447	4896
862.58	4900
862.712	4782
862.844	4790
862.976	4900
863.108	4862
863.24	5223
863.372	4824
863.504	4892
863.636	4965
863.768	4957
863.9	4991
864.032	4900
864.164	4930
864.296	5010
864.428	5090
864.559	5090
864.691	5136
864.823	5140
864.954	5086
865.086	5109
865.217	5105
865.349	5136
865.48	5166
865.612	5223
865.743	5307
865.875	5174
866.006	5204
866.137	5288
866.269	5277
866.4	5258
866.531	5227
866.662	5220
866.793	5318
866.924	5318
867.055	5349
867.186	5349
867.317	5318
867.448	5360
867.579	5341
867.71	5433
867.841	5471
867.972	5474
868.103	5444
868.233	5459
868.364	5512
868.495	5581
868.625	5668
868.756	5805
868.886	5638
869.017	5771
869.147	5847
869.278	5893
869.408	5859
869.539	5870
869.669	5916
869.799	5874
869.929	6019
870.06	6026
870.19	6171
870.32	6186
870.45	6262
870.58	6346
870.71	6422
870.84	6456
870.97	6429
871.1	6422
871.23	6635
871.36	6707
871.489	6684
871.619	6738
871.749	6837
871.879	6852
872.008	6981
872.138	6973
872.267	7061
872.397	7038
872.526	7042
872.656	7137
872.785	7202
872.915	7407
873.044	7506
873.173	7609
873.303	7681
873.432	7799
873.561	7879
873.69	7921
873.819	8008
873.948	8229
874.077	8282
874.206	8317
874.335	8434
874.464	8663
874.593	8899
874.722	8960
874.851	9112
874.979	9222
875.108	9363
875.237	9393
875.365	9507
875.494	9633
875.623	9850
875.751	9869
875.88	10044
876.008	10188
876.136	10344
876.265	10500
876.393	10634
876.521	10694
876.65	10896
876.778	10923
876.906	10900
877.034	10984
877.162	11022
877.29	11227
877.418	11311
877.546	11376
877.674	11509
877.802	11467
877.93	11501
878.058	11596
878.185	11638
878.313	11634
878.441	11767
878.568	11737
878.696	11771
878.824	11817
878.951	12019
879.079	12030
879.206	12178
879.333	12015
879.461	11980
879.588	12098
879.715	12102
879.842	12289
879.97	12076
880.097	11927
880.224	11817
880.351	11908
880.478	11904
880.605	11821
880.732	11840
880.859	12049
880.986	11832
881.112	11882
881.239	11767
881.366	11733
881.493	11718
881.619	11528
881.746	11573
881.872	11611
881.999	11543
882.125	11501
882.252	11512
882.378	11463
882.505	11642
882.631	11349
882.757	11330
882.883	11307
883.01	11280
883.136	11185
883.262	11128
883.388	11067
883.514	11242
883.64	11212
883.766	11132
883.892	11003
884.018	10930
884.143	11056
884.269	11113
884.395	10881
884.52	10828
884.646	10854
884.772	10725
884.897	10660
885.023	10683
885.148	10717
885.274	10805
885.399	10717
885.524	10596
885.65	10573
885.775	10599
885.9	10519
886.025	10538
886.15	10599
886.275	10497
886.4	10413
886.525	10367
886.65	10352
886.775	10405
886.9	10558
887.025	10615
887.149	10421
887.274	10280
887.399	10227
887.523	10196
887.648	10105
887.773	10074
887.897	10291
888.021	10287
888.146	10128
888.27	10265
888.395	10253
888.519	10246
888.643	10185
888.767	10223
888.891	10124
889.015	10051
889.139	10017
889.263	10036
889.387	10074
889.511	10147
889.635	10063
889.759	9972
889.883	10032
890.006	10025
890.13	10143
890.254	9991
890.377	10017
890.501	9846
890.624	9884
890.748	9930
890.871	9770
890.995	9732
891.118	9766
891.241	9747
891.364	9751
891.488	9740
891.611	9732
891.734	9766
891.857	9865
891.98	9781
892.103	9751
892.226	9736
892.349	9675
892.471	9492
892.594	9618
892.717	9648
892.839	9549
892.962	9663
893.085	9671
893.207	9523
893.33	9515
893.452	9526
893.575	9591
893.697	9519
893.819	9603
893.941	9618
894.064	9622
894.186	9454
894.308	9386
894.43	9572
894.552	9656
894.674	9561
894.796	9386
894.918	9435
895.04	9370
895.161	9424
895.283	9363
895.405	9233
895.526	9310
895.648	9264
895.769	9283
895.891	9313
896.012	9329
896.134	9317
896.255	9207
896.376	9085
896.498	9116
896.619	9108
896.74	9047
896.861	9062
896.982	9207
897.103	9344
897.224	9195
897.345	9062
897.466	9017
897.587	9039
897.708	9093
897.828	9024
897.949	8948
898.07	8864
898.19	8902
898.311	9032
898.431	8910
898.552	8895
898.672	9017
898.792	8960
898.913	8948
899.033	8804
899.153	8758
899.273	8739
899.393	8739
899.513	8735
899.633	8743
899.753	8716
899.873	8724
899.993	8724
900.113	8712
900.232	8720
900.352	8674
900.472	8610
900.591	8571
900.711	8598
900.83	8594
900.95	8644
901.069	8716
901.189	8583
901.308	8476
901.427	8419
901.546	8450
901.665	8438
901.784	8427
901.904	8423
902.023	8343
902.141	8248
902.26	8149
902.379	8256
902.498	8199
902.617	8275
902.735	8301
902.854	8237
902.973	8271
903.091	8031
903.21	8214
903.328	8153
903.446	8134
903.565	8161
903.683	8054
903.801	8119
903.919	8111
904.038	8100
904.156	8069
904.274	8103
904.392	8027
904.51	8103
904.627	8031
904.745	8138
904.863	8134
904.981	7974
905.098	7868
905.216	7944
905.334	7902
905.451	7864
905.569	7852
905.686	7887
905.803	7898
905.921	7746
906.038	7883
906.155	7814
906.272	7723
906.389	7723
906.506	7658
906.623	7578
906.74	7556
906.857	7540
906.974	7613
907.091	7613
907.208	7681
907.324	7655
907.441	7540
907.557	7518
907.674	7460
907.79	7472
907.907	7426
908.023	7403
908.139	7411
908.256	7331
908.372	7438
908.488	7400
908.604	7343
908.72	7263
908.836	7259
908.952	7240
909.068	7236
909.184	7365
909.3	7305
909.415	7346
909.531	7282
909.647	7141
909.762	7225
909.878	7122
909.993	7133
910.108	7095
910.224	7061
910.339	7149
910.454	7091
910.57	7015
910.685	6935
910.8	7251
910.915	7122
911.03	7019
911.145	6966
911.259	6951
911.374	6943
911.489	6829
911.604	6878
911.718	6779
911.833	6700
911.947	6604
912.062	6566
912.176	6730
912.291	6741
912.405	6669
912.519	6875
912.633	6840
912.748	6700
912.862	6696
912.976	6570
913.09	6559
913.204	6582
913.318	6639
913.431	6642
913.545	6715
913.659	6753
913.772	6639
913.886	6566
914	6578
914.113	6662
914.226	6635
914.34	6650
914.453	6479
914.566	6563
914.68	6547
914.793	6494
914.906	6464
915.019	6429
915.132	6365
915.245	6460
915.358	6414
915.47	6456
915.583	6502
915.696	6486
915.809	6589
915.921	6532
916.034	6448
916.146	6456
916.259	6410
916.371	6486
916.483	6494
916.595	6369
916.708	6380
916.82	6445
916.932	6433
917.044	6422
917.156	6388
917.268	6342
917.38	6304
917.491	6353
917.603	6357
917.715	6369
917.826	6433
917.938	6300
918.049	6281
918.161	6399
918.272	6414
918.384	6471
918.495	6361
918.606	6270
918.717	6220
918.828	6311
918.939	6270
919.05	6232
919.161	6254
919.272	6152
919.383	6190
919.494	6304
919.604	6460
919.715	6304
919.826	6224
919.936	6281
920.047	6292
920.157	6292
920.267	6486
920.378	6372
920.488	6292
920.598	6422
920.708	6509
920.818	6490
920.928	6467
921.038	6623
921.148	6589
921.258	6327
921.368	6346
921.477	6292
921.587	6190
921.697	6136
921.806	6178
921.916	6060
922.025	5946
922.134	5946
922.244	5893
922.353	5958
922.462	5836
922.571	5794
922.68	5733
922.789	5699
922.898	5726
923.007	5646
923.116	5714
923.224	5714
923.333	5703
923.442	5608
923.55	5570
923.659	5566
923.767	5596
923.876	5547
923.984	5577
924.092	5501
924.201	5634
924.309	5600
924.417	5630
924.525	5478
924.633	5509
924.741	6319
924.849	5421
924.956	5497
925.064	5341
925.172	5345
925.279	5322
925.387	5383
925.494	5349
925.602	5414
925.709	5455
925.816	5280
925.924	5341
926.031	5360
926.138	5299
926.245	5318
926.352	5258
926.459	5353
926.566	5368
926.673	5273
926.779	5124
926.886	5143
926.993	5060
927.099	5037
927.206	5010
927.312	4949
927.419	5071
927.525	5018
927.631	4991
927.737	4850
927.843	4877
927.95	4759
928.056	4774
928.162	4816
928.267	4885
928.373	5379
928.479	4881
928.585	4729
928.69	4782
928.796	4767
928.901	4710
929.007	4580
929.112	4694
929.218	4653
929.323	4577
929.428	4535
929.533	4714
929.638	4478
929.743	4523
929.848	4558
929.953	4512
930.058	4474
930.163	4360
930.267	4367
930.372	4432
930.477	4344
930.581	4489
930.685	4405
930.79	4280
930.894	4306
930.998	4246
931.103	4390
931.207	4147
931.311	4090
931.415	4090
931.519	3953
931.623	3937
