Data from glass_V78500241_1901.txt Node
Date: Wed Sep 01 19:27:40 CST 2021
User: usil
Spectrometer: V785-0024
Trigger mode: 0
Integration Time (sec): 4.000000E-1
Scans to average: 1
Nonlinearity correction enabled: false
Boxcar width: 0
Storing dark spectrum: false
XAxis mode: Wavelengths
Number of Pixels in Spectrum: 1024
>>>>>Begin Spectral Data<<<<<
801.071	3701
801.214	3698
801.356	3698
801.499	3736
801.641	3762
801.783	3785
801.926	3819
802.068	3823
802.211	3812
802.353	3892
802.496	3823
802.638	3857
802.78	3896
802.923	3926
803.065	3880
803.208	3892
803.35	3865
803.492	3896
803.635	3865
803.777	3789
803.919	3888
804.061	4135
804.204	3918
804.346	3964
804.488	3869
804.63	4048
804.773	3998
804.915	4055
805.057	4128
805.199	4063
805.341	4067
805.483	4185
805.626	4131
805.768	4135
805.91	4200
806.052	4238
806.194	4238
806.336	4344
806.478	4234
806.62	4120
806.762	4242
806.904	4249
807.046	4356
807.188	4196
807.33	4166
807.472	4219
807.614	4227
807.756	4223
807.898	4215
808.04	4204
808.182	4268
808.324	4337
808.465	4348
808.607	4459
808.749	4451
808.891	4436
809.033	4497
809.174	4413
809.316	4261
809.458	4185
809.6	4169
809.741	4139
809.883	4120
810.025	4204
810.166	4211
810.308	4219
810.45	4246
810.591	4234
810.733	4249
810.875	4542
811.016	4790
811.158	5151
811.299	5227
811.441	5318
811.582	5098
811.724	4725
811.865	4455
812.007	4508
812.148	4428
812.29	4462
812.431	4443
812.573	4409
812.714	4337
812.855	4371
812.997	4405
813.138	4531
813.279	4402
813.421	4402
813.562	4356
813.703	4371
813.845	4367
813.986	4253
814.127	4196
814.268	4265
814.41	4261
814.551	4234
814.692	4310
814.833	4249
814.974	4314
815.115	4295
815.256	4227
815.397	4261
815.539	4295
815.68	4192
815.821	4200
815.962	4280
816.103	4257
816.244	4185
816.385	4211
816.526	4265
816.666	4253
816.807	4040
816.948	4204
817.089	4147
817.23	4158
817.371	4017
817.512	4040
817.653	4036
817.793	3964
817.934	4040
818.075	4074
818.216	4074
818.356	4071
818.497	4017
818.638	3922
818.778	3956
818.919	3865
819.06	3846
819.2	3934
819.341	3842
819.481	3838
819.622	3896
819.762	3979
819.903	3949
820.043	3880
820.184	3850
820.324	3827
820.465	3888
820.605	3831
820.746	3869
820.886	3827
821.026	3915
821.167	3911
821.307	3994
821.447	4013
821.588	4013
821.728	3960
821.868	3930
822.008	3869
822.149	3899
822.289	3941
822.429	3766
822.569	3759
822.709	3797
822.849	3709
822.99	3679
823.13	3717
823.27	3808
823.41	3747
823.55	3740
823.69	3652
823.83	3698
823.97	3663
824.11	3614
824.25	3549
824.389	3633
824.529	3671
824.669	3629
824.809	3663
824.949	3759
825.089	3740
825.228	3694
825.368	3580
825.508	3564
825.648	3576
825.787	3599
825.927	3603
826.067	3595
826.206	3648
826.346	3789
826.485	3838
826.625	3873
826.765	3926
826.904	3827
827.044	3572
827.183	3542
827.323	3412
827.462	3477
827.601	3431
827.741	3454
827.88	3443
828.02	3386
828.159	3416
828.298	3473
828.437	3504
828.577	3526
828.716	3576
828.855	3485
828.994	3367
829.134	3393
829.273	3367
829.412	3359
829.551	3355
829.69	3340
829.829	3416
829.968	3515
830.107	3409
830.246	3439
830.385	3382
830.524	3355
830.663	3321
830.802	3237
830.941	3169
831.08	3199
831.219	3302
831.357	3230
831.496	3428
831.635	3245
831.774	3203
831.913	3176
832.051	3161
832.19	3138
832.329	3245
832.467	3104
832.606	3077
832.744	3169
832.883	3192
833.022	3211
833.16	3249
833.299	3355
833.437	3336
833.576	3370
833.714	3428
833.852	3428
833.991	3462
834.129	3447
834.267	3420
834.406	3405
834.544	3397
834.682	3416
834.821	3416
834.959	3576
835.097	3409
835.235	3507
835.373	3481
835.511	3504
835.65	3496
835.788	3477
835.926	3397
836.064	3378
836.202	3405
836.34	3542
836.478	3599
836.615	3530
836.753	3610
836.891	3656
837.029	3595
837.167	3587
837.305	3542
837.443	3534
837.58	3454
837.718	3587
837.856	3561
837.993	3515
838.131	3572
838.269	3622
838.406	3568
838.544	3542
838.681	3447
838.819	3443
838.956	3401
839.094	3416
839.231	3412
839.369	3519
839.506	3724
839.643	3614
839.781	3519
839.918	3492
840.055	3500
840.193	3534
840.33	3523
840.467	3545
840.604	3584
840.742	3823
840.879	3557
841.016	3557
841.153	3545
841.29	3705
841.427	3720
841.564	3720
841.701	3785
841.838	3755
841.975	3728
842.112	3728
842.249	3614
842.385	3637
842.522	3850
842.659	3698
842.796	3694
842.933	3682
843.069	3705
843.206	3675
843.343	3808
843.479	3789
843.616	3778
843.752	3675
843.889	3660
844.025	3819
844.162	3713
844.298	3865
844.435	3838
844.571	3789
844.708	3899
844.844	4036
844.98	3956
845.117	4002
845.253	3960
845.389	3899
845.525	3960
845.661	3975
845.798	3865
845.934	3983
846.07	3964
846.206	4040
846.342	4128
846.478	4036
846.614	3979
846.75	3918
846.886	3907
847.022	4040
847.158	3934
847.294	3994
847.429	4013
847.565	3991
847.701	4192
847.837	3865
847.972	3831
848.108	3991
848.244	3960
848.379	3819
848.515	3793
848.65	3812
848.786	3781
848.921	3857
849.057	3918
849.192	3922
849.328	3876
849.463	3922
849.598	3903
849.734	3854
849.869	3857
850.004	3819
850.14	3800
850.275	3778
850.41	3751
850.545	3751
850.68	3789
850.815	3793
850.95	3785
851.085	3903
851.22	3827
851.355	3854
851.49	3736
851.625	3827
851.76	3770
851.895	3724
852.03	3766
852.165	3800
852.299	3846
852.434	3857
852.569	3842
852.703	3903
852.838	3930
852.973	3983
853.107	4006
853.242	3896
853.376	3857
853.511	3781
853.645	3835
853.78	3934
853.914	3907
854.048	3854
854.183	3945
854.317	3941
854.451	4044
854.585	3972
854.72	3911
854.854	4071
854.988	3915
855.122	3937
855.256	3880
855.39	3975
855.524	4131
855.658	4090
855.792	4097
855.926	4158
856.06	4166
856.194	4230
856.327	4135
856.461	4135
856.595	4166
856.729	4181
856.862	4276
856.996	4280
857.13	4299
857.263	4344
857.397	4363
857.53	4306
857.664	4333
857.797	4398
857.931	4402
858.064	4402
858.197	4413
858.331	4409
858.464	4344
858.597	4337
858.731	4417
858.864	4470
858.997	4489
859.13	4516
859.263	4523
859.396	4569
859.529	4531
859.662	4588
859.795	4516
859.928	4626
860.061	4691
860.194	4759
860.327	4649
860.46	4599
860.592	4691
860.725	4729
860.858	4748
860.99	4668
861.123	4653
861.256	4710
861.388	4774
861.521	5368
861.653	4691
861.786	4675
861.918	4702
862.05	4828
862.183	4828
862.315	4866
862.447	4934
862.58	4904
862.712	4793
862.844	4771
862.976	4866
863.108	4847
863.24	5178
863.372	4820
863.504	4854
863.636	4915
863.768	4938
863.9	5006
864.032	4896
864.164	4911
864.296	5025
864.428	5075
864.559	5105
864.691	5117
864.823	5151
864.954	5056
865.086	5113
865.217	5143
865.349	5105
865.48	5174
865.612	5197
865.743	5288
865.875	5162
866.006	5174
866.137	5284
866.269	5178
866.4	5277
866.531	5212
866.662	5212
866.793	5307
866.924	5303
867.055	5277
867.186	5357
867.317	5315
867.448	5349
867.579	5341
867.71	5425
867.841	5452
867.972	5425
868.103	5478
868.233	5455
868.364	5482
868.495	5482
868.625	5661
868.756	5764
868.886	5688
869.017	5714
869.147	5836
869.278	5912
869.408	5752
869.539	5851
869.669	5878
869.799	5942
869.929	5946
870.06	6003
870.19	6178
870.32	6213
870.45	6251
870.58	6289
870.71	6418
870.84	6410
870.97	6479
871.1	6418
871.23	6650
871.36	6696
871.489	6684
871.619	6741
871.749	6768
871.879	6863
872.008	7027
872.138	6954
872.267	7103
872.397	6981
872.526	6951
872.656	7164
872.785	7259
872.915	7384
873.044	7548
873.173	7521
873.303	7647
873.432	7750
873.561	7890
873.69	7928
873.819	8031
873.948	8161
874.077	8298
874.206	8298
874.335	8431
874.464	8636
874.593	8952
874.722	8929
874.851	9055
874.979	9249
875.108	9378
875.237	9378
875.365	9496
875.494	9622
875.623	9804
875.751	9873
875.88	10002
876.008	10090
876.136	10200
876.265	10481
876.393	10790
876.521	10782
876.65	10828
876.778	10801
876.906	10972
877.034	10980
877.162	11094
877.29	11170
877.418	11208
877.546	11330
877.674	11471
877.802	11535
877.93	11516
878.058	11646
878.185	11589
878.313	11676
878.441	11676
878.568	11619
878.696	11817
878.824	11859
878.951	11904
879.079	11946
879.206	12136
879.333	12038
879.461	12015
879.588	11999
879.715	12091
879.842	12190
879.97	12076
880.097	11863
880.224	11863
880.351	11863
880.478	11847
880.605	11859
880.732	11794
880.859	12011
880.986	11771
881.112	11901
881.239	11737
881.366	11646
881.493	11642
881.619	11509
881.746	11543
881.872	11562
881.999	11566
882.125	11516
882.252	11539
882.378	11516
882.505	11512
882.631	11353
882.757	11303
882.883	11372
883.01	11242
883.136	11136
883.262	11117
883.388	11022
883.514	11178
883.64	11117
883.766	11102
883.892	11037
884.018	11025
884.143	11048
884.269	11193
884.395	10771
884.52	10778
884.646	10694
884.772	10717
884.897	10653
885.023	10668
885.148	10717
885.274	10824
885.399	10691
885.524	10607
885.65	10584
885.775	10611
885.9	10550
886.025	10664
886.15	10516
886.275	10462
886.4	10382
886.525	10447
886.65	10375
886.775	10280
886.9	10432
887.025	10637
887.149	10360
887.274	10299
887.399	10169
887.523	10238
887.648	10105
887.773	10139
887.897	10215
888.021	10253
888.146	10086
888.27	10200
888.395	10207
888.519	10215
888.643	10166
888.767	10143
888.891	10097
889.015	9979
889.139	10044
889.263	9918
889.387	10032
889.511	10124
889.635	10051
889.759	9998
889.883	10017
890.006	10002
890.13	10109
890.254	9953
890.377	9922
890.501	9842
890.624	9960
890.748	9827
890.871	9766
890.995	9797
891.118	9690
891.241	9747
891.364	9819
891.488	9698
891.611	9785
891.734	9713
891.857	9717
891.98	9747
892.103	9740
892.226	9743
892.349	9660
892.471	9519
892.594	9568
892.717	9572
892.839	9610
892.962	9701
893.085	9686
893.207	9587
893.33	9523
893.452	9526
893.575	9618
893.697	9561
893.819	9637
893.941	9591
894.064	9496
894.186	9389
894.308	9439
894.43	9549
894.552	9629
894.674	9496
894.796	9355
894.918	9344
895.04	9306
895.161	9397
895.283	9367
895.405	9222
895.526	9260
895.648	9268
895.769	9253
895.891	9275
896.012	9298
896.134	9226
896.255	9123
896.376	9085
896.498	9165
896.619	9112
896.74	9039
896.861	9161
896.982	9264
897.103	9340
897.224	9176
897.345	9017
897.466	9013
897.587	9058
897.708	9066
897.828	9062
897.949	9055
898.07	8899
898.19	8982
898.311	8986
898.431	8891
898.552	8895
898.672	8952
898.792	8960
898.913	8925
899.033	8845
899.153	8705
899.273	8712
899.393	8750
899.513	8697
899.633	8716
899.753	8678
899.873	8625
899.993	8724
900.113	8750
900.232	8689
900.352	8701
900.472	8606
900.591	8549
900.711	8629
900.83	8476
900.95	8655
901.069	8667
901.189	8621
901.308	8465
901.427	8446
901.546	8404
901.665	8476
901.784	8434
901.904	8412
902.023	8336
902.141	8214
902.26	8244
902.379	8282
902.498	8229
902.617	8237
902.735	8320
902.854	8267
902.973	8259
903.091	8103
903.21	8123
903.328	8073
903.446	8172
903.565	8107
903.683	8142
903.801	7974
903.919	8126
904.038	8168
904.156	7959
904.274	8073
904.392	8039
904.51	8035
904.627	8016
904.745	8031
904.863	8138
904.981	7944
905.098	7944
905.216	7822
905.334	7928
905.451	7921
905.569	7852
905.686	7940
905.803	7989
905.921	7784
906.038	7803
906.155	7761
906.272	7731
906.389	7651
906.506	7624
906.623	7605
906.74	7597
906.857	7559
906.974	7620
907.091	7636
907.208	7753
907.324	7639
907.441	7521
907.557	7426
907.674	7537
907.79	7358
907.907	7396
908.023	7396
908.139	7403
908.256	7422
908.372	7362
908.488	7327
908.604	7278
908.72	7213
908.836	7301
908.952	7240
909.068	7217
909.184	7335
909.3	7194
909.415	7301
909.531	7285
909.647	7114
909.762	7061
909.878	7129
909.993	7110
910.108	7095
910.224	7137
910.339	7076
910.454	7034
910.57	7034
910.685	6977
910.8	7122
910.915	7133
911.03	7050
911.145	6882
911.259	6821
911.374	6871
911.489	6871
911.604	6844
911.718	6681
911.833	6703
911.947	6700
912.062	6544
912.176	6616
912.291	6734
912.405	6654
912.519	6863
912.633	6825
912.748	6768
912.862	6665
912.976	6642
913.09	6544
913.204	6639
913.318	6639
913.431	6601
913.545	6681
913.659	6715
913.772	6677
913.886	6506
914	6525
914.113	6578
914.226	6631
914.34	6612
914.453	6475
914.566	6544
914.68	6540
914.793	6528
914.906	6353
915.019	6445
915.132	6372
915.245	6372
915.358	6418
915.47	6414
915.583	6460
915.696	6437
915.809	6555
915.921	6582
916.034	6437
916.146	6369
916.259	6369
916.371	6494
916.483	6407
916.595	6380
916.708	6391
916.82	6376
916.932	6391
917.044	6365
917.156	6403
917.268	6331
917.38	6399
917.491	6311
917.603	6357
917.715	6395
917.826	6372
917.938	6254
918.049	6251
918.161	6315
918.272	6395
918.384	6414
918.495	6319
918.606	6296
918.717	6216
918.828	6254
918.939	6331
919.05	6167
919.161	6254
919.272	6057
919.383	6083
919.494	6220
919.604	6403
919.715	6292
919.826	6258
919.936	6243
920.047	6346
920.157	6277
920.267	6460
920.378	6353
920.488	6251
920.598	6422
920.708	6540
920.818	6414
920.928	6426
921.038	6551
921.148	6585
921.258	6380
921.368	6251
921.477	6186
921.587	6152
921.697	6053
921.806	6140
921.916	6045
922.025	5954
922.134	5946
922.244	5912
922.353	6038
922.462	5870
922.571	5794
922.68	5695
922.789	5642
922.898	5733
923.007	5646
923.116	5733
923.224	5649
923.333	5627
923.442	5577
923.55	5592
923.659	5596
923.767	5630
923.876	5532
923.984	5623
924.092	5501
924.201	5570
924.309	5524
924.417	5562
924.525	5509
924.633	5467
924.741	6239
924.849	5360
924.956	5440
925.064	5303
925.172	5303
925.279	5292
925.387	5360
925.494	5284
925.602	5417
925.709	5414
925.816	5269
925.924	5273
926.031	5349
926.138	5269
926.245	5315
926.352	5201
926.459	5284
926.566	5315
926.673	5174
926.779	5178
926.886	5159
926.993	5022
927.099	4980
927.206	4965
927.312	4976
927.419	5045
927.525	4991
927.631	4984
927.737	4877
927.843	4892
927.95	4790
928.056	4881
928.162	4812
928.267	4843
928.373	5261
928.479	4847
928.585	4694
928.69	4782
928.796	4786
928.901	4702
929.007	4573
929.112	4702
929.218	4611
929.323	4588
929.428	4538
929.533	4706
929.638	4489
929.743	4493
929.848	4550
929.953	4500
930.058	4383
930.163	4318
930.267	4344
930.372	4443
930.477	4276
930.581	4447
930.685	4360
930.79	4265
930.894	4337
930.998	4223
931.103	4405
931.207	4150
931.311	4059
931.415	3994
931.519	3968
931.623	3934
