Data from glass_V78500241_2785.txt Node
Date: Wed Sep 01 19:33:48 CST 2021
User: usil
Spectrometer: V785-0024
Trigger mode: 0
Integration Time (sec): 4.000000E-1
Scans to average: 1
Nonlinearity correction enabled: false
Boxcar width: 0
Storing dark spectrum: false
XAxis mode: Wavelengths
Number of Pixels in Spectrum: 1024
>>>>>Begin Spectral Data<<<<<
801.071	3720
801.214	3740
801.356	3701
801.499	3728
801.641	3717
801.783	3679
801.926	3819
802.068	3778
802.211	3865
802.353	3857
802.496	3873
802.638	3888
802.78	3911
802.923	3903
803.065	3880
803.208	3819
803.35	3873
803.492	3899
803.635	3915
803.777	3812
803.919	3911
804.061	4128
804.204	3896
804.346	3941
804.488	3922
804.63	3972
804.773	3930
804.915	4017
805.057	4105
805.199	4025
805.341	4074
805.483	4128
805.626	4090
805.768	4120
805.91	4188
806.052	4162
806.194	4219
806.336	4303
806.478	4234
806.62	4093
806.762	4150
806.904	4204
807.046	4303
807.188	4230
807.33	4150
807.472	4242
807.614	4169
807.756	4246
807.898	4219
808.04	4188
808.182	4257
808.324	4272
808.465	4356
808.607	4443
808.749	4417
808.891	4466
809.033	4443
809.174	4398
809.316	4257
809.458	4276
809.6	4154
809.741	4090
809.883	4135
810.025	4196
810.166	4227
810.308	4173
810.45	4253
810.591	4196
810.733	4257
810.875	4519
811.016	4790
811.158	5128
811.299	5250
811.441	5239
811.582	5079
811.724	4634
811.865	4451
812.007	4451
812.148	4432
812.29	4409
812.431	4402
812.573	4405
812.714	4413
812.855	4386
812.997	4386
813.138	4474
813.279	4405
813.421	4348
813.562	4329
813.703	4310
813.845	4306
813.986	4219
814.127	4223
814.268	4227
814.41	4287
814.551	4249
814.692	4295
814.833	4227
814.974	4291
815.115	4318
815.256	4227
815.397	4177
815.539	4215
815.68	4158
815.821	4192
815.962	4352
816.103	4280
816.244	4234
816.385	4169
816.526	4219
816.666	4181
816.807	4097
816.948	4158
817.089	4185
817.23	4097
817.371	3994
817.512	3991
817.653	4055
817.793	4010
817.934	4006
818.075	4093
818.216	4093
818.356	4040
818.497	3945
818.638	3880
818.778	3884
818.919	3850
819.06	3869
819.2	3930
819.341	3869
819.481	3854
819.622	3934
819.762	4017
819.903	3945
820.043	3831
820.184	3816
820.324	3804
820.465	3835
820.605	3823
820.746	3880
820.886	3797
821.026	3903
821.167	3888
821.307	3941
821.447	3926
821.588	3934
821.728	3945
821.868	3975
822.008	3838
822.149	3896
822.289	3903
822.429	3793
822.569	3755
822.709	3774
822.849	3660
822.99	3709
823.13	3724
823.27	3766
823.41	3701
823.55	3736
823.69	3701
823.83	3751
823.97	3629
824.11	3584
824.25	3576
824.389	3606
824.529	3682
824.669	3633
824.809	3713
824.949	3747
825.089	3732
825.228	3698
825.368	3557
825.508	3557
825.648	3572
825.787	3618
825.927	3614
826.067	3625
826.206	3686
826.346	3751
826.485	3816
826.625	3846
826.765	3975
826.904	3766
827.044	3603
827.183	3492
827.323	3431
827.462	3458
827.601	3412
827.741	3401
827.88	3416
828.02	3336
828.159	3435
828.298	3473
828.437	3542
828.577	3431
828.716	3584
828.855	3466
828.994	3374
829.134	3332
829.273	3367
829.412	3363
829.551	3329
829.69	3355
829.829	3409
829.968	3496
830.107	3428
830.246	3431
830.385	3351
830.524	3344
830.663	3283
830.802	3218
830.941	3203
831.08	3146
831.219	3260
831.357	3260
831.496	3355
831.635	3222
831.774	3161
831.913	3199
832.051	3112
832.19	3131
832.329	3218
832.467	3097
832.606	3097
832.744	3138
832.883	3188
833.022	3214
833.16	3237
833.299	3287
833.437	3302
833.576	3374
833.714	3340
833.852	3405
833.991	3424
834.129	3454
834.267	3397
834.406	3397
834.544	3412
834.682	3416
834.821	3409
834.959	3561
835.097	3378
835.235	3488
835.373	3454
835.511	3458
835.65	3450
835.788	3458
835.926	3378
836.064	3382
836.202	3378
836.34	3610
836.478	3618
836.615	3526
836.753	3580
836.891	3599
837.029	3584
837.167	3545
837.305	3538
837.443	3542
837.58	3496
837.718	3584
837.856	3526
837.993	3500
838.131	3580
838.269	3584
838.406	3549
838.544	3564
838.681	3450
838.819	3443
838.956	3382
839.094	3374
839.231	3450
839.369	3500
839.506	3720
839.643	3633
839.781	3504
839.918	3431
840.055	3557
840.193	3542
840.33	3523
840.467	3553
840.604	3606
840.742	3800
840.879	3492
841.016	3545
841.153	3587
841.29	3709
841.427	3686
841.564	3686
841.701	3736
841.838	3679
841.975	3690
842.112	3713
842.249	3644
842.385	3584
842.522	3823
842.659	3694
842.796	3667
842.933	3682
843.069	3713
843.206	3675
843.343	3774
843.479	3759
843.616	3838
843.752	3648
843.889	3644
844.025	3850
844.162	3720
844.298	3846
844.435	3762
844.571	3774
844.708	3861
844.844	3975
844.98	4013
845.117	3964
845.253	3907
845.389	3899
845.525	3968
845.661	3994
845.798	3915
845.934	3968
846.07	3983
846.206	4055
846.342	4124
846.478	4067
846.614	3937
846.75	3915
846.886	3873
847.022	4013
847.158	3949
847.294	3972
847.429	4017
847.565	3956
847.701	4211
847.837	3873
847.972	3812
848.108	3964
848.244	3987
848.379	3842
848.515	3831
848.65	3778
848.786	3808
848.921	3873
849.057	3934
849.192	3915
849.328	3922
849.463	3911
849.598	3903
849.734	3892
849.869	3827
850.004	3781
850.14	3808
850.275	3743
850.41	3717
850.545	3751
850.68	3705
850.815	3789
850.95	3770
851.085	3907
851.22	3838
851.355	3850
851.49	3781
851.625	3751
851.76	3774
851.895	3747
852.03	3701
852.165	3804
852.299	3781
852.434	3869
852.569	3846
852.703	3865
852.838	3884
852.973	4017
853.107	4006
853.242	3903
853.376	3861
853.511	3709
853.645	3816
853.78	3956
853.914	3869
854.048	3888
854.183	3880
854.317	3934
854.451	4067
854.585	3953
854.72	3918
854.854	4044
854.988	3949
855.122	3972
855.256	3903
855.39	4036
855.524	4109
855.658	4082
855.792	4093
855.926	4101
856.06	4131
856.194	4211
856.327	4112
856.461	4120
856.595	4093
856.729	4162
856.862	4284
856.996	4227
857.13	4257
857.263	4306
857.397	4329
857.53	4276
857.664	4371
857.797	4386
857.931	4409
858.064	4360
858.197	4417
858.331	4394
858.464	4383
858.597	4299
858.731	4405
858.864	4459
858.997	4432
859.13	4542
859.263	4497
859.396	4565
859.529	4519
859.662	4497
859.795	4512
859.928	4573
860.061	4706
860.194	4706
860.327	4664
860.46	4622
860.592	4714
860.725	4740
860.858	4782
860.99	4698
861.123	4672
861.256	4660
861.388	4771
861.521	5288
861.653	4748
861.786	4683
861.918	4706
862.05	4793
862.183	4843
862.315	4927
862.447	4949
862.58	4854
862.712	4744
862.844	4793
862.976	4805
863.108	4862
863.24	5136
863.372	4866
863.504	4881
863.636	4870
863.768	4953
863.9	4972
864.032	4957
864.164	4972
864.296	5018
864.428	5060
864.559	5052
864.691	5117
864.823	5098
864.954	5098
865.086	5143
865.217	5094
865.349	5083
865.48	5143
865.612	5185
865.743	5242
865.875	5201
866.006	5185
866.137	5197
866.269	5284
866.4	5239
866.531	5201
866.662	5231
866.793	5265
866.924	5265
867.055	5353
867.186	5315
867.317	5307
867.448	5303
867.579	5360
867.71	5372
867.841	5376
867.972	5433
868.103	5410
868.233	5471
868.364	5505
868.495	5497
868.625	5646
868.756	5847
868.886	5604
869.017	5695
869.147	5802
869.278	5889
869.408	5786
869.539	5802
869.669	5897
869.799	5855
869.929	5988
870.06	6015
870.19	6201
870.32	6129
870.45	6220
870.58	6338
870.71	6353
870.84	6448
870.97	6395
871.1	6407
871.23	6635
871.36	6662
871.489	6642
871.619	6734
871.749	6757
871.879	6814
872.008	6973
872.138	6951
872.267	6947
872.397	6970
872.526	7050
872.656	7080
872.785	7168
872.915	7324
873.044	7453
873.173	7548
873.303	7563
873.432	7750
873.561	7883
873.69	7928
873.819	7989
873.948	8103
874.077	8244
874.206	8332
874.335	8381
874.464	8648
874.593	8800
874.722	8975
874.851	9097
874.979	9154
875.108	9477
875.237	9435
875.365	9416
875.494	9641
875.623	9838
875.751	9812
875.88	9972
876.008	10154
876.136	10257
876.265	10546
876.393	10615
876.521	10679
876.65	10843
876.778	10869
876.906	10892
877.034	10984
877.162	11170
877.29	11151
877.418	11261
877.546	11303
877.674	11417
877.802	11414
877.93	11425
878.058	11558
878.185	11585
878.313	11570
878.441	11783
878.568	11672
878.696	11817
878.824	11805
878.951	11927
879.079	12064
879.206	12076
879.333	12011
879.461	11977
879.588	12095
879.715	12106
879.842	12262
879.97	12102
880.097	11832
880.224	11824
880.351	11904
880.478	11817
880.605	11828
880.732	11790
880.859	11977
880.986	11851
881.112	11904
881.239	11714
881.366	11737
881.493	11562
881.619	11535
881.746	11581
881.872	11524
881.999	11516
882.125	11459
882.252	11619
882.378	11398
882.505	11646
882.631	11425
882.757	11326
882.883	11208
883.01	11254
883.136	11086
883.262	11124
883.388	11086
883.514	11216
883.64	11189
883.766	11132
883.892	11041
884.018	11037
884.143	10991
884.269	11060
884.395	10824
884.52	10748
884.646	10752
884.772	10774
884.897	10641
885.023	10656
885.148	10729
885.274	10729
885.399	10683
885.524	10577
885.65	10596
885.775	10531
885.9	10538
886.025	10573
886.15	10577
886.275	10409
886.4	10409
886.525	10295
886.65	10455
886.775	10371
886.9	10371
887.025	10531
887.149	10363
887.274	10188
887.399	10215
887.523	10185
887.648	10162
887.773	10078
887.897	10238
888.021	10158
888.146	10097
888.27	10166
888.395	10207
888.519	10242
888.643	10177
888.767	10200
888.891	10044
889.015	9972
889.139	10048
889.263	9937
889.387	10040
889.511	10120
889.635	10059
889.759	9953
889.883	9968
890.006	9930
890.13	10078
890.254	9987
890.377	9922
890.501	9835
890.624	9857
890.748	9895
890.871	9827
890.995	9743
891.118	9671
891.241	9785
891.364	9713
891.488	9827
891.611	9671
891.734	9701
891.857	9705
891.98	9720
892.103	9736
892.226	9728
892.349	9656
892.471	9519
892.594	9641
892.717	9603
892.839	9538
892.962	9648
893.085	9641
893.207	9523
893.33	9599
893.452	9526
893.575	9568
893.697	9519
893.819	9667
893.941	9671
894.064	9675
894.186	9397
894.308	9397
894.43	9568
894.552	9610
894.674	9458
894.796	9367
894.918	9428
895.04	9287
895.161	9291
895.283	9287
895.405	9245
895.526	9233
895.648	9165
895.769	9260
895.891	9253
896.012	9214
896.134	9207
896.255	9154
896.376	9112
896.498	9100
896.619	9074
896.74	9097
896.861	9116
896.982	9222
897.103	9264
897.224	9165
897.345	9043
897.466	8944
897.587	9070
897.708	9100
897.828	9024
897.949	8876
898.07	8921
898.19	8921
898.311	8967
898.431	8876
898.552	8960
898.672	8918
898.792	8971
898.913	8864
899.033	8823
899.153	8754
899.273	8575
899.393	8682
899.513	8773
899.633	8712
899.753	8739
899.873	8625
899.993	8720
900.113	8720
900.232	8720
900.352	8629
900.472	8670
900.591	8526
900.711	8583
900.83	8511
900.95	8659
901.069	8670
901.189	8564
901.308	8431
901.427	8385
901.546	8370
901.665	8446
901.784	8446
901.904	8389
902.023	8332
902.141	8225
902.26	8180
902.379	8275
902.498	8214
902.617	8191
902.735	8267
902.854	8328
902.973	8225
903.091	8092
903.21	8088
903.328	8100
903.446	8130
903.565	8062
903.683	8043
903.801	8065
903.919	8153
904.038	8164
904.156	7955
904.274	8054
904.392	8027
904.51	8008
904.627	8119
904.745	8111
904.863	8073
904.981	7906
905.098	7845
905.216	7875
905.334	7925
905.451	7837
905.569	7864
905.686	7928
905.803	7921
905.921	7807
906.038	7833
906.155	7818
906.272	7723
906.389	7700
906.506	7674
906.623	7613
906.74	7559
906.857	7476
906.974	7540
907.091	7632
907.208	7715
907.324	7605
907.441	7582
907.557	7434
907.674	7388
907.79	7426
907.907	7392
908.023	7434
908.139	7407
908.256	7365
908.372	7384
908.488	7327
908.604	7244
908.72	7225
908.836	7247
908.952	7206
909.068	7244
909.184	7266
909.3	7255
909.415	7270
909.531	7236
909.647	7099
909.762	7122
909.878	7107
909.993	7038
910.108	7095
910.224	7023
910.339	7050
910.454	6993
910.57	6947
910.685	6901
910.8	7168
910.915	7042
911.03	7057
911.145	6875
911.259	6875
911.374	6909
911.489	6856
911.604	6795
911.718	6741
911.833	6745
911.947	6650
912.062	6646
912.176	6768
912.291	6703
912.405	6700
912.519	6795
912.633	6787
912.748	6711
912.862	6719
912.976	6585
913.09	6566
913.204	6593
913.318	6578
913.431	6631
913.545	6604
913.659	6726
913.772	6589
913.886	6585
914	6486
914.113	6547
914.226	6566
914.34	6585
914.453	6490
914.566	6566
914.68	6521
914.793	6490
914.906	6350
915.019	6350
915.132	6350
915.245	6372
915.358	6483
915.47	6429
915.583	6452
915.696	6445
915.809	6528
915.921	6456
916.034	6452
916.146	6422
916.259	6410
916.371	6475
916.483	6410
916.595	6384
916.708	6372
916.82	6429
916.932	6327
917.044	6346
917.156	6361
917.268	6281
917.38	6338
917.491	6304
917.603	6319
917.715	6380
917.826	6380
917.938	6304
918.049	6213
918.161	6273
918.272	6372
918.384	6365
918.495	6319
918.606	6224
918.717	6201
918.828	6296
918.939	6247
919.05	6232
919.161	6239
919.272	6136
919.383	6121
919.494	6258
919.604	6388
919.715	6235
919.826	6216
919.936	6281
920.047	6311
920.157	6224
920.267	6441
920.378	6323
920.488	6304
920.598	6479
920.708	6532
920.818	6380
920.928	6467
921.038	6582
921.148	6582
921.258	6319
921.368	6315
921.477	6213
921.587	6159
921.697	6053
921.806	6136
921.916	6057
922.025	5965
922.134	5901
922.244	5874
922.353	5942
922.462	5840
922.571	5745
922.68	5688
922.789	5718
922.898	5657
923.007	5596
923.116	5630
923.224	5653
923.333	5680
923.442	5562
923.55	5566
923.659	5562
923.767	5604
923.876	5596
923.984	5608
924.092	5474
924.201	5539
924.309	5497
924.417	5585
924.525	5471
924.633	5493
924.741	6197
924.849	5353
924.956	5512
925.064	5326
925.172	5296
925.279	5277
925.387	5322
925.494	5311
925.602	5372
925.709	5376
925.816	5242
925.924	5318
926.031	5330
926.138	5296
926.245	5326
926.352	5227
926.459	5292
926.566	5322
926.673	5235
926.779	5143
926.886	5083
926.993	5079
927.099	5018
927.206	4957
927.312	4949
927.419	5022
927.525	4995
927.631	5003
927.737	4908
927.843	4839
927.95	4790
928.056	4797
928.162	4870
928.267	4862
928.373	5288
928.479	4835
928.585	4664
928.69	4740
928.796	4759
928.901	4694
929.007	4561
929.112	4683
929.218	4622
929.323	4599
929.428	4531
929.533	4679
929.638	4489
929.743	4531
929.848	4527
929.953	4474
930.058	4443
930.163	4295
930.267	4360
930.372	4386
930.477	4242
930.581	4421
930.685	4352
930.79	4272
930.894	4276
930.998	4268
931.103	4360
931.207	4093
931.311	4067
931.415	3972
931.519	3964
931.623	3956
