Data from glass_V78500241_253.txt Node
Date: Wed Sep 01 19:16:15 CST 2021
User: usil
Spectrometer: V785-0024
Trigger mode: 0
Integration Time (sec): 4.000000E-1
Scans to average: 1
Nonlinearity correction enabled: false
Boxcar width: 0
Storing dark spectrum: false
XAxis mode: Wavelengths
Number of Pixels in Spectrum: 1024
>>>>>Begin Spectral Data<<<<<
801.071	3717
801.214	3781
801.356	3740
801.499	3740
801.641	3720
801.783	3759
801.926	3854
802.068	3842
802.211	3869
802.353	3884
802.496	3831
802.638	3850
802.78	3941
802.923	3941
803.065	3922
803.208	3876
803.35	3873
803.492	3918
803.635	3899
803.777	3819
803.919	3926
804.061	4154
804.204	3975
804.346	3987
804.488	3899
804.63	4063
804.773	4006
804.915	4029
805.057	4158
805.199	4063
805.341	4131
805.483	4158
805.626	4150
805.768	4109
805.91	4238
806.052	4223
806.194	4200
806.336	4379
806.478	4272
806.62	4177
806.762	4196
806.904	4230
807.046	4299
807.188	4223
807.33	4200
807.472	4265
807.614	4238
807.756	4280
807.898	4211
808.04	4234
808.182	4303
808.324	4310
808.465	4398
808.607	4497
808.749	4474
808.891	4455
809.033	4474
809.174	4440
809.316	4234
809.458	4230
809.6	4173
809.741	4173
809.883	4173
810.025	4223
810.166	4249
810.308	4204
810.45	4230
810.591	4215
810.733	4287
810.875	4512
811.016	4824
811.158	5128
811.299	5277
811.441	5341
811.582	5067
811.724	4767
811.865	4535
812.007	4485
812.148	4443
812.29	4436
812.431	4417
812.573	4447
812.714	4360
812.855	4428
812.997	4470
813.138	4519
813.279	4405
813.421	4413
813.562	4424
813.703	4375
813.845	4360
813.986	4287
814.127	4223
814.268	4276
814.41	4303
814.551	4249
814.692	4325
814.833	4314
814.974	4322
815.115	4386
815.256	4303
815.397	4234
815.539	4287
815.68	4242
815.821	4219
815.962	4341
816.103	4303
816.244	4272
816.385	4234
816.526	4318
816.666	4234
816.807	4105
816.948	4177
817.089	4173
817.23	4139
817.371	4063
817.512	4044
817.653	4101
817.793	4025
817.934	4013
818.075	4078
818.216	4116
818.356	4097
818.497	4013
818.638	3911
818.778	3896
818.919	3880
819.06	3838
819.2	3960
819.341	3857
819.481	3850
819.622	3911
819.762	4044
819.903	3964
820.043	3949
820.184	3869
820.324	3823
820.465	3907
820.605	3876
820.746	3903
820.886	3816
821.026	3915
821.167	3922
821.307	4025
821.447	4017
821.588	3968
821.728	3987
821.868	3968
822.008	3918
822.149	3934
822.289	3991
822.429	3823
822.569	3793
822.709	3842
822.849	3705
822.99	3732
823.13	3762
823.27	3789
823.41	3709
823.55	3770
823.69	3686
823.83	3781
823.97	3720
824.11	3622
824.25	3610
824.389	3629
824.529	3648
824.669	3644
824.809	3762
824.949	3698
825.089	3759
825.228	3713
825.368	3625
825.508	3568
825.648	3633
825.787	3625
825.927	3656
826.067	3637
826.206	3675
826.346	3808
826.485	3850
826.625	3873
826.765	3953
826.904	3819
827.044	3606
827.183	3549
827.323	3454
827.462	3507
827.601	3450
827.741	3481
827.88	3469
828.02	3409
828.159	3435
828.298	3530
828.437	3545
828.577	3466
828.716	3618
828.855	3507
828.994	3409
829.134	3378
829.273	3344
829.412	3367
829.551	3363
829.69	3355
829.829	3450
829.968	3534
830.107	3447
830.246	3477
830.385	3416
830.524	3420
830.663	3298
830.802	3260
830.941	3253
831.08	3214
831.219	3245
831.357	3253
831.496	3420
831.635	3241
831.774	3214
831.913	3226
832.051	3135
832.19	3150
832.329	3211
832.467	3138
832.606	3112
832.744	3169
832.883	3203
833.022	3199
833.16	3287
833.299	3302
833.437	3332
833.576	3382
833.714	3386
833.852	3435
833.991	3500
834.129	3500
834.267	3454
834.406	3416
834.544	3439
834.682	3439
834.821	3420
834.959	3591
835.097	3454
835.235	3553
835.373	3545
835.511	3530
835.65	3458
835.788	3492
835.926	3351
836.064	3389
836.202	3420
836.34	3576
836.478	3629
836.615	3538
836.753	3660
836.891	3656
837.029	3618
837.167	3591
837.305	3587
837.443	3564
837.58	3545
837.718	3603
837.856	3606
837.993	3610
838.131	3606
838.269	3625
838.406	3614
838.544	3561
838.681	3469
838.819	3477
838.956	3382
839.094	3409
839.231	3462
839.369	3515
839.506	3800
839.643	3648
839.781	3526
839.918	3530
840.055	3584
840.193	3557
840.33	3553
840.467	3580
840.604	3625
840.742	3823
840.879	3557
841.016	3557
841.153	3572
841.29	3804
841.427	3751
841.564	3713
841.701	3751
841.838	3701
841.975	3652
842.112	3720
842.249	3675
842.385	3603
842.522	3823
842.659	3728
842.796	3709
842.933	3770
843.069	3690
843.206	3724
843.343	3819
843.479	3766
843.616	3865
843.752	3682
843.889	3694
844.025	3850
844.162	3724
844.298	3865
844.435	3819
844.571	3778
844.708	3903
844.844	4048
844.98	4017
845.117	3991
845.253	3937
845.389	3934
845.525	3949
845.661	4029
845.798	3956
845.934	4036
846.07	4010
846.206	4059
846.342	4131
846.478	4093
846.614	3987
846.75	3937
846.886	3892
847.022	4055
847.158	4032
847.294	4040
847.429	4036
847.565	4074
847.701	4272
847.837	3915
847.972	3854
848.108	4002
848.244	3960
848.379	3869
848.515	3850
848.65	3793
848.786	3835
848.921	3857
849.057	3998
849.192	3979
849.328	3945
849.463	3918
849.598	3892
849.734	3876
849.869	3831
850.004	3842
850.14	3842
850.275	3827
850.41	3778
850.545	3785
850.68	3728
850.815	3797
850.95	3816
851.085	3960
851.22	3865
851.355	3865
851.49	3789
851.625	3850
851.76	3812
851.895	3740
852.03	3755
852.165	3842
852.299	3854
852.434	3922
852.569	3850
852.703	3922
852.838	3934
852.973	4036
853.107	3998
853.242	3896
853.376	3854
853.511	3751
853.645	3838
853.78	3983
853.914	3926
854.048	3934
854.183	3896
854.317	3945
854.451	4074
854.585	3979
854.72	3945
854.854	4112
854.988	3960
855.122	4013
855.256	3922
855.39	3994
855.524	4139
855.658	4147
855.792	4086
855.926	4196
856.06	4211
856.194	4227
856.327	4196
856.461	4162
856.595	4188
856.729	4192
856.862	4295
856.996	4284
857.13	4333
857.263	4363
857.397	4329
857.53	4295
857.664	4386
857.797	4405
857.931	4436
858.064	4424
858.197	4462
858.331	4451
858.464	4405
858.597	4329
858.731	4485
858.864	4443
858.997	4481
859.13	4554
859.263	4554
859.396	4622
859.529	4565
859.662	4554
859.795	4512
859.928	4611
860.061	4691
860.194	4763
860.327	4618
860.46	4668
860.592	4733
860.725	4771
860.858	4790
860.99	4767
861.123	4672
861.256	4740
861.388	4752
861.521	5311
861.653	4725
861.786	4683
861.918	4748
862.05	4797
862.183	4877
862.315	4870
862.447	4908
862.58	4900
862.712	4805
862.844	4736
862.976	4850
863.108	4892
863.24	5239
863.372	4831
863.504	4900
863.636	4858
863.768	4984
863.9	5018
864.032	4965
864.164	4904
864.296	5041
864.428	5124
864.559	5102
864.691	5140
864.823	5170
864.954	5098
865.086	5162
865.217	5143
865.349	5117
865.48	5201
865.612	5246
865.743	5292
865.875	5197
866.006	5220
866.137	5284
866.269	5227
866.4	5254
866.531	5273
866.662	5239
866.793	5326
866.924	5303
867.055	5379
867.186	5406
867.317	5383
867.448	5341
867.579	5414
867.71	5345
867.841	5395
867.972	5436
868.103	5486
868.233	5490
868.364	5516
868.495	5551
868.625	5653
868.756	5866
868.886	5714
869.017	5783
869.147	5832
869.278	5847
869.408	5855
869.539	5885
869.669	5927
869.799	5965
869.929	5973
870.06	6011
870.19	6190
870.32	6224
870.45	6289
870.58	6346
870.71	6426
870.84	6517
870.97	6456
871.1	6448
871.23	6696
871.36	6681
871.489	6631
871.619	6753
871.749	6787
871.879	6844
872.008	6981
872.138	7031
872.267	6985
872.397	7034
872.526	7076
872.656	7084
872.785	7236
872.915	7411
873.044	7616
873.173	7559
873.303	7674
873.432	7871
873.561	7890
873.69	7887
873.819	7978
873.948	8221
874.077	8225
874.206	8374
874.335	8446
874.464	8686
874.593	8876
874.722	8937
874.851	9157
874.979	9275
875.108	9401
875.237	9408
875.365	9492
875.494	9622
875.623	9861
875.751	9873
875.88	10044
876.008	10143
876.136	10291
876.265	10561
876.393	10664
876.521	10767
876.65	10805
876.778	10877
876.906	10862
877.034	11010
877.162	11166
877.29	11132
877.418	11280
877.546	11353
877.674	11410
877.802	11535
877.93	11627
878.058	11566
878.185	11501
878.313	11630
878.441	11786
878.568	11657
878.696	11863
878.824	11840
878.951	11965
879.079	12057
879.206	12163
879.333	12159
879.461	12022
879.588	11999
879.715	12095
879.842	12186
879.97	12030
880.097	11992
880.224	11927
880.351	11870
880.478	11927
880.605	11798
880.732	11771
880.859	12041
880.986	11790
881.112	11870
881.239	11764
881.366	11668
881.493	11668
881.619	11562
881.746	11539
881.872	11493
881.999	11551
882.125	11414
882.252	11566
882.378	11512
882.505	11532
882.631	11433
882.757	11322
882.883	11368
883.01	11239
883.136	11121
883.262	11124
883.388	11117
883.514	11197
883.64	11151
883.766	11113
883.892	11045
884.018	11071
884.143	11029
884.269	11098
884.395	10771
884.52	10793
884.646	10778
884.772	10725
884.897	10618
885.023	10767
885.148	10710
885.274	10805
885.399	10744
885.524	10573
885.65	10660
885.775	10527
885.9	10599
886.025	10626
886.15	10615
886.275	10451
886.4	10367
886.525	10409
886.65	10375
886.775	10337
886.9	10489
887.025	10577
887.149	10398
887.274	10223
887.399	10196
887.523	10227
887.648	10093
887.773	10082
887.897	10249
888.021	10242
888.146	10158
888.27	10207
888.395	10112
888.519	10200
888.643	10135
888.767	10162
888.891	10154
889.015	10036
889.139	10036
889.263	9945
889.387	10097
889.511	10196
889.635	10013
889.759	10010
889.883	9994
890.006	9937
890.13	10150
890.254	9915
890.377	9979
890.501	9857
890.624	9831
890.748	9941
890.871	9743
890.995	9759
891.118	9663
891.241	9774
891.364	9724
891.488	9915
891.611	9774
891.734	9667
891.857	9717
891.98	9698
892.103	9838
892.226	9770
892.349	9656
892.471	9561
892.594	9549
892.717	9648
892.839	9584
892.962	9576
893.085	9610
893.207	9606
893.33	9564
893.452	9500
893.575	9599
893.697	9526
893.819	9591
893.941	9660
894.064	9549
894.186	9469
894.308	9439
894.43	9530
894.552	9648
894.674	9561
894.796	9359
894.918	9412
895.04	9268
895.161	9443
895.283	9359
895.405	9291
895.526	9192
895.648	9245
895.769	9253
895.891	9256
896.012	9298
896.134	9253
896.255	9180
896.376	9161
896.498	9108
896.619	9146
896.74	9081
896.861	9161
896.982	9241
897.103	9313
897.224	9253
897.345	9089
897.466	9005
897.587	9062
897.708	9077
897.828	9039
897.949	9028
898.07	8842
898.19	8914
898.311	9058
898.431	8921
898.552	8830
898.672	8986
898.792	9001
898.913	8941
899.033	8804
899.153	8735
899.273	8651
899.393	8750
899.513	8686
899.633	8731
899.753	8701
899.873	8674
899.993	8754
900.113	8705
900.232	8746
900.352	8689
900.472	8674
900.591	8598
900.711	8644
900.83	8575
900.95	8648
901.069	8739
901.189	8480
901.308	8454
901.427	8454
901.546	8423
901.665	8495
901.784	8514
901.904	8454
902.023	8385
902.141	8259
902.26	8187
902.379	8225
902.498	8225
902.617	8187
902.735	8317
902.854	8298
902.973	8301
903.091	8161
903.21	8103
903.328	8176
903.446	8164
903.565	8084
903.683	8069
903.801	8126
903.919	8088
904.038	8046
904.156	8096
904.274	8176
904.392	7989
904.51	8084
904.627	8062
904.745	8043
904.863	8115
904.981	7902
905.098	7864
905.216	7913
905.334	7932
905.451	7944
905.569	7864
905.686	7944
905.803	7875
905.921	7761
906.038	7890
906.155	7814
906.272	7708
906.389	7704
906.506	7655
906.623	7639
906.74	7624
906.857	7559
906.974	7575
907.091	7677
907.208	7723
907.324	7590
907.441	7563
907.557	7445
907.674	7502
907.79	7415
907.907	7453
908.023	7441
908.139	7495
908.256	7419
908.372	7422
908.488	7320
908.604	7236
908.72	7228
908.836	7259
908.952	7232
909.068	7293
909.184	7297
909.3	7244
909.415	7301
909.531	7320
909.647	7160
909.762	7099
909.878	7107
909.993	7126
910.108	7076
910.224	7080
910.339	7156
910.454	6989
910.57	7061
910.685	6989
910.8	7183
910.915	7126
911.03	7031
911.145	6947
911.259	6913
911.374	6890
911.489	6894
911.604	6859
911.718	6768
911.833	6726
911.947	6726
912.062	6662
912.176	6745
912.291	6753
912.405	6753
912.519	6871
912.633	6856
912.748	6726
912.862	6711
912.976	6635
913.09	6570
913.204	6585
913.318	6555
913.431	6696
913.545	6620
913.659	6741
913.772	6639
913.886	6593
914	6570
914.113	6635
914.226	6669
914.34	6604
914.453	6498
914.566	6620
914.68	6563
914.793	6479
914.906	6388
915.019	6426
915.132	6399
915.245	6456
915.358	6475
915.47	6342
915.583	6490
915.696	6460
915.809	6574
915.921	6528
916.034	6448
916.146	6513
916.259	6403
916.371	6448
916.483	6475
916.595	6433
916.708	6380
916.82	6441
916.932	6445
917.044	6422
917.156	6407
917.268	6338
917.38	6315
917.491	6323
917.603	6407
917.715	6418
917.826	6452
917.938	6327
918.049	6262
918.161	6331
918.272	6388
918.384	6479
918.495	6342
918.606	6277
918.717	6194
918.828	6338
918.939	6319
919.05	6232
919.161	6254
919.272	6125
919.383	6251
919.494	6232
919.604	6399
919.715	6281
919.826	6247
919.936	6323
920.047	6372
920.157	6270
920.267	6464
920.378	6376
920.488	6296
920.598	6494
920.708	6593
920.818	6460
920.928	6483
921.038	6597
921.148	6620
921.258	6388
921.368	6300
921.477	6243
921.587	6102
921.697	6102
921.806	6194
921.916	6068
922.025	5942
922.134	5885
922.244	5893
922.353	5939
922.462	5832
922.571	5817
922.68	5771
922.789	5680
922.898	5726
923.007	5619
923.116	5752
923.224	5657
923.333	5699
923.442	5600
923.55	5562
923.659	5577
923.767	5630
923.876	5596
923.984	5608
924.092	5493
924.201	5501
924.309	5570
924.417	5657
924.525	5539
924.633	5486
924.741	6338
924.849	5379
924.956	5452
925.064	5311
925.172	5273
925.279	5406
925.387	5345
925.494	5303
925.602	5425
925.709	5406
925.816	5288
925.924	5349
926.031	5387
926.138	5269
926.245	5353
926.352	5231
926.459	5288
926.566	5307
926.673	5220
926.779	5178
926.886	5117
926.993	5067
927.099	4976
927.206	5029
927.312	4953
927.419	5037
927.525	5014
927.631	4991
927.737	4934
927.843	4892
927.95	4809
928.056	4824
928.162	4835
928.267	4835
928.373	5242
928.479	4870
928.585	4691
928.69	4797
928.796	4759
928.901	4725
929.007	4550
929.112	4653
929.218	4660
929.323	4615
929.428	4573
929.533	4622
929.638	4565
929.743	4573
929.848	4618
929.953	4531
930.058	4459
930.163	4344
930.267	4329
930.372	4478
930.477	4325
930.581	4523
930.685	4379
930.79	4295
930.894	4280
930.998	4246
931.103	4421
931.207	4124
931.311	4112
931.415	4036
931.519	3915
931.623	3991
