Data from glass_V78500241_2199.txt Node
Date: Wed Sep 01 19:29:44 CST 2021
User: usil
Spectrometer: V785-0024
Trigger mode: 0
Integration Time (sec): 4.000000E-1
Scans to average: 1
Nonlinearity correction enabled: false
Boxcar width: 0
Storing dark spectrum: false
XAxis mode: Wavelengths
Number of Pixels in Spectrum: 1024
>>>>>Begin Spectral Data<<<<<
801.071	3732
801.214	3751
801.356	3663
801.499	3751
801.641	3705
801.783	3766
801.926	3873
802.068	3854
802.211	3865
802.353	3896
802.496	3831
802.638	3861
802.78	3903
802.923	3941
803.065	3842
803.208	3842
803.35	3835
803.492	3915
803.635	3896
803.777	3793
803.919	3899
804.061	4124
804.204	3968
804.346	3941
804.488	3892
804.63	4059
804.773	3972
804.915	4013
805.057	4120
805.199	4059
805.341	4048
805.483	4177
805.626	4139
805.768	4116
805.91	4230
806.052	4299
806.194	4230
806.336	4375
806.478	4223
806.62	4166
806.762	4211
806.904	4242
807.046	4299
807.188	4211
807.33	4185
807.472	4188
807.614	4192
807.756	4261
807.898	4192
808.04	4211
808.182	4261
808.324	4314
808.465	4379
808.607	4459
808.749	4424
808.891	4504
809.033	4440
809.174	4386
809.316	4272
809.458	4219
809.6	4105
809.741	4131
809.883	4116
810.025	4200
810.166	4200
810.308	4158
810.45	4246
810.591	4219
810.733	4261
810.875	4470
811.016	4858
811.158	5105
811.299	5193
811.441	5273
811.582	5033
811.724	4721
811.865	4459
812.007	4466
812.148	4424
812.29	4443
812.431	4363
812.573	4394
812.714	4363
812.855	4409
812.997	4352
813.138	4497
813.279	4455
813.421	4367
813.562	4363
813.703	4322
813.845	4363
813.986	4268
814.127	4249
814.268	4272
814.41	4287
814.551	4280
814.692	4318
814.833	4230
814.974	4322
815.115	4352
815.256	4242
815.397	4230
815.539	4253
815.68	4143
815.821	4181
815.962	4314
816.103	4287
816.244	4242
816.385	4204
816.526	4268
816.666	4227
816.807	4082
816.948	4150
817.089	4147
817.23	4090
817.371	4067
817.512	4013
817.653	4067
817.793	3991
817.934	4029
818.075	4116
818.216	4063
818.356	4090
818.497	3998
818.638	3922
818.778	3896
818.919	3926
819.06	3804
819.2	3903
819.341	3850
819.481	3804
819.622	3899
819.762	4017
819.903	3949
820.043	3896
820.184	3842
820.324	3831
820.465	3850
820.605	3823
820.746	3804
820.886	3816
821.026	3918
821.167	3922
821.307	3953
821.447	3983
821.588	3903
821.728	3949
821.868	3964
822.008	3876
822.149	3953
822.289	3918
822.429	3766
822.569	3751
822.709	3751
822.849	3671
822.99	3736
823.13	3770
823.27	3789
823.41	3717
823.55	3701
823.69	3709
823.83	3736
823.97	3720
824.11	3580
824.25	3614
824.389	3618
824.529	3682
824.669	3625
824.809	3682
824.949	3755
825.089	3736
825.228	3679
825.368	3580
825.508	3549
825.648	3561
825.787	3587
825.927	3644
826.067	3629
826.206	3675
826.346	3804
826.485	3808
826.625	3831
826.765	3930
826.904	3804
827.044	3618
827.183	3530
827.323	3409
827.462	3481
827.601	3447
827.741	3443
827.88	3424
828.02	3351
828.159	3458
828.298	3469
828.437	3500
828.577	3473
828.716	3549
828.855	3500
828.994	3367
829.134	3351
829.273	3374
829.412	3374
829.551	3340
829.69	3348
829.829	3397
829.968	3523
830.107	3420
830.246	3412
830.385	3409
830.524	3370
830.663	3256
830.802	3237
830.941	3211
831.08	3203
831.219	3272
831.357	3222
831.496	3393
831.635	3222
831.774	3173
831.913	3161
832.051	3146
832.19	3138
832.329	3199
832.467	3150
832.606	3077
832.744	3161
832.883	3176
833.022	3157
833.16	3275
833.299	3249
833.437	3329
833.576	3348
833.714	3382
833.852	3431
833.991	3462
834.129	3454
834.267	3420
834.406	3416
834.544	3431
834.682	3363
834.821	3420
834.959	3580
835.097	3389
835.235	3523
835.373	3523
835.511	3481
835.65	3481
835.788	3469
835.926	3351
836.064	3386
836.202	3367
836.34	3545
836.478	3599
836.615	3534
836.753	3580
836.891	3625
837.029	3633
837.167	3595
837.305	3496
837.443	3526
837.58	3481
837.718	3584
837.856	3549
837.993	3507
838.131	3572
838.269	3580
838.406	3603
838.544	3576
838.681	3466
838.819	3439
838.956	3363
839.094	3378
839.231	3443
839.369	3511
839.506	3724
839.643	3618
839.781	3492
839.918	3477
840.055	3519
840.193	3492
840.33	3526
840.467	3557
840.604	3633
840.742	3762
840.879	3523
841.016	3564
841.153	3572
841.29	3755
841.427	3717
841.564	3728
841.701	3740
841.838	3705
841.975	3667
842.112	3732
842.249	3641
842.385	3625
842.522	3797
842.659	3629
842.796	3698
842.933	3698
843.069	3740
843.206	3698
843.343	3800
843.479	3770
843.616	3781
843.752	3682
843.889	3720
844.025	3827
844.162	3717
844.298	3835
844.435	3800
844.571	3823
844.708	3949
844.844	3956
844.98	4025
845.117	4002
845.253	3934
845.389	3892
845.525	3987
845.661	3953
845.798	3915
845.934	3983
846.07	3949
846.206	4013
846.342	4097
846.478	4048
846.614	3956
846.75	3876
846.886	3915
847.022	4002
847.158	3968
847.294	3941
847.429	4032
847.565	3987
847.701	4318
847.837	3896
847.972	3854
848.108	4017
848.244	3994
848.379	3888
848.515	3808
848.65	3781
848.786	3850
848.921	3816
849.057	3915
849.192	3941
849.328	3896
849.463	3949
849.598	3854
849.734	3846
849.869	3846
850.004	3800
850.14	3854
850.275	3740
850.41	3717
850.545	3778
850.68	3816
850.815	3797
850.95	3797
851.085	3926
851.22	3850
851.355	3819
851.49	3762
851.625	3804
851.76	3781
851.895	3713
852.03	3743
852.165	3819
852.299	3846
852.434	3907
852.569	3896
852.703	3873
852.838	3888
852.973	4029
853.107	3911
853.242	3880
853.376	3823
853.511	3774
853.645	3861
853.78	3991
853.914	3918
854.048	3907
854.183	3861
854.317	3964
854.451	4086
854.585	3945
854.72	3949
854.854	4006
854.988	3922
855.122	4025
855.256	3907
855.39	4040
855.524	4090
855.658	4090
855.792	4116
855.926	4109
856.06	4143
856.194	4162
856.327	4112
856.461	4105
856.595	4166
856.729	4192
856.862	4246
856.996	4246
857.13	4272
857.263	4303
857.397	4363
857.53	4284
857.664	4329
857.797	4367
857.931	4402
858.064	4367
858.197	4451
858.331	4386
858.464	4356
858.597	4386
858.731	4417
858.864	4500
858.997	4455
859.13	4508
859.263	4512
859.396	4569
859.529	4546
859.662	4512
859.795	4500
859.928	4596
860.061	4687
860.194	4782
860.327	4637
860.46	4649
860.592	4729
860.725	4763
860.858	4748
860.99	4687
861.123	4664
861.256	4645
861.388	4752
861.521	5459
861.653	4721
861.786	4706
861.918	4782
862.05	4790
862.183	4809
862.315	4892
862.447	4934
862.58	4839
862.712	4752
862.844	4755
862.976	4843
863.108	4885
863.24	5132
863.372	4812
863.504	4904
863.636	4854
863.768	4957
863.9	4881
864.032	4930
864.164	4923
864.296	5003
864.428	5045
864.559	5098
864.691	5124
864.823	5136
864.954	5143
865.086	5181
865.217	5136
865.349	5067
865.48	5151
865.612	5201
865.743	5261
865.875	5246
866.006	5201
866.137	5254
866.269	5265
866.4	5212
866.531	5235
866.662	5181
866.793	5269
866.924	5296
867.055	5318
867.186	5284
867.317	5318
867.448	5269
867.579	5349
867.71	5341
867.841	5383
867.972	5455
868.103	5444
868.233	5478
868.364	5471
868.495	5543
868.625	5630
868.756	5729
868.886	5592
869.017	5672
869.147	5809
869.278	5828
869.408	5813
869.539	5840
869.669	5927
869.799	5927
869.929	5984
870.06	6022
870.19	6194
870.32	6213
870.45	6327
870.58	6308
870.71	6380
870.84	6486
870.97	6380
871.1	6441
871.23	6646
871.36	6677
871.489	6688
871.619	6783
871.749	6802
871.879	6886
872.008	6954
872.138	6958
872.267	7019
872.397	6977
872.526	6970
872.656	7107
872.785	7240
872.915	7354
873.044	7480
873.173	7544
873.303	7594
873.432	7750
873.561	7940
873.69	7997
873.819	8005
873.948	8153
874.077	8252
874.206	8275
874.335	8442
874.464	8644
874.593	8883
874.722	8918
874.851	9123
874.979	9222
875.108	9370
875.237	9416
875.365	9443
875.494	9633
875.623	9838
875.751	9804
875.88	10021
876.008	10143
876.136	10223
876.265	10542
876.393	10698
876.521	10790
876.65	10828
876.778	10938
876.906	10869
877.034	10953
877.162	11045
877.29	11155
877.418	11220
877.546	11372
877.674	11490
877.802	11493
877.93	11554
878.058	11512
878.185	11452
878.313	11707
878.441	11745
878.568	11684
878.696	11821
878.824	11851
878.951	11935
879.079	12057
879.206	12098
879.333	12076
879.461	12057
879.588	12140
879.715	11992
879.842	12232
879.97	12072
880.097	11832
880.224	11866
880.351	11920
880.478	11840
880.605	11866
880.732	11821
880.859	12011
880.986	11805
881.112	11798
881.239	11718
881.366	11737
881.493	11649
881.619	11516
881.746	11486
881.872	11539
881.999	11509
882.125	11478
882.252	11566
882.378	11532
882.505	11554
882.631	11379
882.757	11292
882.883	11334
883.01	11315
883.136	11166
883.262	11170
883.388	11090
883.514	11204
883.64	11151
883.766	11124
883.892	10923
884.018	11003
884.143	11048
884.269	11113
884.395	10889
884.52	10831
884.646	10782
884.772	10660
884.897	10569
885.023	10672
885.148	10771
885.274	10763
885.399	10672
885.524	10672
885.65	10550
885.775	10634
885.9	10504
886.025	10645
886.15	10599
886.275	10504
886.4	10341
886.525	10436
886.65	10382
886.775	10360
886.9	10466
887.025	10618
887.149	10337
887.274	10204
887.399	10173
887.523	10207
887.648	10101
887.773	10074
887.897	10246
888.021	10200
888.146	10135
888.27	10181
888.395	10242
888.519	10128
888.643	10181
888.767	10192
888.891	10013
889.015	10021
889.139	10032
889.263	9964
889.387	10109
889.511	10082
889.635	10055
889.759	9895
889.883	9949
890.006	9987
890.13	10093
890.254	9876
890.377	10010
890.501	9785
890.624	9838
890.748	9823
890.871	9759
890.995	9740
891.118	9728
891.241	9785
891.364	9698
891.488	9785
891.611	9709
891.734	9732
891.857	9816
891.98	9751
892.103	9774
892.226	9690
892.349	9663
892.471	9591
892.594	9629
892.717	9633
892.839	9530
892.962	9561
893.085	9614
893.207	9584
893.33	9500
893.452	9500
893.575	9545
893.697	9549
893.819	9625
893.941	9622
894.064	9595
894.186	9473
894.308	9428
894.43	9469
894.552	9584
894.674	9606
894.796	9397
894.918	9378
895.04	9393
895.161	9329
895.283	9264
895.405	9260
895.526	9245
895.648	9169
895.769	9222
895.891	9260
896.012	9260
896.134	9142
896.255	9188
896.376	9180
896.498	9157
896.619	9108
896.74	9039
896.861	9081
896.982	9211
897.103	9279
897.224	9081
897.345	9043
897.466	9017
897.587	8982
897.708	9013
897.828	9043
897.949	8975
898.07	8883
898.19	8929
898.311	8986
898.431	8887
898.552	9036
898.672	8933
898.792	8910
898.913	8868
899.033	8754
899.153	8731
899.273	8610
899.393	8712
899.513	8682
899.633	8716
899.753	8743
899.873	8693
899.993	8720
900.113	8766
900.232	8727
900.352	8606
900.472	8621
900.591	8522
900.711	8488
900.83	8507
900.95	8636
901.069	8788
901.189	8571
901.308	8484
901.427	8366
901.546	8423
901.665	8412
901.784	8518
901.904	8469
902.023	8377
902.141	8168
902.26	8187
902.379	8275
902.498	8259
902.617	8161
902.735	8332
902.854	8225
902.973	8279
903.091	8142
903.21	8119
903.328	8134
903.446	8103
903.565	8016
903.683	8016
903.801	8043
903.919	8103
904.038	8107
904.156	8046
904.274	8088
904.392	7997
904.51	7932
904.627	8054
904.745	8069
904.863	8058
904.981	7963
905.098	7841
905.216	7917
905.334	7906
905.451	7883
905.569	7818
905.686	7887
905.803	7890
905.921	7772
906.038	7845
906.155	7784
906.272	7708
906.389	7700
906.506	7643
906.623	7578
906.74	7594
906.857	7525
906.974	7552
907.091	7613
907.208	7693
907.324	7571
907.441	7597
907.557	7388
907.674	7400
907.79	7407
907.907	7381
908.023	7430
908.139	7411
908.256	7365
908.372	7350
908.488	7343
908.604	7297
908.72	7251
908.836	7266
908.952	7278
909.068	7213
909.184	7354
909.3	7228
909.415	7285
909.531	7343
909.647	7091
909.762	7084
909.878	7088
909.993	7133
910.108	7126
910.224	7076
910.339	7080
910.454	7065
910.57	7008
910.685	6894
910.8	7118
910.915	7141
911.03	7000
911.145	6863
911.259	6802
911.374	6935
911.489	6886
911.604	6821
911.718	6646
911.833	6764
911.947	6696
912.062	6631
912.176	6669
912.291	6768
912.405	6681
912.519	6806
912.633	6821
912.748	6745
912.862	6700
912.976	6597
913.09	6585
913.204	6555
913.318	6589
913.431	6677
913.545	6654
913.659	6753
913.772	6654
913.886	6578
914	6555
914.113	6604
914.226	6635
914.34	6585
914.453	6502
914.566	6597
914.68	6532
914.793	6467
914.906	6410
915.019	6372
915.132	6361
915.245	6426
915.358	6422
915.47	6422
915.583	6475
915.696	6498
915.809	6540
915.921	6566
916.034	6372
916.146	6418
916.259	6380
916.371	6540
916.483	6483
916.595	6395
916.708	6437
916.82	6342
916.932	6399
917.044	6422
917.156	6380
917.268	6342
917.38	6292
917.491	6311
917.603	6311
917.715	6388
917.826	6388
917.938	6346
918.049	6235
918.161	6266
918.272	6433
918.384	6460
918.495	6395
918.606	6239
918.717	6159
918.828	6251
918.939	6296
919.05	6186
919.161	6319
919.272	6087
919.383	6114
919.494	6262
919.604	6395
919.715	6323
919.826	6254
919.936	6197
920.047	6353
920.157	6258
920.267	6486
920.378	6292
920.488	6220
920.598	6460
920.708	6532
920.818	6528
920.928	6517
921.038	6642
921.148	6574
921.258	6361
921.368	6311
921.477	6190
921.587	6133
921.697	6068
921.806	6201
921.916	6083
922.025	5893
922.134	5844
922.244	5847
922.353	5946
922.462	5874
922.571	5805
922.68	5695
922.789	5608
922.898	5684
923.007	5646
923.116	5718
923.224	5653
923.333	5627
923.442	5535
923.55	5592
923.659	5596
923.767	5562
923.876	5516
923.984	5604
924.092	5497
924.201	5600
924.309	5478
924.417	5554
924.525	5471
924.633	5440
924.741	6304
924.849	5307
924.956	5505
925.064	5349
925.172	5315
925.279	5334
925.387	5311
925.494	5357
925.602	5391
925.709	5345
925.816	5246
925.924	5341
926.031	5349
926.138	5269
926.245	5334
926.352	5246
926.459	5303
926.566	5303
926.673	5231
926.779	5132
926.886	5124
926.993	5033
927.099	5018
927.206	4953
927.312	4980
927.419	4968
927.525	4984
927.631	5006
927.737	4938
927.843	4847
927.95	4805
928.056	4816
928.162	4824
928.267	4847
928.373	5357
928.479	4892
928.585	4641
928.69	4767
928.796	4755
928.901	4626
929.007	4599
929.112	4691
929.218	4641
929.323	4580
929.428	4538
929.533	4672
929.638	4531
929.743	4489
929.848	4550
929.953	4497
930.058	4421
930.163	4318
930.267	4299
930.372	4421
930.477	4299
930.581	4447
930.685	4363
930.79	4257
930.894	4284
930.998	4280
931.103	4363
931.207	4093
931.311	4097
931.415	4032
931.519	3937
931.623	3960
