Data from glass_V78500241_1883.txt Node
Date: Wed Sep 01 19:27:33 CST 2021
User: usil
Spectrometer: V785-0024
Trigger mode: 0
Integration Time (sec): 4.000000E-1
Scans to average: 1
Nonlinearity correction enabled: false
Boxcar width: 0
Storing dark spectrum: false
XAxis mode: Wavelengths
Number of Pixels in Spectrum: 1024
>>>>>Begin Spectral Data<<<<<
801.071	3755
801.214	3728
801.356	3701
801.499	3755
801.641	3732
801.783	3797
801.926	3857
802.068	3823
802.211	3831
802.353	3819
802.496	3861
802.638	3838
802.78	3903
802.923	3918
803.065	3873
803.208	3846
803.35	3876
803.492	3899
803.635	3915
803.777	3804
803.919	3899
804.061	4147
804.204	3960
804.346	3922
804.488	3918
804.63	4017
804.773	3937
804.915	4051
805.057	4147
805.199	4051
805.341	4048
805.483	4124
805.626	4135
805.768	4131
805.91	4147
806.052	4280
806.194	4196
806.336	4383
806.478	4204
806.62	4154
806.762	4150
806.904	4234
807.046	4268
807.188	4169
807.33	4192
807.472	4207
807.614	4196
807.756	4280
807.898	4230
808.04	4238
808.182	4306
808.324	4306
808.465	4417
808.607	4466
808.749	4470
808.891	4485
809.033	4451
809.174	4459
809.316	4257
809.458	4280
809.6	4158
809.741	4097
809.883	4131
810.025	4249
810.166	4173
810.308	4219
810.45	4253
810.591	4295
810.733	4322
810.875	4542
811.016	4850
811.158	5143
811.299	5318
811.441	5273
811.582	5022
811.724	4683
811.865	4421
812.007	4478
812.148	4428
812.29	4402
812.431	4402
812.573	4447
812.714	4348
812.855	4398
812.997	4405
813.138	4451
813.279	4386
813.421	4398
813.562	4405
813.703	4333
813.845	4333
813.986	4257
814.127	4227
814.268	4299
814.41	4322
814.551	4211
814.692	4329
814.833	4295
814.974	4261
815.115	4325
815.256	4299
815.397	4234
815.539	4204
815.68	4192
815.821	4211
815.962	4287
816.103	4219
816.244	4234
816.385	4230
816.526	4325
816.666	4272
816.807	4048
816.948	4173
817.089	4158
817.23	4093
817.371	4067
817.512	4044
817.653	4101
817.793	4010
817.934	4029
818.075	4086
818.216	4090
818.356	4097
818.497	4029
818.638	3907
818.778	3888
818.919	3918
819.06	3838
819.2	3930
819.341	3861
819.481	3835
819.622	3926
819.762	4002
819.903	3994
820.043	3865
820.184	3850
820.324	3808
820.465	3861
820.605	3865
820.746	3869
820.886	3793
821.026	3949
821.167	3926
821.307	3964
821.447	3945
821.588	3903
821.728	3892
821.868	3949
822.008	3880
822.149	3854
822.289	3949
822.429	3789
822.569	3762
822.709	3804
822.849	3690
822.99	3732
823.13	3747
823.27	3781
823.41	3736
823.55	3766
823.69	3679
823.83	3740
823.97	3705
824.11	3633
824.25	3614
824.389	3644
824.529	3705
824.669	3603
824.809	3686
824.949	3778
825.089	3743
825.228	3698
825.368	3599
825.508	3553
825.648	3530
825.787	3629
825.927	3644
826.067	3618
826.206	3675
826.346	3800
826.485	3816
826.625	3884
826.765	3907
826.904	3838
827.044	3595
827.183	3515
827.323	3431
827.462	3485
827.601	3420
827.741	3393
827.88	3443
828.02	3374
828.159	3443
828.298	3504
828.437	3519
828.577	3435
828.716	3580
828.855	3477
828.994	3363
829.134	3370
829.273	3386
829.412	3374
829.551	3367
829.69	3329
829.829	3431
829.968	3526
830.107	3401
830.246	3473
830.385	3393
830.524	3344
830.663	3268
830.802	3230
830.941	3199
831.08	3195
831.219	3264
831.357	3272
831.496	3420
831.635	3245
831.774	3214
831.913	3241
832.051	3161
832.19	3135
832.329	3211
832.467	3165
832.606	3135
832.744	3154
832.883	3188
833.022	3199
833.16	3222
833.299	3283
833.437	3302
833.576	3374
833.714	3412
833.852	3443
833.991	3462
834.129	3462
834.267	3458
834.406	3386
834.544	3389
834.682	3416
834.821	3393
834.959	3568
835.097	3447
835.235	3526
835.373	3523
835.511	3488
835.65	3409
835.788	3477
835.926	3401
836.064	3389
836.202	3359
836.34	3561
836.478	3606
836.615	3549
836.753	3603
836.891	3622
837.029	3591
837.167	3591
837.305	3549
837.443	3530
837.58	3526
837.718	3595
837.856	3584
837.993	3511
838.131	3618
838.269	3580
838.406	3572
838.544	3561
838.681	3481
838.819	3409
838.956	3428
839.094	3367
839.231	3397
839.369	3526
839.506	3804
839.643	3629
839.781	3507
839.918	3473
840.055	3488
840.193	3545
840.33	3530
840.467	3523
840.604	3633
840.742	3816
840.879	3549
841.016	3504
841.153	3614
841.29	3759
841.427	3736
841.564	3762
841.701	3778
841.838	3663
841.975	3709
842.112	3732
842.249	3610
842.385	3629
842.522	3842
842.659	3682
842.796	3675
842.933	3667
843.069	3682
843.206	3698
843.343	3800
843.479	3766
843.616	3823
843.752	3675
843.889	3694
844.025	3861
844.162	3740
844.298	3850
844.435	3785
844.571	3762
844.708	3918
844.844	3987
844.98	4010
845.117	3987
845.253	3956
845.389	3876
845.525	3941
845.661	3922
845.798	3941
845.934	4029
846.07	3937
846.206	4063
846.342	4120
846.478	4051
846.614	3968
846.75	3896
846.886	3918
847.022	4040
847.158	3953
847.294	3975
847.429	4025
847.565	4017
847.701	4207
847.837	3884
847.972	3850
848.108	4006
848.244	3911
848.379	3816
848.515	3846
848.65	3816
848.786	3816
848.921	3869
849.057	3907
849.192	3926
849.328	3884
849.463	3911
849.598	3846
849.734	3873
849.869	3857
850.004	3740
850.14	3827
850.275	3759
850.41	3713
850.545	3759
850.68	3785
850.815	3808
850.95	3774
851.085	3964
851.22	3873
851.355	3804
851.49	3762
851.625	3781
851.76	3800
851.895	3705
852.03	3751
852.165	3819
852.299	3816
852.434	3869
852.569	3842
852.703	3888
852.838	3918
852.973	3975
853.107	4002
853.242	3888
853.376	3850
853.511	3770
853.645	3823
853.78	3930
853.914	3892
854.048	3884
854.183	3838
854.317	3922
854.451	4078
854.585	3972
854.72	3930
854.854	3983
854.988	3865
855.122	3968
855.256	3934
855.39	4010
855.524	4078
855.658	4101
855.792	4105
855.926	4109
856.06	4154
856.194	4211
856.327	4128
856.461	4109
856.595	4112
856.729	4173
856.862	4253
856.996	4200
857.13	4322
857.263	4295
857.397	4341
857.53	4276
857.664	4363
857.797	4386
857.931	4375
858.064	4386
858.197	4462
858.331	4383
858.464	4363
858.597	4341
858.731	4440
858.864	4470
858.997	4462
859.13	4489
859.263	4485
859.396	4580
859.529	4519
859.662	4542
859.795	4508
859.928	4626
860.061	4668
860.194	4683
860.327	4664
860.46	4634
860.592	4725
860.725	4748
860.858	4759
860.99	4702
861.123	4599
861.256	4702
861.388	4786
861.521	5398
861.653	4721
861.786	4675
861.918	4744
862.05	4828
862.183	4824
862.315	4877
862.447	4934
862.58	4881
862.712	4771
862.844	4759
862.976	4896
863.108	4850
863.24	5220
863.372	4889
863.504	4889
863.636	4850
863.768	4972
863.9	4961
864.032	4911
864.164	4984
864.296	5056
864.428	5128
864.559	5056
864.691	5136
864.823	5105
864.954	5083
865.086	5132
865.217	5124
865.349	5143
865.48	5143
865.612	5121
865.743	5296
865.875	5193
866.006	5166
866.137	5197
866.269	5261
866.4	5220
866.531	5246
866.662	5178
866.793	5284
866.924	5288
867.055	5360
867.186	5337
867.317	5334
867.448	5292
867.579	5315
867.71	5379
867.841	5296
867.972	5379
868.103	5444
868.233	5474
868.364	5516
868.495	5543
868.625	5680
868.756	5790
868.886	5634
869.017	5741
869.147	5828
869.278	5844
869.408	5809
869.539	5866
869.669	5882
869.799	5897
869.929	6026
870.06	6007
870.19	6167
870.32	6178
870.45	6209
870.58	6350
870.71	6376
870.84	6429
870.97	6388
871.1	6456
871.23	6688
871.36	6627
871.489	6662
871.619	6730
871.749	6787
871.879	6886
872.008	6966
872.138	6966
872.267	6985
872.397	7012
872.526	7023
872.656	7137
872.785	7240
872.915	7381
873.044	7491
873.173	7506
873.303	7616
873.432	7727
873.561	7864
873.69	7902
873.819	8031
873.948	8115
874.077	8240
874.206	8298
874.335	8454
874.464	8670
874.593	8842
874.722	8937
874.851	9100
874.979	9195
875.108	9378
875.237	9431
875.365	9485
875.494	9622
875.623	9869
875.751	9774
875.88	9998
876.008	10131
876.136	10322
876.265	10538
876.393	10649
876.521	10729
876.65	10809
876.778	10869
876.906	10892
877.034	11014
877.162	11045
877.29	11102
877.418	11288
877.546	11284
877.674	11463
877.802	11414
877.93	11436
878.058	11547
878.185	11592
878.313	11600
878.441	11748
878.568	11710
878.696	11741
878.824	11859
878.951	11916
879.079	11950
879.206	12133
879.333	11988
879.461	12015
879.588	12098
879.715	12102
879.842	12186
879.97	12057
880.097	11939
880.224	11912
880.351	11920
880.478	11958
880.605	11832
880.732	11855
880.859	11893
880.986	11779
881.112	11729
881.239	11745
881.366	11642
881.493	11615
881.619	11608
881.746	11554
881.872	11562
881.999	11490
882.125	11486
882.252	11623
882.378	11512
882.505	11459
882.631	11334
882.757	11265
882.883	11227
883.01	11303
883.136	11181
883.262	11170
883.388	11124
883.514	11258
883.64	11124
883.766	11064
883.892	10953
884.018	10980
884.143	11006
884.269	11159
884.395	10805
884.52	10763
884.646	10752
884.772	10664
884.897	10656
885.023	10725
885.148	10725
885.274	10656
885.399	10653
885.524	10630
885.65	10596
885.775	10554
885.9	10504
886.025	10584
886.15	10607
886.275	10535
886.4	10386
886.525	10481
886.65	10409
886.775	10337
886.9	10417
887.025	10527
887.149	10390
887.274	10230
887.399	10287
887.523	10192
887.648	10143
887.773	10173
887.897	10158
888.021	10196
888.146	10116
888.27	10238
888.395	10211
888.519	10105
888.643	10150
888.767	10268
888.891	10051
889.015	9979
889.139	10086
889.263	9953
889.387	10055
889.511	10090
889.635	10109
889.759	9979
889.883	9884
890.006	9979
890.13	10040
890.254	9884
890.377	9903
890.501	9915
890.624	9861
890.748	9884
890.871	9781
890.995	9781
891.118	9762
891.241	9690
891.364	9770
891.488	9838
891.611	9705
891.734	9736
891.857	9781
891.98	9679
892.103	9743
892.226	9671
892.349	9656
892.471	9504
892.594	9572
892.717	9701
892.839	9641
892.962	9622
893.085	9690
893.207	9599
893.33	9462
893.452	9553
893.575	9584
893.697	9492
893.819	9614
893.941	9553
894.064	9656
894.186	9428
894.308	9393
894.43	9450
894.552	9572
894.674	9507
894.796	9386
894.918	9405
895.04	9374
895.161	9325
895.283	9275
895.405	9298
895.526	9264
895.648	9188
895.769	9253
895.891	9253
896.012	9245
896.134	9291
896.255	9138
896.376	9100
896.498	9146
896.619	9104
896.74	9066
896.861	9146
896.982	9302
897.103	9291
897.224	9211
897.345	9097
897.466	9024
897.587	9032
897.708	9146
897.828	9051
897.949	8887
898.07	8895
898.19	8960
898.311	9055
898.431	8868
898.552	8971
898.672	8910
898.792	8891
898.913	8929
899.033	8807
899.153	8777
899.273	8632
899.393	8708
899.513	8785
899.633	8693
899.753	8735
899.873	8746
899.993	8678
900.113	8689
900.232	8712
900.352	8659
900.472	8610
900.591	8552
900.711	8629
900.83	8568
900.95	8716
901.069	8727
901.189	8598
901.308	8415
901.427	8393
901.546	8465
901.665	8545
901.784	8476
901.904	8404
902.023	8263
902.141	8275
902.26	8221
902.379	8214
902.498	8225
902.617	8191
902.735	8324
902.854	8336
902.973	8237
903.091	8138
903.21	8107
903.328	8130
903.446	8058
903.565	8062
903.683	8077
903.801	8012
903.919	8149
904.038	8149
904.156	8008
904.274	8073
904.392	7993
904.51	8062
904.627	8111
904.745	8081
904.863	8065
904.981	7906
905.098	7856
905.216	7917
905.334	7871
905.451	7890
905.569	7883
905.686	7936
905.803	7841
905.921	7792
906.038	7864
906.155	7799
906.272	7738
906.389	7662
906.506	7582
906.623	7624
906.74	7658
906.857	7518
906.974	7605
907.091	7624
907.208	7689
907.324	7647
907.441	7529
907.557	7502
907.674	7369
907.79	7419
907.907	7384
908.023	7403
908.139	7426
908.256	7377
908.372	7354
908.488	7369
908.604	7301
908.72	7285
908.836	7343
908.952	7232
909.068	7213
909.184	7259
909.3	7213
909.415	7240
909.531	7278
909.647	7122
909.762	7107
909.878	7114
909.993	7122
910.108	7084
910.224	7126
910.339	7118
910.454	7072
910.57	7008
910.685	6954
910.8	7149
910.915	7107
911.03	6958
911.145	6863
911.259	6905
911.374	6840
911.489	6798
911.604	6821
911.718	6741
911.833	6673
911.947	6635
912.062	6654
912.176	6711
912.291	6760
912.405	6639
912.519	6738
912.633	6882
912.748	6692
912.862	6665
912.976	6608
913.09	6559
913.204	6608
913.318	6658
913.431	6627
913.545	6681
913.659	6726
913.772	6642
913.886	6547
914	6517
914.113	6620
914.226	6635
914.34	6593
914.453	6555
914.566	6578
914.68	6498
914.793	6536
914.906	6486
915.019	6414
915.132	6365
915.245	6414
915.358	6433
915.47	6403
915.583	6407
915.696	6464
915.809	6506
915.921	6547
916.034	6426
916.146	6441
916.259	6369
916.371	6437
916.483	6399
916.595	6331
916.708	6433
916.82	6399
916.932	6369
917.044	6372
917.156	6342
917.268	6323
917.38	6338
917.491	6304
917.603	6338
917.715	6350
917.826	6384
917.938	6319
918.049	6224
918.161	6304
918.272	6437
918.384	6467
918.495	6319
918.606	6239
918.717	6224
918.828	6304
918.939	6311
919.05	6171
919.161	6292
919.272	6121
919.383	6175
919.494	6281
919.604	6407
919.715	6319
919.826	6216
919.936	6205
920.047	6388
920.157	6216
920.267	6483
920.378	6338
920.488	6300
920.598	6467
920.708	6589
920.818	6479
920.928	6433
921.038	6559
921.148	6620
921.258	6342
921.368	6319
921.477	6182
921.587	6144
921.697	6091
921.806	6182
921.916	6117
922.025	5923
922.134	5946
922.244	5882
922.353	5973
922.462	5885
922.571	5756
922.68	5729
922.789	5672
922.898	5710
923.007	5646
923.116	5699
923.224	5657
923.333	5619
923.442	5589
923.55	5577
923.659	5554
923.767	5642
923.876	5596
923.984	5604
924.092	5509
924.201	5558
924.309	5551
924.417	5547
924.525	5429
924.633	5501
924.741	6251
924.849	5398
924.956	5505
925.064	5322
925.172	5311
925.279	5280
925.387	5349
925.494	5353
925.602	5410
925.709	5330
925.816	5299
925.924	5277
926.031	5406
926.138	5341
926.245	5345
926.352	5231
926.459	5311
926.566	5357
926.673	5242
926.779	5105
926.886	5067
926.993	5025
927.099	4980
927.206	4961
927.312	4896
927.419	5022
927.525	4911
927.631	5003
927.737	4934
927.843	4820
927.95	4778
928.056	4847
928.162	4854
928.267	4790
928.373	5258
928.479	4835
928.585	4687
928.69	4740
928.796	4778
928.901	4611
929.007	4588
929.112	4645
929.218	4607
929.323	4596
929.428	4546
929.533	4649
929.638	4489
929.743	4500
929.848	4561
929.953	4481
930.058	4424
930.163	4303
930.267	4390
930.372	4398
930.477	4310
930.581	4432
930.685	4348
930.79	4223
930.894	4287
930.998	4242
931.103	4352
931.207	4131
931.311	4097
931.415	4032
931.519	3903
931.623	3941
