Data from glass_V78500241_2623.txt Node
Date: Wed Sep 01 19:32:41 CST 2021
User: usil
Spectrometer: V785-0024
Trigger mode: 0
Integration Time (sec): 4.000000E-1
Scans to average: 1
Nonlinearity correction enabled: false
Boxcar width: 0
Storing dark spectrum: false
XAxis mode: Wavelengths
Number of Pixels in Spectrum: 1024
>>>>>Begin Spectral Data<<<<<
801.071	3728
801.214	3743
801.356	3743
801.499	3713
801.641	3698
801.783	3781
801.926	3884
802.068	3823
802.211	3823
802.353	3880
802.496	3812
802.638	3842
802.78	3896
802.923	3911
803.065	3888
803.208	3846
803.35	3861
803.492	3926
803.635	3884
803.777	3823
803.919	3892
804.061	4116
804.204	3945
804.346	3941
804.488	3922
804.63	4029
804.773	3926
804.915	4013
805.057	4105
805.199	4010
805.341	4063
805.483	4120
805.626	4150
805.768	4135
805.91	4181
806.052	4230
806.194	4192
806.336	4325
806.478	4219
806.62	4177
806.762	4185
806.904	4249
807.046	4310
807.188	4154
807.33	4196
807.472	4272
807.614	4204
807.756	4272
807.898	4166
808.04	4215
808.182	4246
808.324	4303
808.465	4379
808.607	4424
808.749	4447
808.891	4440
809.033	4493
809.174	4394
809.316	4246
809.458	4242
809.6	4109
809.741	4120
809.883	4097
810.025	4166
810.166	4211
810.308	4253
810.45	4242
810.591	4246
810.733	4246
810.875	4497
811.016	4801
811.158	5132
811.299	5242
811.441	5216
811.582	5060
811.724	4714
811.865	4447
812.007	4447
812.148	4394
812.29	4394
812.431	4421
812.573	4383
812.714	4363
812.855	4413
812.997	4367
813.138	4462
813.279	4402
813.421	4405
813.562	4375
813.703	4299
813.845	4318
813.986	4230
814.127	4204
814.268	4276
814.41	4246
814.551	4234
814.692	4306
814.833	4242
814.974	4352
815.115	4284
815.256	4223
815.397	4227
815.539	4253
815.68	4173
815.821	4173
815.962	4325
816.103	4303
816.244	4230
816.385	4227
816.526	4306
816.666	4200
816.807	4082
816.948	4147
817.089	4158
817.23	4090
817.371	3998
817.512	4059
817.653	4074
817.793	4051
817.934	3991
818.075	4078
818.216	4051
818.356	4021
818.497	3983
818.638	3907
818.778	3857
818.919	3876
819.06	3857
819.2	3918
819.341	3831
819.481	3831
819.622	3941
819.762	4029
819.903	3911
820.043	3865
820.184	3838
820.324	3846
820.465	3865
820.605	3892
820.746	3884
820.886	3804
821.026	3937
821.167	3869
821.307	3994
821.447	3979
821.588	3899
821.728	3915
821.868	3907
822.008	3873
822.149	3892
822.289	3941
822.429	3785
822.569	3766
822.709	3816
822.849	3728
822.99	3698
823.13	3762
823.27	3759
823.41	3720
823.55	3740
823.69	3728
823.83	3762
823.97	3610
824.11	3614
824.25	3576
824.389	3633
824.529	3663
824.669	3603
824.809	3690
824.949	3698
825.089	3694
825.228	3694
825.368	3530
825.508	3568
825.648	3584
825.787	3580
825.927	3614
826.067	3644
826.206	3622
826.346	3793
826.485	3816
826.625	3838
826.765	3930
826.904	3804
827.044	3622
827.183	3526
827.323	3458
827.462	3492
827.601	3428
827.741	3401
827.88	3412
828.02	3389
828.159	3450
828.298	3447
828.437	3500
828.577	3435
828.716	3599
828.855	3462
828.994	3363
829.134	3382
829.273	3412
829.412	3367
829.551	3344
829.69	3367
829.829	3420
829.968	3458
830.107	3412
830.246	3428
830.385	3355
830.524	3374
830.663	3268
830.802	3241
830.941	3203
831.08	3173
831.219	3226
831.357	3264
831.496	3450
831.635	3207
831.774	3184
831.913	3188
832.051	3116
832.19	3131
832.329	3173
832.467	3123
832.606	3085
832.744	3188
832.883	3180
833.022	3192
833.16	3268
833.299	3264
833.437	3287
833.576	3302
833.714	3367
833.852	3424
833.991	3424
834.129	3523
834.267	3409
834.406	3374
834.544	3412
834.682	3435
834.821	3412
834.959	3591
835.097	3409
835.235	3462
835.373	3454
835.511	3466
835.65	3488
835.788	3454
835.926	3344
836.064	3348
836.202	3420
836.34	3538
836.478	3587
836.615	3545
836.753	3606
836.891	3580
837.029	3603
837.167	3576
837.305	3576
837.443	3542
837.58	3496
837.718	3614
837.856	3576
837.993	3504
838.131	3606
838.269	3557
838.406	3557
838.544	3580
838.681	3435
838.819	3454
838.956	3336
839.094	3393
839.231	3462
839.369	3488
839.506	3690
839.643	3584
839.781	3454
839.918	3454
840.055	3462
840.193	3515
840.33	3538
840.467	3568
840.604	3561
840.742	3747
840.879	3515
841.016	3515
841.153	3564
841.29	3736
841.427	3694
841.564	3682
841.701	3736
841.838	3663
841.975	3660
842.112	3698
842.249	3625
842.385	3564
842.522	3770
842.659	3698
842.796	3633
842.933	3690
843.069	3705
843.206	3743
843.343	3835
843.479	3751
843.616	3778
843.752	3675
843.889	3694
844.025	3892
844.162	3717
844.298	3846
844.435	3800
844.571	3766
844.708	3850
844.844	3949
844.98	4006
845.117	3987
845.253	3953
845.389	3945
845.525	3956
845.661	3968
845.798	3888
845.934	3991
846.07	3956
846.206	4059
846.342	4105
846.478	4032
846.614	4002
846.75	3956
846.886	3865
847.022	4013
847.158	3968
847.294	3934
847.429	3998
847.565	3983
847.701	4185
847.837	3827
847.972	3857
848.108	3945
848.244	3941
848.379	3816
848.515	3808
848.65	3804
848.786	3876
848.921	3892
849.057	3926
849.192	3930
849.328	3899
849.463	3907
849.598	3873
849.734	3827
849.869	3819
850.004	3766
850.14	3804
850.275	3728
850.41	3740
850.545	3778
850.68	3785
850.815	3759
850.95	3766
851.085	3907
851.22	3842
851.355	3812
851.49	3755
851.625	3793
851.76	3781
851.895	3732
852.03	3694
852.165	3797
852.299	3812
852.434	3907
852.569	3880
852.703	3899
852.838	3930
852.973	3964
853.107	3979
853.242	3880
853.376	3800
853.511	3743
853.645	3850
853.78	3945
853.914	3918
854.048	3907
854.183	3907
854.317	3911
854.451	4013
854.585	3899
854.72	3979
854.854	4029
854.988	3926
855.122	3994
855.256	3896
855.39	4048
855.524	4063
855.658	4059
855.792	4097
855.926	4147
856.06	4162
856.194	4211
856.327	4150
856.461	4082
856.595	4131
856.729	4185
856.862	4249
856.996	4253
857.13	4299
857.263	4299
857.397	4348
857.53	4238
857.664	4337
857.797	4405
857.931	4390
858.064	4337
858.197	4402
858.331	4341
858.464	4443
858.597	4314
858.731	4447
858.864	4451
858.997	4413
859.13	4546
859.263	4523
859.396	4588
859.529	4569
859.662	4531
859.795	4546
859.928	4618
860.061	4672
860.194	4691
860.327	4653
860.46	4656
860.592	4706
860.725	4733
860.858	4755
860.99	4679
861.123	4668
861.256	4683
861.388	4759
861.521	5311
861.653	4710
861.786	4714
861.918	4736
862.05	4812
862.183	4854
862.315	4881
862.447	4938
862.58	4896
862.712	4816
862.844	4755
862.976	4896
863.108	4831
863.24	5201
863.372	4858
863.504	4881
863.636	4896
863.768	4953
863.9	4961
864.032	4915
864.164	4946
864.296	5048
864.428	5041
864.559	5090
864.691	5086
864.823	5064
864.954	5010
865.086	5102
865.217	5121
865.349	5102
865.48	5162
865.612	5147
865.743	5269
865.875	5208
866.006	5178
866.137	5216
866.269	5242
866.4	5303
866.531	5235
866.662	5181
866.793	5242
866.924	5265
867.055	5337
867.186	5330
867.317	5372
867.448	5326
867.579	5353
867.71	5311
867.841	5383
867.972	5444
868.103	5440
868.233	5474
868.364	5455
868.495	5581
868.625	5661
868.756	5771
868.886	5619
869.017	5710
869.147	5805
869.278	5885
869.408	5760
869.539	5775
869.669	5935
869.799	5904
869.929	5969
870.06	6011
870.19	6163
870.32	6201
870.45	6277
870.58	6311
870.71	6410
870.84	6414
870.97	6407
871.1	6391
871.23	6623
871.36	6684
871.489	6658
871.619	6673
871.749	6779
871.879	6833
872.008	6962
872.138	6943
872.267	6962
872.397	6932
872.526	6993
872.656	7088
872.785	7232
872.915	7384
873.044	7525
873.173	7556
873.303	7674
873.432	7719
873.561	7864
873.69	7860
873.819	8027
873.948	8153
874.077	8206
874.206	8332
874.335	8412
874.464	8610
874.593	8830
874.722	8967
874.851	9123
874.979	9203
875.108	9420
875.237	9336
875.365	9549
875.494	9587
875.623	9797
875.751	9869
875.88	9937
876.008	10150
876.136	10230
876.265	10474
876.393	10645
876.521	10675
876.65	10748
876.778	10793
876.906	10930
877.034	10995
877.162	11045
877.29	11231
877.418	11227
877.546	11334
877.674	11379
877.802	11467
877.93	11554
878.058	11524
878.185	11554
878.313	11665
878.441	11672
878.568	11707
878.696	11817
878.824	11889
878.951	11920
879.079	12022
879.206	12079
879.333	12060
879.461	12106
879.588	12117
879.715	12034
879.842	12277
879.97	12053
880.097	11893
880.224	11904
880.351	11847
880.478	11908
880.605	11775
880.732	11794
880.859	12049
880.986	11798
881.112	11817
881.239	11710
881.366	11726
881.493	11627
881.619	11467
881.746	11562
881.872	11585
881.999	11452
882.125	11512
882.252	11554
882.378	11440
882.505	11589
882.631	11330
882.757	11322
882.883	11208
883.01	11337
883.136	11280
883.262	11109
883.388	11083
883.514	11162
883.64	11090
883.766	11098
883.892	11056
884.018	11033
884.143	11056
884.269	11033
884.395	10771
884.52	10824
884.646	10752
884.772	10656
884.897	10645
885.023	10637
885.148	10717
885.274	10759
885.399	10626
885.524	10599
885.65	10531
885.775	10542
885.9	10622
886.025	10607
886.15	10516
886.275	10413
886.4	10341
886.525	10360
886.65	10268
886.775	10390
886.9	10466
887.025	10527
887.149	10356
887.274	10166
887.399	10185
887.523	10124
887.648	10105
887.773	10109
887.897	10303
888.021	10257
888.146	10116
888.27	10230
888.395	10249
888.519	10173
888.643	10238
888.767	10139
888.891	10143
889.015	9979
889.139	10112
889.263	10006
889.387	10101
889.511	10082
889.635	10112
889.759	9903
889.883	9964
890.006	10074
890.13	10124
890.254	9937
890.377	9937
890.501	9804
890.624	9888
890.748	9888
890.871	9785
890.995	9800
891.118	9732
891.241	9785
891.364	9743
891.488	9793
891.611	9736
891.734	9732
891.857	9793
891.98	9743
892.103	9766
892.226	9698
892.349	9698
892.471	9500
892.594	9629
892.717	9614
892.839	9561
892.962	9534
893.085	9637
893.207	9591
893.33	9458
893.452	9450
893.575	9511
893.697	9542
893.819	9618
893.941	9618
894.064	9629
894.186	9443
894.308	9408
894.43	9568
894.552	9599
894.674	9507
894.796	9340
894.918	9405
895.04	9416
895.161	9332
895.283	9351
895.405	9294
895.526	9283
895.648	9256
895.769	9214
895.891	9294
896.012	9310
896.134	9207
896.255	9135
896.376	9116
896.498	9081
896.619	9127
896.74	9108
896.861	9142
896.982	9291
897.103	9268
897.224	9176
897.345	9089
897.466	9036
897.587	9119
897.708	9070
897.828	8933
897.949	8952
898.07	8887
898.19	8849
898.311	9009
898.431	8944
898.552	8910
898.672	8941
898.792	8975
898.913	8967
899.033	8891
899.153	8712
899.273	8564
899.393	8712
899.513	8727
899.633	8708
899.753	8655
899.873	8667
899.993	8705
900.113	8651
900.232	8689
900.352	8640
900.472	8674
900.591	8507
900.711	8495
900.83	8564
900.95	8621
901.069	8693
901.189	8537
901.308	8396
901.427	8324
901.546	8457
901.665	8465
901.784	8499
901.904	8328
902.023	8267
902.141	8252
902.26	8161
902.379	8259
902.498	8286
902.617	8218
902.735	8317
902.854	8271
902.973	8202
903.091	8084
903.21	8115
903.328	8180
903.446	8054
903.565	8020
903.683	8050
903.801	8054
903.919	8126
904.038	8134
904.156	8016
904.274	8092
904.392	8077
904.51	8016
904.627	8016
904.745	8088
904.863	8081
904.981	7936
905.098	7864
905.216	7852
905.334	7913
905.451	7856
905.569	7883
905.686	7917
905.803	7871
905.921	7795
906.038	7864
906.155	7845
906.272	7689
906.389	7685
906.506	7658
906.623	7578
906.74	7609
906.857	7525
906.974	7563
907.091	7632
907.208	7704
907.324	7632
907.441	7502
907.557	7480
907.674	7441
907.79	7339
907.907	7381
908.023	7480
908.139	7457
908.256	7381
908.372	7381
908.488	7354
908.604	7255
908.72	7225
908.836	7240
908.952	7259
909.068	7255
909.184	7316
909.3	7213
909.415	7247
909.531	7297
909.647	7107
909.762	7137
909.878	7042
909.993	7065
910.108	7057
910.224	7019
910.339	7065
910.454	7012
910.57	7069
910.685	6935
910.8	7198
910.915	7065
911.03	7034
911.145	6935
911.259	6863
911.374	6863
911.489	6802
911.604	6768
911.718	6715
911.833	6688
911.947	6642
912.062	6635
912.176	6703
912.291	6715
912.405	6719
912.519	6821
912.633	6844
912.748	6734
912.862	6631
912.976	6597
913.09	6467
913.204	6532
913.318	6566
913.431	6665
913.545	6639
913.659	6722
913.772	6635
913.886	6509
914	6532
914.113	6597
914.226	6635
914.34	6597
914.453	6460
914.566	6612
914.68	6547
914.793	6490
914.906	6433
915.019	6429
915.132	6376
915.245	6429
915.358	6403
915.47	6456
915.583	6429
915.696	6437
915.809	6471
915.921	6540
916.034	6445
916.146	6357
916.259	6346
916.371	6509
916.483	6391
916.595	6388
916.708	6441
916.82	6372
916.932	6361
917.044	6399
917.156	6452
917.268	6353
917.38	6361
917.491	6296
917.603	6338
917.715	6464
917.826	6418
917.938	6327
918.049	6216
918.161	6342
918.272	6403
918.384	6429
918.495	6346
918.606	6251
918.717	6194
918.828	6235
918.939	6251
919.05	6178
919.161	6254
919.272	6133
919.383	6159
919.494	6228
919.604	6353
919.715	6292
919.826	6239
919.936	6182
920.047	6292
920.157	6247
920.267	6391
920.378	6327
920.488	6220
920.598	6456
920.708	6506
920.818	6452
920.928	6441
921.038	6597
921.148	6555
921.258	6376
921.368	6315
921.477	6197
921.587	6121
921.697	6072
921.806	6125
921.916	6053
922.025	5969
922.134	5946
922.244	5855
922.353	5920
922.462	5771
922.571	5836
922.68	5756
922.789	5661
922.898	5703
923.007	5608
923.116	5676
923.224	5680
923.333	5680
923.442	5642
923.55	5535
923.659	5566
923.767	5630
923.876	5577
923.984	5573
924.092	5463
924.201	5539
924.309	5608
924.417	5539
924.525	5444
924.633	5440
924.741	6254
924.849	5353
924.956	5421
925.064	5322
925.172	5277
925.279	5292
925.387	5322
925.494	5337
925.602	5417
925.709	5330
925.816	5250
925.924	5292
926.031	5341
926.138	5296
926.245	5322
926.352	5239
926.459	5345
926.566	5288
926.673	5181
926.779	5162
926.886	5083
926.993	5041
927.099	4957
927.206	5006
927.312	4930
927.419	5010
927.525	4938
927.631	4949
927.737	4850
927.843	4862
927.95	4759
928.056	4812
928.162	4831
928.267	4873
928.373	5345
928.479	4809
928.585	4637
928.69	4744
928.796	4767
928.901	4653
929.007	4546
929.112	4694
929.218	4630
929.323	4607
929.428	4550
929.533	4637
929.638	4519
929.743	4546
929.848	4550
929.953	4497
930.058	4451
930.163	4318
930.267	4367
930.372	4409
930.477	4272
930.581	4508
930.685	4318
930.79	4249
930.894	4238
930.998	4280
931.103	4360
931.207	4063
931.311	4040
931.415	4063
931.519	3918
931.623	3934
