Data from glass_V78500241_72.txt Node
Date: Wed Sep 01 19:14:59 CST 2021
User: usil
Spectrometer: V785-0024
Trigger mode: 0
Integration Time (sec): 4.000000E-1
Scans to average: 1
Nonlinearity correction enabled: false
Boxcar width: 0
Storing dark spectrum: false
XAxis mode: Wavelengths
Number of Pixels in Spectrum: 1024
>>>>>Begin Spectral Data<<<<<
801.071	3751
801.214	3793
801.356	3679
801.499	3751
801.641	3709
801.783	3755
801.926	3876
802.068	3865
802.211	3865
802.353	3915
802.496	3873
802.638	3934
802.78	3915
802.923	3945
803.065	3903
803.208	3869
803.35	3918
803.492	3926
803.635	3915
803.777	3876
803.919	3926
804.061	4124
804.204	3983
804.346	3937
804.488	3975
804.63	4029
804.773	3994
804.915	4032
805.057	4112
805.199	4059
805.341	4074
805.483	4154
805.626	4135
805.768	4158
805.91	4227
806.052	4284
806.194	4234
806.336	4363
806.478	4230
806.62	4246
806.762	4204
806.904	4238
807.046	4329
807.188	4257
807.33	4204
807.472	4223
807.614	4181
807.756	4276
807.898	4230
808.04	4223
808.182	4284
808.324	4341
808.465	4344
808.607	4474
808.749	4485
808.891	4493
809.033	4542
809.174	4432
809.316	4295
809.458	4268
809.6	4177
809.741	4200
809.883	4166
810.025	4200
810.166	4215
810.308	4268
810.45	4265
810.591	4253
810.733	4291
810.875	4493
811.016	4850
811.158	5185
811.299	5261
811.441	5337
811.582	5105
811.724	4698
811.865	4519
812.007	4432
812.148	4432
812.29	4421
812.431	4489
812.573	4383
812.714	4409
812.855	4409
812.997	4413
813.138	4493
813.279	4413
813.421	4413
813.562	4402
813.703	4371
813.845	4348
813.986	4242
814.127	4207
814.268	4249
814.41	4280
814.551	4287
814.692	4310
814.833	4306
814.974	4325
815.115	4348
815.256	4291
815.397	4276
815.539	4276
815.68	4215
815.821	4246
815.962	4337
816.103	4253
816.244	4261
816.385	4246
816.526	4238
816.666	4261
816.807	4093
816.948	4207
817.089	4211
817.23	4150
817.371	4090
817.512	4067
817.653	4090
817.793	4074
817.934	4086
818.075	4109
818.216	4059
818.356	4109
818.497	3994
818.638	3945
818.778	3911
818.919	3911
819.06	3880
819.2	3941
819.341	3903
819.481	3857
819.622	3930
819.762	4059
819.903	3956
820.043	3888
820.184	3838
820.324	3819
820.465	3922
820.605	3873
820.746	3899
820.886	3816
821.026	3888
821.167	3899
821.307	3979
821.447	3983
821.588	3975
821.728	3960
821.868	3945
822.008	3926
822.149	3918
822.289	3937
822.429	3816
822.569	3732
822.709	3819
822.849	3713
822.99	3762
823.13	3789
823.27	3793
823.41	3755
823.55	3781
823.69	3717
823.83	3759
823.97	3675
824.11	3641
824.25	3599
824.389	3667
824.529	3652
824.669	3610
824.809	3728
824.949	3781
825.089	3740
825.228	3686
825.368	3591
825.508	3584
825.648	3584
825.787	3660
825.927	3622
826.067	3648
826.206	3671
826.346	3823
826.485	3835
826.625	3835
826.765	3972
826.904	3819
827.044	3625
827.183	3538
827.323	3405
827.462	3485
827.601	3409
827.741	3416
827.88	3466
828.02	3378
828.159	3443
828.298	3473
828.437	3580
828.577	3542
828.716	3648
828.855	3523
828.994	3378
829.134	3370
829.273	3401
829.412	3397
829.551	3378
829.69	3363
829.829	3439
829.968	3545
830.107	3435
830.246	3466
830.385	3370
830.524	3409
830.663	3310
830.802	3287
830.941	3192
831.08	3173
831.219	3272
831.357	3306
831.496	3405
831.635	3226
831.774	3199
831.913	3218
832.051	3138
832.19	3161
832.329	3226
832.467	3142
832.606	3142
832.744	3199
832.883	3211
833.022	3241
833.16	3260
833.299	3313
833.437	3348
833.576	3363
833.714	3409
833.852	3477
833.991	3477
834.129	3504
834.267	3473
834.406	3435
834.544	3443
834.682	3424
834.821	3420
834.959	3629
835.097	3435
835.235	3504
835.373	3519
835.511	3549
835.65	3485
835.788	3500
835.926	3420
836.064	3420
836.202	3416
836.34	3568
836.478	3587
836.615	3591
836.753	3595
836.891	3660
837.029	3564
837.167	3580
837.305	3587
837.443	3576
837.58	3507
837.718	3629
837.856	3534
837.993	3576
838.131	3637
838.269	3595
838.406	3572
838.544	3622
838.681	3450
838.819	3447
838.956	3378
839.094	3412
839.231	3462
839.369	3549
839.506	3770
839.643	3652
839.781	3526
839.918	3481
840.055	3568
840.193	3515
840.33	3545
840.467	3557
840.604	3618
840.742	3861
840.879	3553
841.016	3576
841.153	3614
841.29	3759
841.427	3713
841.564	3728
841.701	3732
841.838	3713
841.975	3705
842.112	3732
842.249	3625
842.385	3629
842.522	3854
842.659	3755
842.796	3736
842.933	3717
843.069	3667
843.206	3755
843.343	3774
843.479	3800
843.616	3835
843.752	3724
843.889	3686
844.025	3869
844.162	3732
844.298	3854
844.435	3827
844.571	3835
844.708	3899
844.844	3998
844.98	4010
845.117	4036
845.253	3926
845.389	3941
845.525	3979
845.661	3994
845.798	3960
845.934	4029
846.07	3987
846.206	4082
846.342	4131
846.478	4086
846.614	4013
846.75	3972
846.886	3930
847.022	4090
847.158	4021
847.294	4002
847.429	4036
847.565	4032
847.701	4246
847.837	3896
847.972	3907
848.108	4002
848.244	3937
848.379	3876
848.515	3835
848.65	3835
848.786	3869
848.921	3850
849.057	3953
849.192	3915
849.328	3949
849.463	3972
849.598	3934
849.734	3899
849.869	3876
850.004	3804
850.14	3854
850.275	3812
850.41	3751
850.545	3762
850.68	3835
850.815	3842
850.95	3850
851.085	3937
851.22	3888
851.355	3823
851.49	3823
851.625	3846
851.76	3789
851.895	3732
852.03	3751
852.165	3816
852.299	3842
852.434	3892
852.569	3869
852.703	3842
852.838	3956
852.973	3994
853.107	4029
853.242	3915
853.376	3865
853.511	3781
853.645	3842
853.78	3949
853.914	3922
854.048	3934
854.183	3907
854.317	3949
854.451	4124
854.585	3956
854.72	3960
854.854	4090
854.988	3941
855.122	4002
855.256	3918
855.39	4002
855.524	4116
855.658	4074
855.792	4101
855.926	4101
856.06	4158
856.194	4223
856.327	4143
856.461	4112
856.595	4120
856.729	4204
856.862	4314
856.996	4249
857.13	4318
857.263	4344
857.397	4352
857.53	4325
857.664	4405
857.797	4402
857.931	4417
858.064	4417
858.197	4462
858.331	4386
858.464	4348
858.597	4363
858.731	4485
858.864	4497
858.997	4470
859.13	4527
859.263	4554
859.396	4573
859.529	4535
859.662	4535
859.795	4497
859.928	4645
860.061	4744
860.194	4687
860.327	4740
860.46	4668
860.592	4698
860.725	4759
860.858	4774
860.99	4702
861.123	4664
861.256	4729
861.388	4786
861.521	5402
861.653	4725
861.786	4687
861.918	4812
862.05	4805
862.183	4904
862.315	4896
862.447	4923
862.58	4866
862.712	4828
862.844	4797
862.976	4904
863.108	4850
863.24	5303
863.372	4873
863.504	4923
863.636	4904
863.768	4968
863.9	4965
864.032	4927
864.164	4968
864.296	5048
864.428	5064
864.559	5094
864.691	5121
864.823	5143
864.954	5128
865.086	5189
865.217	5166
865.349	5155
865.48	5159
865.612	5227
865.743	5254
865.875	5216
866.006	5170
866.137	5242
866.269	5280
866.4	5220
866.531	5280
866.662	5258
866.793	5261
866.924	5296
867.055	5334
867.186	5391
867.317	5364
867.448	5322
867.579	5379
867.71	5425
867.841	5395
867.972	5474
868.103	5452
868.233	5478
868.364	5532
868.495	5608
868.625	5691
868.756	5832
868.886	5718
869.017	5733
869.147	5889
869.278	5885
869.408	5863
869.539	5889
869.669	5931
869.799	5954
869.929	6030
870.06	6015
870.19	6220
870.32	6228
870.45	6289
870.58	6315
870.71	6441
870.84	6460
870.97	6426
871.1	6460
871.23	6601
871.36	6692
871.489	6692
871.619	6821
871.749	6840
871.879	6852
872.008	7008
872.138	6989
872.267	7000
872.397	7019
872.526	7038
872.656	7114
872.785	7255
872.915	7384
873.044	7483
873.173	7552
873.303	7696
873.432	7765
873.561	7841
873.69	7883
873.819	8027
873.948	8210
874.077	8294
874.206	8328
874.335	8450
874.464	8640
874.593	8895
874.722	8906
874.851	9199
874.979	9306
875.108	9416
875.237	9363
875.365	9610
875.494	9648
875.623	9850
875.751	9827
875.88	10044
876.008	10192
876.136	10261
876.265	10558
876.393	10717
876.521	10790
876.65	10809
876.778	10919
876.906	10953
877.034	10972
877.162	11140
877.29	11117
877.418	11277
877.546	11322
877.674	11448
877.802	11459
877.93	11684
878.058	11539
878.185	11581
878.313	11642
878.441	11764
878.568	11718
878.696	11847
878.824	11923
878.951	11893
879.079	12098
879.206	12190
879.333	12011
879.461	12053
879.588	12041
879.715	11999
879.842	12220
879.97	12057
880.097	11870
880.224	11927
880.351	11824
880.478	11942
880.605	11798
880.732	11889
880.859	12026
880.986	11874
881.112	11722
881.239	11714
881.366	11710
881.493	11630
881.619	11592
881.746	11501
881.872	11524
881.999	11619
882.125	11490
882.252	11611
882.378	11497
882.505	11547
882.631	11345
882.757	11258
882.883	11406
883.01	11296
883.136	11140
883.262	11155
883.388	11140
883.514	11166
883.64	11193
883.766	11132
883.892	11052
884.018	11018
884.143	11052
884.269	11109
884.395	10866
884.52	10816
884.646	10782
884.772	10706
884.897	10733
885.023	10793
885.148	10771
885.274	10824
885.399	10656
885.524	10592
885.65	10584
885.775	10523
885.9	10592
886.025	10637
886.15	10577
886.275	10489
886.4	10470
886.525	10314
886.65	10394
886.775	10333
886.9	10531
887.025	10546
887.149	10405
887.274	10196
887.399	10265
887.523	10150
887.648	10162
887.773	10204
887.897	10325
888.021	10287
888.146	10162
888.27	10166
888.395	10261
888.519	10147
888.643	10150
888.767	10154
888.891	10120
889.015	9964
889.139	10105
889.263	9983
889.387	10082
889.511	10166
889.635	10109
889.759	9994
889.883	10029
890.006	10017
890.13	10154
890.254	10006
890.377	10025
890.501	9918
890.624	9991
890.748	9911
890.871	9800
890.995	9766
891.118	9709
891.241	9766
891.364	9770
891.488	9861
891.611	9755
891.734	9759
891.857	9724
891.98	9740
892.103	9793
892.226	9732
892.349	9686
892.471	9519
892.594	9641
892.717	9656
892.839	9629
892.962	9663
893.085	9671
893.207	9618
893.33	9622
893.452	9542
893.575	9641
893.697	9469
893.819	9686
893.941	9610
894.064	9633
894.186	9530
894.308	9370
894.43	9515
894.552	9572
894.674	9545
894.796	9359
894.918	9439
895.04	9310
895.161	9428
895.283	9351
895.405	9287
895.526	9310
895.648	9256
895.769	9222
895.891	9279
896.012	9313
896.134	9253
896.255	9241
896.376	9138
896.498	9165
896.619	9192
896.74	9138
896.861	9108
896.982	9306
897.103	9256
897.224	9195
897.345	9081
897.466	8998
897.587	9066
897.708	9161
897.828	9039
897.949	8982
898.07	8902
898.19	8925
898.311	9009
898.431	8944
898.552	8956
898.672	9013
898.792	8933
898.913	8883
899.033	8804
899.153	8739
899.273	8674
899.393	8739
899.513	8788
899.633	8705
899.753	8750
899.873	8678
899.993	8800
900.113	8720
900.232	8701
900.352	8670
900.472	8632
900.591	8617
900.711	8621
900.83	8587
900.95	8674
901.069	8689
901.189	8549
901.308	8484
901.427	8434
901.546	8450
901.665	8454
901.784	8621
901.904	8419
902.023	8389
902.141	8183
902.26	8229
902.379	8275
902.498	8286
902.617	8271
902.735	8328
902.854	8313
902.973	8305
903.091	8187
903.21	8130
903.328	8202
903.446	8130
903.565	8024
903.683	8138
903.801	8092
903.919	8130
904.038	8130
904.156	8065
904.274	8123
904.392	8020
904.51	8016
904.627	8039
904.745	8103
904.863	8126
904.981	7982
905.098	7898
905.216	7833
905.334	7864
905.451	7932
905.569	7917
905.686	7917
905.803	7902
905.921	7822
906.038	7940
906.155	7776
906.272	7719
906.389	7727
906.506	7658
906.623	7552
906.74	7681
906.857	7518
906.974	7582
907.091	7639
907.208	7670
907.324	7597
907.441	7578
907.557	7559
907.674	7476
907.79	7422
907.907	7453
908.023	7472
908.139	7434
908.256	7392
908.372	7388
908.488	7396
908.604	7316
908.72	7297
908.836	7285
908.952	7308
909.068	7297
909.184	7331
909.3	7251
909.415	7278
909.531	7305
909.647	7152
909.762	7122
909.878	7091
909.993	7240
910.108	7156
910.224	7137
910.339	7156
910.454	7008
910.57	7038
910.685	6977
910.8	7190
910.915	7107
911.03	7072
911.145	6913
911.259	6844
911.374	6989
911.489	6859
911.604	6806
911.718	6711
911.833	6745
911.947	6642
912.062	6536
912.176	6715
912.291	6715
912.405	6730
912.519	6806
912.633	6821
912.748	6764
912.862	6711
912.976	6616
913.09	6570
913.204	6631
913.318	6684
913.431	6677
913.545	6681
913.659	6711
913.772	6696
913.886	6642
914	6559
914.113	6563
914.226	6715
914.34	6677
914.453	6547
914.566	6627
914.68	6547
914.793	6570
914.906	6460
915.019	6410
915.132	6448
915.245	6486
915.358	6437
915.47	6460
915.583	6475
915.696	6498
915.809	6509
915.921	6521
916.034	6445
916.146	6422
916.259	6445
916.371	6498
916.483	6448
916.595	6441
916.708	6456
916.82	6380
916.932	6346
917.044	6422
917.156	6391
917.268	6285
917.38	6384
917.491	6319
917.603	6338
917.715	6422
917.826	6418
917.938	6350
918.049	6281
918.161	6369
918.272	6403
918.384	6471
918.495	6361
918.606	6266
918.717	6232
918.828	6292
918.939	6308
919.05	6205
919.161	6239
919.272	6102
919.383	6121
919.494	6311
919.604	6441
919.715	6270
919.826	6205
919.936	6270
920.047	6319
920.157	6319
920.267	6448
920.378	6331
920.488	6289
920.598	6448
920.708	6578
920.818	6483
920.928	6475
921.038	6597
921.148	6601
921.258	6380
921.368	6300
921.477	6258
921.587	6201
921.697	6171
921.806	6209
921.916	6133
922.025	6015
922.134	5897
922.244	5908
922.353	5988
922.462	5863
922.571	5748
922.68	5718
922.789	5710
922.898	5737
923.007	5642
923.116	5665
923.224	5691
923.333	5680
923.442	5623
923.55	5589
923.659	5566
923.767	5661
923.876	5554
923.984	5589
924.092	5516
924.201	5524
924.309	5566
924.417	5608
924.525	5512
924.633	5490
924.741	6342
924.849	5349
924.956	5486
925.064	5417
925.172	5345
925.279	5349
925.387	5402
925.494	5315
925.602	5471
925.709	5433
925.816	5235
925.924	5357
926.031	5387
926.138	5284
926.245	5326
926.352	5273
926.459	5303
926.566	5357
926.673	5258
926.779	5155
926.886	5155
926.993	5079
927.099	5006
927.206	4984
927.312	4987
927.419	4999
927.525	4968
927.631	5022
927.737	4900
927.843	4889
927.95	4824
928.056	4843
928.162	4847
928.267	4885
928.373	5341
928.479	4843
928.585	4656
928.69	4805
928.796	4812
928.901	4725
929.007	4626
929.112	4687
929.218	4626
929.323	4588
929.428	4607
929.533	4714
929.638	4569
929.743	4554
929.848	4577
929.953	4497
930.058	4478
930.163	4306
930.267	4348
930.372	4478
930.477	4371
930.581	4519
930.685	4341
930.79	4284
930.894	4329
930.998	4276
931.103	4413
931.207	4169
931.311	4105
931.415	4105
931.519	3975
931.623	3930
