Data from glass_V78500241_918.txt Node
Date: Wed Sep 01 19:20:51 CST 2021
User: usil
Spectrometer: V785-0024
Trigger mode: 0
Integration Time (sec): 4.000000E-1
Scans to average: 1
Nonlinearity correction enabled: false
Boxcar width: 0
Storing dark spectrum: false
XAxis mode: Wavelengths
Number of Pixels in Spectrum: 1024
>>>>>Begin Spectral Data<<<<<
801.071	3766
801.214	3751
801.356	3747
801.499	3770
801.641	3732
801.783	3785
801.926	3884
802.068	3854
802.211	3869
802.353	3915
802.496	3861
802.638	3911
802.78	3899
802.923	3949
803.065	3846
803.208	3873
803.35	3884
803.492	3911
803.635	3907
803.777	3854
803.919	3899
804.061	4124
804.204	4013
804.346	3949
804.488	3953
804.63	4055
804.773	3975
804.915	4021
805.057	4188
805.199	4067
805.341	4131
805.483	4166
805.626	4150
805.768	4093
805.91	4211
806.052	4249
806.194	4158
806.336	4371
806.478	4246
806.62	4173
806.762	4192
806.904	4268
807.046	4367
807.188	4215
807.33	4196
807.472	4207
807.614	4162
807.756	4284
807.898	4188
808.04	4204
808.182	4303
808.324	4329
808.465	4424
808.607	4497
808.749	4462
808.891	4447
809.033	4512
809.174	4424
809.316	4280
809.458	4200
809.6	4147
809.741	4158
809.883	4204
810.025	4215
810.166	4162
810.308	4246
810.45	4265
810.591	4295
810.733	4276
810.875	4497
811.016	4850
811.158	5159
811.299	5269
811.441	5330
811.582	5052
811.724	4721
811.865	4504
812.007	4451
812.148	4447
812.29	4436
812.431	4455
812.573	4379
812.714	4413
812.855	4405
812.997	4455
813.138	4455
813.279	4432
813.421	4417
813.562	4367
813.703	4390
813.845	4386
813.986	4249
814.127	4249
814.268	4280
814.41	4341
814.551	4257
814.692	4329
814.833	4272
814.974	4322
815.115	4367
815.256	4242
815.397	4230
815.539	4280
815.68	4219
815.821	4249
815.962	4306
816.103	4295
816.244	4219
816.385	4204
816.526	4227
816.666	4227
816.807	4116
816.948	4196
817.089	4207
817.23	4128
817.371	4040
817.512	4055
817.653	4082
817.793	4074
817.934	4074
818.075	4150
818.216	4090
818.356	4074
818.497	3987
818.638	3949
818.778	3918
818.919	3865
819.06	3869
819.2	3911
819.341	3899
819.481	3850
819.622	3960
819.762	4048
819.903	3960
820.043	3876
820.184	3800
820.324	3812
820.465	3835
820.605	3884
820.746	3896
820.886	3766
821.026	3945
821.167	3937
821.307	3960
821.447	3941
821.588	3949
821.728	3937
821.868	3945
822.008	3876
822.149	3903
822.289	3979
822.429	3793
822.569	3800
822.709	3808
822.849	3713
822.99	3736
823.13	3774
823.27	3785
823.41	3732
823.55	3759
823.69	3766
823.83	3751
823.97	3671
824.11	3644
824.25	3591
824.389	3637
824.529	3667
824.669	3652
824.809	3755
824.949	3743
825.089	3713
825.228	3690
825.368	3606
825.508	3553
825.648	3515
825.787	3625
825.927	3641
826.067	3644
826.206	3690
826.346	3857
826.485	3819
826.625	3884
826.765	3937
826.904	3869
827.044	3606
827.183	3507
827.323	3454
827.462	3515
827.601	3412
827.741	3416
827.88	3443
828.02	3405
828.159	3469
828.298	3462
828.437	3511
828.577	3507
828.716	3603
828.855	3515
828.994	3401
829.134	3336
829.273	3401
829.412	3325
829.551	3363
829.69	3363
829.829	3435
829.968	3523
830.107	3412
830.246	3435
830.385	3370
830.524	3355
830.663	3340
830.802	3279
830.941	3199
831.08	3188
831.219	3298
831.357	3260
831.496	3405
831.635	3272
831.774	3211
831.913	3195
832.051	3119
832.19	3176
832.329	3176
832.467	3135
832.606	3112
832.744	3199
832.883	3192
833.022	3195
833.16	3207
833.299	3283
833.437	3329
833.576	3405
833.714	3416
833.852	3405
833.991	3496
834.129	3462
834.267	3439
834.406	3397
834.544	3397
834.682	3450
834.821	3435
834.959	3557
835.097	3424
835.235	3530
835.373	3526
835.511	3507
835.65	3458
835.788	3542
835.926	3431
836.064	3359
836.202	3389
836.34	3584
836.478	3637
836.615	3511
836.753	3610
836.891	3713
837.029	3633
837.167	3618
837.305	3561
837.443	3538
837.58	3534
837.718	3603
837.856	3576
837.993	3545
838.131	3606
838.269	3549
838.406	3587
838.544	3625
838.681	3473
838.819	3466
838.956	3317
839.094	3370
839.231	3454
839.369	3515
839.506	3713
839.643	3644
839.781	3534
839.918	3485
840.055	3564
840.193	3530
840.33	3549
840.467	3542
840.604	3618
840.742	3770
840.879	3572
841.016	3587
841.153	3610
841.29	3751
841.427	3682
841.564	3724
841.701	3781
841.838	3682
841.975	3660
842.112	3732
842.249	3587
842.385	3660
842.522	3823
842.659	3774
842.796	3671
842.933	3686
843.069	3728
843.206	3732
843.343	3842
843.479	3797
843.616	3850
843.752	3732
843.889	3679
844.025	3934
844.162	3713
844.298	3842
844.435	3835
844.571	3797
844.708	3941
844.844	3987
844.98	4036
845.117	4013
845.253	3896
845.389	3922
845.525	3983
845.661	3991
845.798	3949
845.934	4017
846.07	3972
846.206	4082
846.342	4128
846.478	4082
846.614	4044
846.75	3937
846.886	3930
847.022	4090
847.158	4006
847.294	4021
847.429	4029
847.565	4029
847.701	4211
847.837	3915
847.972	3865
848.108	4002
848.244	3979
848.379	3892
848.515	3808
848.65	3850
848.786	3861
848.921	3861
849.057	3972
849.192	3915
849.328	3922
849.463	3926
849.598	3911
849.734	3831
849.869	3865
850.004	3778
850.14	3819
850.275	3804
850.41	3724
850.545	3789
850.68	3778
850.815	3831
850.95	3785
851.085	3953
851.22	3915
851.355	3876
851.49	3778
851.625	3789
851.76	3850
851.895	3759
852.03	3766
852.165	3793
852.299	3850
852.434	3884
852.569	3857
852.703	3926
852.838	3953
852.973	4029
853.107	3979
853.242	3880
853.376	3865
853.511	3743
853.645	3873
853.78	4029
853.914	3934
854.048	3911
854.183	3884
854.317	3956
854.451	4071
854.585	3956
854.72	3934
854.854	4036
854.988	3972
855.122	4013
855.256	3968
855.39	4010
855.524	4112
855.658	4055
855.792	4055
855.926	4154
856.06	4166
856.194	4200
856.327	4166
856.461	4112
856.595	4162
856.729	4173
856.862	4280
856.996	4268
857.13	4314
857.263	4363
857.397	4375
857.53	4287
857.664	4375
857.797	4421
857.931	4413
858.064	4440
858.197	4478
858.331	4436
858.464	4390
858.597	4363
858.731	4470
858.864	4485
858.997	4436
859.13	4554
859.263	4554
859.396	4607
859.529	4500
859.662	4569
859.795	4519
859.928	4641
860.061	4710
860.194	4763
860.327	4637
860.46	4626
860.592	4752
860.725	4736
860.858	4725
860.99	4679
861.123	4664
861.256	4679
861.388	4782
861.521	5463
861.653	4714
861.786	4702
861.918	4755
862.05	4828
862.183	4862
862.315	4896
862.447	4923
862.58	4873
862.712	4805
862.844	4790
862.976	4866
863.108	4862
863.24	5197
863.372	4850
863.504	4892
863.636	4930
863.768	4946
863.9	4972
864.032	4965
864.164	4942
864.296	5075
864.428	5113
864.559	5052
864.691	5124
864.823	5132
864.954	5094
865.086	5128
865.217	5136
865.349	5094
865.48	5201
865.612	5239
865.743	5326
865.875	5242
866.006	5235
866.137	5204
866.269	5299
866.4	5258
866.531	5303
866.662	5239
866.793	5292
866.924	5296
867.055	5288
867.186	5334
867.317	5364
867.448	5277
867.579	5395
867.71	5341
867.841	5391
867.972	5455
868.103	5490
868.233	5463
868.364	5554
868.495	5535
868.625	5653
868.756	5824
868.886	5634
869.017	5733
869.147	5851
869.278	5870
869.408	5809
869.539	5832
869.669	5961
869.799	5939
869.929	6011
870.06	6026
870.19	6194
870.32	6163
870.45	6372
870.58	6331
870.71	6464
870.84	6509
870.97	6448
871.1	6445
871.23	6665
871.36	6688
871.489	6688
871.619	6810
871.749	6825
871.879	6882
872.008	7046
872.138	6996
872.267	7061
872.397	7008
872.526	7053
872.656	7122
872.785	7198
872.915	7495
873.044	7521
873.173	7571
873.303	7666
873.432	7811
873.561	7883
873.69	7947
873.819	8084
873.948	8119
874.077	8301
874.206	8286
874.335	8473
874.464	8693
874.593	8819
874.722	8921
874.851	9154
874.979	9233
875.108	9393
875.237	9500
875.365	9542
875.494	9656
875.623	9812
875.751	9873
875.88	10021
876.008	10150
876.136	10291
876.265	10516
876.393	10656
876.521	10683
876.65	10767
876.778	10946
876.906	10927
877.034	11003
877.162	11098
877.29	11136
877.418	11261
877.546	11387
877.674	11421
877.802	11459
877.93	11516
878.058	11467
878.185	11596
878.313	11718
878.441	11851
878.568	11672
878.696	11771
878.824	11828
878.951	11893
879.079	12041
879.206	12106
879.333	12068
879.461	12007
879.588	11984
879.715	12011
879.842	12270
879.97	12148
880.097	11923
880.224	11904
880.351	11904
880.478	11920
880.605	11783
880.732	11836
880.859	12136
880.986	11821
881.112	11859
881.239	11699
881.366	11657
881.493	11577
881.619	11623
881.746	11551
881.872	11596
881.999	11543
882.125	11444
882.252	11532
882.378	11554
882.505	11592
882.631	11391
882.757	11299
882.883	11292
883.01	11254
883.136	11189
883.262	11037
883.388	11132
883.514	11261
883.64	11189
883.766	11056
883.892	11041
884.018	10953
884.143	11056
884.269	11098
884.395	10812
884.52	10702
884.646	10782
884.772	10702
884.897	10664
885.023	10774
885.148	10698
885.274	10793
885.399	10675
885.524	10649
885.65	10649
885.775	10675
885.9	10622
886.025	10599
886.15	10603
886.275	10497
886.4	10398
886.525	10447
886.65	10382
886.775	10344
886.9	10455
887.025	10580
887.149	10432
887.274	10200
887.399	10253
887.523	10211
887.648	10181
887.773	10116
887.897	10246
888.021	10272
888.146	10093
888.27	10314
888.395	10204
888.519	10204
888.643	10158
888.767	10207
888.891	10063
889.015	10067
889.139	10139
889.263	10006
889.387	10082
889.511	10150
889.635	10040
889.759	10006
889.883	10021
890.006	10032
890.13	10116
890.254	9983
890.377	9983
890.501	9861
890.624	9903
890.748	9964
890.871	9808
890.995	9831
891.118	9762
891.241	9759
891.364	9751
891.488	9774
891.611	9778
891.734	9778
891.857	9774
891.98	9705
892.103	9671
892.226	9797
892.349	9663
892.471	9553
892.594	9606
892.717	9625
892.839	9538
892.962	9637
893.085	9637
893.207	9576
893.33	9526
893.452	9515
893.575	9622
893.697	9561
893.819	9614
893.941	9667
894.064	9622
894.186	9412
894.308	9466
894.43	9576
894.552	9618
894.674	9576
894.796	9382
894.918	9405
895.04	9393
895.161	9397
895.283	9313
895.405	9268
895.526	9363
895.648	9233
895.769	9203
895.891	9245
896.012	9298
896.134	9233
896.255	9123
896.376	9188
896.498	9123
896.619	9116
896.74	9123
896.861	9112
896.982	9317
897.103	9386
897.224	9180
897.345	9066
897.466	9005
897.587	9017
897.708	9138
897.828	9009
897.949	8982
898.07	8823
898.19	8899
898.311	9077
898.431	8891
898.552	8941
898.672	8933
898.792	8971
898.913	8914
899.033	8872
899.153	8746
899.273	8735
899.393	8743
899.513	8750
899.633	8674
899.753	8697
899.873	8708
899.993	8708
900.113	8746
900.232	8754
900.352	8651
900.472	8556
900.591	8541
900.711	8610
900.83	8617
900.95	8667
901.069	8659
901.189	8575
901.308	8446
901.427	8408
901.546	8427
901.665	8473
901.784	8526
901.904	8343
902.023	8313
902.141	8233
902.26	8161
902.379	8248
902.498	8282
902.617	8172
902.735	8252
902.854	8301
902.973	8282
903.091	8111
903.21	8183
903.328	8210
903.446	8206
903.565	8073
903.683	8073
903.801	8031
903.919	8069
904.038	8126
904.156	8050
904.274	8077
904.392	7970
904.51	8031
904.627	8077
904.745	8092
904.863	8096
904.981	7887
905.098	7841
905.216	7883
905.334	7894
905.451	7833
905.569	7898
905.686	7883
905.803	7940
905.921	7723
906.038	7890
906.155	7750
906.272	7742
906.389	7734
906.506	7628
906.623	7601
906.74	7639
906.857	7628
906.974	7590
907.091	7689
907.208	7753
907.324	7674
907.441	7620
907.557	7472
907.674	7476
907.79	7369
907.907	7483
908.023	7434
908.139	7434
908.256	7400
908.372	7403
908.488	7358
908.604	7316
908.72	7259
908.836	7293
908.952	7247
909.068	7217
909.184	7354
909.3	7255
909.415	7278
909.531	7209
909.647	7137
909.762	7107
909.878	7141
909.993	7133
910.108	7171
910.224	7103
910.339	7091
910.454	7103
910.57	7019
910.685	6905
910.8	7206
910.915	7042
911.03	7057
911.145	6897
911.259	6924
911.374	6928
911.489	6798
911.604	6833
911.718	6745
911.833	6749
911.947	6646
912.062	6601
912.176	6703
912.291	6669
912.405	6673
912.519	6802
912.633	6894
912.748	6776
912.862	6688
912.976	6604
913.09	6566
913.204	6551
913.318	6646
913.431	6669
913.545	6703
913.659	6673
913.772	6715
913.886	6650
914	6544
914.113	6631
914.226	6642
914.34	6669
914.453	6525
914.566	6601
914.68	6521
914.793	6540
914.906	6422
915.019	6437
915.132	6388
915.245	6376
915.358	6486
915.47	6464
915.583	6452
915.696	6498
915.809	6532
915.921	6547
916.034	6429
916.146	6486
916.259	6410
916.371	6433
916.483	6479
916.595	6372
916.708	6460
916.82	6426
916.932	6346
917.044	6369
917.156	6395
917.268	6342
917.38	6338
917.491	6304
917.603	6384
917.715	6369
917.826	6464
917.938	6346
918.049	6273
918.161	6369
918.272	6388
918.384	6471
918.495	6342
918.606	6300
918.717	6220
918.828	6300
918.939	6300
919.05	6213
919.161	6277
919.272	6167
919.383	6106
919.494	6327
919.604	6426
919.715	6300
919.826	6220
919.936	6228
920.047	6311
920.157	6277
920.267	6475
920.378	6376
920.488	6281
920.598	6426
920.708	6593
920.818	6448
920.928	6426
921.038	6608
921.148	6627
921.258	6369
921.368	6296
921.477	6254
921.587	6140
921.697	6136
921.806	6121
921.916	6114
922.025	5954
922.134	5923
922.244	5870
922.353	5969
922.462	5840
922.571	5779
922.68	5680
922.789	5703
922.898	5729
923.007	5627
923.116	5745
923.224	5691
923.333	5611
923.442	5589
923.55	5551
923.659	5611
923.767	5661
923.876	5516
923.984	5600
924.092	5520
924.201	5516
924.309	5585
924.417	5566
924.525	5482
924.633	5520
924.741	6133
924.849	5436
924.956	5490
925.064	5395
925.172	5307
925.279	5318
925.387	5334
925.494	5345
925.602	5455
925.709	5395
925.816	5254
925.924	5334
926.031	5353
926.138	5307
926.245	5349
926.352	5216
926.459	5315
926.566	5307
926.673	5204
926.779	5166
926.886	5056
926.993	5064
927.099	5037
927.206	5022
927.312	4987
927.419	5010
927.525	5018
927.631	4961
927.737	4904
927.843	4892
927.95	4740
928.056	4866
928.162	4843
928.267	4843
928.373	5360
928.479	4881
928.585	4698
928.69	4843
928.796	4733
928.901	4649
929.007	4634
929.112	4710
929.218	4630
929.323	4580
929.428	4603
929.533	4641
929.638	4554
929.743	4535
929.848	4554
929.953	4519
930.058	4455
930.163	4386
930.267	4352
930.372	4417
930.477	4337
930.581	4462
930.685	4352
930.79	4261
930.894	4291
930.998	4265
931.103	4405
931.207	4150
931.311	4082
931.415	4154
931.519	3945
931.623	3964
