Data from glass_V78500241_931.txt Node
Date: Wed Sep 01 19:20:57 CST 2021
User: usil
Spectrometer: V785-0024
Trigger mode: 0
Integration Time (sec): 4.000000E-1
Scans to average: 1
Nonlinearity correction enabled: false
Boxcar width: 0
Storing dark spectrum: false
XAxis mode: Wavelengths
Number of Pixels in Spectrum: 1024
>>>>>Begin Spectral Data<<<<<
801.071	3728
801.214	3751
801.356	3755
801.499	3747
801.641	3759
801.783	3800
801.926	3842
802.068	3838
802.211	3869
802.353	3903
802.496	3842
802.638	3873
802.78	3915
802.923	3930
803.065	3903
803.208	3838
803.35	3869
803.492	3903
803.635	3960
803.777	3800
803.919	3926
804.061	4162
804.204	3930
804.346	3941
804.488	3930
804.63	4051
804.773	3926
804.915	4051
805.057	4131
805.199	4059
805.341	4082
805.483	4124
805.626	4173
805.768	4082
805.91	4246
806.052	4223
806.194	4238
806.336	4348
806.478	4219
806.62	4177
806.762	4188
806.904	4325
807.046	4306
807.188	4265
807.33	4230
807.472	4234
807.614	4200
807.756	4276
807.898	4246
808.04	4219
808.182	4287
808.324	4276
808.465	4402
808.607	4485
808.749	4481
808.891	4493
809.033	4542
809.174	4409
809.316	4257
809.458	4265
809.6	4162
809.741	4143
809.883	4109
810.025	4272
810.166	4249
810.308	4215
810.45	4192
810.591	4280
810.733	4299
810.875	4554
811.016	4820
811.158	5166
811.299	5284
811.441	5326
811.582	5067
811.724	4744
811.865	4500
812.007	4485
812.148	4497
812.29	4428
812.431	4360
812.573	4398
812.714	4417
812.855	4398
812.997	4436
813.138	4485
813.279	4447
813.421	4398
813.562	4428
813.703	4318
813.845	4394
813.986	4291
814.127	4257
814.268	4291
814.41	4287
814.551	4291
814.692	4337
814.833	4246
814.974	4341
815.115	4333
815.256	4238
815.397	4246
815.539	4242
815.68	4177
815.821	4291
815.962	4318
816.103	4272
816.244	4223
816.385	4181
816.526	4318
816.666	4261
816.807	4147
816.948	4204
817.089	4177
817.23	4128
817.371	4067
817.512	4074
817.653	4048
817.793	3998
817.934	4017
818.075	4135
818.216	4048
818.356	4074
818.497	3987
818.638	3888
818.778	3903
818.919	3903
819.06	3873
819.2	3907
819.341	3915
819.481	3854
819.622	3899
819.762	4029
819.903	3930
820.043	3819
820.184	3861
820.324	3842
820.465	3899
820.605	3884
820.746	3922
820.886	3819
821.026	3937
821.167	3907
821.307	3983
821.447	3960
821.588	3975
821.728	3983
821.868	3926
822.008	3854
822.149	3903
822.289	3915
822.429	3797
822.569	3759
822.709	3842
822.849	3690
822.99	3743
823.13	3785
823.27	3804
823.41	3701
823.55	3740
823.69	3740
823.83	3759
823.97	3724
824.11	3629
824.25	3606
824.389	3644
824.529	3641
824.669	3603
824.809	3720
824.949	3766
825.089	3705
825.228	3679
825.368	3606
825.508	3595
825.648	3580
825.787	3614
825.927	3644
826.067	3656
826.206	3694
826.346	3774
826.485	3888
826.625	3869
826.765	3979
826.904	3857
827.044	3637
827.183	3500
827.323	3443
827.462	3500
827.601	3443
827.741	3466
827.88	3469
828.02	3359
828.159	3454
828.298	3500
828.437	3530
828.577	3492
828.716	3568
828.855	3538
828.994	3386
829.134	3405
829.273	3443
829.412	3370
829.551	3367
829.69	3393
829.829	3473
829.968	3515
830.107	3412
830.246	3462
830.385	3367
830.524	3374
830.663	3287
830.802	3241
830.941	3203
831.08	3199
831.219	3283
831.357	3287
831.496	3439
831.635	3256
831.774	3214
831.913	3169
832.051	3131
832.19	3150
832.329	3218
832.467	3123
832.606	3123
832.744	3192
832.883	3192
833.022	3211
833.16	3283
833.299	3336
833.437	3336
833.576	3382
833.714	3393
833.852	3439
833.991	3500
834.129	3481
834.267	3458
834.406	3393
834.544	3424
834.682	3424
834.821	3428
834.959	3549
835.097	3405
835.235	3545
835.373	3500
835.511	3504
835.65	3477
835.788	3504
835.926	3405
836.064	3363
836.202	3443
836.34	3580
836.478	3595
836.615	3534
836.753	3656
836.891	3652
837.029	3629
837.167	3595
837.305	3576
837.443	3557
837.58	3496
837.718	3633
837.856	3584
837.993	3526
838.131	3591
838.269	3603
838.406	3629
838.544	3591
838.681	3485
838.819	3450
838.956	3386
839.094	3412
839.231	3447
839.369	3500
839.506	3755
839.643	3652
839.781	3515
839.918	3492
840.055	3511
840.193	3557
840.33	3549
840.467	3580
840.604	3603
840.742	3812
840.879	3545
841.016	3595
841.153	3622
841.29	3766
841.427	3713
841.564	3705
841.701	3797
841.838	3736
841.975	3694
842.112	3728
842.249	3690
842.385	3644
842.522	3816
842.659	3686
842.796	3682
842.933	3747
843.069	3724
843.206	3682
843.343	3838
843.479	3759
843.616	3854
843.752	3690
843.889	3690
844.025	3861
844.162	3713
844.298	3850
844.435	3835
844.571	3808
844.708	3945
844.844	4048
844.98	4036
845.117	4013
845.253	3892
845.389	3907
845.525	3975
845.661	3941
845.798	3918
845.934	3991
846.07	3983
846.206	4097
846.342	4131
846.478	4082
846.614	3998
846.75	3972
846.886	3964
847.022	4067
847.158	3983
847.294	4010
847.429	4040
847.565	4013
847.701	4238
847.837	3876
847.972	3850
848.108	3983
848.244	3964
848.379	3865
848.515	3819
848.65	3800
848.786	3846
848.921	3869
849.057	3945
849.192	3960
849.328	3911
849.463	3907
849.598	3899
849.734	3880
849.869	3835
850.004	3808
850.14	3819
850.275	3793
850.41	3747
850.545	3823
850.68	3812
850.815	3812
850.95	3816
851.085	3979
851.22	3888
851.355	3835
851.49	3774
851.625	3785
851.76	3762
851.895	3770
852.03	3717
852.165	3812
852.299	3831
852.434	3926
852.569	3876
852.703	3911
852.838	3934
852.973	4032
853.107	3998
853.242	3888
853.376	3899
853.511	3785
853.645	3823
853.78	4010
853.914	3926
854.048	3880
854.183	3896
854.317	4021
854.451	4109
854.585	3964
854.72	3915
854.854	4048
854.988	3934
855.122	3998
855.256	3880
855.39	4029
855.524	4090
855.658	4124
855.792	4101
855.926	4192
856.06	4181
856.194	4181
856.327	4158
856.461	4166
856.595	4169
856.729	4211
856.862	4261
856.996	4249
857.13	4322
857.263	4379
857.397	4333
857.53	4322
857.664	4390
857.797	4398
857.931	4417
858.064	4405
858.197	4405
858.331	4436
858.464	4413
858.597	4375
858.731	4428
858.864	4466
858.997	4451
859.13	4504
859.263	4519
859.396	4626
859.529	4531
859.662	4577
859.795	4527
859.928	4588
860.061	4675
860.194	4706
860.327	4691
860.46	4656
860.592	4763
860.725	4752
860.858	4744
860.99	4694
861.123	4748
861.256	4683
861.388	4774
861.521	5486
861.653	4748
861.786	4733
861.918	4740
862.05	4774
862.183	4896
862.315	4885
862.447	4949
862.58	4911
862.712	4809
862.844	4774
862.976	4904
863.108	4850
863.24	5136
863.372	4870
863.504	4923
863.636	4911
863.768	4957
863.9	4942
864.032	4965
864.164	4984
864.296	5060
864.428	5079
864.559	5128
864.691	5124
864.823	5151
864.954	5105
865.086	5174
865.217	5132
865.349	5113
865.48	5189
865.612	5212
865.743	5334
865.875	5212
866.006	5242
866.137	5246
866.269	5235
866.4	5212
866.531	5212
866.662	5227
866.793	5303
866.924	5280
867.055	5311
867.186	5337
867.317	5345
867.448	5322
867.579	5395
867.71	5345
867.841	5417
867.972	5417
868.103	5478
868.233	5482
868.364	5444
868.495	5547
868.625	5688
868.756	5775
868.886	5672
869.017	5737
869.147	5878
869.278	5893
869.408	5828
869.539	5866
869.669	5935
869.799	5901
869.929	5954
870.06	6026
870.19	6232
870.32	6216
870.45	6277
870.58	6346
870.71	6437
870.84	6395
870.97	6391
871.1	6422
871.23	6677
871.36	6757
871.489	6719
871.619	6760
871.749	6852
871.879	6894
872.008	7008
872.138	7072
872.267	6977
872.397	7019
872.526	7008
872.656	7129
872.785	7221
872.915	7449
873.044	7521
873.173	7620
873.303	7723
873.432	7753
873.561	7909
873.69	7970
873.819	8046
873.948	8123
874.077	8282
874.206	8385
874.335	8400
874.464	8689
874.593	8937
874.722	8925
874.851	9169
874.979	9241
875.108	9401
875.237	9424
875.365	9538
875.494	9648
875.623	9857
875.751	9827
875.88	9991
876.008	10230
876.136	10249
876.265	10516
876.393	10694
876.521	10752
876.65	10831
876.778	10881
876.906	10930
877.034	10995
877.162	11022
877.29	11147
877.418	11349
877.546	11356
877.674	11512
877.802	11436
877.93	11512
878.058	11570
878.185	11573
878.313	11699
878.441	11756
878.568	11764
878.696	11745
878.824	11863
878.951	11965
879.079	12011
879.206	12194
879.333	12079
879.461	12064
879.588	12026
879.715	12091
879.842	12159
879.97	12045
880.097	11855
880.224	11904
880.351	11817
880.478	11863
880.605	11916
880.732	11809
880.859	11916
880.986	11866
881.112	11878
881.239	11752
881.366	11707
881.493	11535
881.619	11570
881.746	11619
881.872	11566
881.999	11493
882.125	11471
882.252	11566
882.378	11573
882.505	11493
882.631	11467
882.757	11330
882.883	11311
883.01	11296
883.136	11231
883.262	11109
883.388	11109
883.514	11159
883.64	11201
883.766	11067
883.892	11052
884.018	11060
884.143	11045
884.269	11048
884.395	10828
884.52	10809
884.646	10759
884.772	10698
884.897	10675
885.023	10710
885.148	10752
885.274	10812
885.399	10691
885.524	10656
885.65	10645
885.775	10607
885.9	10558
886.025	10607
886.15	10535
886.275	10394
886.4	10447
886.525	10409
886.65	10379
886.775	10398
886.9	10462
887.025	10500
887.149	10382
887.274	10344
887.399	10207
887.523	10211
887.648	10215
887.773	10192
887.897	10276
888.021	10261
888.146	10135
888.27	10219
888.395	10219
888.519	10196
888.643	10192
888.767	10211
888.891	10086
889.015	9972
889.139	10017
889.263	10044
889.387	10086
889.511	10109
889.635	10120
889.759	10013
889.883	9975
890.006	10013
890.13	10025
890.254	10029
890.377	9922
890.501	9812
890.624	9926
890.748	9884
890.871	9930
890.995	9797
891.118	9759
891.241	9717
891.364	9781
891.488	9892
891.611	9724
891.734	9846
891.857	9873
891.98	9667
892.103	9694
892.226	9740
892.349	9667
892.471	9542
892.594	9572
892.717	9603
892.839	9591
892.962	9622
893.085	9694
893.207	9580
893.33	9557
893.452	9618
893.575	9610
893.697	9492
893.819	9595
893.941	9614
894.064	9633
894.186	9447
894.308	9450
894.43	9519
894.552	9595
894.674	9561
894.796	9416
894.918	9412
895.04	9332
895.161	9340
895.283	9348
895.405	9233
895.526	9253
895.648	9180
895.769	9211
895.891	9272
896.012	9279
896.134	9176
896.255	9184
896.376	9097
896.498	9218
896.619	9176
896.74	9127
896.861	9093
896.982	9291
897.103	9287
897.224	9157
897.345	9146
897.466	9108
897.587	9119
897.708	9112
897.828	8998
897.949	8948
898.07	8868
898.19	9028
898.311	8990
898.431	8895
898.552	8960
898.672	9089
898.792	8986
898.913	8914
899.033	8807
899.153	8754
899.273	8724
899.393	8785
899.513	8762
899.633	8804
899.753	8762
899.873	8678
899.993	8758
900.113	8689
900.232	8686
900.352	8651
900.472	8613
900.591	8610
900.711	8659
900.83	8598
900.95	8678
901.069	8667
901.189	8590
901.308	8457
901.427	8332
901.546	8450
901.665	8442
901.784	8526
901.904	8351
902.023	8370
902.141	8248
902.26	8180
902.379	8313
902.498	8233
902.617	8282
902.735	8294
902.854	8275
902.973	8294
903.091	8054
903.21	8126
903.328	8115
903.446	8214
903.565	8050
903.683	8088
903.801	8123
903.919	8123
904.038	8187
904.156	8069
904.274	8073
904.392	8035
904.51	8119
904.627	8016
904.745	8039
904.863	8092
904.981	7940
905.098	7906
905.216	7909
905.334	7890
905.451	7921
905.569	7921
905.686	7940
905.803	8039
905.921	7784
906.038	7925
906.155	7830
906.272	7700
906.389	7765
906.506	7681
906.623	7597
906.74	7624
906.857	7556
906.974	7594
907.091	7636
907.208	7723
907.324	7670
907.441	7594
907.557	7460
907.674	7445
907.79	7438
907.907	7426
908.023	7480
908.139	7438
908.256	7403
908.372	7400
908.488	7354
908.604	7308
908.72	7263
908.836	7293
908.952	7263
909.068	7274
909.184	7331
909.3	7221
909.415	7285
909.531	7289
909.647	7171
909.762	7126
909.878	7141
909.993	7194
910.108	7057
910.224	7069
910.339	7187
910.454	7027
910.57	7000
910.685	7023
910.8	7194
910.915	7145
911.03	7027
911.145	6856
911.259	6920
911.374	6894
911.489	6825
911.604	6878
911.718	6768
911.833	6760
911.947	6692
912.062	6608
912.176	6719
912.291	6707
912.405	6734
912.519	6837
912.633	6833
912.748	6719
912.862	6715
912.976	6703
913.09	6486
913.204	6559
913.318	6616
913.431	6650
913.545	6677
913.659	6741
913.772	6650
913.886	6646
914	6555
914.113	6620
914.226	6654
914.34	6635
914.453	6494
914.566	6593
914.68	6528
914.793	6494
914.906	6410
915.019	6361
915.132	6395
915.245	6452
915.358	6486
915.47	6517
915.583	6445
915.696	6547
915.809	6502
915.921	6525
916.034	6433
916.146	6418
916.259	6395
916.371	6475
916.483	6502
916.595	6407
916.708	6403
916.82	6429
916.932	6388
917.044	6414
917.156	6391
917.268	6323
917.38	6285
917.491	6296
917.603	6369
917.715	6452
917.826	6418
917.938	6350
918.049	6273
918.161	6342
918.272	6422
918.384	6471
918.495	6395
918.606	6342
918.717	6167
918.828	6262
918.939	6216
919.05	6190
919.161	6247
919.272	6190
919.383	6182
919.494	6292
919.604	6441
919.715	6338
919.826	6258
919.936	6247
920.047	6380
920.157	6277
920.267	6384
920.378	6319
920.488	6357
920.598	6445
920.708	6585
920.818	6467
920.928	6448
921.038	6585
921.148	6521
921.258	6388
921.368	6311
921.477	6258
921.587	6194
921.697	6098
921.806	6213
921.916	6049
922.025	5980
922.134	5908
922.244	5863
922.353	6003
922.462	5859
922.571	5790
922.68	5726
922.789	5695
922.898	5733
923.007	5646
923.116	5748
923.224	5745
923.333	5748
923.442	5600
923.55	5608
923.659	5615
923.767	5649
923.876	5600
923.984	5604
924.092	5532
924.201	5535
924.309	5570
924.417	5547
924.525	5474
924.633	5497
924.741	6152
924.849	5383
924.956	5520
925.064	5318
925.172	5315
925.279	5269
925.387	5402
925.494	5383
925.602	5440
925.709	5429
925.816	5322
925.924	5296
926.031	5364
926.138	5379
926.245	5318
926.352	5246
926.459	5353
926.566	5406
926.673	5197
926.779	5132
926.886	5143
926.993	5014
927.099	5010
927.206	4999
927.312	4934
927.419	5048
927.525	4927
927.631	5018
927.737	4915
927.843	4938
927.95	4801
928.056	4786
928.162	4866
928.267	4892
928.373	5383
928.479	4862
928.585	4744
928.69	4774
928.796	4797
928.901	4706
929.007	4596
929.112	4634
929.218	4618
929.323	4641
929.428	4588
929.533	4668
929.638	4519
929.743	4512
929.848	4558
929.953	4508
930.058	4421
930.163	4341
930.267	4337
930.372	4516
930.477	4318
930.581	4497
930.685	4356
930.79	4246
930.894	4325
930.998	4257
931.103	4417
931.207	4162
931.311	4093
931.415	4032
931.519	3930
931.623	3983
