Data from glass_V78500241_1418.txt Node
Date: Wed Sep 01 19:24:19 CST 2021
User: usil
Spectrometer: V785-0024
Trigger mode: 0
Integration Time (sec): 4.000000E-1
Scans to average: 1
Nonlinearity correction enabled: false
Boxcar width: 0
Storing dark spectrum: false
XAxis mode: Wavelengths
Number of Pixels in Spectrum: 1024
>>>>>Begin Spectral Data<<<<<
801.071	3728
801.214	3766
801.356	3690
801.499	3759
801.641	3656
801.783	3781
801.926	3842
802.068	3838
802.211	3918
802.353	3888
802.496	3846
802.638	3884
802.78	3876
802.923	3903
803.065	3850
803.208	3827
803.35	3926
803.492	3892
803.635	3934
803.777	3781
803.919	3911
804.061	4150
804.204	3956
804.346	3915
804.488	3934
804.63	4036
804.773	3949
804.915	4025
805.057	4150
805.199	4010
805.341	4086
805.483	4147
805.626	4143
805.768	4147
805.91	4196
806.052	4253
806.194	4188
806.336	4318
806.478	4227
806.62	4150
806.762	4242
806.904	4287
807.046	4344
807.188	4211
807.33	4185
807.472	4246
807.614	4177
807.756	4284
807.898	4249
808.04	4227
808.182	4314
808.324	4344
808.465	4360
808.607	4440
808.749	4500
808.891	4500
809.033	4504
809.174	4436
809.316	4196
809.458	4238
809.6	4147
809.741	4135
809.883	4131
810.025	4219
810.166	4188
810.308	4234
810.45	4246
810.591	4246
810.733	4329
810.875	4519
811.016	4801
811.158	5128
811.299	5296
811.441	5269
811.582	5075
811.724	4714
811.865	4447
812.007	4474
812.148	4447
812.29	4421
812.431	4440
812.573	4375
812.714	4363
812.855	4428
812.997	4459
813.138	4500
813.279	4394
813.421	4424
813.562	4352
813.703	4322
813.845	4352
813.986	4261
814.127	4276
814.268	4249
814.41	4253
814.551	4249
814.692	4306
814.833	4246
814.974	4344
815.115	4303
815.256	4253
815.397	4261
815.539	4230
815.68	4185
815.821	4219
815.962	4280
816.103	4284
816.244	4329
816.385	4230
816.526	4272
816.666	4227
816.807	4097
816.948	4128
817.089	4166
817.23	4143
817.371	4048
817.512	4032
817.653	4093
817.793	4048
817.934	4010
818.075	4078
818.216	4124
818.356	4090
818.497	3987
818.638	3888
818.778	3880
818.919	3911
819.06	3873
819.2	3903
819.341	3888
819.481	3835
819.622	3903
819.762	3991
819.903	3934
820.043	3838
820.184	3846
820.324	3861
820.465	3857
820.605	3899
820.746	3846
820.886	3800
821.026	3945
821.167	3937
821.307	3968
821.447	3987
821.588	3953
821.728	3972
821.868	3937
822.008	3869
822.149	3899
822.289	3953
822.429	3835
822.569	3743
822.709	3823
822.849	3686
822.99	3698
823.13	3819
823.27	3766
823.41	3720
823.55	3728
823.69	3694
823.83	3751
823.97	3663
824.11	3584
824.25	3576
824.389	3644
824.529	3682
824.669	3629
824.809	3751
824.949	3759
825.089	3724
825.228	3660
825.368	3553
825.508	3572
825.648	3580
825.787	3633
825.927	3629
826.067	3633
826.206	3667
826.346	3819
826.485	3831
826.625	3903
826.765	3896
826.904	3766
827.044	3603
827.183	3526
827.323	3462
827.462	3466
827.601	3405
827.741	3443
827.88	3469
828.02	3374
828.159	3405
828.298	3507
828.437	3519
828.577	3450
828.716	3614
828.855	3454
828.994	3382
829.134	3393
829.273	3386
829.412	3359
829.551	3355
829.69	3370
829.829	3473
829.968	3511
830.107	3435
830.246	3424
830.385	3332
830.524	3355
830.663	3325
830.802	3260
830.941	3184
831.08	3199
831.219	3294
831.357	3279
831.496	3439
831.635	3237
831.774	3214
831.913	3211
832.051	3123
832.19	3138
832.329	3195
832.467	3169
832.606	3123
832.744	3184
832.883	3119
833.022	3214
833.16	3287
833.299	3291
833.437	3359
833.576	3370
833.714	3397
833.852	3428
833.991	3458
834.129	3466
834.267	3462
834.406	3420
834.544	3374
834.682	3412
834.821	3428
834.959	3564
835.097	3424
835.235	3530
835.373	3496
835.511	3500
835.65	3458
835.788	3466
835.926	3378
836.064	3386
836.202	3435
836.34	3576
836.478	3629
836.615	3481
836.753	3614
836.891	3633
837.029	3610
837.167	3542
837.305	3564
837.443	3584
837.58	3526
837.718	3603
837.856	3534
837.993	3561
838.131	3610
838.269	3584
838.406	3580
838.544	3564
838.681	3504
838.819	3447
838.956	3378
839.094	3401
839.231	3466
839.369	3519
839.506	3759
839.643	3629
839.781	3462
839.918	3435
840.055	3553
840.193	3515
840.33	3580
840.467	3564
840.604	3618
840.742	3823
840.879	3492
841.016	3595
841.153	3584
841.29	3759
841.427	3781
841.564	3755
841.701	3759
841.838	3682
841.975	3736
842.112	3724
842.249	3663
842.385	3648
842.522	3861
842.659	3663
842.796	3660
842.933	3717
843.069	3717
843.206	3705
843.343	3778
843.479	3774
843.616	3838
843.752	3633
843.889	3667
844.025	3884
844.162	3724
844.298	3865
844.435	3831
844.571	3804
844.708	3896
844.844	3983
844.98	4006
845.117	3998
845.253	3949
845.389	3888
845.525	3979
845.661	3994
845.798	3926
845.934	3998
846.07	3964
846.206	4059
846.342	4135
846.478	4090
846.614	3964
846.75	3937
846.886	3918
847.022	4025
847.158	3979
847.294	4063
847.429	4006
847.565	3987
847.701	4303
847.837	3861
847.972	3869
848.108	3979
848.244	3953
848.379	3873
848.515	3827
848.65	3842
848.786	3808
848.921	3861
849.057	3945
849.192	3934
849.328	3926
849.463	3880
849.598	3838
849.734	3869
849.869	3804
850.004	3774
850.14	3816
850.275	3778
850.41	3781
850.545	3751
850.68	3751
850.815	3808
850.95	3797
851.085	3911
851.22	3838
851.355	3884
851.49	3823
851.625	3812
851.76	3797
851.895	3736
852.03	3667
852.165	3770
852.299	3842
852.434	3892
852.569	3880
852.703	3888
852.838	3945
852.973	4025
853.107	4017
853.242	3896
853.376	3850
853.511	3785
853.645	3831
853.78	3983
853.914	3911
854.048	3926
854.183	3892
854.317	3956
854.451	4090
854.585	3975
854.72	3972
854.854	4044
854.988	3941
855.122	4017
855.256	3888
855.39	4013
855.524	4185
855.658	4109
855.792	4116
855.926	4131
856.06	4147
856.194	4234
856.327	4128
856.461	4135
856.595	4166
856.729	4166
856.862	4284
856.996	4291
857.13	4284
857.263	4367
857.397	4360
857.53	4318
857.664	4383
857.797	4375
857.931	4413
858.064	4405
858.197	4447
858.331	4424
858.464	4409
858.597	4371
858.731	4421
858.864	4493
858.997	4447
859.13	4493
859.263	4531
859.396	4519
859.529	4481
859.662	4504
859.795	4519
859.928	4580
860.061	4668
860.194	4752
860.327	4679
860.46	4626
860.592	4702
860.725	4793
860.858	4805
860.99	4664
861.123	4736
861.256	4721
861.388	4774
861.521	5360
861.653	4702
861.786	4653
861.918	4706
862.05	4755
862.183	4816
862.315	4892
862.447	4900
862.58	4919
862.712	4820
862.844	4805
862.976	4854
863.108	4870
863.24	5178
863.372	4812
863.504	4866
863.636	4919
863.768	4972
863.9	5006
864.032	4904
864.164	4987
864.296	5037
864.428	5090
864.559	5105
864.691	5102
864.823	5083
864.954	5128
865.086	5147
865.217	5086
865.349	5109
865.48	5109
865.612	5136
865.743	5296
865.875	5197
866.006	5178
866.137	5204
866.269	5246
866.4	5303
866.531	5254
866.662	5273
866.793	5284
866.924	5280
867.055	5360
867.186	5353
867.317	5330
867.448	5315
867.579	5414
867.71	5376
867.841	5368
867.972	5444
868.103	5448
868.233	5528
868.364	5490
868.495	5539
868.625	5665
868.756	5783
868.886	5630
869.017	5718
869.147	5874
869.278	5855
869.408	5805
869.539	5798
869.669	5882
869.799	5897
869.929	5988
870.06	6007
870.19	6182
870.32	6273
870.45	6289
870.58	6384
870.71	6486
870.84	6471
870.97	6357
871.1	6433
871.23	6601
871.36	6700
871.489	6662
871.619	6730
871.749	6791
871.879	6890
872.008	6962
872.138	7015
872.267	7065
872.397	7019
872.526	7050
872.656	7099
872.785	7209
872.915	7445
873.044	7578
873.173	7529
873.303	7731
873.432	7772
873.561	7841
873.69	7902
873.819	8008
873.948	8081
874.077	8259
874.206	8427
874.335	8484
874.464	8693
874.593	8868
874.722	8918
874.851	9192
874.979	9237
875.108	9351
875.237	9367
875.365	9492
875.494	9595
875.623	9869
875.751	9846
875.88	9941
876.008	10135
876.136	10223
876.265	10569
876.393	10721
876.521	10706
876.65	10820
876.778	10835
876.906	10889
877.034	10995
877.162	11022
877.29	11174
877.418	11250
877.546	11349
877.674	11459
877.802	11433
877.93	11566
878.058	11551
878.185	11577
878.313	11604
878.441	11680
878.568	11653
878.696	11798
878.824	11824
878.951	11950
879.079	12045
879.206	12091
879.333	12228
879.461	11988
879.588	12136
879.715	12083
879.842	12330
879.97	12106
880.097	11836
880.224	11885
880.351	11893
880.478	11878
880.605	11748
880.732	11889
880.859	11980
880.986	11809
881.112	11813
881.239	11752
881.366	11611
881.493	11611
881.619	11535
881.746	11634
881.872	11535
881.999	11467
882.125	11509
882.252	11520
882.378	11482
882.505	11566
882.631	11356
882.757	11341
882.883	11322
883.01	11250
883.136	11162
883.262	11189
883.388	11162
883.514	11227
883.64	11201
883.766	11086
883.892	10999
884.018	11056
884.143	11109
884.269	11132
884.395	10869
884.52	10828
884.646	10797
884.772	10729
884.897	10607
885.023	10645
885.148	10774
885.274	10717
885.399	10733
885.524	10577
885.65	10500
885.775	10569
885.9	10500
886.025	10573
886.15	10554
886.275	10421
886.4	10344
886.525	10421
886.65	10390
886.775	10314
886.9	10428
887.025	10504
887.149	10421
887.274	10329
887.399	10154
887.523	10230
887.648	10131
887.773	10055
887.897	10265
888.021	10207
888.146	10086
888.27	10303
888.395	10242
888.519	10188
888.643	10139
888.767	10135
888.891	10063
889.015	9979
889.139	10048
889.263	10021
889.387	10128
889.511	10112
889.635	9994
889.759	9998
889.883	10006
890.006	10040
890.13	10074
890.254	9975
890.377	9937
890.501	9922
890.624	9831
890.748	9922
890.871	9762
890.995	9804
891.118	9694
891.241	9762
891.364	9736
891.488	9823
891.611	9728
891.734	9781
891.857	9720
891.98	9785
892.103	9816
892.226	9705
892.349	9625
892.471	9534
892.594	9599
892.717	9686
892.839	9572
892.962	9599
893.085	9675
893.207	9576
893.33	9488
893.452	9488
893.575	9625
893.697	9466
893.819	9576
893.941	9584
894.064	9568
894.186	9382
894.308	9469
894.43	9519
894.552	9591
894.674	9496
894.796	9386
894.918	9473
895.04	9279
895.161	9344
895.283	9325
895.405	9283
895.526	9321
895.648	9253
895.769	9272
895.891	9272
896.012	9287
896.134	9218
896.255	9161
896.376	9119
896.498	9112
896.619	9165
896.74	8994
896.861	9051
896.982	9264
897.103	9260
897.224	9226
897.345	9138
897.466	9013
897.587	9089
897.708	9055
897.828	9043
897.949	8963
898.07	8887
898.19	8861
898.311	9020
898.431	8921
898.552	8925
898.672	8990
898.792	8979
898.913	8876
899.033	8899
899.153	8708
899.273	8674
899.393	8724
899.513	8815
899.633	8727
899.753	8807
899.873	8674
899.993	8701
900.113	8674
900.232	8769
900.352	8663
900.472	8629
900.591	8552
900.711	8613
900.83	8552
900.95	8617
901.069	8686
901.189	8625
901.308	8442
901.427	8461
901.546	8438
901.665	8415
901.784	8442
901.904	8370
902.023	8317
902.141	8263
902.26	8195
902.379	8339
902.498	8180
902.617	8286
902.735	8282
902.854	8252
902.973	8240
903.091	8073
903.21	8199
903.328	8191
903.446	8046
903.565	8084
903.683	8027
903.801	8088
903.919	8092
904.038	8157
904.156	7989
904.274	8100
904.392	8035
904.51	8016
904.627	8054
904.745	8142
904.863	8100
904.981	7936
905.098	7883
905.216	7837
905.334	7890
905.451	7868
905.569	7871
905.686	7974
905.803	7936
905.921	7727
906.038	7879
906.155	7807
906.272	7818
906.389	7696
906.506	7628
906.623	7628
906.74	7628
906.857	7559
906.974	7590
907.091	7689
907.208	7696
907.324	7651
907.441	7616
907.557	7453
907.674	7381
907.79	7384
907.907	7392
908.023	7426
908.139	7457
908.256	7411
908.372	7350
908.488	7324
908.604	7278
908.72	7198
908.836	7274
908.952	7228
909.068	7251
909.184	7316
909.3	7270
909.415	7289
909.531	7293
909.647	7149
909.762	7114
909.878	7160
909.993	7088
910.108	7057
910.224	7034
910.339	7110
910.454	7076
910.57	7038
910.685	6973
910.8	7160
910.915	7129
911.03	7031
911.145	6878
911.259	6867
911.374	6916
911.489	6852
911.604	6722
911.718	6711
911.833	6692
911.947	6604
912.062	6574
912.176	6741
912.291	6730
912.405	6726
912.519	6791
912.633	6821
912.748	6722
912.862	6726
912.976	6650
913.09	6528
913.204	6601
913.318	6650
913.431	6642
913.545	6654
913.659	6711
913.772	6669
913.886	6570
914	6604
914.113	6597
914.226	6612
914.34	6650
914.453	6544
914.566	6631
914.68	6551
914.793	6483
914.906	6391
915.019	6460
915.132	6422
915.245	6452
915.358	6433
915.47	6490
915.583	6426
915.696	6403
915.809	6483
915.921	6513
916.034	6448
916.146	6418
916.259	6410
916.371	6445
916.483	6509
916.595	6372
916.708	6433
916.82	6437
916.932	6342
917.044	6429
917.156	6414
917.268	6281
917.38	6357
917.491	6342
917.603	6331
917.715	6410
917.826	6407
917.938	6361
918.049	6220
918.161	6350
918.272	6361
918.384	6414
918.495	6304
918.606	6277
918.717	6197
918.828	6292
918.939	6243
919.05	6220
919.161	6243
919.272	6117
919.383	6209
919.494	6319
919.604	6445
919.715	6308
919.826	6239
919.936	6300
920.047	6380
920.157	6289
920.267	6464
920.378	6266
920.488	6239
920.598	6479
920.708	6525
920.818	6471
920.928	6464
921.038	6658
921.148	6555
921.258	6365
921.368	6281
921.477	6178
921.587	6148
921.697	5984
921.806	6216
921.916	6057
922.025	5912
922.134	5958
922.244	5878
922.353	5965
922.462	5844
922.571	5786
922.68	5691
922.789	5726
922.898	5718
923.007	5680
923.116	5737
923.224	5611
923.333	5680
923.442	5551
923.55	5543
923.659	5577
923.767	5642
923.876	5558
923.984	5619
924.092	5566
924.201	5570
924.309	5551
924.417	5570
924.525	5520
924.633	5528
924.741	6110
924.849	5379
924.956	5505
925.064	5311
925.172	5341
925.279	5299
925.387	5372
925.494	5337
925.602	5379
925.709	5402
925.816	5292
925.924	5307
926.031	5349
926.138	5292
926.245	5280
926.352	5212
926.459	5307
926.566	5288
926.673	5250
926.779	5162
926.886	5113
926.993	5003
927.099	5025
927.206	5014
927.312	5025
927.419	5033
927.525	4999
927.631	5003
927.737	4904
927.843	4858
927.95	4797
928.056	4828
928.162	4847
928.267	4797
928.373	5231
928.479	4850
928.585	4683
928.69	4778
928.796	4755
928.901	4653
929.007	4618
929.112	4649
929.218	4615
929.323	4596
929.428	4546
929.533	4691
929.638	4516
929.743	4531
929.848	4538
929.953	4508
930.058	4451
930.163	4337
930.267	4341
930.372	4455
930.477	4295
930.581	4428
930.685	4390
930.79	4287
930.894	4291
930.998	4230
931.103	4383
931.207	4135
931.311	4109
931.415	4063
931.519	3960
931.623	3968
