Data from glass_V78500241_1987.txt Node
Date: Wed Sep 01 19:28:16 CST 2021
User: usil
Spectrometer: V785-0024
Trigger mode: 0
Integration Time (sec): 4.000000E-1
Scans to average: 1
Nonlinearity correction enabled: false
Boxcar width: 0
Storing dark spectrum: false
XAxis mode: Wavelengths
Number of Pixels in Spectrum: 1024
>>>>>Begin Spectral Data<<<<<
801.071	3770
801.214	3740
801.356	3694
801.499	3736
801.641	3732
801.783	3762
801.926	3838
802.068	3842
802.211	3850
802.353	3892
802.496	3819
802.638	3873
802.78	3937
802.923	3930
803.065	3907
803.208	3857
803.35	3827
803.492	3865
803.635	3915
803.777	3816
803.919	3945
804.061	4162
804.204	3983
804.346	3975
804.488	3884
804.63	4002
804.773	3975
804.915	4044
805.057	4150
805.199	4032
805.341	4063
805.483	4112
805.626	4112
805.768	4097
805.91	4211
806.052	4257
806.194	4211
806.336	4303
806.478	4196
806.62	4192
806.762	4143
806.904	4234
807.046	4325
807.188	4211
807.33	4147
807.472	4223
807.614	4207
807.756	4249
807.898	4223
808.04	4207
808.182	4261
808.324	4375
808.465	4360
808.607	4436
808.749	4470
808.891	4470
809.033	4512
809.174	4394
809.316	4234
809.458	4249
809.6	4143
809.741	4139
809.883	4135
810.025	4196
810.166	4188
810.308	4230
810.45	4249
810.591	4219
810.733	4291
810.875	4538
811.016	4812
811.158	5140
811.299	5250
811.441	5318
811.582	5025
811.724	4660
811.865	4447
812.007	4478
812.148	4481
812.29	4421
812.431	4405
812.573	4413
812.714	4367
812.855	4409
812.997	4421
813.138	4481
813.279	4436
813.421	4386
813.562	4375
813.703	4322
813.845	4375
813.986	4295
814.127	4211
814.268	4295
814.41	4287
814.551	4234
814.692	4318
814.833	4253
814.974	4295
815.115	4348
815.256	4230
815.397	4200
815.539	4261
815.68	4188
815.821	4219
815.962	4287
816.103	4295
816.244	4215
816.385	4173
816.526	4310
816.666	4249
816.807	4112
816.948	4177
817.089	4185
817.23	4067
817.371	4078
817.512	4055
817.653	4082
817.793	4029
817.934	4040
818.075	4097
818.216	4086
818.356	4101
818.497	3998
818.638	3941
818.778	3899
818.919	3873
819.06	3884
819.2	3953
819.341	3831
819.481	3827
819.622	3899
819.762	4006
819.903	3953
820.043	3842
820.184	3823
820.324	3827
820.465	3880
820.605	3880
820.746	3884
820.886	3778
821.026	3945
821.167	3915
821.307	3983
821.447	3960
821.588	3941
821.728	3972
821.868	3911
822.008	3896
822.149	3899
822.289	3926
822.429	3774
822.569	3770
822.709	3800
822.849	3728
822.99	3705
823.13	3740
823.27	3778
823.41	3694
823.55	3728
823.69	3728
823.83	3747
823.97	3656
824.11	3599
824.25	3587
824.389	3641
824.529	3663
824.669	3671
824.809	3720
824.949	3743
825.089	3751
825.228	3717
825.368	3545
825.508	3557
825.648	3557
825.787	3587
825.927	3641
826.067	3641
826.206	3682
826.346	3751
826.485	3865
826.625	3922
826.765	3892
826.904	3816
827.044	3584
827.183	3507
827.323	3473
827.462	3511
827.601	3473
827.741	3424
827.88	3462
828.02	3370
828.159	3435
828.298	3462
828.437	3549
828.577	3477
828.716	3606
828.855	3481
828.994	3363
829.134	3332
829.273	3405
829.412	3355
829.551	3359
829.69	3378
829.829	3431
829.968	3534
830.107	3466
830.246	3458
830.385	3370
830.524	3359
830.663	3294
830.802	3268
830.941	3154
831.08	3173
831.219	3249
831.357	3264
831.496	3401
831.635	3226
831.774	3207
831.913	3203
832.051	3173
832.19	3142
832.329	3218
832.467	3146
832.606	3112
832.744	3157
832.883	3173
833.022	3184
833.16	3253
833.299	3317
833.437	3321
833.576	3332
833.714	3405
833.852	3412
833.991	3435
834.129	3447
834.267	3435
834.406	3428
834.544	3409
834.682	3428
834.821	3405
834.959	3553
835.097	3409
835.235	3500
835.373	3488
835.511	3473
835.65	3477
835.788	3462
835.926	3370
836.064	3370
836.202	3405
836.34	3534
836.478	3584
836.615	3561
836.753	3625
836.891	3633
837.029	3648
837.167	3618
837.305	3542
837.443	3545
837.58	3500
837.718	3591
837.856	3523
837.993	3545
838.131	3568
838.269	3568
838.406	3614
838.544	3538
838.681	3466
838.819	3481
838.956	3393
839.094	3466
839.231	3458
839.369	3530
839.506	3743
839.643	3629
839.781	3523
839.918	3466
840.055	3523
840.193	3557
840.33	3519
840.467	3549
840.604	3618
840.742	3827
840.879	3511
841.016	3557
841.153	3595
841.29	3766
841.427	3663
841.564	3724
841.701	3713
841.838	3698
841.975	3671
842.112	3709
842.249	3660
842.385	3629
842.522	3823
842.659	3705
842.796	3663
842.933	3686
843.069	3705
843.206	3675
843.343	3759
843.479	3785
843.616	3804
843.752	3709
843.889	3637
844.025	3823
844.162	3759
844.298	3857
844.435	3823
844.571	3785
844.708	3903
844.844	3964
844.98	4021
845.117	4021
845.253	3945
845.389	3896
845.525	3960
845.661	3930
845.798	3911
845.934	3998
846.07	3949
846.206	4048
846.342	4109
846.478	4071
846.614	3972
846.75	3934
846.886	3922
847.022	4067
847.158	4010
847.294	3991
847.429	4013
847.565	3956
847.701	4211
847.837	3934
847.972	3884
848.108	3979
848.244	3979
848.379	3861
848.515	3804
848.65	3823
848.786	3854
848.921	3854
849.057	3922
849.192	3949
849.328	3907
849.463	3899
849.598	3876
849.734	3831
849.869	3831
850.004	3785
850.14	3831
850.275	3774
850.41	3694
850.545	3747
850.68	3797
850.815	3808
850.95	3797
851.085	3953
851.22	3861
851.355	3808
851.49	3774
851.625	3774
851.76	3835
851.895	3701
852.03	3774
852.165	3781
852.299	3823
852.434	3941
852.569	3896
852.703	3865
852.838	3918
852.973	3991
853.107	4013
853.242	3922
853.376	3838
853.511	3789
853.645	3827
853.78	3964
853.914	3888
854.048	3915
854.183	3876
854.317	3953
854.451	4067
854.585	3926
854.72	3915
854.854	4036
854.988	3937
855.122	3998
855.256	3911
855.39	3991
855.524	4131
855.658	4147
855.792	4116
855.926	4124
856.06	4150
856.194	4227
856.327	4124
856.461	4086
856.595	4105
856.729	4131
856.862	4280
856.996	4169
857.13	4314
857.263	4322
857.397	4325
857.53	4280
857.664	4405
857.797	4402
857.931	4409
858.064	4394
858.197	4455
858.331	4424
858.464	4390
858.597	4348
858.731	4443
858.864	4462
858.997	4432
859.13	4500
859.263	4470
859.396	4596
859.529	4493
859.662	4508
859.795	4561
859.928	4584
860.061	4702
860.194	4744
860.327	4672
860.46	4653
860.592	4710
860.725	4759
860.858	4778
860.99	4717
861.123	4656
861.256	4679
861.388	4790
861.521	5349
861.653	4740
861.786	4672
861.918	4763
862.05	4797
862.183	4862
862.315	4862
862.447	4934
862.58	4927
862.712	4843
862.844	4759
862.976	4854
863.108	4911
863.24	5178
863.372	4816
863.504	4862
863.636	4858
863.768	4972
863.9	4984
864.032	4957
864.164	4957
864.296	5006
864.428	5132
864.559	5136
864.691	5109
864.823	5162
864.954	5090
865.086	5193
865.217	5151
865.349	5090
865.48	5147
865.612	5147
865.743	5334
865.875	5254
866.006	5159
866.137	5296
866.269	5212
866.4	5197
866.531	5242
866.662	5223
866.793	5288
866.924	5284
867.055	5303
867.186	5383
867.317	5345
867.448	5296
867.579	5360
867.71	5376
867.841	5372
867.972	5436
868.103	5471
868.233	5490
868.364	5490
868.495	5532
868.625	5630
868.756	5741
868.886	5691
869.017	5703
869.147	5863
869.278	5828
869.408	5817
869.539	5828
869.669	5923
869.799	5855
869.929	5996
870.06	5999
870.19	6201
870.32	6159
870.45	6254
870.58	6315
870.71	6441
870.84	6437
870.97	6464
871.1	6441
871.23	6639
871.36	6658
871.489	6673
871.619	6772
871.749	6768
871.879	6867
872.008	7019
872.138	6951
872.267	6913
872.397	6981
872.526	7057
872.656	7118
872.785	7225
872.915	7392
873.044	7472
873.173	7567
873.303	7590
873.432	7776
873.561	7830
873.69	7898
873.819	7967
873.948	8126
874.077	8229
874.206	8377
874.335	8400
874.464	8606
874.593	8910
874.722	8849
874.851	9108
874.979	9253
875.108	9321
875.237	9367
875.365	9519
875.494	9614
875.623	9770
875.751	9888
875.88	9915
876.008	10207
876.136	10223
876.265	10462
876.393	10675
876.521	10714
876.65	10793
876.778	10850
876.906	10858
877.034	10923
877.162	11029
877.29	11105
877.418	11315
877.546	11376
877.674	11444
877.802	11452
877.93	11444
878.058	11558
878.185	11604
878.313	11634
878.441	11726
878.568	11589
878.696	11775
878.824	11836
878.951	11980
879.079	11980
879.206	12125
879.333	12060
879.461	11996
879.588	12072
879.715	12064
879.842	12178
879.97	12102
880.097	11805
880.224	11927
880.351	11878
880.478	11882
880.605	11843
880.732	11851
880.859	12007
880.986	11729
881.112	11828
881.239	11722
881.366	11714
881.493	11592
881.619	11509
881.746	11509
881.872	11448
881.999	11459
882.125	11455
882.252	11566
882.378	11516
882.505	11520
882.631	11383
882.757	11258
882.883	11330
883.01	11250
883.136	11193
883.262	11067
883.388	11086
883.514	11242
883.64	11113
883.766	11090
883.892	10995
884.018	10991
884.143	11041
884.269	10991
884.395	10889
884.52	10812
884.646	10778
884.772	10706
884.897	10668
885.023	10710
885.148	10744
885.274	10782
885.399	10725
885.524	10660
885.65	10592
885.775	10599
885.9	10561
886.025	10546
886.15	10599
886.275	10443
886.4	10432
886.525	10424
886.65	10386
886.775	10306
886.9	10443
887.025	10519
887.149	10352
887.274	10299
887.399	10154
887.523	10169
887.648	10158
887.773	10162
887.897	10246
888.021	10265
888.146	10150
888.27	10128
888.395	10143
888.519	10185
888.643	10154
888.767	10154
888.891	10109
889.015	10040
889.139	10078
889.263	9987
889.387	10097
889.511	10101
889.635	9991
889.759	9915
889.883	9960
890.006	9975
890.13	10017
890.254	9953
890.377	9960
890.501	9846
890.624	9854
890.748	9934
890.871	9743
890.995	9778
891.118	9732
891.241	9667
891.364	9705
891.488	9854
891.611	9804
891.734	9766
891.857	9778
891.98	9770
892.103	9766
892.226	9778
892.349	9660
892.471	9469
892.594	9534
892.717	9637
892.839	9568
892.962	9584
893.085	9614
893.207	9618
893.33	9397
893.452	9526
893.575	9614
893.697	9428
893.819	9564
893.941	9629
894.064	9622
894.186	9458
894.308	9348
894.43	9492
894.552	9545
894.674	9534
894.796	9363
894.918	9386
895.04	9363
895.161	9485
895.283	9397
895.405	9146
895.526	9268
895.648	9207
895.769	9279
895.891	9237
896.012	9310
896.134	9192
896.255	9180
896.376	9108
896.498	9131
896.619	9100
896.74	9051
896.861	9085
896.982	9268
897.103	9378
897.224	9184
897.345	9089
897.466	9009
897.587	9074
897.708	9070
897.828	9104
897.949	9047
898.07	8921
898.19	8902
898.311	9005
898.431	8933
898.552	8956
898.672	8899
898.792	8956
898.913	8918
899.033	8819
899.153	8682
899.273	8644
899.393	8720
899.513	8686
899.633	8659
899.753	8640
899.873	8663
899.993	8705
900.113	8705
900.232	8667
900.352	8636
900.472	8583
900.591	8533
900.711	8613
900.83	8530
900.95	8625
901.069	8739
901.189	8587
901.308	8419
901.427	8412
901.546	8412
901.665	8450
901.784	8465
901.904	8317
902.023	8343
902.141	8218
902.26	8252
902.379	8221
902.498	8248
902.617	8214
902.735	8279
902.854	8202
902.973	8271
903.091	8123
903.21	8142
903.328	8107
903.446	8123
903.565	8050
903.683	8092
903.801	8054
903.919	8115
904.038	8161
904.156	8016
904.274	8062
904.392	8020
904.51	8027
904.627	8024
904.745	8164
904.863	8153
904.981	7921
905.098	7944
905.216	7875
905.334	7906
905.451	7993
905.569	7902
905.686	7909
905.803	7909
905.921	7799
906.038	7887
906.155	7696
906.272	7712
906.389	7708
906.506	7613
906.623	7590
906.74	7647
906.857	7506
906.974	7575
907.091	7613
907.208	7776
907.324	7639
907.441	7548
907.557	7495
907.674	7449
907.79	7316
907.907	7422
908.023	7441
908.139	7392
908.256	7365
908.372	7343
908.488	7362
908.604	7305
908.72	7278
908.836	7312
908.952	7225
909.068	7221
909.184	7278
909.3	7282
909.415	7274
909.531	7240
909.647	7061
909.762	7065
909.878	7072
909.993	7050
910.108	7145
910.224	7076
910.339	7080
910.454	7004
910.57	7004
910.685	6943
910.8	7099
910.915	7088
911.03	7038
911.145	6939
911.259	6901
911.374	6894
911.489	6863
911.604	6844
911.718	6745
911.833	6757
911.947	6585
912.062	6669
912.176	6681
912.291	6662
912.405	6722
912.519	6779
912.633	6795
912.748	6715
912.862	6692
912.976	6658
913.09	6517
913.204	6597
913.318	6662
913.431	6677
913.545	6627
913.659	6669
913.772	6635
913.886	6585
914	6597
914.113	6620
914.226	6654
914.34	6574
914.453	6475
914.566	6578
914.68	6506
914.793	6547
914.906	6418
915.019	6403
915.132	6365
915.245	6414
915.358	6407
915.47	6547
915.583	6414
915.696	6475
915.809	6528
915.921	6532
916.034	6414
916.146	6429
916.259	6395
916.371	6407
916.483	6441
916.595	6353
916.708	6407
916.82	6418
916.932	6414
917.044	6388
917.156	6399
917.268	6357
917.38	6319
917.491	6338
917.603	6372
917.715	6365
917.826	6475
917.938	6289
918.049	6197
918.161	6277
918.272	6414
918.384	6418
918.495	6361
918.606	6289
918.717	6292
918.828	6262
918.939	6281
919.05	6167
919.161	6247
919.272	6140
919.383	6167
919.494	6331
919.604	6422
919.715	6273
919.826	6232
919.936	6220
920.047	6308
920.157	6270
920.267	6445
920.378	6323
920.488	6239
920.598	6452
920.708	6578
920.818	6407
920.928	6483
921.038	6525
921.148	6563
921.258	6331
921.368	6285
921.477	6285
921.587	6064
921.697	6068
921.806	6175
921.916	6076
922.025	5950
922.134	5870
922.244	5904
922.353	5950
922.462	5817
922.571	5809
922.68	5764
922.789	5646
922.898	5668
923.007	5611
923.116	5688
923.224	5676
923.333	5611
923.442	5600
923.55	5524
923.659	5532
923.767	5615
923.876	5501
923.984	5653
924.092	5490
924.201	5547
924.309	5505
924.417	5512
924.525	5512
924.633	5505
924.741	6273
924.849	5341
924.956	5429
925.064	5337
925.172	5269
925.279	5269
925.387	5387
925.494	5299
925.602	5417
925.709	5372
925.816	5292
925.924	5273
926.031	5330
926.138	5296
926.245	5307
926.352	5239
926.459	5353
926.566	5345
926.673	5181
926.779	5105
926.886	5124
926.993	5052
927.099	5006
927.206	4991
927.312	4961
927.419	5056
927.525	4953
927.631	4957
927.737	4904
927.843	4828
927.95	4717
928.056	4847
928.162	4790
928.267	4858
928.373	5311
928.479	4911
928.585	4641
928.69	4778
928.796	4767
928.901	4691
929.007	4577
929.112	4687
929.218	4637
929.323	4573
929.428	4535
929.533	4679
929.638	4531
929.743	4550
929.848	4531
929.953	4500
930.058	4428
930.163	4280
930.267	4371
930.372	4447
930.477	4322
930.581	4455
930.685	4371
930.79	4272
930.894	4230
930.998	4257
931.103	4360
931.207	4116
931.311	4078
931.415	4055
931.519	3953
931.623	3899
