Data from glass_V78500241_1243.txt Node
Date: Wed Sep 01 19:23:06 CST 2021
User: usil
Spectrometer: V785-0024
Trigger mode: 0
Integration Time (sec): 4.000000E-1
Scans to average: 1
Nonlinearity correction enabled: false
Boxcar width: 0
Storing dark spectrum: false
XAxis mode: Wavelengths
Number of Pixels in Spectrum: 1024
>>>>>Begin Spectral Data<<<<<
801.071	3762
801.214	3751
801.356	3724
801.499	3747
801.641	3740
801.783	3816
801.926	3869
802.068	3857
802.211	3884
802.353	3915
802.496	3831
802.638	3884
802.78	3945
802.923	3956
803.065	3937
803.208	3873
803.35	3865
803.492	3941
803.635	3960
803.777	3785
803.919	3907
804.061	4166
804.204	3983
804.346	3964
804.488	3926
804.63	4032
804.773	3979
804.915	4071
805.057	4143
805.199	4013
805.341	4090
805.483	4139
805.626	4135
805.768	4147
805.91	4158
806.052	4234
806.194	4230
806.336	4348
806.478	4211
806.62	4196
806.762	4169
806.904	4249
807.046	4348
807.188	4238
807.33	4162
807.472	4246
807.614	4230
807.756	4310
807.898	4246
808.04	4249
808.182	4284
808.324	4329
808.465	4329
808.607	4489
808.749	4470
808.891	4497
809.033	4504
809.174	4398
809.316	4223
809.458	4246
809.6	4147
809.741	4185
809.883	4101
810.025	4230
810.166	4242
810.308	4177
810.45	4246
810.591	4223
810.733	4325
810.875	4523
811.016	4839
811.158	5128
811.299	5303
811.441	5299
811.582	5094
811.724	4668
811.865	4493
812.007	4489
812.148	4447
812.29	4424
812.431	4440
812.573	4390
812.714	4417
812.855	4402
812.997	4440
813.138	4470
813.279	4371
813.421	4371
813.562	4424
813.703	4360
813.845	4371
813.986	4234
814.127	4196
814.268	4246
814.41	4333
814.551	4253
814.692	4363
814.833	4261
814.974	4303
815.115	4363
815.256	4272
815.397	4223
815.539	4276
815.68	4215
815.821	4192
815.962	4329
816.103	4337
816.244	4196
816.385	4238
816.526	4303
816.666	4200
816.807	4109
816.948	4185
817.089	4188
817.23	4109
817.371	4067
817.512	4078
817.653	4090
817.793	4025
817.934	4067
818.075	4112
818.216	4086
818.356	4074
818.497	3987
818.638	3968
818.778	3930
818.919	3896
819.06	3880
819.2	3930
819.341	3854
819.481	3816
819.622	3903
819.762	3994
819.903	4002
820.043	3869
820.184	3838
820.324	3869
820.465	3850
820.605	3869
820.746	3896
820.886	3831
821.026	3926
821.167	3930
821.307	4025
821.447	3998
821.588	3937
821.728	3934
821.868	3899
822.008	3846
822.149	3918
822.289	3945
822.429	3842
822.569	3766
822.709	3793
822.849	3679
822.99	3774
823.13	3766
823.27	3789
823.41	3709
823.55	3709
823.69	3728
823.83	3762
823.97	3682
824.11	3633
824.25	3614
824.389	3671
824.529	3694
824.669	3629
824.809	3690
824.949	3770
825.089	3736
825.228	3709
825.368	3542
825.508	3545
825.648	3580
825.787	3625
825.927	3584
826.067	3606
826.206	3671
826.346	3800
826.485	3789
826.625	3911
826.765	3937
826.904	3835
827.044	3587
827.183	3584
827.323	3462
827.462	3485
827.601	3424
827.741	3435
827.88	3466
828.02	3363
828.159	3439
828.298	3496
828.437	3549
828.577	3439
828.716	3595
828.855	3488
828.994	3412
829.134	3374
829.273	3401
829.412	3359
829.551	3382
829.69	3367
829.829	3416
829.968	3538
830.107	3431
830.246	3443
830.385	3409
830.524	3367
830.663	3325
830.802	3268
830.941	3192
831.08	3192
831.219	3256
831.357	3237
831.496	3428
831.635	3253
831.774	3199
831.913	3218
832.051	3161
832.19	3161
832.329	3203
832.467	3157
832.606	3135
832.744	3184
832.883	3230
833.022	3195
833.16	3279
833.299	3306
833.437	3317
833.576	3348
833.714	3397
833.852	3382
833.991	3450
834.129	3447
834.267	3443
834.406	3370
834.544	3439
834.682	3397
834.821	3412
834.959	3557
835.097	3454
835.235	3538
835.373	3519
835.511	3507
835.65	3485
835.788	3481
835.926	3370
836.064	3389
836.202	3424
836.34	3599
836.478	3629
836.615	3610
836.753	3599
836.891	3629
837.029	3633
837.167	3557
837.305	3553
837.443	3553
837.58	3504
837.718	3572
837.856	3553
837.993	3564
838.131	3629
838.269	3618
838.406	3576
838.544	3564
838.681	3523
838.819	3488
838.956	3405
839.094	3397
839.231	3500
839.369	3523
839.506	3728
839.643	3633
839.781	3515
839.918	3458
840.055	3515
840.193	3538
840.33	3515
840.467	3545
840.604	3622
840.742	3793
840.879	3557
841.016	3595
841.153	3618
841.29	3766
841.427	3743
841.564	3747
841.701	3823
841.838	3663
841.975	3686
842.112	3724
842.249	3629
842.385	3622
842.522	3850
842.659	3717
842.796	3671
842.933	3675
843.069	3747
843.206	3720
843.343	3861
843.479	3774
843.616	3800
843.752	3717
843.889	3671
844.025	3896
844.162	3682
844.298	3854
844.435	3804
844.571	3778
844.708	3899
844.844	4067
844.98	3975
845.117	4036
845.253	3915
845.389	3892
845.525	3998
845.661	3983
845.798	3945
845.934	4048
846.07	3968
846.206	4067
846.342	4090
846.478	4040
846.614	4017
846.75	3911
846.886	3930
847.022	4002
847.158	3994
847.294	3987
847.429	4025
847.565	4006
847.701	4215
847.837	3949
847.972	3907
848.108	3998
848.244	3983
848.379	3831
848.515	3819
848.65	3789
848.786	3857
848.921	3892
849.057	3888
849.192	3922
849.328	3953
849.463	3915
849.598	3876
849.734	3850
849.869	3846
850.004	3770
850.14	3812
850.275	3793
850.41	3743
850.545	3747
850.68	3770
850.815	3793
850.95	3800
851.085	3949
851.22	3911
851.355	3819
851.49	3827
851.625	3831
851.76	3827
851.895	3759
852.03	3705
852.165	3812
852.299	3823
852.434	3911
852.569	3892
852.703	3888
852.838	3937
852.973	4032
853.107	4013
853.242	3865
853.376	3880
853.511	3778
853.645	3831
853.78	3979
853.914	3861
854.048	3892
854.183	3888
854.317	3975
854.451	4082
854.585	3983
854.72	3911
854.854	4086
854.988	3941
855.122	4029
855.256	3926
855.39	4029
855.524	4143
855.658	4112
855.792	4101
855.926	4105
856.06	4169
856.194	4227
856.327	4131
856.461	4093
856.595	4166
856.729	4143
856.862	4295
856.996	4287
857.13	4333
857.263	4329
857.397	4379
857.53	4268
857.664	4383
857.797	4356
857.931	4440
858.064	4379
858.197	4413
858.331	4348
858.464	4421
858.597	4383
858.731	4417
858.864	4474
858.997	4421
859.13	4489
859.263	4607
859.396	4577
859.529	4577
859.662	4542
859.795	4546
859.928	4611
860.061	4721
860.194	4752
860.327	4691
860.46	4683
860.592	4790
860.725	4793
860.858	4778
860.99	4710
861.123	4736
861.256	4694
861.388	4744
861.521	5357
861.653	4702
861.786	4733
861.918	4763
862.05	4774
862.183	4873
862.315	4881
862.447	4953
862.58	4919
862.712	4774
862.844	4755
862.976	4892
863.108	4881
863.24	5212
863.372	4854
863.504	4877
863.636	4934
863.768	4980
863.9	4953
864.032	4946
864.164	4957
864.296	5048
864.428	5155
864.559	5124
864.691	5132
864.823	5162
864.954	5147
865.086	5185
865.217	5121
865.349	5105
865.48	5143
865.612	5220
865.743	5292
865.875	5208
866.006	5147
866.137	5204
866.269	5242
866.4	5280
866.531	5250
866.662	5223
866.793	5277
866.924	5273
867.055	5337
867.186	5353
867.317	5372
867.448	5318
867.579	5383
867.71	5330
867.841	5414
867.972	5425
868.103	5433
868.233	5421
868.364	5524
868.495	5562
868.625	5680
868.756	5764
868.886	5665
869.017	5699
869.147	5866
869.278	5897
869.408	5817
869.539	5817
869.669	5916
869.799	5927
869.929	5942
870.06	5988
870.19	6235
870.32	6201
870.45	6235
870.58	6353
870.71	6433
870.84	6494
870.97	6418
871.1	6456
871.23	6688
871.36	6738
871.489	6623
871.619	6745
871.749	6791
871.879	6920
872.008	6973
872.138	7000
872.267	7004
872.397	7015
872.526	6989
872.656	7065
872.785	7202
872.915	7377
873.044	7559
873.173	7540
873.303	7719
873.432	7689
873.561	7852
873.69	7909
873.819	8016
873.948	8157
874.077	8275
874.206	8279
874.335	8495
874.464	8705
874.593	8819
874.722	8914
874.851	9150
874.979	9249
875.108	9321
875.237	9428
875.365	9401
875.494	9618
875.623	9827
875.751	9827
875.88	10093
876.008	10090
876.136	10333
876.265	10554
876.393	10698
876.521	10790
876.65	10793
876.778	10968
876.906	10949
877.034	10968
877.162	11056
877.29	11242
877.418	11395
877.546	11368
877.674	11364
877.802	11429
877.93	11501
878.058	11497
878.185	11577
878.313	11634
878.441	11779
878.568	11722
878.696	11790
878.824	11855
878.951	11885
879.079	12072
879.206	12125
879.333	12038
879.461	12007
879.588	12057
879.715	12114
879.842	12216
879.97	12155
880.097	11893
880.224	11931
880.351	12003
880.478	11889
880.605	11893
880.732	11821
880.859	12007
880.986	11809
881.112	11874
881.239	11684
881.366	11653
881.493	11668
881.619	11577
881.746	11543
881.872	11478
881.999	11478
882.125	11528
882.252	11665
882.378	11547
882.505	11585
882.631	11391
882.757	11299
882.883	11349
883.01	11288
883.136	11189
883.262	11155
883.388	11090
883.514	11155
883.64	11265
883.766	11136
883.892	10984
884.018	10961
884.143	11098
884.269	11117
884.395	10854
884.52	10885
884.646	10767
884.772	10805
884.897	10748
885.023	10691
885.148	10755
885.274	10847
885.399	10725
885.524	10664
885.65	10535
885.775	10622
885.9	10516
886.025	10615
886.15	10577
886.275	10474
886.4	10440
886.525	10424
886.65	10348
886.775	10333
886.9	10493
887.025	10538
887.149	10413
887.274	10272
887.399	10215
887.523	10246
887.648	10158
887.773	10131
887.897	10257
888.021	10249
888.146	10154
888.27	10238
888.395	10276
888.519	10215
888.643	10185
888.767	10169
888.891	10036
889.015	10063
889.139	10055
889.263	10032
889.387	10067
889.511	10131
889.635	10025
889.759	9953
889.883	10051
890.006	9884
890.13	10147
890.254	9964
890.377	9945
890.501	9876
890.624	9876
890.748	9895
890.871	9842
890.995	9717
891.118	9736
891.241	9789
891.364	9747
891.488	9789
891.611	9762
891.734	9732
891.857	9740
891.98	9781
892.103	9789
892.226	9778
892.349	9701
892.471	9538
892.594	9610
892.717	9530
892.839	9610
892.962	9599
893.085	9717
893.207	9595
893.33	9481
893.452	9564
893.575	9599
893.697	9477
893.819	9618
893.941	9656
894.064	9644
894.186	9507
894.308	9370
894.43	9572
894.552	9557
894.674	9542
894.796	9382
894.918	9355
895.04	9367
895.161	9283
895.283	9408
895.405	9291
895.526	9264
895.648	9256
895.769	9287
895.891	9256
896.012	9268
896.134	9199
896.255	9241
896.376	9146
896.498	9142
896.619	9146
896.74	9089
896.861	9036
896.982	9249
897.103	9386
897.224	9161
897.345	9138
897.466	9043
897.587	8986
897.708	9066
897.828	9074
897.949	8921
898.07	8895
898.19	8887
898.311	9058
898.431	8902
898.552	8925
898.672	8979
898.792	8902
898.913	8944
899.033	8807
899.153	8777
899.273	8708
899.393	8735
899.513	8838
899.633	8766
899.753	8746
899.873	8773
899.993	8735
900.113	8792
900.232	8708
900.352	8636
900.472	8629
900.591	8503
900.711	8583
900.83	8564
900.95	8708
901.069	8708
901.189	8598
901.308	8484
901.427	8385
901.546	8446
901.665	8465
901.784	8526
901.904	8396
902.023	8305
902.141	8218
902.26	8191
902.379	8294
902.498	8172
902.617	8225
902.735	8267
902.854	8279
902.973	8294
903.091	8195
903.21	8119
903.328	8138
903.446	8199
903.565	8168
903.683	8164
903.801	8035
903.919	8149
904.038	8100
904.156	8016
904.274	8138
904.392	8035
904.51	8043
904.627	8065
904.745	8142
904.863	8123
904.981	7944
905.098	7932
905.216	7928
905.334	7890
905.451	7951
905.569	7928
905.686	7944
905.803	7909
905.921	7811
906.038	7871
906.155	7769
906.272	7727
906.389	7693
906.506	7677
906.623	7613
906.74	7571
906.857	7518
906.974	7605
907.091	7628
907.208	7761
907.324	7696
907.441	7609
907.557	7453
907.674	7377
907.79	7415
907.907	7388
908.023	7468
908.139	7407
908.256	7449
908.372	7320
908.488	7354
908.604	7232
908.72	7251
908.836	7221
908.952	7160
909.068	7259
909.184	7346
909.3	7206
909.415	7320
909.531	7301
909.647	7179
909.762	7126
909.878	7126
909.993	7156
910.108	7103
910.224	7061
910.339	7095
910.454	7061
910.57	7015
910.685	6996
910.8	7225
910.915	7118
911.03	7065
911.145	6859
911.259	6939
911.374	6928
911.489	6894
911.604	6833
911.718	6734
911.833	6719
911.947	6612
912.062	6627
912.176	6745
912.291	6787
912.405	6673
912.519	6833
912.633	6844
912.748	6738
912.862	6658
912.976	6639
913.09	6525
913.204	6544
913.318	6669
913.431	6722
913.545	6601
913.659	6768
913.772	6665
913.886	6585
914	6593
914.113	6604
914.226	6646
914.34	6597
914.453	6525
914.566	6612
914.68	6509
914.793	6509
914.906	6433
915.019	6437
915.132	6350
915.245	6437
915.358	6429
915.47	6509
915.583	6506
915.696	6525
915.809	6513
915.921	6593
916.034	6410
916.146	6353
916.259	6437
916.371	6441
916.483	6467
916.595	6399
916.708	6399
916.82	6403
916.932	6410
917.044	6388
917.156	6384
917.268	6331
917.38	6384
917.491	6342
917.603	6338
917.715	6414
917.826	6433
917.938	6338
918.049	6247
918.161	6311
918.272	6437
918.384	6460
918.495	6365
918.606	6296
918.717	6270
918.828	6213
918.939	6315
919.05	6190
919.161	6296
919.272	6186
919.383	6148
919.494	6285
919.604	6429
919.715	6258
919.826	6247
919.936	6292
920.047	6323
920.157	6300
920.267	6452
920.378	6357
920.488	6292
920.598	6467
920.708	6540
920.818	6429
920.928	6479
921.038	6589
921.148	6608
921.258	6350
921.368	6232
921.477	6201
921.587	6197
921.697	6079
921.806	6148
921.916	6053
922.025	5950
922.134	5939
922.244	5866
922.353	5908
922.462	5855
922.571	5844
922.68	5764
922.789	5729
922.898	5752
923.007	5695
923.116	5748
923.224	5695
923.333	5653
923.442	5596
923.55	5623
923.659	5596
923.767	5638
923.876	5570
923.984	5638
924.092	5516
924.201	5558
924.309	5558
924.417	5627
924.525	5524
924.633	5486
924.741	6289
924.849	5444
924.956	5486
925.064	5368
925.172	5322
925.279	5368
925.387	5379
925.494	5334
925.602	5391
925.709	5357
925.816	5280
925.924	5299
926.031	5318
926.138	5299
926.245	5311
926.352	5193
926.459	5341
926.566	5315
926.673	5254
926.779	5124
926.886	5113
926.993	5060
927.099	5022
927.206	4987
927.312	4946
927.419	5037
927.525	4976
927.631	5022
927.737	4889
927.843	4858
927.95	4790
928.056	4850
928.162	4805
928.267	4892
928.373	5376
928.479	4831
928.585	4687
928.69	4835
928.796	4774
928.901	4687
929.007	4577
929.112	4683
929.218	4577
929.323	4626
929.428	4588
929.533	4660
929.638	4519
929.743	4584
929.848	4531
929.953	4500
930.058	4489
930.163	4379
930.267	4344
930.372	4428
930.477	4322
930.581	4489
930.685	4352
930.79	4200
930.894	4287
930.998	4303
931.103	4413
931.207	4169
931.311	4090
931.415	4036
931.519	3945
931.623	3922
