Data from glass_V78500241_851.txt Node
Date: Wed Sep 01 19:20:23 CST 2021
User: usil
Spectrometer: V785-0024
Trigger mode: 0
Integration Time (sec): 4.000000E-1
Scans to average: 1
Nonlinearity correction enabled: false
Boxcar width: 0
Storing dark spectrum: false
XAxis mode: Wavelengths
Number of Pixels in Spectrum: 1024
>>>>>Begin Spectral Data<<<<<
801.071	3778
801.214	3823
801.356	3740
801.499	3785
801.641	3774
801.783	3781
801.926	3884
802.068	3827
802.211	3778
802.353	3896
802.496	3854
802.638	3876
802.78	3892
802.923	3945
803.065	3892
803.208	3911
803.35	3865
803.492	3941
803.635	3956
803.777	3835
803.919	3899
804.061	4135
804.204	3949
804.346	3937
804.488	3949
804.63	4017
804.773	3983
804.915	3994
805.057	4166
805.199	4082
805.341	4109
805.483	4128
805.626	4147
805.768	4135
805.91	4177
806.052	4280
806.194	4253
806.336	4363
806.478	4196
806.62	4173
806.762	4200
806.904	4268
807.046	4363
807.188	4234
807.33	4192
807.472	4223
807.614	4200
807.756	4291
807.898	4223
808.04	4211
808.182	4322
808.324	4352
808.465	4398
808.607	4459
808.749	4428
808.891	4493
809.033	4512
809.174	4379
809.316	4268
809.458	4299
809.6	4150
809.741	4196
809.883	4124
810.025	4192
810.166	4242
810.308	4253
810.45	4280
810.591	4234
810.733	4303
810.875	4519
811.016	4873
811.158	5086
811.299	5284
811.441	5223
811.582	5060
811.724	4714
811.865	4428
812.007	4466
812.148	4451
812.29	4394
812.431	4413
812.573	4428
812.714	4363
812.855	4447
812.997	4394
813.138	4485
813.279	4443
813.421	4371
813.562	4375
813.703	4291
813.845	4303
813.986	4246
814.127	4204
814.268	4242
814.41	4322
814.551	4261
814.692	4314
814.833	4314
814.974	4276
815.115	4398
815.256	4280
815.397	4314
815.539	4261
815.68	4223
815.821	4234
815.962	4390
816.103	4242
816.244	4223
816.385	4200
816.526	4295
816.666	4215
816.807	4067
816.948	4185
817.089	4207
817.23	4116
817.371	4059
817.512	4090
817.653	4116
817.793	4051
817.934	4051
818.075	4093
818.216	4093
818.356	4109
818.497	3968
818.638	3911
818.778	3903
818.919	3896
819.06	3880
819.2	3934
819.341	3861
819.481	3812
819.622	3896
819.762	4048
819.903	3968
820.043	3865
820.184	3888
820.324	3797
820.465	3899
820.605	3842
820.746	3899
820.886	3789
821.026	3926
821.167	3983
821.307	4010
821.447	3968
821.588	3930
821.728	4002
821.868	3953
822.008	3880
822.149	3945
822.289	3949
822.429	3823
822.569	3797
822.709	3800
822.849	3694
822.99	3732
823.13	3740
823.27	3759
823.41	3743
823.55	3755
823.69	3728
823.83	3762
823.97	3701
824.11	3675
824.25	3618
824.389	3656
824.529	3641
824.669	3660
824.809	3701
824.949	3759
825.089	3709
825.228	3736
825.368	3637
825.508	3549
825.648	3591
825.787	3625
825.927	3641
826.067	3644
826.206	3648
826.346	3774
826.485	3823
826.625	3869
826.765	4006
826.904	3861
827.044	3625
827.183	3568
827.323	3485
827.462	3488
827.601	3454
827.741	3439
827.88	3435
828.02	3336
828.159	3450
828.298	3500
828.437	3553
828.577	3519
828.716	3625
828.855	3504
828.994	3416
829.134	3367
829.273	3389
829.412	3378
829.551	3367
829.69	3355
829.829	3431
829.968	3515
830.107	3435
830.246	3439
830.385	3397
830.524	3393
830.663	3317
830.802	3249
830.941	3233
831.08	3214
831.219	3294
831.357	3264
831.496	3424
831.635	3218
831.774	3199
831.913	3195
832.051	3131
832.19	3161
832.329	3237
832.467	3146
832.606	3119
832.744	3165
832.883	3173
833.022	3203
833.16	3237
833.299	3329
833.437	3336
833.576	3386
833.714	3393
833.852	3435
833.991	3496
834.129	3458
834.267	3481
834.406	3424
834.544	3412
834.682	3409
834.821	3450
834.959	3553
835.097	3439
835.235	3591
835.373	3534
835.511	3523
835.65	3469
835.788	3496
835.926	3424
836.064	3401
836.202	3439
836.34	3580
836.478	3625
836.615	3530
836.753	3644
836.891	3686
837.029	3641
837.167	3610
837.305	3603
837.443	3580
837.58	3488
837.718	3610
837.856	3568
837.993	3561
838.131	3610
838.269	3587
838.406	3618
838.544	3561
838.681	3469
838.819	3477
838.956	3405
839.094	3420
839.231	3439
839.369	3549
839.506	3728
839.643	3652
839.781	3507
839.918	3466
840.055	3538
840.193	3561
840.33	3561
840.467	3595
840.604	3587
840.742	3854
840.879	3523
841.016	3591
841.153	3584
841.29	3743
841.427	3728
841.564	3720
841.701	3724
841.838	3690
841.975	3690
842.112	3682
842.249	3625
842.385	3675
842.522	3831
842.659	3740
842.796	3709
842.933	3690
843.069	3747
843.206	3743
843.343	3778
843.479	3785
843.616	3835
843.752	3698
843.889	3709
844.025	3835
844.162	3686
844.298	3804
844.435	3778
844.571	3774
844.708	3918
844.844	3991
844.98	4006
845.117	4021
845.253	3994
845.389	3937
845.525	3991
845.661	3972
845.798	3918
845.934	3987
846.07	3953
846.206	4059
846.342	4173
846.478	4082
846.614	3941
846.75	3956
846.886	3892
847.022	4063
847.158	3979
847.294	4006
847.429	4040
847.565	4006
847.701	4249
847.837	3922
847.972	3907
848.108	3987
848.244	3987
848.379	3869
848.515	3835
848.65	3812
848.786	3869
848.921	3896
849.057	3922
849.192	3968
849.328	3907
849.463	3945
849.598	3915
849.734	3842
849.869	3857
850.004	3808
850.14	3816
850.275	3831
850.41	3759
850.545	3755
850.68	3781
850.815	3762
850.95	3789
851.085	3918
851.22	3876
851.355	3850
851.49	3812
851.625	3797
851.76	3816
851.895	3766
852.03	3686
852.165	3781
852.299	3797
852.434	3915
852.569	3892
852.703	3930
852.838	3918
852.973	3983
853.107	4029
853.242	3884
853.376	3869
853.511	3816
853.645	3876
853.78	3983
853.914	3876
854.048	3876
854.183	3873
854.317	3896
854.451	4051
854.585	3941
854.72	4002
854.854	4055
854.988	3941
855.122	3975
855.256	3972
855.39	4010
855.524	4120
855.658	4048
855.792	4131
855.926	4162
856.06	4188
856.194	4215
856.327	4143
856.461	4158
856.595	4143
856.729	4192
856.862	4268
856.996	4223
857.13	4318
857.263	4295
857.397	4371
857.53	4272
857.664	4310
857.797	4447
857.931	4402
858.064	4432
858.197	4462
858.331	4390
858.464	4386
858.597	4386
858.731	4497
858.864	4500
858.997	4455
859.13	4527
859.263	4527
859.396	4592
859.529	4512
859.662	4519
859.795	4523
859.928	4634
860.061	4702
860.194	4702
860.327	4698
860.46	4664
860.592	4771
860.725	4736
860.858	4778
860.99	4714
861.123	4717
861.256	4740
861.388	4793
861.521	5436
861.653	4725
861.786	4672
861.918	4759
862.05	4767
862.183	4873
862.315	4889
862.447	4976
862.58	4908
862.712	4759
862.844	4744
862.976	4858
863.108	4862
863.24	5235
863.372	4820
863.504	4889
863.636	4904
863.768	4995
863.9	4930
864.032	4938
864.164	4938
864.296	5052
864.428	5094
864.559	5102
864.691	5109
864.823	5178
864.954	5067
865.086	5189
865.217	5124
865.349	5128
865.48	5143
865.612	5185
865.743	5299
865.875	5235
866.006	5201
866.137	5227
866.269	5216
866.4	5258
866.531	5216
866.662	5258
866.793	5280
866.924	5284
867.055	5357
867.186	5318
867.317	5303
867.448	5315
867.579	5326
867.71	5391
867.841	5391
867.972	5406
868.103	5486
868.233	5474
868.364	5467
868.495	5535
868.625	5642
868.756	5783
868.886	5638
869.017	5790
869.147	5866
869.278	5874
869.408	5802
869.539	5802
869.669	5901
869.799	5950
869.929	5946
870.06	6034
870.19	6254
870.32	6220
870.45	6296
870.58	6414
870.71	6448
870.84	6437
870.97	6483
871.1	6448
871.23	6612
871.36	6734
871.489	6627
871.619	6772
871.749	6806
871.879	6856
872.008	6996
872.138	6947
872.267	7008
872.397	6935
872.526	7050
872.656	7141
872.785	7251
872.915	7392
873.044	7544
873.173	7552
873.303	7620
873.432	7765
873.561	7780
873.69	7913
873.819	8020
873.948	8164
874.077	8252
874.206	8339
874.335	8454
874.464	8613
874.593	8857
874.722	8929
874.851	9055
874.979	9222
875.108	9386
875.237	9458
875.365	9557
875.494	9633
875.623	9850
875.751	9861
875.88	10032
876.008	10067
876.136	10253
876.265	10489
876.393	10748
876.521	10702
876.65	10835
876.778	10946
876.906	10824
877.034	10991
877.162	11143
877.29	11143
877.418	11246
877.546	11406
877.674	11440
877.802	11509
877.93	11611
878.058	11535
878.185	11608
878.313	11589
878.441	11729
878.568	11695
878.696	11779
878.824	11874
878.951	11980
879.079	11950
879.206	12098
879.333	12068
879.461	11996
879.588	12098
879.715	12117
879.842	12213
879.97	11977
880.097	11885
880.224	11885
880.351	11950
880.478	11847
880.605	11809
880.732	11870
880.859	11984
880.986	11775
881.112	11828
881.239	11741
881.366	11646
881.493	11551
881.619	11600
881.746	11524
881.872	11573
881.999	11608
882.125	11490
882.252	11611
882.378	11558
882.505	11516
882.631	11360
882.757	11299
882.883	11364
883.01	11280
883.136	11197
883.262	11159
883.388	11094
883.514	11174
883.64	11181
883.766	11102
883.892	10957
884.018	11041
884.143	11006
884.269	11136
884.395	10847
884.52	10771
884.646	10740
884.772	10672
884.897	10675
885.023	10698
885.148	10744
885.274	10729
885.399	10698
885.524	10596
885.65	10626
885.775	10554
885.9	10569
886.025	10584
886.15	10558
886.275	10478
886.4	10493
886.525	10447
886.65	10337
886.775	10409
886.9	10523
887.025	10512
887.149	10390
887.274	10246
887.399	10177
887.523	10173
887.648	10169
887.773	10177
887.897	10261
888.021	10238
888.146	10131
888.27	10234
888.395	10268
888.519	10116
888.643	10173
888.767	10227
888.891	10154
889.015	10071
889.139	9975
889.263	9975
889.387	10067
889.511	10139
889.635	10040
889.759	10021
889.883	9991
890.006	10021
890.13	10128
890.254	10013
890.377	9918
890.501	9774
890.624	9838
890.748	9899
890.871	9774
890.995	9698
891.118	9717
891.241	9816
891.364	9675
891.488	9842
891.611	9641
891.734	9800
891.857	9762
891.98	9736
892.103	9823
892.226	9720
892.349	9694
892.471	9515
892.594	9610
892.717	9671
892.839	9595
892.962	9618
893.085	9679
893.207	9633
893.33	9477
893.452	9496
893.575	9641
893.697	9584
893.819	9584
893.941	9629
894.064	9667
894.186	9393
894.308	9462
894.43	9542
894.552	9545
894.674	9534
894.796	9332
894.918	9363
895.04	9329
895.161	9416
895.283	9351
895.405	9272
895.526	9306
895.648	9222
895.769	9253
895.891	9298
896.012	9272
896.134	9237
896.255	9203
896.376	9169
896.498	9142
896.619	9207
896.74	9093
896.861	9085
896.982	9230
897.103	9329
897.224	9222
897.345	9039
897.466	9051
897.587	9127
897.708	9108
897.828	9028
897.949	8990
898.07	8815
898.19	8880
898.311	9024
898.431	8956
898.552	8914
898.672	8986
898.792	8982
898.913	8895
899.033	8811
899.153	8804
899.273	8686
899.393	8720
899.513	8773
899.633	8743
899.753	8701
899.873	8724
899.993	8743
900.113	8663
900.232	8697
900.352	8625
900.472	8632
900.591	8564
900.711	8575
900.83	8560
900.95	8644
901.069	8708
901.189	8533
901.308	8404
901.427	8476
901.546	8408
901.665	8446
901.784	8545
901.904	8408
902.023	8389
902.141	8240
902.26	8191
902.379	8301
902.498	8202
902.617	8149
902.735	8347
902.854	8286
902.973	8305
903.091	8123
903.21	8183
903.328	8202
903.446	8172
903.565	8119
903.683	8123
903.801	8012
903.919	8134
904.038	8153
904.156	8058
904.274	8069
904.392	8081
904.51	8016
904.627	8062
904.745	8138
904.863	8096
904.981	7944
905.098	7894
905.216	7864
905.334	7997
905.451	7906
905.569	7852
905.686	7925
905.803	7925
905.921	7715
906.038	7940
906.155	7856
906.272	7784
906.389	7700
906.506	7662
906.623	7674
906.74	7708
906.857	7624
906.974	7632
907.091	7639
907.208	7723
907.324	7632
907.441	7544
907.557	7453
907.674	7518
907.79	7426
907.907	7358
908.023	7453
908.139	7419
908.256	7411
908.372	7335
908.488	7400
908.604	7316
908.72	7301
908.836	7282
908.952	7221
909.068	7255
909.184	7316
909.3	7240
909.415	7354
909.531	7293
909.647	7084
909.762	7095
909.878	7133
909.993	7221
910.108	7095
910.224	7088
910.339	7061
910.454	6985
910.57	7050
910.685	7034
910.8	7152
910.915	7122
911.03	7050
911.145	6886
911.259	6924
911.374	6875
911.489	6852
911.604	6779
911.718	6745
911.833	6703
911.947	6631
912.062	6604
912.176	6669
912.291	6688
912.405	6734
912.519	6825
912.633	6802
912.748	6810
912.862	6757
912.976	6616
913.09	6544
913.204	6585
913.318	6642
913.431	6669
913.545	6703
913.659	6684
913.772	6658
913.886	6570
914	6616
914.113	6639
914.226	6654
914.34	6665
914.453	6490
914.566	6563
914.68	6578
914.793	6483
914.906	6403
915.019	6311
915.132	6399
915.245	6410
915.358	6502
915.47	6448
915.583	6418
915.696	6490
915.809	6517
915.921	6604
916.034	6388
916.146	6464
916.259	6369
916.371	6471
916.483	6525
916.595	6437
916.708	6441
916.82	6353
916.932	6391
917.044	6369
917.156	6399
917.268	6353
917.38	6327
917.491	6361
917.603	6350
917.715	6445
917.826	6395
917.938	6342
918.049	6251
918.161	6296
918.272	6467
918.384	6467
918.495	6353
918.606	6239
918.717	6228
918.828	6285
918.939	6334
919.05	6258
919.161	6205
919.272	6072
919.383	6148
919.494	6289
919.604	6403
919.715	6281
919.826	6258
919.936	6258
920.047	6334
920.157	6304
920.267	6437
920.378	6308
920.488	6327
920.598	6494
920.708	6593
920.818	6475
920.928	6525
921.038	6601
921.148	6566
921.258	6372
921.368	6315
921.477	6220
921.587	6220
921.697	6068
921.806	6182
921.916	6068
922.025	5939
922.134	5984
922.244	5912
922.353	5996
922.462	5882
922.571	5794
922.68	5737
922.789	5699
922.898	5756
923.007	5649
923.116	5764
923.224	5657
923.333	5752
923.442	5581
923.55	5596
923.659	5535
923.767	5634
923.876	5627
923.984	5604
924.092	5516
924.201	5562
924.309	5600
924.417	5558
924.525	5524
924.633	5520
924.741	6136
924.849	5398
924.956	5516
925.064	5349
925.172	5349
925.279	5303
925.387	5383
925.494	5318
925.602	5440
925.709	5444
925.816	5292
925.924	5334
926.031	5387
926.138	5357
926.245	5299
926.352	5223
926.459	5334
926.566	5334
926.673	5197
926.779	5162
926.886	5117
926.993	5025
927.099	5018
927.206	4961
927.312	4961
927.419	5010
927.525	5014
927.631	5010
927.737	4877
927.843	4870
927.95	4812
928.056	4809
928.162	4835
928.267	4854
928.373	5383
928.479	4896
928.585	4672
928.69	4786
928.796	4828
928.901	4675
929.007	4641
929.112	4702
929.218	4675
929.323	4599
929.428	4565
929.533	4702
929.638	4542
929.743	4527
929.848	4561
929.953	4508
930.058	4455
930.163	4295
930.267	4348
930.372	4440
930.477	4303
930.581	4516
930.685	4375
930.79	4265
930.894	4272
930.998	4280
931.103	4394
931.207	4162
931.311	4059
931.415	4051
931.519	3953
931.623	3945
