Data from glass_V78500241_911.txt Node
Date: Wed Sep 01 19:20:48 CST 2021
User: usil
Spectrometer: V785-0024
Trigger mode: 0
Integration Time (sec): 4.000000E-1
Scans to average: 1
Nonlinearity correction enabled: false
Boxcar width: 0
Storing dark spectrum: false
XAxis mode: Wavelengths
Number of Pixels in Spectrum: 1024
>>>>>Begin Spectral Data<<<<<
801.071	3774
801.214	3800
801.356	3728
801.499	3720
801.641	3709
801.783	3762
801.926	3876
802.068	3823
802.211	3842
802.353	3880
802.496	3774
802.638	3922
802.78	3915
802.923	3960
803.065	3937
803.208	3884
803.35	3896
803.492	3903
803.635	3873
803.777	3778
803.919	3880
804.061	4166
804.204	3994
804.346	3979
804.488	3956
804.63	4040
804.773	4017
804.915	4059
805.057	4154
805.199	4036
805.341	4128
805.483	4166
805.626	4120
805.768	4124
805.91	4185
806.052	4265
806.194	4200
806.336	4310
806.478	4192
806.62	4185
806.762	4257
806.904	4276
807.046	4337
807.188	4238
807.33	4204
807.472	4192
807.614	4181
807.756	4234
807.898	4249
808.04	4230
808.182	4280
808.324	4325
808.465	4428
808.607	4500
808.749	4451
808.891	4516
809.033	4504
809.174	4386
809.316	4276
809.458	4253
809.6	4135
809.741	4143
809.883	4188
810.025	4246
810.166	4253
810.308	4246
810.45	4249
810.591	4261
810.733	4318
810.875	4523
811.016	4793
811.158	5136
811.299	5261
811.441	5303
811.582	5094
811.724	4691
811.865	4474
812.007	4443
812.148	4417
812.29	4443
812.431	4440
812.573	4367
812.714	4405
812.855	4443
812.997	4440
813.138	4497
813.279	4398
813.421	4398
813.562	4386
813.703	4322
813.845	4375
813.986	4249
814.127	4257
814.268	4257
814.41	4306
814.551	4299
814.692	4341
814.833	4238
814.974	4333
815.115	4371
815.256	4272
815.397	4253
815.539	4238
815.68	4207
815.821	4246
815.962	4280
816.103	4280
816.244	4272
816.385	4284
816.526	4287
816.666	4249
816.807	4101
816.948	4162
817.089	4230
817.23	4112
817.371	4055
817.512	4059
817.653	4078
817.793	4025
817.934	4063
818.075	4082
818.216	4078
818.356	4048
818.497	4002
818.638	3956
818.778	3896
818.919	3896
819.06	3896
819.2	3903
819.341	3854
819.481	3819
819.622	3880
819.762	3991
819.903	3953
820.043	3888
820.184	3804
820.324	3835
820.465	3857
820.605	3884
820.746	3861
820.886	3800
821.026	3956
821.167	3930
821.307	3968
821.447	3994
821.588	3930
821.728	3949
821.868	3975
822.008	3873
822.149	3899
822.289	3911
822.429	3793
822.569	3789
822.709	3770
822.849	3717
822.99	3720
823.13	3785
823.27	3778
823.41	3732
823.55	3751
823.69	3747
823.83	3732
823.97	3690
824.11	3614
824.25	3599
824.389	3652
824.529	3675
824.669	3618
824.809	3755
824.949	3774
825.089	3732
825.228	3705
825.368	3587
825.508	3580
825.648	3580
825.787	3637
825.927	3625
826.067	3644
826.206	3660
826.346	3774
826.485	3846
826.625	3888
826.765	3945
826.904	3854
827.044	3622
827.183	3507
827.323	3424
827.462	3500
827.601	3447
827.741	3424
827.88	3485
828.02	3405
828.159	3450
828.298	3515
828.437	3523
828.577	3477
828.716	3618
828.855	3492
828.994	3348
829.134	3370
829.273	3401
829.412	3359
829.551	3344
829.69	3401
829.829	3409
829.968	3530
830.107	3439
830.246	3412
830.385	3409
830.524	3367
830.663	3291
830.802	3272
830.941	3207
831.08	3218
831.219	3226
831.357	3264
831.496	3431
831.635	3260
831.774	3256
831.913	3199
832.051	3161
832.19	3127
832.329	3218
832.467	3154
832.606	3127
832.744	3169
832.883	3207
833.022	3214
833.16	3249
833.299	3310
833.437	3374
833.576	3367
833.714	3412
833.852	3416
833.991	3462
834.129	3473
834.267	3466
834.406	3416
834.544	3412
834.682	3435
834.821	3420
834.959	3599
835.097	3435
835.235	3542
835.373	3485
835.511	3492
835.65	3492
835.788	3511
835.926	3393
836.064	3397
836.202	3382
836.34	3584
836.478	3610
836.615	3580
836.753	3584
836.891	3644
837.029	3618
837.167	3606
837.305	3576
837.443	3519
837.58	3515
837.718	3656
837.856	3549
837.993	3549
838.131	3606
838.269	3610
838.406	3572
838.544	3629
838.681	3450
838.819	3458
838.956	3367
839.094	3359
839.231	3439
839.369	3515
839.506	3740
839.643	3637
839.781	3507
839.918	3450
840.055	3511
840.193	3564
840.33	3515
840.467	3549
840.604	3629
840.742	3770
840.879	3538
841.016	3557
841.153	3603
841.29	3766
841.427	3747
841.564	3736
841.701	3755
841.838	3690
841.975	3705
842.112	3743
842.249	3652
842.385	3629
842.522	3838
842.659	3686
842.796	3682
842.933	3755
843.069	3720
843.206	3705
843.343	3819
843.479	3789
843.616	3861
843.752	3682
843.889	3705
844.025	3884
844.162	3682
844.298	3857
844.435	3808
844.571	3804
844.708	3918
844.844	3998
844.98	4002
845.117	4040
845.253	3926
845.389	3903
845.525	4021
845.661	3968
845.798	3915
845.934	3998
846.07	3903
846.206	4051
846.342	4150
846.478	4051
846.614	3983
846.75	3922
846.886	3926
847.022	4067
847.158	4017
847.294	4040
847.429	4006
847.565	4017
847.701	4253
847.837	3861
847.972	3922
848.108	3975
848.244	3991
848.379	3842
848.515	3831
848.65	3869
848.786	3800
848.921	3892
849.057	3934
849.192	3911
849.328	3918
849.463	3930
849.598	3880
849.734	3854
849.869	3842
850.004	3785
850.14	3812
850.275	3736
850.41	3740
850.545	3762
850.68	3827
850.815	3827
850.95	3838
851.085	3956
851.22	3869
851.355	3823
851.49	3800
851.625	3808
851.76	3812
851.895	3724
852.03	3705
852.165	3831
852.299	3857
852.434	3892
852.569	3903
852.703	3892
852.838	3953
852.973	4036
853.107	4002
853.242	3922
853.376	3857
853.511	3808
853.645	3873
853.78	3998
853.914	3915
854.048	3949
854.183	3884
854.317	3964
854.451	4067
854.585	3998
854.72	3926
854.854	4074
854.988	3915
855.122	4025
855.256	3911
855.39	4055
855.524	4097
855.658	4090
855.792	4109
855.926	4177
856.06	4196
856.194	4211
856.327	4124
856.461	4154
856.595	4158
856.729	4185
856.862	4287
856.996	4265
857.13	4318
857.263	4360
857.397	4375
857.53	4287
857.664	4356
857.797	4451
857.931	4500
858.064	4386
858.197	4470
858.331	4375
858.464	4405
858.597	4360
858.731	4428
858.864	4428
858.997	4489
859.13	4577
859.263	4497
859.396	4573
859.529	4504
859.662	4516
859.795	4500
859.928	4599
860.061	4748
860.194	4771
860.327	4630
860.46	4611
860.592	4725
860.725	4771
860.858	4824
860.99	4740
861.123	4694
861.256	4698
861.388	4767
861.521	5520
861.653	4687
861.786	4725
861.918	4736
862.05	4797
862.183	4854
862.315	4885
862.447	4930
862.58	4930
862.712	4771
862.844	4809
862.976	4911
863.108	4873
863.24	5235
863.372	4816
863.504	4957
863.636	4866
863.768	4972
863.9	4930
864.032	4930
864.164	4972
864.296	5029
864.428	5048
864.559	5155
864.691	5098
864.823	5121
864.954	5124
865.086	5201
865.217	5166
865.349	5083
865.48	5174
865.612	5239
865.743	5280
865.875	5166
866.006	5204
866.137	5212
866.269	5280
866.4	5269
866.531	5212
866.662	5254
866.793	5265
866.924	5326
867.055	5357
867.186	5334
867.317	5318
867.448	5315
867.579	5368
867.71	5440
867.841	5448
867.972	5459
868.103	5471
868.233	5471
868.364	5509
868.495	5566
868.625	5691
868.756	5798
868.886	5710
869.017	5752
869.147	5904
869.278	5847
869.408	5859
869.539	5863
869.669	5931
869.799	5912
869.929	6015
870.06	6022
870.19	6186
870.32	6190
870.45	6304
870.58	6376
870.71	6433
870.84	6506
870.97	6407
871.1	6437
871.23	6654
871.36	6707
871.489	6715
871.619	6707
871.749	6844
871.879	6859
872.008	6989
872.138	6985
872.267	6962
872.397	6996
872.526	7038
872.656	7103
872.785	7240
872.915	7377
873.044	7533
873.173	7586
873.303	7681
873.432	7677
873.561	7837
873.69	7909
873.819	8035
873.948	8187
874.077	8225
874.206	8336
874.335	8438
874.464	8674
874.593	8838
874.722	8941
874.851	9127
874.979	9241
875.108	9386
875.237	9469
875.365	9466
875.494	9667
875.623	9857
875.751	9876
875.88	9987
876.008	10181
876.136	10329
876.265	10535
876.393	10702
876.521	10786
876.65	10850
876.778	10930
876.906	10873
877.034	10984
877.162	11155
877.29	11185
877.418	11216
877.546	11356
877.674	11440
877.802	11516
877.93	11524
878.058	11551
878.185	11623
878.313	11680
878.441	11775
878.568	11676
878.696	11866
878.824	11920
878.951	12041
879.079	12049
879.206	12083
879.333	12106
879.461	12003
879.588	12144
879.715	12019
879.842	12243
879.97	12079
880.097	11843
880.224	11935
880.351	11836
880.478	11870
880.605	11802
880.732	11824
880.859	11935
880.986	11802
881.112	11897
881.239	11756
881.366	11653
881.493	11649
881.619	11596
881.746	11524
881.872	11505
881.999	11467
882.125	11497
882.252	11543
882.378	11459
882.505	11592
882.631	11383
882.757	11261
882.883	11322
883.01	11254
883.136	11170
883.262	11147
883.388	11124
883.514	11185
883.64	11128
883.766	11121
883.892	11045
884.018	11018
884.143	11037
884.269	11124
884.395	10831
884.52	10843
884.646	10854
884.772	10660
884.897	10596
885.023	10710
885.148	10725
885.274	10839
885.399	10717
885.524	10615
885.65	10596
885.775	10691
885.9	10512
886.025	10691
886.15	10603
886.275	10519
886.4	10382
886.525	10371
886.65	10428
886.775	10360
886.9	10588
887.025	10478
887.149	10295
887.274	10276
887.399	10276
887.523	10204
887.648	10211
887.773	10093
887.897	10276
888.021	10299
888.146	10188
888.27	10249
888.395	10207
888.519	10124
888.643	10200
888.767	10207
888.891	10055
889.015	10006
889.139	10074
889.263	10078
889.387	10021
889.511	10105
889.635	10105
889.759	9922
889.883	10067
890.006	9975
890.13	10124
890.254	10006
890.377	10013
890.501	9937
890.624	9827
890.748	9941
890.871	9770
890.995	9766
891.118	9747
891.241	9766
891.364	9675
891.488	9800
891.611	9724
891.734	9728
891.857	9793
891.98	9732
892.103	9774
892.226	9747
892.349	9660
892.471	9538
892.594	9584
892.717	9606
892.839	9603
892.962	9614
893.085	9648
893.207	9584
893.33	9606
893.452	9553
893.575	9595
893.697	9507
893.819	9610
893.941	9667
894.064	9633
894.186	9405
894.308	9435
894.43	9545
894.552	9587
894.674	9587
894.796	9428
894.918	9450
895.04	9363
895.161	9306
895.283	9313
895.405	9298
895.526	9321
895.648	9264
895.769	9245
895.891	9226
896.012	9294
896.134	9127
896.255	9188
896.376	9146
896.498	9100
896.619	9165
896.74	9028
896.861	9108
896.982	9184
897.103	9272
897.224	9218
897.345	9043
897.466	9020
897.587	8971
897.708	9161
897.828	9036
897.949	8986
898.07	8861
898.19	8941
898.311	8990
898.431	8944
898.552	8876
898.672	8944
898.792	8887
898.913	8952
899.033	8857
899.153	8766
899.273	8689
899.393	8731
899.513	8712
899.633	8731
899.753	8724
899.873	8712
899.993	8716
900.113	8777
900.232	8754
900.352	8670
900.472	8594
900.591	8568
900.711	8655
900.83	8568
900.95	8590
901.069	8712
901.189	8590
901.308	8438
901.427	8366
901.546	8476
901.665	8446
901.784	8499
901.904	8366
902.023	8400
902.141	8248
902.26	8263
902.379	8244
902.498	8244
902.617	8248
902.735	8339
902.854	8237
902.973	8233
903.091	8138
903.21	8237
903.328	8149
903.446	8077
903.565	8088
903.683	8123
903.801	8081
903.919	8164
904.038	8126
904.156	8077
904.274	8103
904.392	8069
904.51	8073
904.627	8046
904.745	8054
904.863	8138
904.981	7940
905.098	7837
905.216	7849
905.334	7932
905.451	7860
905.569	7921
905.686	7951
905.803	7894
905.921	7814
906.038	7947
906.155	7833
906.272	7746
906.389	7704
906.506	7632
906.623	7636
906.74	7616
906.857	7544
906.974	7567
907.091	7655
907.208	7765
907.324	7643
907.441	7533
907.557	7495
907.674	7407
907.79	7388
907.907	7445
908.023	7438
908.139	7457
908.256	7381
908.372	7339
908.488	7365
908.604	7282
908.72	7259
908.836	7251
908.952	7240
909.068	7247
909.184	7320
909.3	7305
909.415	7369
909.531	7301
909.647	7168
909.762	7171
909.878	7065
909.993	7164
910.108	7061
910.224	7095
910.339	7122
910.454	7065
910.57	7103
910.685	6970
910.8	7137
910.915	7126
911.03	7084
911.145	6905
911.259	6897
911.374	6890
911.489	6810
911.604	6730
911.718	6734
911.833	6745
911.947	6677
912.062	6601
912.176	6741
912.291	6829
912.405	6635
912.519	6814
912.633	6829
912.748	6779
912.862	6715
912.976	6585
913.09	6528
913.204	6662
913.318	6665
913.431	6692
913.545	6677
913.659	6722
913.772	6642
913.886	6551
914	6639
914.113	6608
914.226	6684
914.34	6566
914.453	6574
914.566	6612
914.68	6589
914.793	6525
914.906	6448
915.019	6437
915.132	6437
915.245	6437
915.358	6445
915.47	6502
915.583	6513
915.696	6448
915.809	6589
915.921	6483
916.034	6395
916.146	6399
916.259	6403
916.371	6486
916.483	6426
916.595	6369
916.708	6490
916.82	6422
916.932	6350
917.044	6376
917.156	6456
917.268	6315
917.38	6315
917.491	6308
917.603	6467
917.715	6464
917.826	6448
917.938	6270
918.049	6327
918.161	6334
918.272	6388
918.384	6418
918.495	6353
918.606	6254
918.717	6194
918.828	6266
918.939	6262
919.05	6254
919.161	6239
919.272	6190
919.383	6190
919.494	6342
919.604	6353
919.715	6216
919.826	6224
919.936	6258
920.047	6334
920.157	6205
920.267	6441
920.378	6365
920.488	6285
920.598	6456
920.708	6578
920.818	6471
920.928	6456
921.038	6578
921.148	6604
921.258	6399
921.368	6323
921.477	6239
921.587	6190
921.697	6083
921.806	6216
921.916	6102
922.025	5931
922.134	5935
922.244	5908
922.353	5939
922.462	5855
922.571	5840
922.68	5752
922.789	5737
922.898	5688
923.007	5668
923.116	5691
923.224	5630
923.333	5691
923.442	5566
923.55	5577
923.659	5592
923.767	5604
923.876	5577
923.984	5649
924.092	5505
924.201	5573
924.309	5551
924.417	5600
924.525	5497
924.633	5497
924.741	6140
924.849	5372
924.956	5463
925.064	5395
925.172	5311
925.279	5334
925.387	5368
925.494	5372
925.602	5398
925.709	5368
925.816	5322
925.924	5349
926.031	5372
926.138	5318
926.245	5322
926.352	5277
926.459	5334
926.566	5337
926.673	5185
926.779	5143
926.886	5124
926.993	5052
927.099	5025
927.206	4987
927.312	4995
927.419	5048
927.525	5014
927.631	4995
927.737	4923
927.843	4900
927.95	4771
928.056	4870
928.162	4828
928.267	4843
928.373	5383
928.479	4900
928.585	4653
928.69	4763
928.796	4778
928.901	4691
929.007	4565
929.112	4729
929.218	4630
929.323	4599
929.428	4592
929.533	4698
929.638	4523
929.743	4573
929.848	4577
929.953	4512
930.058	4462
930.163	4383
930.267	4356
930.372	4440
930.477	4284
930.581	4462
930.685	4371
930.79	4284
930.894	4249
930.998	4253
931.103	4421
931.207	4090
931.311	4097
931.415	4044
931.519	3934
931.623	3945
