Data from glass_V78500241_1236.txt Node
Date: Wed Sep 01 19:23:04 CST 2021
User: usil
Spectrometer: V785-0024
Trigger mode: 0
Integration Time (sec): 4.000000E-1
Scans to average: 1
Nonlinearity correction enabled: false
Boxcar width: 0
Storing dark spectrum: false
XAxis mode: Wavelengths
Number of Pixels in Spectrum: 1024
>>>>>Begin Spectral Data<<<<<
801.071	3740
801.214	3743
801.356	3717
801.499	3819
801.641	3720
801.783	3789
801.926	3911
802.068	3831
802.211	3892
802.353	3896
802.496	3838
802.638	3896
802.78	3911
802.923	3915
803.065	3915
803.208	3873
803.35	3876
803.492	3903
803.635	3899
803.777	3842
803.919	3903
804.061	4143
804.204	3987
804.346	3941
804.488	3956
804.63	4059
804.773	4002
804.915	4048
805.057	4109
805.199	4093
805.341	4093
805.483	4166
805.626	4124
805.768	4139
805.91	4185
806.052	4223
806.194	4234
806.336	4375
806.478	4211
806.62	4204
806.762	4200
806.904	4257
807.046	4325
807.188	4211
807.33	4150
807.472	4257
807.614	4223
807.756	4291
807.898	4211
808.04	4230
808.182	4287
808.324	4299
808.465	4447
808.607	4474
808.749	4474
808.891	4485
809.033	4535
809.174	4398
809.316	4284
809.458	4257
809.6	4131
809.741	4147
809.883	4131
810.025	4207
810.166	4223
810.308	4234
810.45	4234
810.591	4230
810.733	4322
810.875	4519
811.016	4854
811.158	5098
811.299	5261
811.441	5299
811.582	5071
811.724	4679
811.865	4489
812.007	4489
812.148	4428
812.29	4481
812.431	4386
812.573	4440
812.714	4394
812.855	4440
812.997	4394
813.138	4462
813.279	4428
813.421	4402
813.562	4375
813.703	4363
813.845	4329
813.986	4261
814.127	4234
814.268	4253
814.41	4333
814.551	4265
814.692	4348
814.833	4249
814.974	4314
815.115	4352
815.256	4272
815.397	4230
815.539	4272
815.68	4219
815.821	4223
815.962	4337
816.103	4284
816.244	4211
816.385	4211
816.526	4257
816.666	4188
816.807	4090
816.948	4207
817.089	4185
817.23	4135
817.371	4124
817.512	4063
817.653	4036
817.793	4029
817.934	4036
818.075	4090
818.216	4154
818.356	4116
818.497	4051
818.638	3945
818.778	3937
818.919	3884
819.06	3888
819.2	3949
819.341	3907
819.481	3812
819.622	3907
819.762	4051
819.903	3979
820.043	3850
820.184	3850
820.324	3819
820.465	3884
820.605	3876
820.746	3892
820.886	3797
821.026	3926
821.167	3911
821.307	3968
821.447	3975
821.588	3975
821.728	3972
821.868	3892
822.008	3842
822.149	3926
822.289	3956
822.429	3793
822.569	3797
822.709	3804
822.849	3724
822.99	3759
823.13	3762
823.27	3789
823.41	3701
823.55	3736
823.69	3762
823.83	3705
823.97	3709
824.11	3637
824.25	3576
824.389	3660
824.529	3679
824.669	3644
824.809	3759
824.949	3778
825.089	3732
825.228	3694
825.368	3603
825.508	3519
825.648	3553
825.787	3595
825.927	3633
826.067	3622
826.206	3686
826.346	3808
826.485	3888
826.625	3896
826.765	3945
826.904	3823
827.044	3606
827.183	3534
827.323	3405
827.462	3462
827.601	3428
827.741	3424
827.88	3443
828.02	3363
828.159	3401
828.298	3488
828.437	3507
828.577	3485
828.716	3576
828.855	3462
828.994	3397
829.134	3355
829.273	3393
829.412	3370
829.551	3355
829.69	3386
829.829	3435
829.968	3553
830.107	3481
830.246	3420
830.385	3359
830.524	3332
830.663	3332
830.802	3230
830.941	3199
831.08	3173
831.219	3241
831.357	3260
831.496	3389
831.635	3218
831.774	3157
831.913	3207
832.051	3131
832.19	3119
832.329	3253
832.467	3138
832.606	3127
832.744	3161
832.883	3188
833.022	3203
833.16	3253
833.299	3321
833.437	3397
833.576	3382
833.714	3443
833.852	3409
833.991	3481
834.129	3492
834.267	3431
834.406	3397
834.544	3412
834.682	3412
834.821	3378
834.959	3549
835.097	3454
835.235	3557
835.373	3485
835.511	3515
835.65	3450
835.788	3488
835.926	3386
836.064	3428
836.202	3409
836.34	3606
836.478	3584
836.615	3523
836.753	3591
836.891	3652
837.029	3557
837.167	3606
837.305	3542
837.443	3561
837.58	3507
837.718	3614
837.856	3584
837.993	3557
838.131	3599
838.269	3549
838.406	3591
838.544	3610
838.681	3462
838.819	3477
838.956	3374
839.094	3431
839.231	3485
839.369	3526
839.506	3740
839.643	3660
839.781	3500
839.918	3477
840.055	3519
840.193	3557
840.33	3561
840.467	3553
840.604	3622
840.742	3842
840.879	3549
841.016	3564
841.153	3599
841.29	3720
841.427	3713
841.564	3705
841.701	3720
841.838	3648
841.975	3652
842.112	3770
842.249	3622
842.385	3629
842.522	3835
842.659	3652
842.796	3644
842.933	3694
843.069	3690
843.206	3732
843.343	3842
843.479	3766
843.616	3816
843.752	3648
843.889	3694
844.025	3850
844.162	3728
844.298	3888
844.435	3823
844.571	3812
844.708	3861
844.844	3991
844.98	3998
845.117	3987
845.253	3953
845.389	3892
845.525	4002
845.661	3968
845.798	3930
845.934	3994
846.07	3960
846.206	4120
846.342	4150
846.478	4048
846.614	3972
846.75	3930
846.886	3941
847.022	4029
847.158	3964
847.294	4006
847.429	4048
847.565	4010
847.701	4219
847.837	3907
847.972	3888
848.108	4013
848.244	3968
848.379	3838
848.515	3857
848.65	3804
848.786	3888
848.921	3888
849.057	3876
849.192	3949
849.328	3896
849.463	3926
849.598	3911
849.734	3861
849.869	3838
850.004	3800
850.14	3831
850.275	3808
850.41	3751
850.545	3797
850.68	3785
850.815	3800
850.95	3797
851.085	3934
851.22	3899
851.355	3827
851.49	3797
851.625	3797
851.76	3797
851.895	3751
852.03	3720
852.165	3831
852.299	3838
852.434	3922
852.569	3873
852.703	3899
852.838	3934
852.973	4021
853.107	4040
853.242	3861
853.376	3857
853.511	3800
853.645	3827
853.78	3975
853.914	3896
854.048	3934
854.183	3892
854.317	3934
854.451	4086
854.585	3987
854.72	3934
854.854	4021
854.988	3949
855.122	3994
855.256	3922
855.39	4017
855.524	4082
855.658	4036
855.792	4105
855.926	4124
856.06	4181
856.194	4200
856.327	4181
856.461	4147
856.595	4173
856.729	4143
856.862	4333
856.996	4230
857.13	4280
857.263	4303
857.397	4329
857.53	4310
857.664	4341
857.797	4417
857.931	4440
858.064	4394
858.197	4470
858.331	4383
858.464	4367
858.597	4371
858.731	4440
858.864	4470
858.997	4516
859.13	4516
859.263	4516
859.396	4637
859.529	4519
859.662	4561
859.795	4497
859.928	4618
860.061	4706
860.194	4824
860.327	4664
860.46	4664
860.592	4736
860.725	4721
860.858	4786
860.99	4687
861.123	4729
861.256	4702
861.388	4778
861.521	5223
861.653	4759
861.786	4717
861.918	4759
862.05	4801
862.183	4850
862.315	4873
862.447	4923
862.58	4828
862.712	4847
862.844	4748
862.976	4900
863.108	4847
863.24	5227
863.372	4820
863.504	4942
863.636	4889
863.768	5033
863.9	4965
864.032	4911
864.164	4965
864.296	5025
864.428	5067
864.559	5151
864.691	5121
864.823	5159
864.954	5128
865.086	5147
865.217	5090
865.349	5102
865.48	5147
865.612	5166
865.743	5307
865.875	5204
866.006	5147
866.137	5258
866.269	5246
866.4	5296
866.531	5246
866.662	5227
866.793	5231
866.924	5273
867.055	5345
867.186	5376
867.317	5322
867.448	5284
867.579	5402
867.71	5376
867.841	5417
867.972	5436
868.103	5459
868.233	5490
868.364	5490
868.495	5490
868.625	5642
868.756	5741
868.886	5703
869.017	5760
869.147	5870
869.278	5908
869.408	5817
869.539	5870
869.669	5954
869.799	5866
869.929	6015
870.06	6026
870.19	6220
870.32	6224
870.45	6270
870.58	6372
870.71	6437
870.84	6437
870.97	6426
871.1	6483
871.23	6673
871.36	6734
871.489	6692
871.619	6741
871.749	6837
871.879	6890
872.008	6962
872.138	6973
872.267	7000
872.397	7015
872.526	7046
872.656	7069
872.785	7202
872.915	7400
873.044	7476
873.173	7578
873.303	7624
873.432	7738
873.561	7955
873.69	7898
873.819	7997
873.948	8191
874.077	8263
874.206	8358
874.335	8431
874.464	8670
874.593	8849
874.722	8933
874.851	9077
874.979	9313
875.108	9313
875.237	9405
875.365	9462
875.494	9584
875.623	9842
875.751	9880
875.88	9953
876.008	10177
876.136	10352
876.265	10588
876.393	10611
876.521	10782
876.65	10881
876.778	10877
876.906	10873
877.034	11014
877.162	11105
877.29	11227
877.418	11334
877.546	11356
877.674	11448
877.802	11562
877.93	11528
878.058	11570
878.185	11562
878.313	11642
878.441	11737
878.568	11646
878.696	11813
878.824	11752
878.951	11946
879.079	12038
879.206	12171
879.333	12098
879.461	12034
879.588	12030
879.715	12098
879.842	12197
879.97	12007
880.097	11855
880.224	11942
880.351	11870
880.478	11859
880.605	11836
880.732	11843
880.859	12007
880.986	11874
881.112	11832
881.239	11756
881.366	11665
881.493	11627
881.619	11630
881.746	11646
881.872	11570
881.999	11566
882.125	11539
882.252	11509
882.378	11589
882.505	11570
882.631	11436
882.757	11318
882.883	11387
883.01	11159
883.136	11185
883.262	11086
883.388	11083
883.514	11216
883.64	11204
883.766	11109
883.892	11018
884.018	10961
884.143	11098
884.269	11166
884.395	10972
884.52	10752
884.646	10736
884.772	10637
884.897	10694
885.023	10759
885.148	10736
885.274	10668
885.399	10752
885.524	10664
885.65	10592
885.775	10588
885.9	10493
886.025	10611
886.15	10565
886.275	10470
886.4	10481
886.525	10398
886.65	10382
886.775	10337
886.9	10417
887.025	10611
887.149	10402
887.274	10257
887.399	10147
887.523	10268
887.648	10109
887.773	10131
887.897	10253
888.021	10238
888.146	10112
888.27	10215
888.395	10238
888.519	10169
888.643	10246
888.767	10230
888.891	10128
889.015	9983
889.139	10044
889.263	10051
889.387	10109
889.511	10101
889.635	10086
889.759	9884
889.883	10013
890.006	10013
890.13	10131
890.254	10006
890.377	9941
890.501	9884
890.624	9827
890.748	9869
890.871	9740
890.995	9774
891.118	9743
891.241	9781
891.364	9789
891.488	9838
891.611	9736
891.734	9827
891.857	9774
891.98	9751
892.103	9747
892.226	9720
892.349	9667
892.471	9545
892.594	9557
892.717	9618
892.839	9599
892.962	9625
893.085	9686
893.207	9622
893.33	9545
893.452	9526
893.575	9622
893.697	9515
893.819	9591
893.941	9542
894.064	9660
894.186	9488
894.308	9496
894.43	9534
894.552	9637
894.674	9496
894.796	9397
894.918	9469
895.04	9351
895.161	9405
895.283	9344
895.405	9306
895.526	9260
895.648	9268
895.769	9294
895.891	9268
896.012	9279
896.134	9233
896.255	9192
896.376	9146
896.498	9131
896.619	9104
896.74	9051
896.861	9138
896.982	9268
897.103	9370
897.224	9184
897.345	9108
897.466	9013
897.587	9081
897.708	9077
897.828	9074
897.949	8990
898.07	8899
898.19	8868
898.311	8994
898.431	8956
898.552	8918
898.672	8929
898.792	8998
898.913	8872
899.033	8887
899.153	8724
899.273	8731
899.393	8769
899.513	8727
899.633	8708
899.753	8746
899.873	8663
899.993	8819
900.113	8659
900.232	8640
900.352	8724
900.472	8552
900.591	8583
900.711	8606
900.83	8511
900.95	8712
901.069	8754
901.189	8594
901.308	8484
901.427	8393
901.546	8442
901.665	8473
901.784	8507
901.904	8419
902.023	8374
902.141	8294
902.26	8294
902.379	8351
902.498	8244
902.617	8317
902.735	8324
902.854	8282
902.973	8290
903.091	8168
903.21	8161
903.328	8130
903.446	8111
903.565	8046
903.683	8180
903.801	8039
903.919	8130
904.038	8142
904.156	8012
904.274	8069
904.392	8062
904.51	8035
904.627	8058
904.745	8092
904.863	8115
904.981	7970
905.098	7845
905.216	7902
905.334	7970
905.451	7936
905.569	7871
905.686	7898
905.803	7932
905.921	7788
906.038	7955
906.155	7833
906.272	7738
906.389	7685
906.506	7624
906.623	7643
906.74	7613
906.857	7567
906.974	7582
907.091	7674
907.208	7670
907.324	7563
907.441	7563
907.557	7483
907.674	7453
907.79	7327
907.907	7388
908.023	7426
908.139	7407
908.256	7419
908.372	7396
908.488	7346
908.604	7240
908.72	7285
908.836	7259
908.952	7263
909.068	7270
909.184	7278
909.3	7251
909.415	7396
909.531	7308
909.647	7114
909.762	7114
909.878	7114
909.993	7126
910.108	7103
910.224	7099
910.339	7027
910.454	7114
910.57	7031
910.685	6958
910.8	7183
910.915	7110
911.03	7023
911.145	6905
911.259	6863
911.374	6882
911.489	6837
911.604	6837
911.718	6696
911.833	6795
911.947	6677
912.062	6589
912.176	6719
912.291	6684
912.405	6650
912.519	6814
912.633	6852
912.748	6760
912.862	6738
912.976	6642
913.09	6544
913.204	6631
913.318	6604
913.431	6665
913.545	6726
913.659	6722
913.772	6654
913.886	6563
914	6559
914.113	6597
914.226	6646
914.34	6635
914.453	6521
914.566	6597
914.68	6467
914.793	6544
914.906	6460
915.019	6342
915.132	6361
915.245	6452
915.358	6498
915.47	6490
915.583	6502
915.696	6486
915.809	6540
915.921	6646
916.034	6342
916.146	6422
916.259	6357
916.371	6429
916.483	6448
916.595	6422
916.708	6414
916.82	6437
916.932	6433
917.044	6376
917.156	6391
917.268	6281
917.38	6414
917.491	6331
917.603	6289
917.715	6384
917.826	6410
917.938	6296
918.049	6258
918.161	6369
918.272	6445
918.384	6437
918.495	6311
918.606	6262
918.717	6243
918.828	6281
918.939	6285
919.05	6197
919.161	6292
919.272	6163
919.383	6194
919.494	6296
919.604	6437
919.715	6319
919.826	6213
919.936	6243
920.047	6331
920.157	6357
920.267	6471
920.378	6308
920.488	6292
920.598	6502
920.708	6608
920.818	6479
920.928	6445
921.038	6642
921.148	6582
921.258	6361
921.368	6285
921.477	6175
921.587	6213
921.697	6121
921.806	6175
921.916	6076
922.025	5916
922.134	5954
922.244	5878
922.353	5950
922.462	5874
922.571	5783
922.68	5764
922.789	5699
922.898	5710
923.007	5623
923.116	5722
923.224	5668
923.333	5619
923.442	5608
923.55	5570
923.659	5623
923.767	5627
923.876	5532
923.984	5623
924.092	5490
924.201	5589
924.309	5581
924.417	5535
924.525	5455
924.633	5535
924.741	6285
924.849	5372
924.956	5505
925.064	5383
925.172	5296
925.279	5372
925.387	5410
925.494	5345
925.602	5425
925.709	5364
925.816	5280
925.924	5341
926.031	5307
926.138	5315
926.245	5307
926.352	5254
926.459	5322
926.566	5345
926.673	5212
926.779	5113
926.886	5121
926.993	5003
927.099	4995
927.206	4953
927.312	4942
927.419	5033
927.525	4949
927.631	4972
927.737	4892
927.843	4877
927.95	4809
928.056	4801
928.162	4805
928.267	4877
928.373	5349
928.479	4820
928.585	4668
928.69	4736
928.796	4793
928.901	4706
929.007	4592
929.112	4687
929.218	4645
929.323	4634
929.428	4615
929.533	4660
929.638	4493
929.743	4554
929.848	4550
929.953	4508
930.058	4436
930.163	4318
930.267	4348
930.372	4451
930.477	4329
930.581	4466
930.685	4394
930.79	4314
930.894	4284
930.998	4265
931.103	4386
931.207	4166
931.311	4090
931.415	4055
931.519	3922
931.623	3934
