Data from glass_V78500241_445.txt Node
Date: Wed Sep 01 19:17:35 CST 2021
User: usil
Spectrometer: V785-0024
Trigger mode: 0
Integration Time (sec): 4.000000E-1
Scans to average: 1
Nonlinearity correction enabled: false
Boxcar width: 0
Storing dark spectrum: false
XAxis mode: Wavelengths
Number of Pixels in Spectrum: 1024
>>>>>Begin Spectral Data<<<<<
801.071	3720
801.214	3759
801.356	3713
801.499	3789
801.641	3759
801.783	3793
801.926	3865
802.068	3846
802.211	3846
802.353	3892
802.496	3850
802.638	3880
802.78	3930
802.923	3972
803.065	3930
803.208	3865
803.35	3888
803.492	3888
803.635	3907
803.777	3865
803.919	3922
804.061	4158
804.204	3949
804.346	3941
804.488	3960
804.63	4055
804.773	3934
804.915	4063
805.057	4162
805.199	4013
805.341	4112
805.483	4112
805.626	4154
805.768	4185
805.91	4207
806.052	4230
806.194	4219
806.336	4348
806.478	4265
806.62	4223
806.762	4204
806.904	4303
807.046	4386
807.188	4227
807.33	4150
807.472	4211
807.614	4207
807.756	4246
807.898	4268
808.04	4230
808.182	4310
808.324	4341
808.465	4356
808.607	4466
808.749	4455
808.891	4489
809.033	4516
809.174	4474
809.316	4284
809.458	4291
809.6	4147
809.741	4173
809.883	4139
810.025	4261
810.166	4227
810.308	4211
810.45	4257
810.591	4348
810.733	4303
810.875	4512
811.016	4847
811.158	5140
811.299	5292
811.441	5315
811.582	5033
811.724	4683
811.865	4428
812.007	4478
812.148	4493
812.29	4459
812.431	4428
812.573	4428
812.714	4333
812.855	4432
812.997	4360
813.138	4462
813.279	4481
813.421	4462
813.562	4398
813.703	4367
813.845	4371
813.986	4310
814.127	4246
814.268	4295
814.41	4333
814.551	4276
814.692	4344
814.833	4299
814.974	4310
815.115	4390
815.256	4287
815.397	4257
815.539	4265
815.68	4200
815.821	4181
815.962	4318
816.103	4295
816.244	4230
816.385	4242
816.526	4299
816.666	4242
816.807	4093
816.948	4215
817.089	4223
817.23	4147
817.371	4093
817.512	4112
817.653	4063
817.793	4032
817.934	4067
818.075	4139
818.216	4143
818.356	4109
818.497	3998
818.638	3896
818.778	3945
818.919	3899
819.06	3888
819.2	3903
819.341	3880
819.481	3846
819.622	3869
819.762	4044
819.903	3956
820.043	3865
820.184	3846
820.324	3804
820.465	3850
820.605	3880
820.746	3876
820.886	3831
821.026	3964
821.167	3941
821.307	3987
821.447	3983
821.588	4002
821.728	3991
821.868	3979
822.008	3861
822.149	3922
822.289	3896
822.429	3785
822.569	3774
822.709	3800
822.849	3671
822.99	3713
823.13	3759
823.27	3816
823.41	3740
823.55	3724
823.69	3766
823.83	3770
823.97	3713
824.11	3587
824.25	3637
824.389	3614
824.529	3667
824.669	3625
824.809	3709
824.949	3781
825.089	3732
825.228	3682
825.368	3591
825.508	3606
825.648	3603
825.787	3637
825.927	3644
826.067	3648
826.206	3656
826.346	3793
826.485	3857
826.625	3907
826.765	3964
826.904	3835
827.044	3637
827.183	3584
827.323	3416
827.462	3530
827.601	3443
827.741	3443
827.88	3473
828.02	3378
828.159	3424
828.298	3507
828.437	3519
828.577	3526
828.716	3625
828.855	3519
828.994	3386
829.134	3393
829.273	3416
829.412	3401
829.551	3367
829.69	3370
829.829	3447
829.968	3519
830.107	3431
830.246	3447
830.385	3409
830.524	3355
830.663	3340
830.802	3253
830.941	3211
831.08	3226
831.219	3264
831.357	3287
831.496	3386
831.635	3291
831.774	3199
831.913	3241
832.051	3146
832.19	3203
832.329	3218
832.467	3173
832.606	3157
832.744	3173
832.883	3226
833.022	3237
833.16	3298
833.299	3325
833.437	3317
833.576	3397
833.714	3412
833.852	3450
833.991	3428
834.129	3530
834.267	3450
834.406	3401
834.544	3466
834.682	3431
834.821	3389
834.959	3572
835.097	3466
835.235	3545
835.373	3481
835.511	3507
835.65	3462
835.788	3496
835.926	3401
836.064	3359
836.202	3401
836.34	3557
836.478	3614
836.615	3553
836.753	3614
836.891	3709
837.029	3660
837.167	3576
837.305	3534
837.443	3557
837.58	3473
837.718	3591
837.856	3580
837.993	3572
838.131	3637
838.269	3603
838.406	3614
838.544	3580
838.681	3488
838.819	3473
838.956	3370
839.094	3389
839.231	3431
839.369	3511
839.506	3736
839.643	3641
839.781	3523
839.918	3500
840.055	3538
840.193	3564
840.33	3545
840.467	3549
840.604	3587
840.742	3816
840.879	3580
841.016	3595
841.153	3622
841.29	3762
841.427	3755
841.564	3698
841.701	3804
841.838	3698
841.975	3663
842.112	3720
842.249	3641
842.385	3606
842.522	3800
842.659	3705
842.796	3705
842.933	3698
843.069	3682
843.206	3728
843.343	3835
843.479	3835
843.616	3804
843.752	3686
843.889	3686
844.025	3857
844.162	3751
844.298	3861
844.435	3819
844.571	3831
844.708	3915
844.844	3998
844.98	3987
845.117	4082
845.253	3968
845.389	3907
845.525	4006
845.661	3953
845.798	3934
845.934	3975
846.07	3926
846.206	4032
846.342	4116
846.478	4112
846.614	3998
846.75	3998
846.886	3899
847.022	4040
847.158	3968
847.294	4017
847.429	4048
847.565	4051
847.701	4230
847.837	3861
847.972	3873
848.108	3975
848.244	3979
848.379	3846
848.515	3842
848.65	3846
848.786	3819
848.921	3854
849.057	3975
849.192	3934
849.328	3876
849.463	3903
849.598	3873
849.734	3876
849.869	3819
850.004	3827
850.14	3812
850.275	3804
850.41	3762
850.545	3770
850.68	3781
850.815	3785
850.95	3819
851.085	3926
851.22	3892
851.355	3823
851.49	3800
851.625	3800
851.76	3808
851.895	3755
852.03	3713
852.165	3846
852.299	3869
852.434	3903
852.569	3876
852.703	3922
852.838	3983
852.973	3975
853.107	3994
853.242	3926
853.376	3876
853.511	3755
853.645	3869
853.78	4013
853.914	3896
854.048	3934
854.183	3880
854.317	3956
854.451	4059
854.585	4017
854.72	3945
854.854	4078
854.988	3956
855.122	4074
855.256	3983
855.39	4025
855.524	4109
855.658	4086
855.792	4120
855.926	4131
856.06	4204
856.194	4181
856.327	4188
856.461	4162
856.595	4166
856.729	4207
856.862	4325
856.996	4246
857.13	4310
857.263	4337
857.397	4314
857.53	4287
857.664	4356
857.797	4398
857.931	4398
858.064	4390
858.197	4451
858.331	4386
858.464	4375
858.597	4375
858.731	4481
858.864	4470
858.997	4455
859.13	4596
859.263	4546
859.396	4573
859.529	4584
859.662	4538
859.795	4542
859.928	4603
860.061	4694
860.194	4702
860.327	4641
860.46	4706
860.592	4740
860.725	4786
860.858	4748
860.99	4679
861.123	4702
861.256	4714
861.388	4755
861.521	5349
861.653	4721
861.786	4687
861.918	4740
862.05	4786
862.183	4839
862.315	4843
862.447	4915
862.58	4896
862.712	4847
862.844	4752
862.976	4892
863.108	4892
863.24	5216
863.372	4862
863.504	4828
863.636	4911
863.768	4980
863.9	4949
864.032	4892
864.164	4930
864.296	5014
864.428	5075
864.559	5121
864.691	5124
864.823	5117
864.954	5136
865.086	5181
865.217	5109
865.349	5159
865.48	5201
865.612	5197
865.743	5334
865.875	5223
866.006	5223
866.137	5254
866.269	5235
866.4	5258
866.531	5231
866.662	5250
866.793	5246
866.924	5345
867.055	5376
867.186	5372
867.317	5345
867.448	5322
867.579	5387
867.71	5436
867.841	5398
867.972	5490
868.103	5520
868.233	5532
868.364	5509
868.495	5600
868.625	5661
868.756	5832
868.886	5634
869.017	5722
869.147	5878
869.278	5863
869.408	5824
869.539	5855
869.669	5885
869.799	5882
869.929	5984
870.06	6015
870.19	6205
870.32	6251
870.45	6228
870.58	6422
870.71	6399
870.84	6407
870.97	6452
871.1	6414
871.23	6677
871.36	6700
871.489	6650
871.619	6711
871.749	6764
871.879	6897
872.008	6989
872.138	6989
872.267	7023
872.397	7053
872.526	6996
872.656	7179
872.785	7183
872.915	7415
873.044	7514
873.173	7605
873.303	7715
873.432	7792
873.561	7989
873.69	7906
873.819	7978
873.948	8176
874.077	8290
874.206	8355
874.335	8423
874.464	8621
874.593	8804
874.722	8956
874.851	9192
874.979	9245
875.108	9397
875.237	9424
875.365	9488
875.494	9587
875.623	9835
875.751	9945
875.88	10036
876.008	10207
876.136	10337
876.265	10588
876.393	10725
876.521	10668
876.65	10835
876.778	10843
876.906	10946
877.034	10976
877.162	11056
877.29	11079
877.418	11353
877.546	11326
877.674	11436
877.802	11455
877.93	11463
878.058	11577
878.185	11535
878.313	11642
878.441	11748
878.568	11653
878.696	11779
878.824	11859
878.951	11980
879.079	11996
879.206	12167
879.333	12098
879.461	12038
879.588	12121
879.715	12053
879.842	12270
879.97	12121
880.097	11912
880.224	11870
880.351	11882
880.478	11878
880.605	11840
880.732	11866
880.859	11912
880.986	11813
881.112	11840
881.239	11786
881.366	11684
881.493	11638
881.619	11547
881.746	11455
881.872	11482
881.999	11581
882.125	11512
882.252	11562
882.378	11547
882.505	11551
882.631	11436
882.757	11341
882.883	11417
883.01	11273
883.136	11201
883.262	11147
883.388	11064
883.514	11181
883.64	11162
883.766	11113
883.892	11014
884.018	10991
884.143	11071
884.269	11033
884.395	10862
884.52	10714
884.646	10691
884.772	10706
884.897	10641
885.023	10645
885.148	10782
885.274	10675
885.399	10664
885.524	10558
885.65	10565
885.775	10577
885.9	10542
886.025	10637
886.15	10596
886.275	10443
886.4	10398
886.525	10474
886.65	10382
886.775	10379
886.9	10489
887.025	10478
887.149	10390
887.274	10246
887.399	10249
887.523	10238
887.648	10276
887.773	10169
887.897	10230
888.021	10234
888.146	10150
888.27	10154
888.395	10299
888.519	10135
888.643	10162
888.767	10249
888.891	10078
889.015	10021
889.139	10013
889.263	9964
889.387	10101
889.511	10059
889.635	10032
889.759	9975
889.883	10002
890.006	9983
890.13	10082
890.254	9975
890.377	10002
890.501	9846
890.624	9846
890.748	9812
890.871	9819
890.995	9797
891.118	9724
891.241	9819
891.364	9770
891.488	9861
891.611	9800
891.734	9751
891.857	9800
891.98	9740
892.103	9770
892.226	9759
892.349	9629
892.471	9606
892.594	9644
892.717	9671
892.839	9595
892.962	9622
893.085	9652
893.207	9618
893.33	9469
893.452	9523
893.575	9622
893.697	9466
893.819	9663
893.941	9644
894.064	9675
894.186	9359
894.308	9477
894.43	9568
894.552	9629
894.674	9523
894.796	9386
894.918	9351
895.04	9382
895.161	9450
895.283	9389
895.405	9237
895.526	9211
895.648	9306
895.769	9287
895.891	9313
896.012	9351
896.134	9253
896.255	9195
896.376	9108
896.498	9123
896.619	9112
896.74	9100
896.861	9123
896.982	9264
897.103	9332
897.224	9199
897.345	9089
897.466	9001
897.587	9032
897.708	9108
897.828	9108
897.949	8933
898.07	8868
898.19	8921
898.311	8963
898.431	8914
898.552	8967
898.672	8971
898.792	8933
898.913	8883
899.033	8823
899.153	8750
899.273	8735
899.393	8720
899.513	8773
899.633	8682
899.753	8727
899.873	8663
899.993	8864
900.113	8758
900.232	8727
900.352	8621
900.472	8549
900.591	8568
900.711	8606
900.83	8511
900.95	8655
901.069	8746
901.189	8629
901.308	8476
901.427	8412
901.546	8377
901.665	8492
901.784	8530
901.904	8457
902.023	8332
902.141	8225
902.26	8244
902.379	8309
902.498	8191
902.617	8218
902.735	8313
902.854	8317
902.973	8271
903.091	8100
903.21	8168
903.328	8202
903.446	8187
903.565	8062
903.683	8134
903.801	8043
903.919	8248
904.038	8168
904.156	8062
904.274	8107
904.392	8012
904.51	8035
904.627	8020
904.745	8081
904.863	8115
904.981	7944
905.098	7989
905.216	7845
905.334	7909
905.451	7917
905.569	7875
905.686	7936
905.803	7932
905.921	7693
906.038	7868
906.155	7849
906.272	7753
906.389	7776
906.506	7636
906.623	7674
906.74	7594
906.857	7620
906.974	7548
907.091	7734
907.208	7719
907.324	7685
907.441	7552
907.557	7453
907.674	7457
907.79	7415
907.907	7460
908.023	7483
908.139	7438
908.256	7464
908.372	7445
908.488	7358
908.604	7274
908.72	7228
908.836	7259
908.952	7335
909.068	7266
909.184	7388
909.3	7228
909.415	7305
909.531	7324
909.647	7061
909.762	7137
909.878	7095
909.993	7046
910.108	7057
910.224	7084
910.339	7099
910.454	7042
910.57	7031
910.685	7000
910.8	7183
910.915	7129
911.03	6970
911.145	6905
911.259	6901
911.374	6844
911.489	6806
911.604	6852
911.718	6722
911.833	6734
911.947	6650
912.062	6681
912.176	6783
912.291	6753
912.405	6738
912.519	6867
912.633	6749
912.748	6772
912.862	6715
912.976	6570
913.09	6574
913.204	6627
913.318	6631
913.431	6700
913.545	6669
913.659	6734
913.772	6650
913.886	6570
914	6528
914.113	6623
914.226	6692
914.34	6646
914.453	6540
914.566	6627
914.68	6525
914.793	6479
914.906	6471
915.019	6471
915.132	6327
915.245	6399
915.358	6585
915.47	6506
915.583	6479
915.696	6448
915.809	6547
915.921	6570
916.034	6388
916.146	6426
916.259	6388
916.371	6486
916.483	6502
916.595	6441
916.708	6346
916.82	6357
916.932	6391
917.044	6433
917.156	6399
917.268	6331
917.38	6426
917.491	6311
917.603	6372
917.715	6369
917.826	6429
917.938	6357
918.049	6273
918.161	6361
918.272	6422
918.384	6467
918.495	6357
918.606	6258
918.717	6258
918.828	6251
918.939	6296
919.05	6213
919.161	6270
919.272	6110
919.383	6159
919.494	6327
919.604	6395
919.715	6289
919.826	6232
919.936	6243
920.047	6369
920.157	6270
920.267	6456
920.378	6331
920.488	6331
920.598	6441
920.708	6589
920.818	6509
920.928	6483
921.038	6654
921.148	6593
921.258	6407
921.368	6319
921.477	6213
921.587	6247
921.697	6121
921.806	6209
921.916	6068
922.025	5988
922.134	5923
922.244	5897
922.353	5973
922.462	5863
922.571	5805
922.68	5672
922.789	5676
922.898	5695
923.007	5642
923.116	5714
923.224	5695
923.333	5680
923.442	5611
923.55	5577
923.659	5642
923.767	5608
923.876	5562
923.984	5558
924.092	5535
924.201	5592
924.309	5554
924.417	5528
924.525	5524
924.633	5490
924.741	6289
924.849	5345
924.956	5478
925.064	5379
925.172	5303
925.279	5288
925.387	5383
925.494	5387
925.602	5471
925.709	5360
925.816	5250
925.924	5337
926.031	5383
926.138	5349
926.245	5318
926.352	5220
926.459	5265
926.566	5311
926.673	5242
926.779	5147
926.886	5181
926.993	5071
927.099	5022
927.206	4953
927.312	4976
927.419	5029
927.525	4965
927.631	4995
927.737	4911
927.843	4870
927.95	4755
928.056	4782
928.162	4862
928.267	4854
928.373	5341
928.479	4831
928.585	4706
928.69	4774
928.796	4767
928.901	4725
929.007	4603
929.112	4717
929.218	4649
929.323	4622
929.428	4546
929.533	4611
929.638	4542
929.743	4546
929.848	4599
929.953	4512
930.058	4462
930.163	4325
930.267	4329
930.372	4470
930.477	4322
930.581	4470
930.685	4375
930.79	4230
930.894	4310
930.998	4295
931.103	4432
931.207	4135
931.311	4082
931.415	4071
931.519	3918
931.623	3953
