Data from glass_V78500241_820.txt Node
Date: Wed Sep 01 19:20:11 CST 2021
User: usil
Spectrometer: V785-0024
Trigger mode: 0
Integration Time (sec): 4.000000E-1
Scans to average: 1
Nonlinearity correction enabled: false
Boxcar width: 0
Storing dark spectrum: false
XAxis mode: Wavelengths
Number of Pixels in Spectrum: 1024
>>>>>Begin Spectral Data<<<<<
801.071	3766
801.214	3751
801.356	3701
801.499	3743
801.641	3724
801.783	3808
801.926	3842
802.068	3819
802.211	3873
802.353	3888
802.496	3827
802.638	3873
802.78	3892
802.923	3949
803.065	3922
803.208	3899
803.35	3850
803.492	3896
803.635	3911
803.777	3873
803.919	3896
804.061	4181
804.204	3972
804.346	3953
804.488	3899
804.63	4059
804.773	4010
804.915	4029
805.057	4109
805.199	4059
805.341	4139
805.483	4207
805.626	4147
805.768	4112
805.91	4223
806.052	4188
806.194	4249
806.336	4390
806.478	4246
806.62	4196
806.762	4185
806.904	4276
807.046	4329
807.188	4207
807.33	4200
807.472	4227
807.614	4192
807.756	4322
807.898	4234
808.04	4265
808.182	4276
808.324	4318
808.465	4379
808.607	4436
808.749	4455
808.891	4512
809.033	4550
809.174	4398
809.316	4261
809.458	4253
809.6	4200
809.741	4128
809.883	4124
810.025	4253
810.166	4249
810.308	4219
810.45	4272
810.591	4242
810.733	4276
810.875	4531
811.016	4835
811.158	5181
811.299	5258
811.441	5292
811.582	5090
811.724	4691
811.865	4470
812.007	4493
812.148	4462
812.29	4421
812.431	4383
812.573	4485
812.714	4371
812.855	4417
812.997	4363
813.138	4523
813.279	4424
813.421	4413
813.562	4432
813.703	4375
813.845	4306
813.986	4261
814.127	4227
814.268	4268
814.41	4276
814.551	4295
814.692	4337
814.833	4284
814.974	4329
815.115	4322
815.256	4272
815.397	4242
815.539	4215
815.68	4173
815.821	4242
815.962	4329
816.103	4284
816.244	4265
816.385	4177
816.526	4306
816.666	4238
816.807	4116
816.948	4158
817.089	4207
817.23	4086
817.371	4082
817.512	4078
817.653	4097
817.793	4063
817.934	4040
818.075	4093
818.216	4105
818.356	4105
818.497	4048
818.638	3915
818.778	3983
818.919	3896
819.06	3934
819.2	3949
819.341	3873
819.481	3835
819.622	3956
819.762	4010
819.903	3953
820.043	3876
820.184	3831
820.324	3838
820.465	3827
820.605	3884
820.746	3896
820.886	3781
821.026	3979
821.167	3880
821.307	3998
821.447	4002
821.588	3945
821.728	4002
821.868	3937
822.008	3884
822.149	3987
822.289	3934
822.429	3800
822.569	3759
822.709	3804
822.849	3720
822.99	3717
823.13	3800
823.27	3831
823.41	3724
823.55	3755
823.69	3740
823.83	3762
823.97	3686
824.11	3614
824.25	3618
824.389	3694
824.529	3686
824.669	3671
824.809	3717
824.949	3789
825.089	3709
825.228	3717
825.368	3568
825.508	3561
825.648	3599
825.787	3587
825.927	3641
826.067	3675
826.206	3709
826.346	3804
826.485	3850
826.625	3850
826.765	3949
826.904	3876
827.044	3648
827.183	3523
827.323	3454
827.462	3507
827.601	3462
827.741	3386
827.88	3485
828.02	3389
828.159	3485
828.298	3530
828.437	3549
828.577	3511
828.716	3580
828.855	3481
828.994	3397
829.134	3374
829.273	3370
829.412	3382
829.551	3332
829.69	3386
829.829	3458
829.968	3519
830.107	3473
830.246	3447
830.385	3363
830.524	3367
830.663	3302
830.802	3256
830.941	3169
831.08	3195
831.219	3302
831.357	3222
831.496	3412
831.635	3214
831.774	3176
831.913	3218
832.051	3161
832.19	3161
832.329	3176
832.467	3176
832.606	3123
832.744	3154
832.883	3214
833.022	3184
833.16	3268
833.299	3294
833.437	3291
833.576	3378
833.714	3397
833.852	3485
833.991	3485
834.129	3469
834.267	3466
834.406	3382
834.544	3412
834.682	3420
834.821	3428
834.959	3553
835.097	3431
835.235	3530
835.373	3481
835.511	3507
835.65	3481
835.788	3511
835.926	3424
836.064	3393
836.202	3416
836.34	3595
836.478	3622
836.615	3561
836.753	3644
836.891	3644
837.029	3633
837.167	3572
837.305	3549
837.443	3534
837.58	3485
837.718	3610
837.856	3557
837.993	3523
838.131	3614
838.269	3614
838.406	3595
838.544	3564
838.681	3458
838.819	3477
838.956	3344
839.094	3454
839.231	3481
839.369	3496
839.506	3778
839.643	3629
839.781	3542
839.918	3462
840.055	3557
840.193	3534
840.33	3545
840.467	3576
840.604	3629
840.742	3800
840.879	3557
841.016	3564
841.153	3618
841.29	3778
841.427	3717
841.564	3713
841.701	3732
841.838	3701
841.975	3705
842.112	3713
842.249	3656
842.385	3652
842.522	3838
842.659	3743
842.796	3713
842.933	3713
843.069	3709
843.206	3709
843.343	3873
843.479	3800
843.616	3823
843.752	3652
843.889	3751
844.025	3846
844.162	3736
844.298	3842
844.435	3800
844.571	3793
844.708	3884
844.844	3975
844.98	4025
845.117	4006
845.253	3941
845.389	3907
845.525	3983
845.661	3956
845.798	3964
845.934	3994
846.07	3960
846.206	4109
846.342	4097
846.478	4071
846.614	3941
846.75	3956
846.886	3930
847.022	4044
847.158	3979
847.294	4025
847.429	4040
847.565	4029
847.701	4287
847.837	3907
847.972	3876
848.108	3960
848.244	4010
848.379	3831
848.515	3808
848.65	3857
848.786	3827
848.921	3861
849.057	3941
849.192	3956
849.328	3907
849.463	3899
849.598	3918
849.734	3880
849.869	3846
850.004	3774
850.14	3800
850.275	3781
850.41	3778
850.545	3804
850.68	3778
850.815	3823
850.95	3770
851.085	3926
851.22	3880
851.355	3835
851.49	3755
851.625	3819
851.76	3774
851.895	3743
852.03	3759
852.165	3778
852.299	3819
852.434	3922
852.569	3842
852.703	3903
852.838	3960
852.973	3994
853.107	3994
853.242	3892
853.376	3831
853.511	3823
853.645	3835
853.78	3979
853.914	3903
854.048	3915
854.183	3880
854.317	3998
854.451	4078
854.585	4002
854.72	3945
854.854	4051
854.988	3949
855.122	4010
855.256	3899
855.39	4048
855.524	4082
855.658	4105
855.792	4124
855.926	4086
856.06	4192
856.194	4219
856.327	4124
856.461	4135
856.595	4177
856.729	4192
856.862	4257
856.996	4253
857.13	4329
857.263	4322
857.397	4325
857.53	4284
857.664	4367
857.797	4421
857.931	4421
858.064	4344
858.197	4466
858.331	4451
858.464	4360
858.597	4379
858.731	4470
858.864	4462
858.997	4447
859.13	4527
859.263	4500
859.396	4577
859.529	4546
859.662	4584
859.795	4519
859.928	4660
860.061	4763
860.194	4706
860.327	4618
860.46	4637
860.592	4755
860.725	4759
860.858	4809
860.99	4683
861.123	4710
861.256	4710
861.388	4778
861.521	5482
861.653	4752
861.786	4721
861.918	4698
862.05	4816
862.183	4873
862.315	4900
862.447	4946
862.58	4892
862.712	4862
862.844	4774
862.976	4923
863.108	4919
863.24	5246
863.372	4828
863.504	4946
863.636	4930
863.768	4972
863.9	4942
864.032	4934
864.164	4999
864.296	5056
864.428	5117
864.559	5147
864.691	5140
864.823	5143
864.954	5136
865.086	5128
865.217	5117
865.349	5105
865.48	5204
865.612	5242
865.743	5273
865.875	5174
866.006	5208
866.137	5181
866.269	5265
866.4	5246
866.531	5204
866.662	5201
866.793	5318
866.924	5292
867.055	5357
867.186	5318
867.317	5360
867.448	5337
867.579	5387
867.71	5410
867.841	5452
867.972	5493
868.103	5486
868.233	5524
868.364	5486
868.495	5543
868.625	5688
868.756	5821
868.886	5627
869.017	5737
869.147	5836
869.278	5863
869.408	5844
869.539	5828
869.669	5927
869.799	5908
869.929	5939
870.06	6106
870.19	6167
870.32	6209
870.45	6270
870.58	6300
870.71	6502
870.84	6441
870.97	6460
871.1	6471
871.23	6681
871.36	6707
871.489	6703
871.619	6840
871.749	6806
871.879	6818
872.008	6973
872.138	6981
872.267	6989
872.397	6993
872.526	7015
872.656	7137
872.785	7232
872.915	7457
873.044	7525
873.173	7578
873.303	7636
873.432	7734
873.561	7909
873.69	7967
873.819	8035
873.948	8191
874.077	8282
874.206	8320
874.335	8423
874.464	8670
874.593	8849
874.722	8921
874.851	9043
874.979	9272
875.108	9344
875.237	9469
875.365	9511
875.494	9698
875.623	9838
875.751	9850
875.88	9991
876.008	10139
876.136	10268
876.265	10527
876.393	10664
876.521	10744
876.65	10850
876.778	10850
876.906	10942
877.034	10957
877.162	11098
877.29	11155
877.418	11280
877.546	11330
877.674	11376
877.802	11459
877.93	11471
878.058	11589
878.185	11634
878.313	11733
878.441	11707
878.568	11672
878.696	11824
878.824	11878
878.951	11965
879.079	12026
879.206	12087
879.333	12034
879.461	12003
879.588	12083
879.715	12041
879.842	12144
879.97	11999
880.097	11901
880.224	11912
880.351	11863
880.478	11889
880.605	11840
880.732	11824
880.859	12003
880.986	11843
881.112	11866
881.239	11760
881.366	11668
881.493	11646
881.619	11566
881.746	11592
881.872	11577
881.999	11512
882.125	11406
882.252	11524
882.378	11410
882.505	11505
882.631	11402
882.757	11250
882.883	11345
883.01	11353
883.136	11246
883.262	11178
883.388	11090
883.514	11189
883.64	11132
883.766	11136
883.892	11048
884.018	10930
884.143	11060
884.269	11162
884.395	10854
884.52	10793
884.646	10782
884.772	10637
884.897	10641
885.023	10664
885.148	10744
885.274	10816
885.399	10706
885.524	10725
885.65	10584
885.775	10561
885.9	10538
886.025	10615
886.15	10596
886.275	10573
886.4	10489
886.525	10432
886.65	10379
886.775	10322
886.9	10432
887.025	10535
887.149	10432
887.274	10238
887.399	10200
887.523	10181
887.648	10154
887.773	10185
887.897	10204
888.021	10265
888.146	10063
888.27	10242
888.395	10265
888.519	10112
888.643	10162
888.767	10215
888.891	10071
889.015	10017
889.139	10120
889.263	9983
889.387	10128
889.511	10109
889.635	10078
889.759	9972
889.883	9975
890.006	10002
890.13	10188
890.254	9972
890.377	9979
890.501	9861
890.624	9899
890.748	9880
890.871	9789
890.995	9808
891.118	9701
891.241	9850
891.364	9743
891.488	9876
891.611	9660
891.734	9778
891.857	9865
891.98	9743
892.103	9854
892.226	9724
892.349	9568
892.471	9561
892.594	9610
892.717	9614
892.839	9644
892.962	9690
893.085	9637
893.207	9584
893.33	9504
893.452	9568
893.575	9610
893.697	9511
893.819	9618
893.941	9603
894.064	9618
894.186	9405
894.308	9428
894.43	9538
894.552	9580
894.674	9595
894.796	9325
894.918	9405
895.04	9359
895.161	9393
895.283	9401
895.405	9188
895.526	9294
895.648	9294
895.769	9260
895.891	9188
896.012	9283
896.134	9283
896.255	9142
896.376	9195
896.498	9165
896.619	9192
896.74	9081
896.861	9135
896.982	9306
897.103	9382
897.224	9119
897.345	9089
897.466	8937
897.587	9097
897.708	9085
897.828	9017
897.949	9020
898.07	8861
898.19	8990
898.311	9036
898.431	8956
898.552	8960
898.672	8883
898.792	8971
898.913	8800
899.033	8807
899.153	8777
899.273	8682
899.393	8746
899.513	8750
899.633	8743
899.753	8792
899.873	8750
899.993	8788
900.113	8663
900.232	8697
900.352	8663
900.472	8598
900.591	8575
900.711	8583
900.83	8541
900.95	8644
901.069	8659
901.189	8617
901.308	8431
901.427	8442
901.546	8385
901.665	8507
901.784	8530
901.904	8374
902.023	8328
902.141	8290
902.26	8199
902.379	8301
902.498	8202
902.617	8237
902.735	8279
902.854	8256
902.973	8294
903.091	8134
903.21	8126
903.328	8221
903.446	8107
903.565	8115
903.683	8088
903.801	8065
903.919	8168
904.038	8149
904.156	8001
904.274	8130
904.392	8024
904.51	8020
904.627	8115
904.745	8100
904.863	8084
904.981	7909
905.098	7849
905.216	7814
905.334	7898
905.451	7936
905.569	7883
905.686	7902
905.803	7940
905.921	7761
906.038	7811
906.155	7818
906.272	7753
906.389	7712
906.506	7674
906.623	7685
906.74	7594
906.857	7552
906.974	7632
907.091	7655
907.208	7715
907.324	7681
907.441	7605
907.557	7483
907.674	7460
907.79	7403
907.907	7468
908.023	7438
908.139	7457
908.256	7411
908.372	7365
908.488	7373
908.604	7282
908.72	7175
908.836	7206
908.952	7236
909.068	7270
909.184	7373
909.3	7289
909.415	7285
909.531	7297
909.647	7107
909.762	7114
909.878	7076
909.993	7164
910.108	7156
910.224	7118
910.339	7118
910.454	7038
910.57	7027
910.685	6947
910.8	7198
910.915	7076
911.03	7015
911.145	6909
911.259	6947
911.374	6901
911.489	6882
911.604	6768
911.718	6779
911.833	6688
911.947	6673
912.062	6608
912.176	6749
912.291	6688
912.405	6684
912.519	6844
912.633	6856
912.748	6726
912.862	6677
912.976	6639
913.09	6559
913.204	6692
913.318	6639
913.431	6673
913.545	6642
913.659	6730
913.772	6650
913.886	6612
914	6563
914.113	6608
914.226	6662
914.34	6639
914.453	6570
914.566	6646
914.68	6540
914.793	6525
914.906	6426
915.019	6410
915.132	6414
915.245	6429
915.358	6445
915.47	6452
915.583	6437
915.696	6517
915.809	6574
915.921	6551
916.034	6467
916.146	6445
916.259	6357
916.371	6498
916.483	6403
916.595	6426
916.708	6426
916.82	6346
916.932	6407
917.044	6334
917.156	6418
917.268	6369
917.38	6361
917.491	6338
917.603	6422
917.715	6403
917.826	6399
917.938	6334
918.049	6289
918.161	6372
918.272	6483
918.384	6452
918.495	6361
918.606	6258
918.717	6258
918.828	6319
918.939	6300
919.05	6197
919.161	6342
919.272	6083
919.383	6201
919.494	6380
919.604	6365
919.715	6323
919.826	6232
919.936	6205
920.047	6292
920.157	6292
920.267	6464
920.378	6353
920.488	6338
920.598	6525
920.708	6559
920.818	6483
920.928	6513
921.038	6616
921.148	6620
921.258	6350
921.368	6346
921.477	6224
921.587	6254
921.697	6079
921.806	6201
921.916	6114
922.025	5912
922.134	5920
922.244	5904
922.353	5908
922.462	5889
922.571	5798
922.68	5729
922.789	5668
922.898	5703
923.007	5653
923.116	5688
923.224	5699
923.333	5710
923.442	5611
923.55	5642
923.659	5604
923.767	5604
923.876	5585
923.984	5615
924.092	5551
924.201	5554
924.309	5528
924.417	5589
924.525	5490
924.633	5528
924.741	6148
924.849	5383
924.956	5467
925.064	5421
925.172	5296
925.279	5307
925.387	5398
925.494	5357
925.602	5429
925.709	5379
925.816	5269
925.924	5341
926.031	5379
926.138	5284
926.245	5360
926.352	5212
926.459	5315
926.566	5330
926.673	5227
926.779	5208
926.886	5159
926.993	5079
927.099	5025
927.206	4957
927.312	4968
927.419	5071
927.525	5010
927.631	4987
927.737	4911
927.843	4843
927.95	4828
928.056	4831
928.162	4858
928.267	4835
928.373	5353
928.479	4858
928.585	4710
928.69	4763
928.796	4774
928.901	4733
929.007	4630
929.112	4656
929.218	4645
929.323	4607
929.428	4565
929.533	4687
929.638	4531
929.743	4561
929.848	4531
929.953	4508
930.058	4474
930.163	4318
930.267	4360
930.372	4493
930.477	4341
930.581	4478
930.685	4360
930.79	4268
930.894	4310
930.998	4211
931.103	4394
931.207	4124
931.311	4074
931.415	4048
931.519	3953
931.623	3998
