Data from glass_V78500241_430.txt Node
Date: Wed Sep 01 19:17:28 CST 2021
User: usil
Spectrometer: V785-0024
Trigger mode: 0
Integration Time (sec): 4.000000E-1
Scans to average: 1
Nonlinearity correction enabled: false
Boxcar width: 0
Storing dark spectrum: false
XAxis mode: Wavelengths
Number of Pixels in Spectrum: 1024
>>>>>Begin Spectral Data<<<<<
801.071	3717
801.214	3774
801.356	3690
801.499	3747
801.641	3747
801.783	3880
801.926	3854
802.068	3838
802.211	3892
802.353	3899
802.496	3819
802.638	3892
802.78	3903
802.923	3899
803.065	3945
803.208	3846
803.35	3892
803.492	3880
803.635	3907
803.777	3819
803.919	3915
804.061	4162
804.204	3934
804.346	3953
804.488	3941
804.63	4048
804.773	4013
804.915	4036
805.057	4200
805.199	4029
805.341	4131
805.483	4158
805.626	4154
805.768	4147
805.91	4204
806.052	4253
806.194	4257
806.336	4325
806.478	4207
806.62	4177
806.762	4219
806.904	4268
807.046	4333
807.188	4268
807.33	4154
807.472	4249
807.614	4211
807.756	4280
807.898	4188
808.04	4207
808.182	4265
808.324	4390
808.465	4421
808.607	4470
808.749	4424
808.891	4474
809.033	4481
809.174	4459
809.316	4238
809.458	4280
809.6	4169
809.741	4158
809.883	4147
810.025	4196
810.166	4227
810.308	4185
810.45	4234
810.591	4188
810.733	4314
810.875	4481
811.016	4801
811.158	5162
811.299	5273
811.441	5261
811.582	5147
811.724	4687
811.865	4508
812.007	4497
812.148	4440
812.29	4402
812.431	4443
812.573	4436
812.714	4390
812.855	4390
812.997	4451
813.138	4527
813.279	4440
813.421	4421
813.562	4363
813.703	4333
813.845	4352
813.986	4211
814.127	4280
814.268	4272
814.41	4314
814.551	4223
814.692	4318
814.833	4280
814.974	4303
815.115	4352
815.256	4303
815.397	4272
815.539	4295
815.68	4227
815.821	4223
815.962	4318
816.103	4318
816.244	4276
816.385	4215
816.526	4322
816.666	4257
816.807	4105
816.948	4154
817.089	4223
817.23	4169
817.371	4032
817.512	4120
817.653	4124
817.793	4040
817.934	4082
818.075	4097
818.216	4105
818.356	4105
818.497	4006
818.638	3911
818.778	3941
818.919	3892
819.06	3831
819.2	3907
819.341	3922
819.481	3846
819.622	3983
819.762	4051
819.903	3930
820.043	3941
820.184	3838
820.324	3854
820.465	3854
820.605	3903
820.746	3854
820.886	3797
821.026	3915
821.167	3899
821.307	3964
821.447	3960
821.588	3975
821.728	3930
821.868	3972
822.008	3896
822.149	3926
822.289	3937
822.429	3793
822.569	3762
822.709	3755
822.849	3679
822.99	3717
823.13	3785
823.27	3812
823.41	3747
823.55	3781
823.69	3698
823.83	3755
823.97	3648
824.11	3641
824.25	3614
824.389	3656
824.529	3698
824.669	3682
824.809	3720
824.949	3774
825.089	3694
825.228	3686
825.368	3584
825.508	3545
825.648	3549
825.787	3591
825.927	3618
826.067	3618
826.206	3713
826.346	3823
826.485	3842
826.625	3846
826.765	3888
826.904	3888
827.044	3660
827.183	3568
827.323	3473
827.462	3545
827.601	3450
827.741	3481
827.88	3454
828.02	3412
828.159	3447
828.298	3500
828.437	3572
828.577	3538
828.716	3633
828.855	3485
828.994	3389
829.134	3378
829.273	3378
829.412	3382
829.551	3344
829.69	3348
829.829	3485
829.968	3519
830.107	3428
830.246	3469
830.385	3332
830.524	3386
830.663	3302
830.802	3241
830.941	3214
831.08	3218
831.219	3275
831.357	3272
831.496	3435
831.635	3249
831.774	3222
831.913	3245
832.051	3131
832.19	3176
832.329	3199
832.467	3161
832.606	3127
832.744	3161
832.883	3192
833.022	3207
833.16	3291
833.299	3317
833.437	3348
833.576	3386
833.714	3393
833.852	3450
833.991	3450
834.129	3485
834.267	3481
834.406	3420
834.544	3424
834.682	3447
834.821	3412
834.959	3576
835.097	3431
835.235	3477
835.373	3504
835.511	3538
835.65	3450
835.788	3523
835.926	3409
836.064	3416
836.202	3431
836.34	3568
836.478	3618
836.615	3549
836.753	3591
836.891	3667
837.029	3603
837.167	3595
837.305	3526
837.443	3515
837.58	3504
837.718	3610
837.856	3595
837.993	3553
838.131	3599
838.269	3580
838.406	3660
838.544	3572
838.681	3481
838.819	3462
838.956	3378
839.094	3405
839.231	3443
839.369	3526
839.506	3724
839.643	3637
839.781	3504
839.918	3473
840.055	3545
840.193	3545
840.33	3576
840.467	3580
840.604	3622
840.742	3838
840.879	3580
841.016	3591
841.153	3561
841.29	3804
841.427	3728
841.564	3747
841.701	3736
841.838	3690
841.975	3671
842.112	3747
842.249	3656
842.385	3660
842.522	3857
842.659	3675
842.796	3633
842.933	3755
843.069	3686
843.206	3740
843.343	3823
843.479	3774
843.616	3827
843.752	3736
843.889	3686
844.025	3846
844.162	3759
844.298	3823
844.435	3804
844.571	3789
844.708	3899
844.844	3972
844.98	4044
845.117	3998
845.253	3949
845.389	3903
845.525	3968
845.661	3975
845.798	3960
845.934	4017
846.07	3983
846.206	4059
846.342	4150
846.478	4078
846.614	4002
846.75	3937
846.886	3922
847.022	4013
847.158	4021
847.294	3991
847.429	4059
847.565	4036
847.701	4249
847.837	3896
847.972	3934
848.108	3991
848.244	3937
848.379	3918
848.515	3842
848.65	3804
848.786	3873
848.921	3835
849.057	3983
849.192	3945
849.328	3911
849.463	3979
849.598	3911
849.734	3884
849.869	3899
850.004	3846
850.14	3846
850.275	3800
850.41	3728
850.545	3774
850.68	3751
850.815	3766
850.95	3816
851.085	3937
851.22	3823
851.355	3835
851.49	3785
851.625	3854
851.76	3838
851.895	3743
852.03	3713
852.165	3842
852.299	3842
852.434	3922
852.569	3930
852.703	3854
852.838	3960
852.973	4025
853.107	4021
853.242	3880
853.376	3838
853.511	3789
853.645	3846
853.78	3972
853.914	3930
854.048	3922
854.183	3884
854.317	3972
854.451	4093
854.585	3953
854.72	3918
854.854	4036
854.988	3937
855.122	3991
855.256	3983
855.39	4067
855.524	4147
855.658	4116
855.792	4105
855.926	4166
856.06	4173
856.194	4215
856.327	4169
856.461	4131
856.595	4185
856.729	4162
856.862	4280
856.996	4291
857.13	4284
857.263	4310
857.397	4352
857.53	4329
857.664	4356
857.797	4383
857.931	4474
858.064	4405
858.197	4497
858.331	4424
858.464	4379
858.597	4344
858.731	4424
858.864	4462
858.997	4466
859.13	4535
859.263	4512
859.396	4622
859.529	4542
859.662	4500
859.795	4519
859.928	4668
860.061	4675
860.194	4763
860.327	4725
860.46	4706
860.592	4717
860.725	4755
860.858	4763
860.99	4733
861.123	4694
861.256	4710
861.388	4786
861.521	5425
861.653	4729
861.786	4767
861.918	4744
862.05	4839
862.183	4866
862.315	4908
862.447	4900
862.58	4900
862.712	4862
862.844	4786
862.976	4911
863.108	4896
863.24	5227
863.372	4812
863.504	4843
863.636	4889
863.768	4930
863.9	4980
864.032	4938
864.164	4976
864.296	5067
864.428	5094
864.559	5105
864.691	5132
864.823	5147
864.954	5128
865.086	5136
865.217	5094
865.349	5166
865.48	5178
865.612	5227
865.743	5330
865.875	5174
866.006	5121
866.137	5254
866.269	5231
866.4	5261
866.531	5258
866.662	5231
866.793	5220
866.924	5250
867.055	5318
867.186	5330
867.317	5280
867.448	5273
867.579	5376
867.71	5383
867.841	5330
867.972	5459
868.103	5512
868.233	5478
868.364	5532
868.495	5482
868.625	5665
868.756	5821
868.886	5714
869.017	5741
869.147	5912
869.278	5878
869.408	5824
869.539	5840
869.669	5897
869.799	5946
869.929	5984
870.06	6034
870.19	6175
870.32	6186
870.45	6334
870.58	6334
870.71	6418
870.84	6460
870.97	6513
871.1	6452
871.23	6623
871.36	6707
871.489	6700
871.619	6776
871.749	6821
871.879	6810
872.008	7000
872.138	6970
872.267	7019
872.397	6973
872.526	6981
872.656	7145
872.785	7190
872.915	7400
873.044	7544
873.173	7556
873.303	7582
873.432	7769
873.561	7841
873.69	7921
873.819	7978
873.948	8240
874.077	8259
874.206	8343
874.335	8434
874.464	8651
874.593	8876
874.722	8979
874.851	9165
874.979	9294
875.108	9355
875.237	9405
875.365	9561
875.494	9572
875.623	9816
875.751	9823
875.88	10010
876.008	10158
876.136	10299
876.265	10455
876.393	10675
876.521	10786
876.65	10858
876.778	10881
876.906	10885
877.034	11045
877.162	11025
877.29	11113
877.418	11334
877.546	11376
877.674	11474
877.802	11459
877.93	11592
878.058	11642
878.185	11562
878.313	11661
878.441	11817
878.568	11745
878.696	11729
878.824	11824
878.951	11965
879.079	12034
879.206	12159
879.333	12041
879.461	12045
879.588	12003
879.715	12152
879.842	12213
879.97	12144
880.097	11882
880.224	11874
880.351	11920
880.478	11878
880.605	11786
880.732	11802
880.859	12038
880.986	11847
881.112	11912
881.239	11821
881.366	11668
881.493	11619
881.619	11539
881.746	11634
881.872	11509
881.999	11558
882.125	11532
882.252	11539
882.378	11547
882.505	11642
882.631	11402
882.757	11402
882.883	11311
883.01	11292
883.136	11197
883.262	11117
883.388	11113
883.514	11155
883.64	11254
883.766	11086
883.892	11048
884.018	11083
884.143	11048
884.269	11090
884.395	10858
884.52	10805
884.646	10774
884.772	10694
884.897	10698
885.023	10710
885.148	10759
885.274	10828
885.399	10706
885.524	10653
885.65	10596
885.775	10599
885.9	10516
886.025	10710
886.15	10649
886.275	10485
886.4	10394
886.525	10443
886.65	10341
886.775	10379
886.9	10523
887.025	10500
887.149	10413
887.274	10192
887.399	10215
887.523	10078
887.648	10204
887.773	10147
887.897	10192
888.021	10185
888.146	10181
888.27	10238
888.395	10207
888.519	10181
888.643	10207
888.767	10207
888.891	10078
889.015	10105
889.139	10074
889.263	9979
889.387	10147
889.511	10181
889.635	10101
889.759	9960
889.883	9975
890.006	10040
890.13	10071
890.254	9895
890.377	9964
890.501	9911
890.624	9854
890.748	9911
890.871	9789
890.995	9770
891.118	9759
891.241	9713
891.364	9751
891.488	9888
891.611	9694
891.734	9759
891.857	9743
891.98	9682
892.103	9770
892.226	9701
892.349	9690
892.471	9477
892.594	9694
892.717	9561
892.839	9637
892.962	9622
893.085	9591
893.207	9561
893.33	9473
893.452	9538
893.575	9660
893.697	9530
893.819	9675
893.941	9584
894.064	9561
894.186	9450
894.308	9382
894.43	9511
894.552	9564
894.674	9530
894.796	9450
894.918	9401
895.04	9367
895.161	9412
895.283	9313
895.405	9294
895.526	9336
895.648	9272
895.769	9256
895.891	9268
896.012	9249
896.134	9146
896.255	9119
896.376	9146
896.498	9097
896.619	9119
896.74	9070
896.861	9055
896.982	9294
897.103	9260
897.224	9260
897.345	9089
897.466	9005
897.587	9047
897.708	9135
897.828	8937
897.949	9005
898.07	8960
898.19	8941
898.311	8979
898.431	8883
898.552	8921
898.672	8994
898.792	8986
898.913	8918
899.033	8804
899.153	8823
899.273	8689
899.393	8754
899.513	8758
899.633	8739
899.753	8754
899.873	8712
899.993	8788
900.113	8708
900.232	8686
900.352	8670
900.472	8632
900.591	8594
900.711	8621
900.83	8537
900.95	8655
901.069	8640
901.189	8613
901.308	8511
901.427	8366
901.546	8408
901.665	8507
901.784	8549
901.904	8374
902.023	8423
902.141	8290
902.26	8244
902.379	8259
902.498	8244
902.617	8252
902.735	8343
902.854	8279
902.973	8263
903.091	8153
903.21	8138
903.328	8195
903.446	8123
903.565	8096
903.683	8096
903.801	8073
903.919	8115
904.038	8100
904.156	8092
904.274	8107
904.392	8062
904.51	8058
904.627	8050
904.745	8050
904.863	8088
904.981	7940
905.098	7875
905.216	7864
905.334	7913
905.451	7913
905.569	7875
905.686	7982
905.803	7864
905.921	7765
906.038	7772
906.155	7807
906.272	7727
906.389	7738
906.506	7636
906.623	7559
906.74	7605
906.857	7578
906.974	7559
907.091	7601
907.208	7731
907.324	7578
907.441	7620
907.557	7464
907.674	7396
907.79	7373
907.907	7392
908.023	7419
908.139	7464
908.256	7350
908.372	7362
908.488	7403
908.604	7270
908.72	7244
908.836	7244
908.952	7255
909.068	7179
909.184	7293
909.3	7274
909.415	7285
909.531	7305
909.647	7206
909.762	7145
909.878	7110
909.993	7103
910.108	7099
910.224	7103
910.339	7076
910.454	7053
910.57	7038
910.685	6966
910.8	7118
910.915	7110
911.03	7057
911.145	6882
911.259	6916
911.374	6882
911.489	6844
911.604	6795
911.718	6768
911.833	6787
911.947	6738
912.062	6616
912.176	6692
912.291	6711
912.405	6779
912.519	6818
912.633	6875
912.748	6795
912.862	6669
912.976	6662
913.09	6536
913.204	6623
913.318	6642
913.431	6692
913.545	6711
913.659	6722
913.772	6650
913.886	6486
914	6506
914.113	6593
914.226	6650
914.34	6620
914.453	6528
914.566	6563
914.68	6490
914.793	6601
914.906	6391
915.019	6410
915.132	6414
915.245	6391
915.358	6452
915.47	6441
915.583	6422
915.696	6479
915.809	6551
915.921	6601
916.034	6399
916.146	6410
916.259	6410
916.371	6475
916.483	6479
916.595	6410
916.708	6407
916.82	6426
916.932	6376
917.044	6414
917.156	6388
917.268	6388
917.38	6437
917.491	6369
917.603	6399
917.715	6448
917.826	6410
917.938	6319
918.049	6281
918.161	6384
918.272	6422
918.384	6448
918.495	6384
918.606	6319
918.717	6232
918.828	6311
918.939	6342
919.05	6220
919.161	6220
919.272	6171
919.383	6087
919.494	6285
919.604	6445
919.715	6315
919.826	6270
919.936	6270
920.047	6365
920.157	6304
920.267	6429
920.378	6334
920.488	6247
920.598	6475
920.708	6532
920.818	6574
920.928	6494
921.038	6635
921.148	6646
921.258	6296
921.368	6327
921.477	6270
921.587	6167
921.697	6083
921.806	6239
921.916	6076
922.025	5961
922.134	5969
922.244	5897
922.353	5958
922.462	5870
922.571	5786
922.68	5680
922.789	5714
922.898	5737
923.007	5665
923.116	5710
923.224	5676
923.333	5680
923.442	5649
923.55	5577
923.659	5638
923.767	5596
923.876	5558
923.984	5592
924.092	5493
924.201	5573
924.309	5577
924.417	5604
924.525	5505
924.633	5474
924.741	6247
924.849	5376
924.956	5509
925.064	5379
925.172	5288
925.279	5288
925.387	5353
925.494	5402
925.602	5440
925.709	5398
925.816	5292
925.924	5376
926.031	5364
926.138	5307
926.245	5299
926.352	5231
926.459	5334
926.566	5337
926.673	5235
926.779	5147
926.886	5170
926.993	5033
927.099	4965
927.206	4968
927.312	4987
927.419	5018
927.525	5041
927.631	5003
927.737	4930
927.843	4873
927.95	4778
928.056	4854
928.162	4816
928.267	4927
928.373	5296
928.479	4858
928.585	4714
928.69	4828
928.796	4736
928.901	4679
929.007	4607
929.112	4675
929.218	4672
929.323	4626
929.428	4634
929.533	4717
929.638	4565
929.743	4580
929.848	4573
929.953	4497
930.058	4436
930.163	4303
930.267	4379
930.372	4428
930.477	4333
930.581	4466
930.685	4363
930.79	4276
930.894	4314
930.998	4246
931.103	4417
931.207	4143
931.311	4101
931.415	4051
931.519	3918
931.623	3953
