Data from glass_V78500241_1680.txt Node
Date: Wed Sep 01 19:26:08 CST 2021
User: usil
Spectrometer: V785-0024
Trigger mode: 0
Integration Time (sec): 4.000000E-1
Scans to average: 1
Nonlinearity correction enabled: false
Boxcar width: 0
Storing dark spectrum: false
XAxis mode: Wavelengths
Number of Pixels in Spectrum: 1024
>>>>>Begin Spectral Data<<<<<
801.071	3740
801.214	3751
801.356	3732
801.499	3705
801.641	3698
801.783	3812
801.926	3857
802.068	3812
802.211	3861
802.353	3880
802.496	3842
802.638	3888
802.78	3896
802.923	3941
803.065	3876
803.208	3861
803.35	3876
803.492	3922
803.635	3880
803.777	3823
803.919	3899
804.061	4173
804.204	3915
804.346	3956
804.488	3896
804.63	4032
804.773	3994
804.915	4082
805.057	4116
805.199	4078
805.341	4090
805.483	4158
805.626	4124
805.768	4128
805.91	4207
806.052	4242
806.194	4211
806.336	4363
806.478	4200
806.62	4200
806.762	4185
806.904	4261
807.046	4337
807.188	4261
807.33	4185
807.472	4223
807.614	4169
807.756	4295
807.898	4185
808.04	4246
808.182	4318
808.324	4310
808.465	4333
808.607	4459
808.749	4451
808.891	4455
809.033	4497
809.174	4398
809.316	4265
809.458	4215
809.6	4154
809.741	4139
809.883	4143
810.025	4207
810.166	4227
810.308	4185
810.45	4207
810.591	4181
810.733	4280
810.875	4459
811.016	4812
811.158	5128
811.299	5288
811.441	5246
811.582	4995
811.724	4675
811.865	4432
812.007	4443
812.148	4462
812.29	4402
812.431	4379
812.573	4405
812.714	4390
812.855	4409
812.997	4413
813.138	4523
813.279	4428
813.421	4394
813.562	4405
813.703	4291
813.845	4341
813.986	4253
814.127	4268
814.268	4276
814.41	4291
814.551	4295
814.692	4322
814.833	4265
814.974	4265
815.115	4284
815.256	4257
815.397	4204
815.539	4246
815.68	4211
815.821	4230
815.962	4348
816.103	4303
816.244	4249
816.385	4242
816.526	4291
816.666	4211
816.807	4090
816.948	4166
817.089	4162
817.23	4055
817.371	4021
817.512	4067
817.653	4044
817.793	4032
817.934	4010
818.075	4112
818.216	4074
818.356	4059
818.497	3956
818.638	3918
818.778	3899
818.919	3831
819.06	3854
819.2	3934
819.341	3854
819.481	3888
819.622	3915
819.762	4063
819.903	3945
820.043	3861
820.184	3835
820.324	3785
820.465	3880
820.605	3846
820.746	3869
820.886	3747
821.026	3934
821.167	3922
821.307	3964
821.447	3956
821.588	3979
821.728	3945
821.868	3930
822.008	3880
822.149	3926
822.289	3899
822.429	3774
822.569	3766
822.709	3804
822.849	3690
822.99	3705
823.13	3736
823.27	3789
823.41	3686
823.55	3736
823.69	3751
823.83	3724
823.97	3671
824.11	3591
824.25	3606
824.389	3606
824.529	3652
824.669	3633
824.809	3736
824.949	3740
825.089	3747
825.228	3679
825.368	3614
825.508	3553
825.648	3580
825.787	3568
825.927	3625
826.067	3679
826.206	3682
826.346	3770
826.485	3816
826.625	3819
826.765	3922
826.904	3797
827.044	3637
827.183	3576
827.323	3435
827.462	3443
827.601	3401
827.741	3420
827.88	3458
828.02	3367
828.159	3450
828.298	3481
828.437	3507
828.577	3477
828.716	3568
828.855	3504
828.994	3378
829.134	3401
829.273	3363
829.412	3306
829.551	3336
829.69	3359
829.829	3420
829.968	3492
830.107	3416
830.246	3443
830.385	3367
830.524	3363
830.663	3275
830.802	3260
830.941	3161
831.08	3253
831.219	3272
831.357	3256
831.496	3420
831.635	3230
831.774	3211
831.913	3203
832.051	3112
832.19	3142
832.329	3230
832.467	3150
832.606	3112
832.744	3161
832.883	3146
833.022	3237
833.16	3264
833.299	3279
833.437	3313
833.576	3386
833.714	3386
833.852	3428
833.991	3447
834.129	3458
834.267	3458
834.406	3405
834.544	3458
834.682	3439
834.821	3412
834.959	3587
835.097	3439
835.235	3504
835.373	3473
835.511	3561
835.65	3431
835.788	3473
835.926	3409
836.064	3416
836.202	3351
836.34	3614
836.478	3641
836.615	3511
836.753	3603
836.891	3641
837.029	3603
837.167	3610
837.305	3538
837.443	3496
837.58	3542
837.718	3595
837.856	3519
837.993	3519
838.131	3603
838.269	3576
838.406	3580
838.544	3542
838.681	3466
838.819	3424
838.956	3344
839.094	3393
839.231	3439
839.369	3488
839.506	3762
839.643	3584
839.781	3500
839.918	3428
840.055	3507
840.193	3523
840.33	3526
840.467	3507
840.604	3603
840.742	3812
840.879	3557
841.016	3584
841.153	3599
841.29	3766
841.427	3736
841.564	3740
841.701	3728
841.838	3732
841.975	3663
842.112	3701
842.249	3656
842.385	3637
842.522	3789
842.659	3679
842.796	3648
842.933	3682
843.069	3709
843.206	3724
843.343	3823
843.479	3766
843.616	3827
843.752	3686
843.889	3705
844.025	3850
844.162	3701
844.298	3861
844.435	3762
844.571	3766
844.708	3899
844.844	4006
844.98	4002
845.117	4013
845.253	3903
845.389	3926
845.525	3968
845.661	3964
845.798	3949
845.934	4036
846.07	3945
846.206	4029
846.342	4131
846.478	4071
846.614	4002
846.75	3964
846.886	3903
847.022	4044
847.158	3979
847.294	4013
847.429	4013
847.565	4036
847.701	4230
847.837	3876
847.972	3884
848.108	4013
848.244	3983
848.379	3896
848.515	3823
848.65	3816
848.786	3842
848.921	3869
849.057	3907
849.192	3949
849.328	3869
849.463	3991
849.598	3880
849.734	3873
849.869	3835
850.004	3781
850.14	3812
850.275	3793
850.41	3762
850.545	3747
850.68	3728
850.815	3774
850.95	3842
851.085	3960
851.22	3819
851.355	3804
851.49	3819
851.625	3785
851.76	3816
851.895	3724
852.03	3701
852.165	3793
852.299	3838
852.434	3896
852.569	3835
852.703	3850
852.838	3937
852.973	3991
853.107	4002
853.242	3918
853.376	3846
853.511	3770
853.645	3861
853.78	3972
853.914	3903
854.048	3892
854.183	3888
854.317	3968
854.451	4082
854.585	3991
854.72	3918
854.854	4048
854.988	3937
855.122	4017
855.256	3968
855.39	4036
855.524	4105
855.658	4086
855.792	4139
855.926	4162
856.06	4154
856.194	4219
856.327	4112
856.461	4109
856.595	4181
856.729	4185
856.862	4246
856.996	4272
857.13	4291
857.263	4322
857.397	4360
857.53	4284
857.664	4344
857.797	4390
857.931	4394
858.064	4356
858.197	4424
858.331	4360
858.464	4398
858.597	4291
858.731	4409
858.864	4428
858.997	4428
859.13	4455
859.263	4531
859.396	4565
859.529	4504
859.662	4462
859.795	4550
859.928	4558
860.061	4714
860.194	4767
860.327	4679
860.46	4584
860.592	4752
860.725	4755
860.858	4809
860.99	4687
861.123	4672
861.256	4698
861.388	4748
861.521	5410
861.653	4717
861.786	4664
861.918	4748
862.05	4824
862.183	4801
862.315	4866
862.447	4923
862.58	4919
862.712	4793
862.844	4801
862.976	4862
863.108	4900
863.24	5288
863.372	4854
863.504	4927
863.636	4915
863.768	4957
863.9	4987
864.032	4946
864.164	4919
864.296	5022
864.428	5113
864.559	5109
864.691	5083
864.823	5064
864.954	5102
865.086	5109
865.217	5140
865.349	5079
865.48	5162
865.612	5231
865.743	5292
865.875	5166
866.006	5185
866.137	5227
866.269	5189
866.4	5242
866.531	5258
866.662	5208
866.793	5231
866.924	5265
867.055	5349
867.186	5311
867.317	5284
867.448	5337
867.579	5379
867.71	5368
867.841	5406
867.972	5459
868.103	5474
868.233	5524
868.364	5474
868.495	5532
868.625	5688
868.756	5775
868.886	5699
869.017	5737
869.147	5786
869.278	5908
869.408	5809
869.539	5870
869.669	5942
869.799	5912
869.929	5961
870.06	6015
870.19	6186
870.32	6182
870.45	6266
870.58	6350
870.71	6448
870.84	6475
870.97	6407
871.1	6414
871.23	6642
871.36	6688
871.489	6681
871.619	6776
871.749	6829
871.879	6810
872.008	7008
872.138	7031
872.267	6985
872.397	6977
872.526	7061
872.656	7061
872.785	7202
872.915	7392
873.044	7563
873.173	7571
873.303	7616
873.432	7795
873.561	7860
873.69	7856
873.819	8008
873.948	8244
874.077	8214
874.206	8317
874.335	8415
874.464	8667
874.593	8929
874.722	8956
874.851	9165
874.979	9283
875.108	9370
875.237	9374
875.365	9447
875.494	9667
875.623	9819
875.751	9823
875.88	9964
876.008	10124
876.136	10284
876.265	10478
876.393	10740
876.521	10748
876.65	10812
876.778	10835
876.906	10968
877.034	11006
877.162	11094
877.29	11239
877.418	11242
877.546	11364
877.674	11383
877.802	11520
877.93	11459
878.058	11562
878.185	11596
878.313	11653
878.441	11790
878.568	11684
878.696	11783
878.824	11882
878.951	11939
879.079	11980
879.206	12117
879.333	11980
879.461	12007
879.588	12106
879.715	12057
879.842	12281
879.97	12034
880.097	11912
880.224	11824
880.351	11794
880.478	11851
880.605	11836
880.732	11729
880.859	11996
880.986	11752
881.112	11824
881.239	11767
881.366	11726
881.493	11566
881.619	11482
881.746	11539
881.872	11486
881.999	11486
882.125	11516
882.252	11592
882.378	11528
882.505	11581
882.631	11414
882.757	11277
882.883	11360
883.01	11185
883.136	11250
883.262	11143
883.388	11079
883.514	11185
883.64	11178
883.766	11121
883.892	10995
884.018	10995
884.143	11136
884.269	11033
884.395	10828
884.52	10790
884.646	10797
884.772	10767
884.897	10691
885.023	10668
885.148	10710
885.274	10679
885.399	10721
885.524	10641
885.65	10645
885.775	10615
885.9	10630
886.025	10588
886.15	10622
886.275	10504
886.4	10432
886.525	10405
886.65	10390
886.775	10352
886.9	10436
887.025	10554
887.149	10303
887.274	10215
887.399	10150
887.523	10162
887.648	10158
887.773	10112
887.897	10295
888.021	10242
888.146	10112
888.27	10223
888.395	10276
888.519	10238
888.643	10211
888.767	10169
888.891	10090
889.015	10029
889.139	10051
889.263	9960
889.387	10116
889.511	10063
889.635	10078
889.759	9991
889.883	9911
890.006	9987
890.13	10071
890.254	9964
890.377	9945
890.501	9854
890.624	9873
890.748	9842
890.871	9804
890.995	9709
891.118	9717
891.241	9816
891.364	9762
891.488	9865
891.611	9720
891.734	9778
891.857	9736
891.98	9759
892.103	9766
892.226	9755
892.349	9641
892.471	9519
892.594	9614
892.717	9656
892.839	9599
892.962	9500
893.085	9644
893.207	9530
893.33	9591
893.452	9568
893.575	9614
893.697	9507
893.819	9564
893.941	9644
894.064	9667
894.186	9412
894.308	9397
894.43	9542
894.552	9545
894.674	9485
894.796	9336
894.918	9424
895.04	9306
895.161	9332
895.283	9397
895.405	9226
895.526	9249
895.648	9199
895.769	9199
895.891	9214
896.012	9188
896.134	9203
896.255	9161
896.376	9097
896.498	9142
896.619	9188
896.74	9028
896.861	9097
896.982	9203
897.103	9355
897.224	9142
897.345	9097
897.466	9085
897.587	8994
897.708	9119
897.828	9062
897.949	8952
898.07	8883
898.19	8914
898.311	9009
898.431	8918
898.552	8895
898.672	8956
898.792	9009
898.913	8929
899.033	8830
899.153	8773
899.273	8678
899.393	8735
899.513	8754
899.633	8674
899.753	8651
899.873	8727
899.993	8739
900.113	8708
900.232	8693
900.352	8724
900.472	8644
900.591	8549
900.711	8610
900.83	8579
900.95	8644
901.069	8708
901.189	8549
901.308	8465
901.427	8366
901.546	8404
901.665	8415
901.784	8473
901.904	8374
902.023	8259
902.141	8244
902.26	8191
902.379	8286
902.498	8176
902.617	8256
902.735	8339
902.854	8358
902.973	8267
903.091	8119
903.21	8115
903.328	8168
903.446	8195
903.565	8046
903.683	8039
903.801	8024
903.919	8221
904.038	8119
904.156	8073
904.274	8073
904.392	7993
904.51	8065
904.627	8062
904.745	8107
904.863	8062
904.981	7890
905.098	7944
905.216	7883
905.334	7944
905.451	7898
905.569	7822
905.686	7944
905.803	7871
905.921	7826
906.038	7875
906.155	7788
906.272	7746
906.389	7818
906.506	7636
906.623	7620
906.74	7559
906.857	7514
906.974	7575
907.091	7594
907.208	7731
907.324	7601
907.441	7552
907.557	7411
907.674	7449
907.79	7381
907.907	7434
908.023	7396
908.139	7449
908.256	7362
908.372	7346
908.488	7244
908.604	7274
908.72	7221
908.836	7255
908.952	7327
909.068	7289
909.184	7312
909.3	7232
909.415	7324
909.531	7244
909.647	7110
909.762	7141
909.878	7050
909.993	7122
910.108	7099
910.224	7076
910.339	7076
910.454	6989
910.57	7053
910.685	6897
910.8	7141
910.915	7084
911.03	7012
911.145	6916
911.259	6897
911.374	6852
911.489	6814
911.604	6768
911.718	6688
911.833	6760
911.947	6673
912.062	6616
912.176	6703
912.291	6738
912.405	6673
912.519	6814
912.633	6833
912.748	6753
912.862	6715
912.976	6608
913.09	6532
913.204	6593
913.318	6662
913.431	6673
913.545	6707
913.659	6738
913.772	6654
913.886	6521
914	6555
914.113	6620
914.226	6722
914.34	6620
914.453	6506
914.566	6642
914.68	6578
914.793	6506
914.906	6342
915.019	6372
915.132	6369
915.245	6441
915.358	6486
915.47	6448
915.583	6509
915.696	6433
915.809	6528
915.921	6547
916.034	6395
916.146	6441
916.259	6429
916.371	6456
916.483	6456
916.595	6399
916.708	6467
916.82	6369
916.932	6331
917.044	6399
917.156	6353
917.268	6292
917.38	6300
917.491	6350
917.603	6433
917.715	6372
917.826	6422
917.938	6319
918.049	6247
918.161	6334
918.272	6452
918.384	6456
918.495	6395
918.606	6251
918.717	6235
918.828	6258
918.939	6266
919.05	6152
919.161	6220
919.272	6178
919.383	6144
919.494	6247
919.604	6391
919.715	6296
919.826	6197
919.936	6247
920.047	6346
920.157	6266
920.267	6456
920.378	6319
920.488	6247
920.598	6384
920.708	6566
920.818	6475
920.928	6464
921.038	6582
921.148	6593
921.258	6342
921.368	6262
921.477	6209
921.587	6155
921.697	6076
921.806	6136
921.916	6038
922.025	5958
922.134	5920
922.244	5889
922.353	5969
922.462	5863
922.571	5756
922.68	5676
922.789	5676
922.898	5688
923.007	5653
923.116	5676
923.224	5627
923.333	5688
923.442	5543
923.55	5592
923.659	5623
923.767	5695
923.876	5589
923.984	5604
924.092	5535
924.201	5516
924.309	5604
924.417	5562
924.525	5467
924.633	5455
924.741	6262
924.849	5391
924.956	5444
925.064	5395
925.172	5341
925.279	5345
925.387	5326
925.494	5345
925.602	5410
925.709	5372
925.816	5269
925.924	5311
926.031	5322
926.138	5330
926.245	5322
926.352	5178
926.459	5322
926.566	5326
926.673	5250
926.779	5136
926.886	5079
926.993	5018
927.099	5010
927.206	4980
927.312	4934
927.419	5022
927.525	4980
927.631	4999
927.737	4915
927.843	4877
927.95	4805
928.056	4824
928.162	4866
928.267	4843
928.373	5307
928.479	4881
928.585	4691
928.69	4809
928.796	4763
928.901	4675
929.007	4592
929.112	4622
929.218	4618
929.323	4588
929.428	4542
929.533	4710
929.638	4546
929.743	4504
929.848	4516
929.953	4542
930.058	4413
930.163	4284
930.267	4318
930.372	4405
930.477	4287
930.581	4474
930.685	4352
930.79	4253
930.894	4268
930.998	4268
931.103	4432
931.207	4109
931.311	4105
931.415	4074
931.519	3934
931.623	3915
