Data from glass_V78500241_1509.txt Node
Date: Wed Sep 01 19:24:57 CST 2021
User: usil
Spectrometer: V785-0024
Trigger mode: 0
Integration Time (sec): 4.000000E-1
Scans to average: 1
Nonlinearity correction enabled: false
Boxcar width: 0
Storing dark spectrum: false
XAxis mode: Wavelengths
Number of Pixels in Spectrum: 1024
>>>>>Begin Spectral Data<<<<<
801.071	3740
801.214	3759
801.356	3720
801.499	3751
801.641	3740
801.783	3797
801.926	3823
802.068	3842
802.211	3842
802.353	3846
802.496	3876
802.638	3835
802.78	3907
802.923	3968
803.065	3880
803.208	3846
803.35	3850
803.492	3949
803.635	3918
803.777	3793
803.919	3926
804.061	4128
804.204	3964
804.346	3907
804.488	3934
804.63	4010
804.773	3998
804.915	4021
805.057	4082
805.199	4071
805.341	4105
805.483	4143
805.626	4166
805.768	4086
805.91	4192
806.052	4234
806.194	4234
806.336	4375
806.478	4230
806.62	4131
806.762	4162
806.904	4284
807.046	4291
807.188	4185
807.33	4185
807.472	4280
807.614	4177
807.756	4299
807.898	4215
808.04	4253
808.182	4310
808.324	4322
808.465	4348
808.607	4459
808.749	4455
808.891	4470
809.033	4531
809.174	4409
809.316	4310
809.458	4238
809.6	4135
809.741	4128
809.883	4169
810.025	4204
810.166	4169
810.308	4181
810.45	4261
810.591	4242
810.733	4303
810.875	4516
811.016	4839
811.158	5140
811.299	5254
811.441	5296
811.582	5090
811.724	4710
811.865	4481
812.007	4462
812.148	4436
812.29	4402
812.431	4424
812.573	4405
812.714	4409
812.855	4386
812.997	4421
813.138	4470
813.279	4409
813.421	4409
813.562	4398
813.703	4303
813.845	4390
813.986	4280
814.127	4230
814.268	4249
814.41	4299
814.551	4291
814.692	4295
814.833	4280
814.974	4306
815.115	4360
815.256	4227
815.397	4261
815.539	4242
815.68	4185
815.821	4211
815.962	4352
816.103	4265
816.244	4249
816.385	4211
816.526	4299
816.666	4230
816.807	4051
816.948	4181
817.089	4166
817.23	4147
817.371	4029
817.512	4074
817.653	4013
817.793	4063
817.934	4067
818.075	4101
818.216	4055
818.356	4071
818.497	4021
818.638	3930
818.778	3960
818.919	3934
819.06	3915
819.2	3926
819.341	3876
819.481	3831
819.622	3865
819.762	4017
819.903	3945
820.043	3892
820.184	3846
820.324	3804
820.465	3911
820.605	3876
820.746	3876
820.886	3789
821.026	3983
821.167	3911
821.307	3979
821.447	4055
821.588	3953
821.728	3922
821.868	3964
822.008	3892
822.149	3911
822.289	3915
822.429	3755
822.569	3755
822.709	3816
822.849	3713
822.99	3751
823.13	3774
823.27	3816
823.41	3717
823.55	3713
823.69	3728
823.83	3732
823.97	3679
824.11	3614
824.25	3625
824.389	3637
824.529	3724
824.669	3625
824.809	3701
824.949	3789
825.089	3717
825.228	3675
825.368	3591
825.508	3591
825.648	3587
825.787	3652
825.927	3622
826.067	3580
826.206	3663
826.346	3800
826.485	3857
826.625	3899
826.765	3960
826.904	3842
827.044	3568
827.183	3523
827.323	3458
827.462	3492
827.601	3443
827.741	3412
827.88	3462
828.02	3393
828.159	3405
828.298	3458
828.437	3507
828.577	3488
828.716	3538
828.855	3485
828.994	3378
829.134	3428
829.273	3397
829.412	3393
829.551	3355
829.69	3355
829.829	3462
829.968	3523
830.107	3454
830.246	3454
830.385	3355
830.524	3355
830.663	3291
830.802	3272
830.941	3176
831.08	3192
831.219	3287
831.357	3283
831.496	3424
831.635	3253
831.774	3184
831.913	3249
832.051	3100
832.19	3142
832.329	3176
832.467	3165
832.606	3093
832.744	3165
832.883	3135
833.022	3195
833.16	3291
833.299	3294
833.437	3329
833.576	3367
833.714	3424
833.852	3496
833.991	3466
834.129	3454
834.267	3431
834.406	3386
834.544	3466
834.682	3443
834.821	3443
834.959	3595
835.097	3447
835.235	3504
835.373	3466
835.511	3454
835.65	3492
835.788	3469
835.926	3439
836.064	3363
836.202	3397
836.34	3576
836.478	3610
836.615	3545
836.753	3568
836.891	3603
837.029	3580
837.167	3568
837.305	3553
837.443	3504
837.58	3519
837.718	3633
837.856	3599
837.993	3496
838.131	3572
838.269	3606
838.406	3564
838.544	3561
838.681	3469
838.819	3462
838.956	3386
839.094	3389
839.231	3466
839.369	3507
839.506	3743
839.643	3625
839.781	3507
839.918	3431
840.055	3549
840.193	3492
840.33	3561
840.467	3572
840.604	3587
840.742	3831
840.879	3542
841.016	3568
841.153	3610
841.29	3766
841.427	3682
841.564	3705
841.701	3713
841.838	3675
841.975	3656
842.112	3701
842.249	3622
842.385	3641
842.522	3812
842.659	3713
842.796	3701
842.933	3732
843.069	3663
843.206	3717
843.343	3808
843.479	3812
843.616	3774
843.752	3682
843.889	3705
844.025	3865
844.162	3736
844.298	3842
844.435	3846
844.571	3816
844.708	3880
844.844	3983
844.98	4032
845.117	3991
845.253	3907
845.389	3884
845.525	3979
845.661	4002
845.798	3918
845.934	4006
846.07	3937
846.206	4032
846.342	4147
846.478	4063
846.614	3979
846.75	3899
846.886	3960
847.022	4040
847.158	3964
847.294	4044
847.429	4044
847.565	3987
847.701	4196
847.837	3896
847.972	3812
848.108	3998
848.244	3991
848.379	3842
848.515	3831
848.65	3823
848.786	3915
848.921	3865
849.057	3930
849.192	3926
849.328	3892
849.463	3964
849.598	3918
849.734	3899
849.869	3838
850.004	3819
850.14	3804
850.275	3781
850.41	3743
850.545	3766
850.68	3804
850.815	3854
850.95	3789
851.085	3979
851.22	3865
851.355	3831
851.49	3778
851.625	3778
851.76	3846
851.895	3720
852.03	3720
852.165	3781
852.299	3880
852.434	3915
852.569	3865
852.703	3857
852.838	3911
852.973	4036
853.107	4051
853.242	3880
853.376	3850
853.511	3740
853.645	3861
853.78	3918
853.914	3964
854.048	3911
854.183	3876
854.317	3945
854.451	4086
854.585	3953
854.72	3968
854.854	4040
854.988	3922
855.122	4021
855.256	3884
855.39	4006
855.524	4074
855.658	4067
855.792	4105
855.926	4116
856.06	4147
856.194	4196
856.327	4147
856.461	4124
856.595	4124
856.729	4223
856.862	4291
856.996	4268
857.13	4295
857.263	4325
857.397	4379
857.53	4280
857.664	4284
857.797	4375
857.931	4424
858.064	4405
858.197	4417
858.331	4405
858.464	4367
858.597	4352
858.731	4432
858.864	4474
858.997	4436
859.13	4481
859.263	4508
859.396	4569
859.529	4527
859.662	4508
859.795	4500
859.928	4592
860.061	4725
860.194	4763
860.327	4698
860.46	4653
860.592	4729
860.725	4774
860.858	4778
860.99	4706
861.123	4706
861.256	4717
861.388	4790
861.521	5421
861.653	4675
861.786	4694
861.918	4774
862.05	4805
862.183	4911
862.315	4949
862.447	4961
862.58	4908
862.712	4793
862.844	4786
862.976	4858
863.108	4854
863.24	5212
863.372	4820
863.504	4908
863.636	4927
863.768	5018
863.9	4980
864.032	4968
864.164	4987
864.296	5045
864.428	5052
864.559	5079
864.691	5174
864.823	5086
864.954	5155
865.086	5185
865.217	5128
865.349	5121
865.48	5197
865.612	5216
865.743	5360
865.875	5239
866.006	5147
866.137	5185
866.269	5246
866.4	5284
866.531	5235
866.662	5269
866.793	5258
866.924	5265
867.055	5357
867.186	5311
867.317	5334
867.448	5341
867.579	5364
867.71	5372
867.841	5391
867.972	5467
868.103	5406
868.233	5452
868.364	5512
868.495	5554
868.625	5642
868.756	5764
868.886	5665
869.017	5733
869.147	5882
869.278	5855
869.408	5748
869.539	5878
869.669	5969
869.799	5920
869.929	5988
870.06	5973
870.19	6167
870.32	6235
870.45	6251
870.58	6304
870.71	6380
870.84	6441
870.97	6395
871.1	6452
871.23	6589
871.36	6650
871.489	6662
871.619	6734
871.749	6779
871.879	6848
872.008	6977
872.138	6901
872.267	7023
872.397	6943
872.526	7042
872.656	7133
872.785	7198
872.915	7362
873.044	7502
873.173	7537
873.303	7613
873.432	7803
873.561	7868
873.69	7887
873.819	8001
873.948	8153
874.077	8256
874.206	8343
874.335	8511
874.464	8632
874.593	8876
874.722	8887
874.851	9169
874.979	9287
875.108	9355
875.237	9428
875.365	9507
875.494	9618
875.623	9842
875.751	9819
875.88	9979
876.008	10166
876.136	10280
876.265	10546
876.393	10683
876.521	10793
876.65	10869
876.778	10877
876.906	10911
877.034	10953
877.162	11098
877.29	11185
877.418	11341
877.546	11258
877.674	11429
877.802	11353
877.93	11501
878.058	11501
878.185	11551
878.313	11646
878.441	11729
878.568	11615
878.696	11802
878.824	11775
878.951	11977
879.079	12064
879.206	12148
879.333	12072
879.461	12003
879.588	12076
879.715	12095
879.842	12273
879.97	12022
880.097	11863
880.224	11851
880.351	11866
880.478	11901
880.605	11893
880.732	11817
880.859	11923
880.986	11790
881.112	11889
881.239	11741
881.366	11649
881.493	11596
881.619	11543
881.746	11566
881.872	11623
881.999	11482
882.125	11471
882.252	11577
882.378	11539
882.505	11524
882.631	11356
882.757	11318
882.883	11360
883.01	11124
883.136	11280
883.262	11204
883.388	11067
883.514	11147
883.64	11155
883.766	11117
883.892	10968
884.018	10911
884.143	11060
884.269	11105
884.395	10850
884.52	10721
884.646	10752
884.772	10717
884.897	10691
885.023	10706
885.148	10797
885.274	10752
885.399	10786
885.524	10645
885.65	10626
885.775	10592
885.9	10615
886.025	10618
886.15	10527
886.275	10527
886.4	10382
886.525	10402
886.65	10352
886.775	10428
886.9	10451
887.025	10580
887.149	10303
887.274	10291
887.399	10227
887.523	10150
887.648	10116
887.773	10147
887.897	10219
888.021	10284
888.146	10169
888.27	10276
888.395	10181
888.519	10227
888.643	10169
888.767	10200
888.891	10078
889.015	10055
889.139	10044
889.263	9918
889.387	10112
889.511	10147
889.635	10120
889.759	9994
889.883	10010
890.006	10017
890.13	10090
890.254	9960
890.377	9964
890.501	9899
890.624	9823
890.748	9979
890.871	9865
890.995	9740
891.118	9701
891.241	9846
891.364	9705
891.488	9895
891.611	9778
891.734	9774
891.857	9793
891.98	9766
892.103	9740
892.226	9671
892.349	9633
892.471	9545
892.594	9568
892.717	9614
892.839	9553
892.962	9603
893.085	9705
893.207	9557
893.33	9549
893.452	9526
893.575	9641
893.697	9485
893.819	9633
893.941	9641
894.064	9614
894.186	9435
894.308	9439
894.43	9504
894.552	9519
894.674	9485
894.796	9378
894.918	9416
895.04	9310
895.161	9313
895.283	9382
895.405	9176
895.526	9374
895.648	9218
895.769	9173
895.891	9195
896.012	9260
896.134	9291
896.255	9214
896.376	9119
896.498	9097
896.619	9146
896.74	9074
896.861	9138
896.982	9268
897.103	9348
897.224	9123
897.345	9055
897.466	8975
897.587	9058
897.708	9074
897.828	9070
897.949	9001
898.07	8872
898.19	8941
898.311	9024
898.431	8781
898.552	8944
898.672	9009
898.792	8883
898.913	8891
899.033	8746
899.153	8720
899.273	8693
899.393	8693
899.513	8773
899.633	8781
899.753	8731
899.873	8636
899.993	8708
900.113	8705
900.232	8686
900.352	8659
900.472	8560
900.591	8579
900.711	8598
900.83	8503
900.95	8659
901.069	8708
901.189	8522
901.308	8370
901.427	8385
901.546	8419
901.665	8492
901.784	8526
901.904	8476
902.023	8332
902.141	8286
902.26	8229
902.379	8298
902.498	8244
902.617	8248
902.735	8301
902.854	8252
902.973	8229
903.091	8138
903.21	8103
903.328	8176
903.446	8195
903.565	8065
903.683	8172
903.801	8088
903.919	8050
904.038	8115
904.156	8035
904.274	8096
904.392	7967
904.51	8031
904.627	8035
904.745	8084
904.863	8073
904.981	7959
905.098	7940
905.216	7879
905.334	7871
905.451	7947
905.569	7837
905.686	7944
905.803	7925
905.921	7795
906.038	7921
906.155	7799
906.272	7662
906.389	7742
906.506	7632
906.623	7620
906.74	7590
906.857	7597
906.974	7620
907.091	7719
907.208	7685
907.324	7647
907.441	7590
907.557	7499
907.674	7411
907.79	7381
907.907	7362
908.023	7426
908.139	7388
908.256	7415
908.372	7350
908.488	7316
908.604	7308
908.72	7225
908.836	7251
908.952	7247
909.068	7209
909.184	7301
909.3	7278
909.415	7354
909.531	7305
909.647	7129
909.762	7118
909.878	7118
909.993	7225
910.108	7160
910.224	7050
910.339	7069
910.454	7053
910.57	6951
910.685	6981
910.8	7156
910.915	7145
911.03	7061
911.145	6890
911.259	6859
911.374	6875
911.489	6821
911.604	6859
911.718	6711
911.833	6677
911.947	6669
912.062	6570
912.176	6722
912.291	6738
912.405	6639
912.519	6779
912.633	6806
912.748	6715
912.862	6681
912.976	6608
913.09	6536
913.204	6604
913.318	6616
913.431	6753
913.545	6620
913.659	6700
913.772	6627
913.886	6513
914	6521
914.113	6669
914.226	6669
914.34	6616
914.453	6452
914.566	6578
914.68	6498
914.793	6528
914.906	6490
915.019	6426
915.132	6403
915.245	6445
915.358	6479
915.47	6407
915.583	6471
915.696	6494
915.809	6574
915.921	6563
916.034	6456
916.146	6350
916.259	6376
916.371	6471
916.483	6448
916.595	6395
916.708	6429
916.82	6384
916.932	6407
917.044	6395
917.156	6429
917.268	6315
917.38	6319
917.491	6323
917.603	6380
917.715	6361
917.826	6433
917.938	6296
918.049	6273
918.161	6372
918.272	6395
918.384	6395
918.495	6342
918.606	6281
918.717	6273
918.828	6277
918.939	6205
919.05	6239
919.161	6281
919.272	6175
919.383	6148
919.494	6277
919.604	6437
919.715	6270
919.826	6213
919.936	6220
920.047	6361
920.157	6273
920.267	6456
920.378	6350
920.488	6323
920.598	6486
920.708	6521
920.818	6456
920.928	6479
921.038	6582
921.148	6623
921.258	6315
921.368	6369
921.477	6197
921.587	6159
921.697	6072
921.806	6155
921.916	6060
922.025	5988
922.134	5916
922.244	5863
922.353	5920
922.462	5863
922.571	5851
922.68	5729
922.789	5684
922.898	5722
923.007	5653
923.116	5729
923.224	5668
923.333	5699
923.442	5600
923.55	5535
923.659	5551
923.767	5551
923.876	5532
923.984	5577
924.092	5501
924.201	5592
924.309	5551
924.417	5532
924.525	5471
924.633	5497
924.741	6140
924.849	5387
924.956	5436
925.064	5357
925.172	5280
925.279	5337
925.387	5349
925.494	5303
925.602	5452
925.709	5368
925.816	5277
925.924	5265
926.031	5357
926.138	5303
926.245	5292
926.352	5204
926.459	5311
926.566	5315
926.673	5223
926.779	5102
926.886	5079
926.993	5045
927.099	4980
927.206	5003
927.312	5003
927.419	5014
927.525	4972
927.631	5029
927.737	4870
927.843	4820
927.95	4790
928.056	4870
928.162	4831
928.267	4858
928.373	5280
928.479	4850
928.585	4710
928.69	4714
928.796	4805
928.901	4725
929.007	4611
929.112	4672
929.218	4626
929.323	4580
929.428	4615
929.533	4698
929.638	4485
929.743	4497
929.848	4622
929.953	4478
930.058	4356
930.163	4314
930.267	4348
930.372	4398
930.477	4314
930.581	4474
930.685	4360
930.79	4272
930.894	4238
930.998	4287
931.103	4402
931.207	4093
931.311	4067
931.415	4063
931.519	3922
931.623	3926
