Data from glass_V78500241_2107.txt Node
Date: Wed Sep 01 19:29:06 CST 2021
User: usil
Spectrometer: V785-0024
Trigger mode: 0
Integration Time (sec): 4.000000E-1
Scans to average: 1
Nonlinearity correction enabled: false
Boxcar width: 0
Storing dark spectrum: false
XAxis mode: Wavelengths
Number of Pixels in Spectrum: 1024
>>>>>Begin Spectral Data<<<<<
801.071	3747
801.214	3740
801.356	3736
801.499	3766
801.641	3724
801.783	3762
801.926	3861
802.068	3842
802.211	3838
802.353	3880
802.496	3819
802.638	3846
802.78	3884
802.923	3934
803.065	3888
803.208	3861
803.35	3846
803.492	3880
803.635	3934
803.777	3797
803.919	3941
804.061	4173
804.204	3987
804.346	3934
804.488	3915
804.63	4013
804.773	3945
804.915	4048
805.057	4150
805.199	4044
805.341	4086
805.483	4059
805.626	4105
805.768	4101
805.91	4200
806.052	4257
806.194	4219
806.336	4325
806.478	4234
806.62	4207
806.762	4162
806.904	4211
807.046	4299
807.188	4200
807.33	4185
807.472	4249
807.614	4196
807.756	4219
807.898	4204
808.04	4280
808.182	4272
808.324	4284
808.465	4371
808.607	4459
808.749	4470
808.891	4440
809.033	4470
809.174	4432
809.316	4280
809.458	4253
809.6	4154
809.741	4109
809.883	4135
810.025	4207
810.166	4200
810.308	4215
810.45	4223
810.591	4230
810.733	4238
810.875	4512
811.016	4793
811.158	5159
811.299	5292
811.441	5254
811.582	5064
811.724	4725
811.865	4478
812.007	4459
812.148	4432
812.29	4383
812.431	4447
812.573	4402
812.714	4405
812.855	4440
812.997	4432
813.138	4451
813.279	4428
813.421	4360
813.562	4291
813.703	4299
813.845	4329
813.986	4261
814.127	4227
814.268	4261
814.41	4291
814.551	4207
814.692	4306
814.833	4276
814.974	4253
815.115	4344
815.256	4268
815.397	4227
815.539	4268
815.68	4162
815.821	4196
815.962	4284
816.103	4284
816.244	4265
816.385	4215
816.526	4284
816.666	4249
816.807	4101
816.948	4200
817.089	4166
817.23	4074
817.371	4051
817.512	4025
817.653	4025
817.793	3979
817.934	4032
818.075	4116
818.216	4040
818.356	4032
818.497	4025
818.638	3922
818.778	3926
818.919	3861
819.06	3896
819.2	3907
819.341	3831
819.481	3835
819.622	3911
819.762	3994
819.903	3964
820.043	3846
820.184	3823
820.324	3804
820.465	3835
820.605	3873
820.746	3831
820.886	3789
821.026	3880
821.167	3892
821.307	3956
821.447	3972
821.588	3930
821.728	3983
821.868	3930
822.008	3934
822.149	3968
822.289	3918
822.429	3812
822.569	3724
822.709	3804
822.849	3682
822.99	3709
823.13	3778
823.27	3781
823.41	3732
823.55	3759
823.69	3728
823.83	3747
823.97	3694
824.11	3587
824.25	3595
824.389	3648
824.529	3641
824.669	3629
824.809	3682
824.949	3789
825.089	3705
825.228	3671
825.368	3576
825.508	3572
825.648	3523
825.787	3622
825.927	3603
826.067	3610
826.206	3660
826.346	3751
826.485	3854
826.625	3861
826.765	3911
826.904	3850
827.044	3587
827.183	3534
827.323	3439
827.462	3507
827.601	3443
827.741	3428
827.88	3454
828.02	3332
828.159	3454
828.298	3450
828.437	3504
828.577	3500
828.716	3618
828.855	3454
828.994	3397
829.134	3351
829.273	3401
829.412	3359
829.551	3325
829.69	3313
829.829	3439
829.968	3488
830.107	3428
830.246	3435
830.385	3348
830.524	3389
830.663	3321
830.802	3211
830.941	3207
831.08	3218
831.219	3249
831.357	3241
831.496	3405
831.635	3253
831.774	3176
831.913	3192
832.051	3135
832.19	3127
832.329	3218
832.467	3135
832.606	3104
832.744	3169
832.883	3169
833.022	3192
833.16	3260
833.299	3306
833.437	3291
833.576	3367
833.714	3412
833.852	3416
833.991	3439
834.129	3477
834.267	3439
834.406	3397
834.544	3428
834.682	3420
834.821	3458
834.959	3538
835.097	3424
835.235	3515
835.373	3488
835.511	3511
835.65	3454
835.788	3458
835.926	3420
836.064	3370
836.202	3405
836.34	3572
836.478	3641
836.615	3500
836.753	3576
836.891	3606
837.029	3599
837.167	3587
837.305	3549
837.443	3534
837.58	3507
837.718	3595
837.856	3591
837.993	3515
838.131	3568
838.269	3568
838.406	3591
838.544	3549
838.681	3466
838.819	3469
838.956	3332
839.094	3424
839.231	3405
839.369	3496
839.506	3740
839.643	3564
839.781	3439
839.918	3439
840.055	3523
840.193	3511
840.33	3485
840.467	3534
840.604	3625
840.742	3812
840.879	3553
841.016	3606
841.153	3599
841.29	3747
841.427	3679
841.564	3724
841.701	3789
841.838	3720
841.975	3675
842.112	3698
842.249	3644
842.385	3641
842.522	3819
842.659	3694
842.796	3663
842.933	3648
843.069	3701
843.206	3740
843.343	3751
843.479	3774
843.616	3804
843.752	3686
843.889	3686
844.025	3846
844.162	3759
844.298	3854
844.435	3827
844.571	3812
844.708	3876
844.844	4002
844.98	3987
845.117	3983
845.253	3949
845.389	3873
845.525	3972
845.661	3987
845.798	3899
845.934	3975
846.07	3937
846.206	4071
846.342	4105
846.478	4048
846.614	3956
846.75	3911
846.886	3873
847.022	4040
847.158	4010
847.294	4017
847.429	4025
847.565	4021
847.701	4207
847.837	3850
847.972	3835
848.108	3994
848.244	3953
848.379	3857
848.515	3812
848.65	3804
848.786	3869
848.921	3861
849.057	3903
849.192	3960
849.328	3892
849.463	3918
849.598	3915
849.734	3854
849.869	3812
850.004	3732
850.14	3778
850.275	3766
850.41	3770
850.545	3770
850.68	3766
850.815	3789
850.95	3808
851.085	3949
851.22	3850
851.355	3781
851.49	3770
851.625	3781
851.76	3812
851.895	3766
852.03	3724
852.165	3793
852.299	3869
852.434	3896
852.569	3869
852.703	3884
852.838	3915
852.973	4006
853.107	3972
853.242	3876
853.376	3850
853.511	3808
853.645	3819
853.78	3983
853.914	3896
854.048	3911
854.183	3896
854.317	3926
854.451	4044
854.585	3972
854.72	3907
854.854	4097
854.988	3953
855.122	4013
855.256	3911
855.39	3998
855.524	4147
855.658	4093
855.792	4086
855.926	4105
856.06	4147
856.194	4188
856.327	4200
856.461	4082
856.595	4150
856.729	4177
856.862	4257
856.996	4234
857.13	4246
857.263	4306
857.397	4417
857.53	4253
857.664	4318
857.797	4417
857.931	4367
858.064	4356
858.197	4451
858.331	4394
858.464	4402
858.597	4280
858.731	4432
858.864	4481
858.997	4424
859.13	4542
859.263	4531
859.396	4584
859.529	4500
859.662	4497
859.795	4519
859.928	4615
860.061	4710
860.194	4771
860.327	4626
860.46	4660
860.592	4729
860.725	4744
860.858	4759
860.99	4698
861.123	4672
861.256	4668
861.388	4744
861.521	5505
861.653	4660
861.786	4687
861.918	4698
862.05	4793
862.183	4797
862.315	4908
862.447	4896
862.58	4919
862.712	4793
862.844	4774
862.976	4919
863.108	4892
863.24	5162
863.372	4862
863.504	4896
863.636	4923
863.768	4984
863.9	4927
864.032	4911
864.164	4976
864.296	5025
864.428	5109
864.559	5105
864.691	5121
864.823	5094
864.954	5094
865.086	5124
865.217	5170
865.349	5109
865.48	5128
865.612	5147
865.743	5246
865.875	5197
866.006	5197
866.137	5284
866.269	5227
866.4	5212
866.531	5288
866.662	5258
866.793	5269
866.924	5322
867.055	5368
867.186	5311
867.317	5345
867.448	5280
867.579	5402
867.71	5395
867.841	5345
867.972	5417
868.103	5448
868.233	5520
868.364	5478
868.495	5573
868.625	5623
868.756	5771
868.886	5630
869.017	5767
869.147	5851
869.278	5844
869.408	5790
869.539	5794
869.669	5958
869.799	5920
869.929	5973
870.06	5969
870.19	6148
870.32	6194
870.45	6300
870.58	6369
870.71	6414
870.84	6502
870.97	6418
871.1	6441
871.23	6642
871.36	6662
871.489	6646
871.619	6734
871.749	6753
871.879	6913
872.008	7015
872.138	7015
872.267	6989
872.397	6928
872.526	7027
872.656	7072
872.785	7175
872.915	7320
873.044	7472
873.173	7616
873.303	7643
873.432	7837
873.561	7871
873.69	7921
873.819	8001
873.948	8153
874.077	8256
874.206	8332
874.335	8484
874.464	8636
874.593	8811
874.722	8929
874.851	9074
874.979	9165
875.108	9351
875.237	9435
875.365	9481
875.494	9751
875.623	9827
875.751	9869
875.88	9975
876.008	10135
876.136	10291
876.265	10500
876.393	10748
876.521	10672
876.65	10790
876.778	10805
876.906	10873
877.034	10949
877.162	11117
877.29	11079
877.418	11193
877.546	11398
877.674	11501
877.802	11532
877.93	11493
878.058	11520
878.185	11638
878.313	11691
878.441	11771
878.568	11691
878.696	11756
878.824	11828
878.951	11996
879.079	11977
879.206	12121
879.333	12060
879.461	12026
879.588	11999
879.715	12049
879.842	12254
879.97	12068
880.097	11901
880.224	11874
880.351	11847
880.478	11939
880.605	11843
880.732	11889
880.859	11961
880.986	11809
881.112	11878
881.239	11779
881.366	11653
881.493	11638
881.619	11532
881.746	11535
881.872	11509
881.999	11501
882.125	11440
882.252	11554
882.378	11532
882.505	11425
882.631	11315
882.757	11296
882.883	11284
883.01	11216
883.136	11216
883.262	11109
883.388	11060
883.514	11174
883.64	11174
883.766	11048
883.892	10968
884.018	10987
884.143	10972
884.269	11071
884.395	10850
884.52	10687
884.646	10752
884.772	10748
884.897	10691
885.023	10702
885.148	10733
885.274	10774
885.399	10729
885.524	10588
885.65	10607
885.775	10588
885.9	10538
886.025	10558
886.15	10481
886.275	10398
886.4	10207
886.525	10459
886.65	10443
886.775	10341
886.9	10500
887.025	10558
887.149	10432
887.274	10238
887.399	10181
887.523	10207
887.648	10200
887.773	10135
887.897	10246
888.021	10219
888.146	10166
888.27	10188
888.395	10177
888.519	10048
888.643	10223
888.767	10204
888.891	10128
889.015	10063
889.139	10120
889.263	9907
889.387	10109
889.511	10078
889.635	10017
889.759	9907
889.883	9994
890.006	9998
890.13	10086
890.254	9930
890.377	9991
890.501	9793
890.624	9899
890.748	9956
890.871	9755
890.995	9667
891.118	9717
891.241	9774
891.364	9682
891.488	9808
891.611	9732
891.734	9736
891.857	9675
891.98	9656
892.103	9736
892.226	9751
892.349	9698
892.471	9545
892.594	9572
892.717	9622
892.839	9584
892.962	9629
893.085	9622
893.207	9542
893.33	9473
893.452	9557
893.575	9526
893.697	9473
893.819	9606
893.941	9622
894.064	9557
894.186	9458
894.308	9386
894.43	9530
894.552	9564
894.674	9564
894.796	9439
894.918	9428
895.04	9340
895.161	9332
895.283	9256
895.405	9211
895.526	9264
895.648	9211
895.769	9222
895.891	9222
896.012	9355
896.134	9218
896.255	9157
896.376	9161
896.498	9165
896.619	9104
896.74	9036
896.861	9055
896.982	9249
897.103	9340
897.224	9146
897.345	9058
897.466	8971
897.587	9032
897.708	9062
897.828	8941
897.949	8971
898.07	8899
898.19	8880
898.311	9013
898.431	8914
898.552	8883
898.672	8937
898.792	8883
898.913	8819
899.033	8819
899.153	8720
899.273	8606
899.393	8708
899.513	8724
899.633	8697
899.753	8686
899.873	8739
899.993	8781
900.113	8651
900.232	8724
900.352	8610
900.472	8594
900.591	8537
900.711	8606
900.83	8575
900.95	8693
901.069	8708
901.189	8625
901.308	8419
901.427	8377
901.546	8389
901.665	8473
901.784	8415
901.904	8336
902.023	8290
902.141	8282
902.26	8210
902.379	8263
902.498	8229
902.617	8214
902.735	8248
902.854	8267
902.973	8298
903.091	8096
903.21	8134
903.328	8199
903.446	8043
903.565	8058
903.683	8092
903.801	7989
903.919	8096
904.038	8130
904.156	8046
904.274	8096
904.392	8008
904.51	8016
904.627	8103
904.745	8123
904.863	8077
904.981	7883
905.098	7913
905.216	7868
905.334	7898
905.451	7883
905.569	7883
905.686	7883
905.803	7868
905.921	7795
906.038	7868
906.155	7731
906.272	7628
906.389	7681
906.506	7700
906.623	7605
906.74	7658
906.857	7502
906.974	7586
907.091	7628
907.208	7742
907.324	7655
907.441	7590
907.557	7415
907.674	7506
907.79	7369
907.907	7441
908.023	7483
908.139	7396
908.256	7419
908.372	7358
908.488	7373
908.604	7308
908.72	7244
908.836	7316
908.952	7209
909.068	7183
909.184	7282
909.3	7206
909.415	7293
909.531	7221
909.647	7171
909.762	7133
909.878	7107
909.993	7160
910.108	7118
910.224	7137
910.339	7137
910.454	7004
910.57	7034
910.685	7008
910.8	7213
910.915	7095
911.03	7004
911.145	6970
911.259	6840
911.374	6844
911.489	6806
911.604	6814
911.718	6734
911.833	6840
911.947	6631
912.062	6631
912.176	6715
912.291	6681
912.405	6692
912.519	6821
912.633	6821
912.748	6688
912.862	6703
912.976	6597
913.09	6540
913.204	6521
913.318	6620
913.431	6662
913.545	6635
913.659	6707
913.772	6639
913.886	6627
914	6536
914.113	6566
914.226	6639
914.34	6612
914.453	6422
914.566	6521
914.68	6513
914.793	6513
914.906	6380
915.019	6376
915.132	6357
915.245	6410
915.358	6391
915.47	6445
915.583	6464
915.696	6437
915.809	6517
915.921	6585
916.034	6388
916.146	6410
916.259	6357
916.371	6475
916.483	6483
916.595	6391
916.708	6380
916.82	6353
916.932	6391
917.044	6418
917.156	6357
917.268	6319
917.38	6334
917.491	6311
917.603	6365
917.715	6403
917.826	6414
917.938	6273
918.049	6254
918.161	6376
918.272	6391
918.384	6384
918.495	6350
918.606	6243
918.717	6216
918.828	6262
918.939	6304
919.05	6140
919.161	6243
919.272	6148
919.383	6167
919.494	6285
919.604	6407
919.715	6285
919.826	6182
919.936	6194
920.047	6292
920.157	6239
920.267	6448
920.378	6350
920.488	6289
920.598	6452
920.708	6544
920.818	6433
920.928	6460
921.038	6593
921.148	6582
921.258	6277
921.368	6273
921.477	6155
921.587	6129
921.697	6041
921.806	6213
921.916	6049
922.025	5992
922.134	5931
922.244	5859
922.353	5882
922.462	5844
922.571	5756
922.68	5657
922.789	5653
922.898	5729
923.007	5627
923.116	5661
923.224	5741
923.333	5699
923.442	5623
923.55	5547
923.659	5585
923.767	5653
923.876	5535
923.984	5566
924.092	5532
924.201	5577
924.309	5547
924.417	5558
924.525	5493
924.633	5474
924.741	6254
924.849	5368
924.956	5471
925.064	5345
925.172	5345
925.279	5334
925.387	5402
925.494	5349
925.602	5444
925.709	5376
925.816	5258
925.924	5273
926.031	5341
926.138	5296
926.245	5376
926.352	5231
926.459	5326
926.566	5318
926.673	5216
926.779	5162
926.886	5132
926.993	5010
927.099	4972
927.206	4968
927.312	4968
927.419	5025
927.525	4923
927.631	4980
927.737	4881
927.843	4885
927.95	4733
928.056	4824
928.162	4820
928.267	4824
928.373	5353
928.479	4843
928.585	4694
928.69	4714
928.796	4771
928.901	4748
929.007	4618
929.112	4675
929.218	4664
929.323	4599
929.428	4527
929.533	4645
929.638	4531
929.743	4493
929.848	4531
929.953	4519
930.058	4440
930.163	4306
930.267	4306
930.372	4447
930.477	4268
930.581	4489
930.685	4386
930.79	4246
930.894	4246
930.998	4238
931.103	4360
931.207	4097
931.311	4071
931.415	4013
931.519	3907
931.623	3926
