Data from glass_V78500241_129.txt Node
Date: Wed Sep 01 19:15:23 CST 2021
User: usil
Spectrometer: V785-0024
Trigger mode: 0
Integration Time (sec): 4.000000E-1
Scans to average: 1
Nonlinearity correction enabled: false
Boxcar width: 0
Storing dark spectrum: false
XAxis mode: Wavelengths
Number of Pixels in Spectrum: 1024
>>>>>Begin Spectral Data<<<<<
801.071	3743
801.214	3743
801.356	3736
801.499	3717
801.641	3732
801.783	3789
801.926	3873
802.068	3861
802.211	3861
802.353	3888
802.496	3835
802.638	3876
802.78	3915
802.923	3987
803.065	3876
803.208	3846
803.35	3968
803.492	3915
803.635	3926
803.777	3861
803.919	3884
804.061	4204
804.204	3983
804.346	3975
804.488	3937
804.63	4071
804.773	3979
804.915	4021
805.057	4120
805.199	4032
805.341	4135
805.483	4135
805.626	4139
805.768	4101
805.91	4223
806.052	4272
806.194	4234
806.336	4367
806.478	4268
806.62	4188
806.762	4204
806.904	4276
807.046	4322
807.188	4246
807.33	4188
807.472	4249
807.614	4238
807.756	4242
807.898	4242
808.04	4272
808.182	4253
808.324	4356
808.465	4436
808.607	4470
808.749	4440
808.891	4447
809.033	4512
809.174	4462
809.316	4299
809.458	4284
809.6	4166
809.741	4105
809.883	4162
810.025	4207
810.166	4257
810.308	4242
810.45	4211
810.591	4272
810.733	4303
810.875	4542
811.016	4828
811.158	5174
811.299	5239
811.441	5307
811.582	5079
811.724	4736
811.865	4531
812.007	4504
812.148	4447
812.29	4459
812.431	4417
812.573	4459
812.714	4363
812.855	4432
812.997	4402
813.138	4531
813.279	4421
813.421	4379
813.562	4383
813.703	4322
813.845	4333
813.986	4249
814.127	4249
814.268	4299
814.41	4314
814.551	4265
814.692	4352
814.833	4291
814.974	4299
815.115	4367
815.256	4265
815.397	4242
815.539	4337
815.68	4234
815.821	4215
815.962	4337
816.103	4306
816.244	4257
816.385	4249
816.526	4234
816.666	4238
816.807	4105
816.948	4177
817.089	4196
817.23	4120
817.371	4055
817.512	4029
817.653	4067
817.793	4055
817.934	4032
818.075	4105
818.216	4116
818.356	4101
818.497	4002
818.638	3930
818.778	3953
818.919	3907
819.06	3857
819.2	3915
819.341	3937
819.481	3873
819.622	3922
819.762	4025
819.903	3972
820.043	3880
820.184	3831
820.324	3827
820.465	3911
820.605	3903
820.746	3941
820.886	3797
821.026	3968
821.167	3941
821.307	3998
821.447	3975
821.588	3949
821.728	3934
821.868	3964
822.008	3896
822.149	3903
822.289	3915
822.429	3823
822.569	3804
822.709	3831
822.849	3720
822.99	3701
823.13	3759
823.27	3800
823.41	3728
823.55	3751
823.69	3762
823.83	3774
823.97	3705
824.11	3648
824.25	3622
824.389	3701
824.529	3694
824.669	3660
824.809	3720
824.949	3781
825.089	3770
825.228	3717
825.368	3629
825.508	3584
825.648	3606
825.787	3618
825.927	3660
826.067	3690
826.206	3705
826.346	3781
826.485	3865
826.625	3896
826.765	3953
826.904	3884
827.044	3637
827.183	3561
827.323	3462
827.462	3488
827.601	3454
827.741	3424
827.88	3424
828.02	3393
828.159	3473
828.298	3481
828.437	3519
828.577	3454
828.716	3595
828.855	3534
828.994	3397
829.134	3378
829.273	3389
829.412	3336
829.551	3359
829.69	3378
829.829	3462
829.968	3545
830.107	3431
830.246	3481
830.385	3397
830.524	3386
830.663	3298
830.802	3260
830.941	3161
831.08	3188
831.219	3302
831.357	3287
831.496	3462
831.635	3241
831.774	3218
831.913	3192
832.051	3157
832.19	3138
832.329	3218
832.467	3131
832.606	3089
832.744	3173
832.883	3138
833.022	3203
833.16	3291
833.299	3321
833.437	3355
833.576	3409
833.714	3409
833.852	3462
833.991	3492
834.129	3477
834.267	3469
834.406	3401
834.544	3409
834.682	3431
834.821	3428
834.959	3561
835.097	3435
835.235	3534
835.373	3507
835.511	3492
835.65	3450
835.788	3496
835.926	3397
836.064	3431
836.202	3435
836.34	3580
836.478	3656
836.615	3561
836.753	3660
836.891	3667
837.029	3656
837.167	3614
837.305	3587
837.443	3580
837.58	3534
837.718	3656
837.856	3580
837.993	3561
838.131	3629
838.269	3603
838.406	3610
838.544	3591
838.681	3481
838.819	3481
838.956	3359
839.094	3416
839.231	3469
839.369	3507
839.506	3728
839.643	3644
839.781	3526
839.918	3473
840.055	3553
840.193	3538
840.33	3557
840.467	3572
840.604	3610
840.742	3812
840.879	3549
841.016	3580
841.153	3610
841.29	3770
841.427	3720
841.564	3740
841.701	3770
841.838	3717
841.975	3679
842.112	3766
842.249	3648
842.385	3660
842.522	3808
842.659	3713
842.796	3679
842.933	3732
843.069	3717
843.206	3736
843.343	3831
843.479	3759
843.616	3804
843.752	3724
843.889	3717
844.025	3869
844.162	3720
844.298	3812
844.435	3785
844.571	3800
844.708	3880
844.844	4006
844.98	3991
845.117	4021
845.253	3972
845.389	3922
845.525	3903
845.661	4017
845.798	3918
845.934	3991
846.07	3953
846.206	4074
846.342	4147
846.478	4071
846.614	3983
846.75	3941
846.886	3941
847.022	4040
847.158	3975
847.294	3994
847.429	4059
847.565	4021
847.701	4230
847.837	3937
847.972	3899
848.108	3979
848.244	3983
848.379	3865
848.515	3800
848.65	3850
848.786	3842
848.921	3876
849.057	3918
849.192	3934
849.328	3930
849.463	3926
849.598	3876
849.734	3876
849.869	3812
850.004	3743
850.14	3816
850.275	3785
850.41	3755
850.545	3755
850.68	3781
850.815	3804
850.95	3800
851.085	3941
851.22	3869
851.355	3816
851.49	3823
851.625	3819
851.76	3800
851.895	3759
852.03	3732
852.165	3797
852.299	3861
852.434	3899
852.569	3896
852.703	3915
852.838	3937
852.973	4006
853.107	3975
853.242	3907
853.376	3880
853.511	3766
853.645	3804
853.78	4002
853.914	3918
854.048	3926
854.183	3888
854.317	3979
854.451	4101
854.585	4013
854.72	3949
854.854	4078
854.988	3945
855.122	4010
855.256	3918
855.39	4048
855.524	4135
855.658	4097
855.792	4158
855.926	4135
856.06	4169
856.194	4230
856.327	4215
856.461	4093
856.595	4177
856.729	4147
856.862	4306
856.996	4276
857.13	4303
857.263	4337
857.397	4348
857.53	4295
857.664	4405
857.797	4413
857.931	4447
858.064	4421
858.197	4489
858.331	4432
858.464	4379
858.597	4375
858.731	4459
858.864	4432
858.997	4432
859.13	4500
859.263	4565
859.396	4607
859.529	4558
859.662	4580
859.795	4558
859.928	4592
860.061	4702
860.194	4721
860.327	4653
860.46	4611
860.592	4740
860.725	4801
860.858	4786
860.99	4721
861.123	4706
861.256	4725
861.388	4755
861.521	5509
861.653	4729
861.786	4679
861.918	4778
862.05	4793
862.183	4835
862.315	4892
862.447	4934
862.58	4934
862.712	4835
862.844	4774
862.976	4908
863.108	4881
863.24	5265
863.372	4839
863.504	4885
863.636	4923
863.768	4961
863.9	4934
864.032	4930
864.164	4946
864.296	5079
864.428	5060
864.559	5159
864.691	5132
864.823	5147
864.954	5151
865.086	5143
865.217	5136
865.349	5159
865.48	5159
865.612	5277
865.743	5330
865.875	5216
866.006	5197
866.137	5227
866.269	5261
866.4	5269
866.531	5239
866.662	5242
866.793	5315
866.924	5334
867.055	5337
867.186	5337
867.317	5337
867.448	5368
867.579	5353
867.71	5330
867.841	5395
867.972	5524
868.103	5497
868.233	5482
868.364	5535
868.495	5547
868.625	5668
868.756	5824
868.886	5619
869.017	5741
869.147	5851
869.278	5885
869.408	5878
869.539	5836
869.669	5889
869.799	5931
869.929	6022
870.06	6064
870.19	6239
870.32	6186
870.45	6277
870.58	6403
870.71	6380
870.84	6475
870.97	6471
871.1	6410
871.23	6665
871.36	6681
871.489	6696
871.619	6779
871.749	6806
871.879	6837
872.008	7027
872.138	6966
872.267	6962
872.397	7027
872.526	7019
872.656	7080
872.785	7194
872.915	7324
873.044	7533
873.173	7563
873.303	7689
873.432	7704
873.561	7951
873.69	7925
873.819	7978
873.948	8172
874.077	8290
874.206	8324
874.335	8473
874.464	8678
874.593	8944
874.722	8975
874.851	9138
874.979	9253
875.108	9340
875.237	9450
875.365	9606
875.494	9766
875.623	9781
875.751	9766
875.88	10036
876.008	10124
876.136	10238
876.265	10462
876.393	10805
876.521	10683
876.65	10801
876.778	10854
876.906	10904
877.034	10927
877.162	11113
877.29	11113
877.418	11326
877.546	11292
877.674	11448
877.802	11539
877.93	11497
878.058	11615
878.185	11551
878.313	11661
878.441	11741
878.568	11653
878.696	11832
878.824	11821
878.951	11988
879.079	11999
879.206	12171
879.333	12068
879.461	11973
879.588	12129
879.715	12079
879.842	12213
879.97	12060
880.097	11901
880.224	11916
880.351	11790
880.478	11939
880.605	11859
880.732	11817
880.859	11927
880.986	11847
881.112	11802
881.239	11680
881.366	11649
881.493	11684
881.619	11604
881.746	11589
881.872	11520
881.999	11455
882.125	11505
882.252	11562
882.378	11486
882.505	11604
882.631	11425
882.757	11242
882.883	11349
883.01	11265
883.136	11197
883.262	11170
883.388	11052
883.514	11201
883.64	11193
883.766	11132
883.892	11060
884.018	10984
884.143	11022
884.269	11029
884.395	10942
884.52	10763
884.646	10797
884.772	10733
884.897	10615
885.023	10736
885.148	10736
885.274	10740
885.399	10618
885.524	10630
885.65	10592
885.775	10569
885.9	10527
886.025	10687
886.15	10607
886.275	10493
886.4	10405
886.525	10341
886.65	10341
886.775	10394
886.9	10455
887.025	10546
887.149	10363
887.274	10192
887.399	10249
887.523	10257
887.648	10139
887.773	10169
887.897	10337
888.021	10223
888.146	10105
888.27	10242
888.395	10128
888.519	10219
888.643	10196
888.767	10158
888.891	10097
889.015	10078
889.139	10048
889.263	9994
889.387	10017
889.511	10120
889.635	10090
889.759	9994
889.883	9991
890.006	10074
890.13	10120
890.254	10021
890.377	9968
890.501	9903
890.624	9831
890.748	9831
890.871	9804
890.995	9823
891.118	9778
891.241	9835
891.364	9797
891.488	9827
891.611	9789
891.734	9751
891.857	9816
891.98	9709
892.103	9751
892.226	9713
892.349	9671
892.471	9538
892.594	9644
892.717	9610
892.839	9610
892.962	9603
893.085	9549
893.207	9587
893.33	9549
893.452	9576
893.575	9637
893.697	9485
893.819	9595
893.941	9660
894.064	9572
894.186	9408
894.308	9450
894.43	9496
894.552	9538
894.674	9519
894.796	9359
894.918	9374
895.04	9363
895.161	9348
895.283	9348
895.405	9253
895.526	9222
895.648	9268
895.769	9268
895.891	9233
896.012	9237
896.134	9279
896.255	9180
896.376	9119
896.498	9161
896.619	9165
896.74	9081
896.861	9127
896.982	9264
897.103	9321
897.224	9169
897.345	9100
897.466	9017
897.587	9043
897.708	9085
897.828	9070
897.949	8918
898.07	8868
898.19	8944
898.311	9058
898.431	8979
898.552	8941
898.672	8956
898.792	8944
898.913	8823
899.033	8792
899.153	8739
899.273	8674
899.393	8727
899.513	8735
899.633	8781
899.753	8773
899.873	8667
899.993	8663
900.113	8632
900.232	8712
900.352	8735
900.472	8651
900.591	8571
900.711	8552
900.83	8598
900.95	8705
901.069	8678
901.189	8613
901.308	8503
901.427	8377
901.546	8454
901.665	8473
901.784	8526
901.904	8389
902.023	8362
902.141	8298
902.26	8191
902.379	8301
902.498	8229
902.617	8271
902.735	8366
902.854	8305
902.973	8256
903.091	8183
903.21	8123
903.328	8142
903.446	8119
903.565	8168
903.683	8035
903.801	8111
903.919	8138
904.038	8115
904.156	8062
904.274	8157
904.392	8027
904.51	8012
904.627	8043
904.745	8100
904.863	8069
904.981	8008
905.098	7864
905.216	7951
905.334	7913
905.451	7879
905.569	7852
905.686	7883
905.803	7906
905.921	7833
906.038	7849
906.155	7849
906.272	7674
906.389	7757
906.506	7700
906.623	7693
906.74	7575
906.857	7552
906.974	7563
907.091	7712
907.208	7715
907.324	7647
907.441	7609
907.557	7480
907.674	7480
907.79	7377
907.907	7415
908.023	7396
908.139	7392
908.256	7438
908.372	7400
908.488	7335
908.604	7312
908.72	7263
908.836	7293
908.952	7263
909.068	7202
909.184	7358
909.3	7232
909.415	7270
909.531	7285
909.647	7133
909.762	7129
909.878	7107
909.993	7103
910.108	7126
910.224	7129
910.339	7099
910.454	7004
910.57	7057
910.685	6973
910.8	7141
910.915	7061
911.03	7088
911.145	6814
911.259	6932
911.374	6939
911.489	6840
911.604	6772
911.718	6757
911.833	6703
911.947	6692
912.062	6604
912.176	6703
912.291	6688
912.405	6730
912.519	6871
912.633	6897
912.748	6741
912.862	6726
912.976	6654
913.09	6494
913.204	6582
913.318	6662
913.431	6642
913.545	6749
913.659	6665
913.772	6688
913.886	6593
914	6509
914.113	6650
914.226	6662
914.34	6654
914.453	6502
914.566	6635
914.68	6616
914.793	6525
914.906	6448
915.019	6403
915.132	6414
915.245	6467
915.358	6479
915.47	6445
915.583	6506
915.696	6517
915.809	6620
915.921	6593
916.034	6422
916.146	6448
916.259	6353
916.371	6479
916.483	6418
916.595	6418
916.708	6422
916.82	6407
916.932	6372
917.044	6410
917.156	6384
917.268	6277
917.38	6391
917.491	6296
917.603	6327
917.715	6456
917.826	6369
917.938	6350
918.049	6224
918.161	6323
918.272	6464
918.384	6479
918.495	6338
918.606	6292
918.717	6213
918.828	6285
918.939	6323
919.05	6277
919.161	6300
919.272	6171
919.383	6220
919.494	6273
919.604	6422
919.715	6319
919.826	6270
919.936	6292
920.047	6350
920.157	6331
920.267	6479
920.378	6334
920.488	6300
920.598	6486
920.708	6536
920.818	6540
920.928	6483
921.038	6650
921.148	6662
921.258	6407
921.368	6304
921.477	6201
921.587	6163
921.697	6041
921.806	6220
921.916	6121
922.025	5977
922.134	5992
922.244	5885
922.353	5988
922.462	5855
922.571	5832
922.68	5695
922.789	5718
922.898	5695
923.007	5672
923.116	5733
923.224	5676
923.333	5649
923.442	5592
923.55	5619
923.659	5589
923.767	5611
923.876	5554
923.984	5558
924.092	5539
924.201	5592
924.309	5570
924.417	5478
924.525	5474
924.633	5520
924.741	6152
924.849	5402
924.956	5486
925.064	5376
925.172	5269
925.279	5345
925.387	5406
925.494	5341
925.602	5414
925.709	5379
925.816	5280
925.924	5299
926.031	5395
926.138	5273
926.245	5349
926.352	5201
926.459	5376
926.566	5315
926.673	5174
926.779	5147
926.886	5102
926.993	5029
927.099	5003
927.206	5006
927.312	4957
927.419	5029
927.525	5025
927.631	5010
927.737	4866
927.843	4915
927.95	4786
928.056	4801
928.162	4824
928.267	4892
928.373	5307
928.479	4828
928.585	4691
928.69	4790
928.796	4771
928.901	4679
929.007	4660
929.112	4694
929.218	4656
929.323	4611
929.428	4596
929.533	4630
929.638	4500
929.743	4523
929.848	4584
929.953	4519
930.058	4440
930.163	4398
930.267	4329
930.372	4443
930.477	4337
930.581	4474
930.685	4383
930.79	4303
930.894	4306
930.998	4268
931.103	4424
931.207	4112
931.311	4154
931.415	4055
931.519	3892
931.623	3949
