Data from glass_V78500241_805.txt Node
Date: Wed Sep 01 19:20:04 CST 2021
User: usil
Spectrometer: V785-0024
Trigger mode: 0
Integration Time (sec): 4.000000E-1
Scans to average: 1
Nonlinearity correction enabled: false
Boxcar width: 0
Storing dark spectrum: false
XAxis mode: Wavelengths
Number of Pixels in Spectrum: 1024
>>>>>Begin Spectral Data<<<<<
801.071	3720
801.214	3778
801.356	3717
801.499	3759
801.641	3720
801.783	3819
801.926	3892
802.068	3846
802.211	3876
802.353	3915
802.496	3850
802.638	3884
802.78	3911
802.923	3960
803.065	3911
803.208	3827
803.35	3911
803.492	3937
803.635	3953
803.777	3808
803.919	3896
804.061	4139
804.204	3949
804.346	3941
804.488	3892
804.63	3998
804.773	3937
804.915	4006
805.057	4093
805.199	4101
805.341	4097
805.483	4150
805.626	4162
805.768	4150
805.91	4230
806.052	4230
806.194	4215
806.336	4371
806.478	4268
806.62	4185
806.762	4246
806.904	4246
807.046	4280
807.188	4257
807.33	4188
807.472	4257
807.614	4204
807.756	4287
807.898	4242
808.04	4238
808.182	4318
808.324	4310
808.465	4352
808.607	4470
808.749	4436
808.891	4493
809.033	4489
809.174	4413
809.316	4261
809.458	4268
809.6	4166
809.741	4177
809.883	4120
810.025	4211
810.166	4238
810.308	4223
810.45	4257
810.591	4253
810.733	4295
810.875	4504
811.016	4824
811.158	5155
811.299	5261
811.441	5288
811.582	5048
811.724	4725
811.865	4485
812.007	4447
812.148	4436
812.29	4447
812.431	4413
812.573	4432
812.714	4413
812.855	4432
812.997	4413
813.138	4508
813.279	4379
813.421	4402
813.562	4360
813.703	4383
813.845	4325
813.986	4246
814.127	4238
814.268	4253
814.41	4295
814.551	4344
814.692	4325
814.833	4291
814.974	4325
815.115	4333
815.256	4253
815.397	4230
815.539	4211
815.68	4230
815.821	4169
815.962	4287
816.103	4318
816.244	4223
816.385	4219
816.526	4280
816.666	4234
816.807	4124
816.948	4196
817.089	4162
817.23	4086
817.371	4086
817.512	4040
817.653	4074
817.793	4071
817.934	4078
818.075	4093
818.216	4078
818.356	4116
818.497	4002
818.638	3926
818.778	3922
818.919	3888
819.06	3873
819.2	3926
819.341	3888
819.481	3873
819.622	3884
819.762	4044
819.903	3979
820.043	3899
820.184	3808
820.324	3827
820.465	3873
820.605	3888
820.746	3880
820.886	3797
821.026	3915
821.167	3907
821.307	4013
821.447	4021
821.588	3983
821.728	3953
821.868	3968
822.008	3865
822.149	3941
822.289	3937
822.429	3747
822.569	3804
822.709	3823
822.849	3694
822.99	3717
823.13	3762
823.27	3785
823.41	3743
823.55	3720
823.69	3709
823.83	3770
823.97	3660
824.11	3629
824.25	3603
824.389	3644
824.529	3690
824.669	3648
824.809	3751
824.949	3732
825.089	3720
825.228	3660
825.368	3618
825.508	3572
825.648	3591
825.787	3591
825.927	3625
826.067	3694
826.206	3686
826.346	3789
826.485	3842
826.625	3907
826.765	3987
826.904	3812
827.044	3629
827.183	3557
827.323	3469
827.462	3488
827.601	3485
827.741	3416
827.88	3473
828.02	3450
828.159	3469
828.298	3466
828.437	3564
828.577	3466
828.716	3606
828.855	3485
828.994	3370
829.134	3409
829.273	3424
829.412	3340
829.551	3389
829.69	3359
829.829	3450
829.968	3507
830.107	3458
830.246	3462
830.385	3412
830.524	3397
830.663	3302
830.802	3260
830.941	3222
831.08	3207
831.219	3268
831.357	3275
831.496	3458
831.635	3275
831.774	3226
831.913	3218
832.051	3131
832.19	3150
832.329	3214
832.467	3157
832.606	3127
832.744	3195
832.883	3180
833.022	3214
833.16	3279
833.299	3336
833.437	3306
833.576	3367
833.714	3389
833.852	3462
833.991	3420
834.129	3511
834.267	3462
834.406	3431
834.544	3447
834.682	3428
834.821	3424
834.959	3568
835.097	3458
835.235	3538
835.373	3488
835.511	3523
835.65	3450
835.788	3526
835.926	3431
836.064	3397
836.202	3386
836.34	3580
836.478	3644
836.615	3553
836.753	3599
836.891	3625
837.029	3610
837.167	3629
837.305	3591
837.443	3534
837.58	3515
837.718	3614
837.856	3576
837.993	3549
838.131	3584
838.269	3553
838.406	3599
838.544	3610
838.681	3507
838.819	3481
838.956	3378
839.094	3393
839.231	3428
839.369	3519
839.506	3724
839.643	3629
839.781	3542
839.918	3466
840.055	3564
840.193	3519
840.33	3496
840.467	3553
840.604	3641
840.742	3846
840.879	3584
841.016	3595
841.153	3603
841.29	3762
841.427	3724
841.564	3732
841.701	3720
841.838	3720
841.975	3679
842.112	3747
842.249	3641
842.385	3660
842.522	3876
842.659	3667
842.796	3728
842.933	3720
843.069	3686
843.206	3740
843.343	3816
843.479	3800
843.616	3819
843.752	3663
843.889	3720
844.025	3896
844.162	3743
844.298	3880
844.435	3823
844.571	3827
844.708	3903
844.844	3983
844.98	4093
845.117	4036
845.253	3934
845.389	3907
845.525	3968
845.661	3964
845.798	3941
845.934	4017
846.07	3956
846.206	4086
846.342	4143
846.478	4090
846.614	3956
846.75	3960
846.886	3937
847.022	4067
847.158	3956
847.294	3998
847.429	4086
847.565	4048
847.701	4215
847.837	3956
847.972	3880
848.108	3979
848.244	3975
848.379	3876
848.515	3857
848.65	3808
848.786	3865
848.921	3899
849.057	3934
849.192	3983
849.328	3880
849.463	3937
849.598	3911
849.734	3945
849.869	3835
850.004	3812
850.14	3823
850.275	3808
850.41	3736
850.545	3747
850.68	3785
850.815	3804
850.95	3827
851.085	3964
851.22	3922
851.355	3838
851.49	3785
851.625	3808
851.76	3816
851.895	3747
852.03	3762
852.165	3797
852.299	3861
852.434	3926
852.569	3888
852.703	3918
852.838	3960
852.973	4029
853.107	4013
853.242	3896
853.376	3903
853.511	3804
853.645	3865
853.78	3964
853.914	3953
854.048	3926
854.183	3899
854.317	3945
854.451	4090
854.585	3964
854.72	3964
854.854	4078
854.988	3941
855.122	4036
855.256	3964
855.39	4036
855.524	4097
855.658	4192
855.792	4120
855.926	4196
856.06	4166
856.194	4211
856.327	4128
856.461	4131
856.595	4154
856.729	4207
856.862	4310
856.996	4257
857.13	4333
857.263	4367
857.397	4363
857.53	4284
857.664	4363
857.797	4447
857.931	4440
858.064	4402
858.197	4428
858.331	4417
858.464	4390
858.597	4379
858.731	4466
858.864	4455
858.997	4470
859.13	4500
859.263	4554
859.396	4603
859.529	4554
859.662	4550
859.795	4558
859.928	4626
860.061	4649
860.194	4736
860.327	4714
860.46	4641
860.592	4725
860.725	4740
860.858	4767
860.99	4706
861.123	4672
861.256	4729
861.388	4774
861.521	5433
861.653	4733
861.786	4714
861.918	4759
862.05	4828
862.183	4843
862.315	4850
862.447	4927
862.58	4946
862.712	4809
862.844	4782
862.976	4885
863.108	4877
863.24	5242
863.372	4862
863.504	4904
863.636	4904
863.768	4980
863.9	4976
864.032	4923
864.164	4961
864.296	5022
864.428	5140
864.559	5128
864.691	5124
864.823	5113
864.954	5151
865.086	5193
865.217	5170
865.349	5170
865.48	5140
865.612	5185
865.743	5307
865.875	5212
866.006	5239
866.137	5280
866.269	5303
866.4	5242
866.531	5246
866.662	5258
866.793	5239
866.924	5288
867.055	5376
867.186	5372
867.317	5326
867.448	5280
867.579	5433
867.71	5307
867.841	5376
867.972	5478
868.103	5490
868.233	5509
868.364	5520
868.495	5528
868.625	5623
868.756	5805
868.886	5672
869.017	5760
869.147	5836
869.278	5851
869.408	5836
869.539	5866
869.669	5977
869.799	5893
869.929	6045
870.06	6076
870.19	6194
870.32	6247
870.45	6251
870.58	6372
870.71	6391
870.84	6486
870.97	6460
871.1	6486
871.23	6700
871.36	6741
871.489	6639
871.619	6745
871.749	6875
871.879	6810
872.008	6985
872.138	6996
872.267	6977
872.397	6993
872.526	7038
872.656	7072
872.785	7179
872.915	7419
873.044	7556
873.173	7544
873.303	7651
873.432	7788
873.561	7871
873.69	7917
873.819	8058
873.948	8145
874.077	8218
874.206	8370
874.335	8450
874.464	8678
874.593	8925
874.722	9017
874.851	9058
874.979	9294
875.108	9386
875.237	9386
875.365	9389
875.494	9618
875.623	9846
875.751	9884
875.88	9964
876.008	10154
876.136	10261
876.265	10527
876.393	10740
876.521	10664
876.65	10801
876.778	10858
876.906	10984
877.034	10976
877.162	11064
877.29	11098
877.418	11334
877.546	11353
877.674	11383
877.802	11520
877.93	11554
878.058	11581
878.185	11589
878.313	11737
878.441	11786
878.568	11680
878.696	11729
878.824	11813
878.951	11969
879.079	11961
879.206	12152
879.333	12007
879.461	11988
879.588	12057
879.715	12121
879.842	12228
879.97	12030
880.097	11954
880.224	11878
880.351	11969
880.478	11866
880.605	11824
880.732	11916
880.859	11973
880.986	11748
881.112	11821
881.239	11805
881.366	11710
881.493	11585
881.619	11539
881.746	11520
881.872	11543
881.999	11532
882.125	11516
882.252	11554
882.378	11539
882.505	11611
882.631	11368
882.757	11277
882.883	11280
883.01	11254
883.136	11170
883.262	11121
883.388	11090
883.514	11208
883.64	11193
883.766	11136
883.892	10995
884.018	11086
884.143	11094
884.269	11048
884.395	10881
884.52	10843
884.646	10786
884.772	10725
884.897	10603
885.023	10691
885.148	10698
885.274	10763
885.399	10675
885.524	10592
885.65	10588
885.775	10675
885.9	10527
886.025	10592
886.15	10500
886.275	10402
886.4	10424
886.525	10360
886.65	10352
886.775	10337
886.9	10481
887.025	10535
887.149	10409
887.274	10238
887.399	10185
887.523	10124
887.648	10147
887.773	10173
887.897	10234
888.021	10177
888.146	10147
888.27	10227
888.395	10306
888.519	10257
888.643	10143
888.767	10192
888.891	10067
889.015	9960
889.139	10105
889.263	10063
889.387	10082
889.511	10139
889.635	10067
889.759	9964
889.883	9994
890.006	10010
890.13	10074
890.254	9964
890.377	10006
890.501	9838
890.624	9884
890.748	9907
890.871	9770
890.995	9720
891.118	9762
891.241	9717
891.364	9762
891.488	9827
891.611	9770
891.734	9823
891.857	9846
891.98	9732
892.103	9816
892.226	9778
892.349	9667
892.471	9500
892.594	9538
892.717	9667
892.839	9629
892.962	9549
893.085	9709
893.207	9606
893.33	9519
893.452	9515
893.575	9523
893.697	9553
893.819	9561
893.941	9614
894.064	9614
894.186	9431
894.308	9424
894.43	9500
894.552	9564
894.674	9469
894.796	9435
894.918	9374
895.04	9317
895.161	9393
895.283	9408
895.405	9249
895.526	9214
895.648	9253
895.769	9192
895.891	9283
896.012	9321
896.134	9260
896.255	9199
896.376	9112
896.498	9127
896.619	9127
896.74	9093
896.861	9123
896.982	9268
897.103	9332
897.224	9184
897.345	9108
897.466	8994
897.587	8994
897.708	9089
897.828	9036
897.949	8941
898.07	8868
898.19	8963
898.311	8979
898.431	8963
898.552	8891
898.672	8975
898.792	8960
898.913	8982
899.033	8868
899.153	8724
899.273	8724
899.393	8701
899.513	8739
899.633	8727
899.753	8716
899.873	8659
899.993	8746
900.113	8705
900.232	8754
900.352	8651
900.472	8606
900.591	8621
900.711	8541
900.83	8568
900.95	8689
901.069	8743
901.189	8632
901.308	8438
901.427	8366
901.546	8431
901.665	8488
901.784	8507
901.904	8347
902.023	8396
902.141	8187
902.26	8229
902.379	8301
902.498	8130
902.617	8263
902.735	8256
902.854	8290
902.973	8214
903.091	8111
903.21	8164
903.328	8138
903.446	8142
903.565	8069
903.683	8115
903.801	8073
903.919	8096
904.038	8081
904.156	8035
904.274	8100
904.392	8012
904.51	8039
904.627	8096
904.745	8031
904.863	8069
904.981	7959
905.098	7875
905.216	7921
905.334	7944
905.451	7909
905.569	7856
905.686	7906
905.803	7951
905.921	7795
906.038	7898
906.155	7746
906.272	7719
906.389	7712
906.506	7594
906.623	7632
906.74	7590
906.857	7552
906.974	7601
907.091	7670
907.208	7750
907.324	7647
907.441	7563
907.557	7480
907.674	7514
907.79	7460
907.907	7441
908.023	7491
908.139	7510
908.256	7362
908.372	7400
908.488	7316
908.604	7289
908.72	7209
908.836	7289
908.952	7247
909.068	7251
909.184	7282
909.3	7289
909.415	7285
909.531	7266
909.647	7080
909.762	7152
909.878	7137
909.993	7179
910.108	7099
910.224	7118
910.339	7122
910.454	7069
910.57	7027
910.685	6951
910.8	7099
910.915	7095
911.03	7053
911.145	6977
911.259	6863
911.374	6958
911.489	6875
911.604	6871
911.718	6730
911.833	6738
911.947	6650
912.062	6574
912.176	6738
912.291	6734
912.405	6753
912.519	6844
912.633	6875
912.748	6696
912.862	6700
912.976	6620
913.09	6578
913.204	6582
913.318	6627
913.431	6677
913.545	6719
913.659	6673
913.772	6681
913.886	6540
914	6589
914.113	6616
914.226	6654
914.34	6555
914.453	6475
914.566	6604
914.68	6521
914.793	6540
914.906	6483
915.019	6407
915.132	6353
915.245	6433
915.358	6429
915.47	6502
915.583	6467
915.696	6506
915.809	6528
915.921	6532
916.034	6407
916.146	6429
916.259	6422
916.371	6528
916.483	6452
916.595	6445
916.708	6437
916.82	6407
916.932	6445
917.044	6388
917.156	6448
917.268	6304
917.38	6350
917.491	6338
917.603	6308
917.715	6380
917.826	6380
917.938	6353
918.049	6308
918.161	6353
918.272	6433
918.384	6437
918.495	6353
918.606	6251
918.717	6213
918.828	6285
918.939	6281
919.05	6224
919.161	6292
919.272	6106
919.383	6136
919.494	6346
919.604	6437
919.715	6334
919.826	6194
919.936	6247
920.047	6338
920.157	6304
920.267	6471
920.378	6369
920.488	6338
920.598	6441
920.708	6555
920.818	6502
920.928	6452
921.038	6635
921.148	6662
921.258	6388
921.368	6289
921.477	6209
921.587	6197
921.697	6095
921.806	6205
921.916	6072
922.025	5942
922.134	5973
922.244	5931
922.353	5973
922.462	5866
922.571	5817
922.68	5741
922.789	5718
922.898	5722
923.007	5680
923.116	5726
923.224	5688
923.333	5657
923.442	5566
923.55	5562
923.659	5585
923.767	5600
923.876	5573
923.984	5642
924.092	5535
924.201	5547
924.309	5543
924.417	5623
924.525	5505
924.633	5547
924.741	6125
924.849	5425
924.956	5501
925.064	5372
925.172	5303
925.279	5303
925.387	5368
925.494	5326
925.602	5402
925.709	5357
925.816	5254
925.924	5315
926.031	5360
926.138	5299
926.245	5341
926.352	5239
926.459	5307
926.566	5330
926.673	5170
926.779	5159
926.886	5166
926.993	5041
927.099	5018
927.206	5025
927.312	4965
927.419	5037
927.525	5003
927.631	4984
927.737	4946
927.843	4854
927.95	4740
928.056	4854
928.162	4892
928.267	4862
928.373	5383
928.479	4870
928.585	4656
928.69	4786
928.796	4782
928.901	4706
929.007	4611
929.112	4672
929.218	4618
929.323	4611
929.428	4584
929.533	4714
929.638	4527
929.743	4512
929.848	4580
929.953	4489
930.058	4443
930.163	4371
930.267	4303
930.372	4470
930.477	4356
930.581	4504
930.685	4386
930.79	4291
930.894	4257
930.998	4268
931.103	4383
931.207	4166
931.311	4055
931.415	4032
931.519	3960
931.623	3972
