Data from glass_V78500241_2213.txt Node
Date: Wed Sep 01 19:29:50 CST 2021
User: usil
Spectrometer: V785-0024
Trigger mode: 0
Integration Time (sec): 4.000000E-1
Scans to average: 1
Nonlinearity correction enabled: false
Boxcar width: 0
Storing dark spectrum: false
XAxis mode: Wavelengths
Number of Pixels in Spectrum: 1024
>>>>>Begin Spectral Data<<<<<
801.071	3762
801.214	3720
801.356	3679
801.499	3732
801.641	3747
801.783	3759
801.926	3846
802.068	3819
802.211	3865
802.353	3918
802.496	3789
802.638	3896
802.78	3899
802.923	3926
803.065	3854
803.208	3816
803.35	3892
803.492	3896
803.635	3888
803.777	3759
803.919	3926
804.061	4158
804.204	3918
804.346	3937
804.488	3899
804.63	4063
804.773	3953
804.915	4010
805.057	4131
805.199	4021
805.341	4055
805.483	4173
805.626	4120
805.768	4105
805.91	4230
806.052	4242
806.194	4181
806.336	4291
806.478	4166
806.62	4204
806.762	4158
806.904	4253
807.046	4333
807.188	4150
807.33	4158
807.472	4200
807.614	4185
807.756	4223
807.898	4215
808.04	4238
808.182	4291
808.324	4322
808.465	4386
808.607	4478
808.749	4478
808.891	4462
809.033	4531
809.174	4413
809.316	4234
809.458	4246
809.6	4112
809.741	4143
809.883	4143
810.025	4200
810.166	4188
810.308	4188
810.45	4219
810.591	4219
810.733	4265
810.875	4481
811.016	4797
811.158	5071
811.299	5277
811.441	5254
811.582	5090
811.724	4714
811.865	4478
812.007	4447
812.148	4459
812.29	4440
812.431	4390
812.573	4402
812.714	4333
812.855	4440
812.997	4390
813.138	4508
813.279	4398
813.421	4379
813.562	4348
813.703	4352
813.845	4363
813.986	4234
814.127	4200
814.268	4242
814.41	4325
814.551	4268
814.692	4325
814.833	4223
814.974	4291
815.115	4299
815.256	4219
815.397	4238
815.539	4257
815.68	4169
815.821	4166
815.962	4314
816.103	4303
816.244	4207
816.385	4215
816.526	4272
816.666	4211
816.807	4120
816.948	4162
817.089	4124
817.23	4128
817.371	4036
817.512	4048
817.653	4040
817.793	4032
817.934	4029
818.075	4101
818.216	4086
818.356	4040
818.497	3964
818.638	3892
818.778	3937
818.919	3892
819.06	3869
819.2	3915
819.341	3827
819.481	3827
819.622	3922
819.762	4002
819.903	3953
820.043	3838
820.184	3854
820.324	3831
820.465	3865
820.605	3865
820.746	3835
820.886	3804
821.026	3937
821.167	3922
821.307	3983
821.447	3960
821.588	3903
821.728	3907
821.868	3934
822.008	3865
822.149	3880
822.289	3918
822.429	3747
822.569	3759
822.709	3778
822.849	3644
822.99	3717
823.13	3781
823.27	3793
823.41	3698
823.55	3705
823.69	3770
823.83	3690
823.97	3679
824.11	3614
824.25	3637
824.389	3633
824.529	3667
824.669	3622
824.809	3698
824.949	3759
825.089	3740
825.228	3701
825.368	3568
825.508	3542
825.648	3549
825.787	3542
825.927	3587
826.067	3618
826.206	3629
826.346	3789
826.485	3842
826.625	3873
826.765	3915
826.904	3804
827.044	3599
827.183	3530
827.323	3420
827.462	3473
827.601	3439
827.741	3424
827.88	3428
828.02	3401
828.159	3462
828.298	3469
828.437	3526
828.577	3469
828.716	3595
828.855	3485
828.994	3412
829.134	3382
829.273	3382
829.412	3351
829.551	3302
829.69	3393
829.829	3447
829.968	3500
830.107	3428
830.246	3435
830.385	3367
830.524	3336
830.663	3291
830.802	3214
830.941	3199
831.08	3199
831.219	3260
831.357	3275
831.496	3416
831.635	3260
831.774	3173
831.913	3180
832.051	3146
832.19	3119
832.329	3188
832.467	3146
832.606	3112
832.744	3176
832.883	3214
833.022	3214
833.16	3260
833.299	3275
833.437	3302
833.576	3363
833.714	3405
833.852	3409
833.991	3424
834.129	3462
834.267	3416
834.406	3401
834.544	3397
834.682	3397
834.821	3386
834.959	3526
835.097	3412
835.235	3523
835.373	3466
835.511	3488
835.65	3443
835.788	3477
835.926	3382
836.064	3344
836.202	3401
836.34	3549
836.478	3606
836.615	3515
836.753	3572
836.891	3618
837.029	3614
837.167	3568
837.305	3564
837.443	3530
837.58	3481
837.718	3610
837.856	3526
837.993	3538
838.131	3595
838.269	3568
838.406	3603
838.544	3564
838.681	3450
838.819	3458
838.956	3393
839.094	3367
839.231	3458
839.369	3473
839.506	3705
839.643	3603
839.781	3481
839.918	3466
840.055	3530
840.193	3538
840.33	3534
840.467	3538
840.604	3629
840.742	3804
840.879	3549
841.016	3587
841.153	3584
841.29	3705
841.427	3713
841.564	3652
841.701	3736
841.838	3698
841.975	3633
842.112	3686
842.249	3644
842.385	3599
842.522	3816
842.659	3679
842.796	3644
842.933	3686
843.069	3717
843.206	3720
843.343	3793
843.479	3785
843.616	3793
843.752	3717
843.889	3686
844.025	3842
844.162	3686
844.298	3781
844.435	3759
844.571	3785
844.708	3941
844.844	3998
844.98	3987
845.117	4032
845.253	3899
845.389	3918
845.525	3926
845.661	3983
845.798	3907
845.934	3956
846.07	3949
846.206	4059
846.342	4105
846.478	4029
846.614	3964
846.75	3884
846.886	3907
847.022	3998
847.158	3956
847.294	3987
847.429	3960
847.565	4002
847.701	4230
847.837	3831
847.972	3827
848.108	3960
848.244	3941
848.379	3800
848.515	3770
848.65	3800
848.786	3861
848.921	3884
849.057	3972
849.192	3926
849.328	3869
849.463	3899
849.598	3892
849.734	3846
849.869	3800
850.004	3804
850.14	3797
850.275	3778
850.41	3732
850.545	3740
850.68	3743
850.815	3842
850.95	3812
851.085	3953
851.22	3888
851.355	3831
851.49	3846
851.625	3751
851.76	3781
851.895	3713
852.03	3728
852.165	3800
852.299	3804
852.434	3896
852.569	3865
852.703	3876
852.838	3960
852.973	3956
853.107	3964
853.242	3884
853.376	3823
853.511	3781
853.645	3861
853.78	3918
853.914	3911
854.048	3892
854.183	3892
854.317	3930
854.451	4017
854.585	3941
854.72	3930
854.854	4055
854.988	3915
855.122	4021
855.256	3896
855.39	3964
855.524	4112
855.658	4097
855.792	4135
855.926	4120
856.06	4154
856.194	4177
856.327	4158
856.461	4101
856.595	4173
856.729	4166
856.862	4238
856.996	4246
857.13	4344
857.263	4310
857.397	4375
857.53	4280
857.664	4352
857.797	4379
857.931	4379
858.064	4356
858.197	4428
858.331	4375
858.464	4360
858.597	4363
858.731	4455
858.864	4402
858.997	4481
859.13	4504
859.263	4478
859.396	4573
859.529	4512
859.662	4577
859.795	4512
859.928	4561
860.061	4691
860.194	4725
860.327	4637
860.46	4588
860.592	4729
860.725	4736
860.858	4828
860.99	4740
861.123	4714
861.256	4702
861.388	4771
861.521	5425
861.653	4725
861.786	4672
861.918	4774
862.05	4805
862.183	4782
862.315	4896
862.447	4934
862.58	4892
862.712	4805
862.844	4721
862.976	4908
863.108	4839
863.24	5174
863.372	4847
863.504	4866
863.636	4847
863.768	4976
863.9	4949
864.032	4961
864.164	4908
864.296	5025
864.428	5083
864.559	5060
864.691	5079
864.823	5124
864.954	5071
865.086	5094
865.217	5109
865.349	5079
865.48	5155
865.612	5189
865.743	5246
865.875	5193
866.006	5220
866.137	5239
866.269	5280
866.4	5220
866.531	5250
866.662	5269
866.793	5250
866.924	5231
867.055	5318
867.186	5334
867.317	5345
867.448	5349
867.579	5387
867.71	5376
867.841	5334
867.972	5398
868.103	5440
868.233	5490
868.364	5467
868.495	5547
868.625	5638
868.756	5745
868.886	5680
869.017	5710
869.147	5882
869.278	5882
869.408	5794
869.539	5805
869.669	5870
869.799	5893
869.929	5969
870.06	6007
870.19	6194
870.32	6220
870.45	6235
870.58	6331
870.71	6376
870.84	6448
870.97	6399
871.1	6456
871.23	6608
871.36	6692
871.489	6692
871.619	6738
871.749	6848
871.879	6837
872.008	6966
872.138	6909
872.267	7004
872.397	6966
872.526	7023
872.656	7133
872.785	7183
872.915	7388
873.044	7499
873.173	7544
873.303	7700
873.432	7769
873.561	7837
873.69	7906
873.819	8031
873.948	8210
874.077	8286
874.206	8305
874.335	8415
874.464	8594
874.593	8887
874.722	8914
874.851	9077
874.979	9226
875.108	9378
875.237	9435
875.365	9435
875.494	9648
875.623	9778
875.751	9854
875.88	10002
876.008	10177
876.136	10242
876.265	10478
876.393	10660
876.521	10763
876.65	10801
876.778	10828
876.906	10873
877.034	11029
877.162	11083
877.29	11197
877.418	11265
877.546	11421
877.674	11448
877.802	11516
877.93	11596
878.058	11516
878.185	11585
878.313	11684
878.441	11680
878.568	11634
878.696	11802
878.824	11897
878.951	11984
879.079	12057
879.206	12095
879.333	12098
879.461	12022
879.588	12026
879.715	12060
879.842	12239
879.97	11996
880.097	11870
880.224	11824
880.351	11893
880.478	11863
880.605	11726
880.732	11779
880.859	12034
880.986	11893
881.112	11874
881.239	11729
881.366	11657
881.493	11657
881.619	11532
881.746	11570
881.872	11577
881.999	11486
882.125	11455
882.252	11562
882.378	11524
882.505	11478
882.631	11345
882.757	11299
882.883	11277
883.01	11288
883.136	11250
883.262	11143
883.388	11102
883.514	11204
883.64	11174
883.766	11136
883.892	11018
884.018	10976
884.143	11033
884.269	11143
884.395	10843
884.52	10828
884.646	10717
884.772	10771
884.897	10634
885.023	10702
885.148	10641
885.274	10850
885.399	10649
885.524	10634
885.65	10565
885.775	10577
885.9	10558
886.025	10523
886.15	10523
886.275	10603
886.4	10371
886.525	10417
886.65	10325
886.775	10314
886.9	10470
887.025	10500
887.149	10382
887.274	10227
887.399	10261
887.523	10154
887.648	10162
887.773	10086
887.897	10246
888.021	10265
888.146	10112
888.27	10272
888.395	10188
888.519	10162
888.643	10200
888.767	10173
888.891	10006
889.015	10048
889.139	10059
889.263	9949
889.387	10025
889.511	10109
889.635	10082
889.759	9979
889.883	10059
890.006	9979
890.13	10067
890.254	9960
890.377	9972
890.501	9934
890.624	9892
890.748	9926
890.871	9812
890.995	9740
891.118	9660
891.241	9759
891.364	9797
891.488	9838
891.611	9652
891.734	9633
891.857	9713
891.98	9614
892.103	9797
892.226	9743
892.349	9740
892.471	9473
892.594	9564
892.717	9625
892.839	9599
892.962	9618
893.085	9633
893.207	9587
893.33	9542
893.452	9587
893.575	9656
893.697	9526
893.819	9720
893.941	9587
894.064	9587
894.186	9469
894.308	9382
894.43	9538
894.552	9500
894.674	9515
894.796	9412
894.918	9428
895.04	9283
895.161	9348
895.283	9264
895.405	9203
895.526	9291
895.648	9279
895.769	9226
895.891	9199
896.012	9306
896.134	9264
896.255	9199
896.376	9161
896.498	9135
896.619	9154
896.74	9127
896.861	9116
896.982	9211
897.103	9268
897.224	9150
897.345	9138
897.466	8979
897.587	9024
897.708	9058
897.828	9020
897.949	8982
898.07	8853
898.19	8849
898.311	9085
898.431	8872
898.552	8921
898.672	8975
898.792	8853
898.913	8941
899.033	8754
899.153	8735
899.273	8659
899.393	8750
899.513	8773
899.633	8705
899.753	8796
899.873	8689
899.993	8724
900.113	8720
900.232	8610
900.352	8674
900.472	8575
900.591	8568
900.711	8568
900.83	8480
900.95	8632
901.069	8716
901.189	8518
901.308	8396
901.427	8309
901.546	8393
901.665	8412
901.784	8514
901.904	8377
902.023	8313
902.141	8176
902.26	8176
902.379	8248
902.498	8164
902.617	8240
902.735	8309
902.854	8313
902.973	8263
903.091	8062
903.21	8081
903.328	8176
903.446	8145
903.565	8012
903.683	8161
903.801	8024
903.919	8164
904.038	8088
904.156	8046
904.274	8073
904.392	7970
904.51	8005
904.627	8012
904.745	8081
904.863	8100
904.981	7913
905.098	7902
905.216	7841
905.334	7963
905.451	7928
905.569	7890
905.686	7951
905.803	7864
905.921	7803
906.038	7830
906.155	7807
906.272	7734
906.389	7753
906.506	7681
906.623	7651
906.74	7601
906.857	7540
906.974	7575
907.091	7761
907.208	7753
907.324	7658
907.441	7487
907.557	7426
907.674	7445
907.79	7369
907.907	7392
908.023	7426
908.139	7426
908.256	7384
908.372	7362
908.488	7358
908.604	7236
908.72	7228
908.836	7331
908.952	7282
909.068	7221
909.184	7335
909.3	7274
909.415	7278
909.531	7187
909.647	7149
909.762	7110
909.878	7069
909.993	7129
910.108	7076
910.224	7053
910.339	7076
910.454	7050
910.57	6947
910.685	6913
910.8	7160
910.915	7137
911.03	6989
911.145	6901
911.259	6882
911.374	6859
911.489	6833
911.604	6810
911.718	6688
911.833	6757
911.947	6665
912.062	6635
912.176	6719
912.291	6715
912.405	6692
912.519	6787
912.633	6753
912.748	6768
912.862	6711
912.976	6662
913.09	6532
913.204	6555
913.318	6547
913.431	6597
913.545	6681
913.659	6642
913.772	6601
913.886	6570
914	6506
914.113	6604
914.226	6631
914.34	6593
914.453	6486
914.566	6593
914.68	6532
914.793	6532
914.906	6357
915.019	6448
915.132	6315
915.245	6445
915.358	6429
915.47	6448
915.583	6460
915.696	6471
915.809	6506
915.921	6521
916.034	6391
916.146	6399
916.259	6414
916.371	6471
916.483	6407
916.595	6395
916.708	6380
916.82	6350
916.932	6372
917.044	6388
917.156	6407
917.268	6304
917.38	6334
917.491	6300
917.603	6426
917.715	6395
917.826	6369
917.938	6342
918.049	6239
918.161	6357
918.272	6448
918.384	6418
918.495	6311
918.606	6289
918.717	6285
918.828	6327
918.939	6311
919.05	6186
919.161	6289
919.272	6144
919.383	6098
919.494	6323
919.604	6399
919.715	6285
919.826	6205
919.936	6281
920.047	6327
920.157	6232
920.267	6429
920.378	6327
920.488	6239
920.598	6448
920.708	6563
920.818	6445
920.928	6388
921.038	6627
921.148	6551
921.258	6361
921.368	6273
921.477	6205
921.587	6190
921.697	6045
921.806	6167
921.916	6045
922.025	5954
922.134	5859
922.244	5893
922.353	5908
922.462	5828
922.571	5813
922.68	5748
922.789	5653
922.898	5688
923.007	5596
923.116	5741
923.224	5646
923.333	5653
923.442	5604
923.55	5554
923.659	5592
923.767	5600
923.876	5516
923.984	5589
924.092	5554
924.201	5608
924.309	5566
924.417	5535
924.525	5471
924.633	5478
924.741	6273
924.849	5368
924.956	5497
925.064	5395
925.172	5299
925.279	5322
925.387	5326
925.494	5307
925.602	5414
925.709	5379
925.816	5261
925.924	5364
926.031	5402
926.138	5318
926.245	5292
926.352	5166
926.459	5261
926.566	5299
926.673	5208
926.779	5162
926.886	5124
926.993	5006
927.099	4999
927.206	4953
927.312	4972
927.419	5022
927.525	4953
927.631	4976
927.737	4889
927.843	4843
927.95	4721
928.056	4831
928.162	4824
928.267	4793
928.373	5280
928.479	4828
928.585	4653
928.69	4774
928.796	4774
928.901	4656
929.007	4622
929.112	4679
929.218	4603
929.323	4603
929.428	4592
929.533	4653
929.638	4481
929.743	4500
929.848	4527
929.953	4523
930.058	4455
930.163	4314
930.267	4386
930.372	4466
930.477	4341
930.581	4447
930.685	4386
930.79	4261
930.894	4268
930.998	4276
931.103	4383
931.207	4143
931.311	4051
931.415	4006
931.519	3903
931.623	3907
