Data from glass_V78500241_2397.txt Node
Date: Wed Sep 01 19:31:07 CST 2021
User: usil
Spectrometer: V785-0024
Trigger mode: 0
Integration Time (sec): 4.000000E-1
Scans to average: 1
Nonlinearity correction enabled: false
Boxcar width: 0
Storing dark spectrum: false
XAxis mode: Wavelengths
Number of Pixels in Spectrum: 1024
>>>>>Begin Spectral Data<<<<<
801.071	3766
801.214	3766
801.356	3747
801.499	3724
801.641	3762
801.783	3755
801.926	3869
802.068	3846
802.211	3888
802.353	3846
802.496	3838
802.638	3915
802.78	3903
802.923	3926
803.065	3857
803.208	3835
803.35	3854
803.492	3884
803.635	3903
803.777	3819
803.919	3903
804.061	4147
804.204	3968
804.346	3941
804.488	3918
804.63	4044
804.773	3972
804.915	4048
805.057	4090
805.199	4025
805.341	4078
805.483	4116
805.626	4112
805.768	4097
805.91	4188
806.052	4215
806.194	4162
806.336	4352
806.478	4188
806.62	4143
806.762	4196
806.904	4287
807.046	4303
807.188	4215
807.33	4154
807.472	4230
807.614	4150
807.756	4238
807.898	4234
808.04	4227
808.182	4284
808.324	4303
808.465	4322
808.607	4462
808.749	4466
808.891	4417
809.033	4500
809.174	4386
809.316	4291
809.458	4246
809.6	4128
809.741	4116
809.883	4120
810.025	4188
810.166	4215
810.308	4219
810.45	4215
810.591	4185
810.733	4287
810.875	4478
811.016	4831
811.158	5109
811.299	5254
811.441	5265
811.582	5071
811.724	4668
811.865	4478
812.007	4474
812.148	4424
812.29	4428
812.431	4394
812.573	4367
812.714	4333
812.855	4398
812.997	4462
813.138	4459
813.279	4428
813.421	4413
813.562	4421
813.703	4367
813.845	4318
813.986	4261
814.127	4223
814.268	4280
814.41	4265
814.551	4234
814.692	4360
814.833	4227
814.974	4272
815.115	4303
815.256	4242
815.397	4219
815.539	4257
815.68	4192
815.821	4192
815.962	4325
816.103	4238
816.244	4242
816.385	4192
816.526	4284
816.666	4188
816.807	4040
816.948	4139
817.089	4192
817.23	4097
817.371	4021
817.512	4055
817.653	4078
817.793	3964
817.934	4002
818.075	4082
818.216	4044
818.356	4040
818.497	3987
818.638	3937
818.778	3934
818.919	3911
819.06	3808
819.2	3941
819.341	3880
819.481	3831
819.622	3873
819.762	4010
819.903	3888
820.043	3835
820.184	3823
820.324	3823
820.465	3888
820.605	3835
820.746	3850
820.886	3838
821.026	3896
821.167	3918
821.307	3956
821.447	3983
821.588	3896
821.728	3930
821.868	3945
822.008	3903
822.149	3918
822.289	3918
822.429	3797
822.569	3747
822.709	3747
822.849	3694
822.99	3694
823.13	3778
823.27	3755
823.41	3690
823.55	3701
823.69	3724
823.83	3751
823.97	3652
824.11	3587
824.25	3633
824.389	3625
824.529	3694
824.669	3633
824.809	3667
824.949	3736
825.089	3709
825.228	3709
825.368	3603
825.508	3553
825.648	3534
825.787	3599
825.927	3660
826.067	3606
826.206	3622
826.346	3800
826.485	3789
826.625	3808
826.765	3915
826.904	3819
827.044	3629
827.183	3549
827.323	3450
827.462	3435
827.601	3416
827.741	3401
827.88	3393
828.02	3393
828.159	3454
828.298	3443
828.437	3504
828.577	3462
828.716	3599
828.855	3511
828.994	3374
829.134	3359
829.273	3405
829.412	3321
829.551	3382
829.69	3329
829.829	3416
829.968	3473
830.107	3439
830.246	3393
830.385	3351
830.524	3329
830.663	3264
830.802	3218
830.941	3192
831.08	3207
831.219	3287
831.357	3249
831.496	3378
831.635	3249
831.774	3157
831.913	3192
832.051	3119
832.19	3142
832.329	3211
832.467	3119
832.606	3119
832.744	3165
832.883	3150
833.022	3207
833.16	3226
833.299	3306
833.437	3336
833.576	3351
833.714	3420
833.852	3458
833.991	3428
834.129	3454
834.267	3454
834.406	3416
834.544	3420
834.682	3412
834.821	3409
834.959	3557
835.097	3393
835.235	3523
835.373	3492
835.511	3526
835.65	3466
835.788	3435
835.926	3401
836.064	3382
836.202	3401
836.34	3549
836.478	3610
836.615	3564
836.753	3568
836.891	3625
837.029	3614
837.167	3561
837.305	3523
837.443	3523
837.58	3507
837.718	3603
837.856	3557
837.993	3485
838.131	3622
838.269	3622
838.406	3564
838.544	3580
838.681	3477
838.819	3469
838.956	3336
839.094	3374
839.231	3466
839.369	3496
839.506	3682
839.643	3614
839.781	3477
839.918	3439
840.055	3492
840.193	3530
840.33	3523
840.467	3538
840.604	3576
840.742	3835
840.879	3534
841.016	3557
841.153	3561
841.29	3743
841.427	3724
841.564	3717
841.701	3732
841.838	3724
841.975	3698
842.112	3720
842.249	3644
842.385	3618
842.522	3835
842.659	3690
842.796	3671
842.933	3724
843.069	3690
843.206	3698
843.343	3774
843.479	3819
843.616	3789
843.752	3656
843.889	3644
844.025	3835
844.162	3671
844.298	3812
844.435	3774
844.571	3766
844.708	3850
844.844	3949
844.98	4010
845.117	4025
845.253	3930
845.389	3888
845.525	3937
845.661	3960
845.798	3915
845.934	3968
846.07	3945
846.206	4067
846.342	4074
846.478	4067
846.614	3960
846.75	3880
846.886	3922
847.022	4051
847.158	3945
847.294	4002
847.429	4036
847.565	3934
847.701	4230
847.837	3880
847.972	3835
848.108	3975
848.244	3968
848.379	3816
848.515	3774
848.65	3835
848.786	3846
848.921	3892
849.057	3918
849.192	3979
849.328	3896
849.463	3922
849.598	3876
849.734	3865
849.869	3808
850.004	3789
850.14	3816
850.275	3808
850.41	3682
850.545	3713
850.68	3747
850.815	3743
850.95	3762
851.085	3941
851.22	3835
851.355	3812
851.49	3789
851.625	3766
851.76	3797
851.895	3766
852.03	3709
852.165	3812
852.299	3789
852.434	3873
852.569	3835
852.703	3869
852.838	3922
852.973	3991
853.107	3953
853.242	3842
853.376	3888
853.511	3740
853.645	3812
853.78	3983
853.914	3937
854.048	3899
854.183	3842
854.317	3937
854.451	4097
854.585	3960
854.72	3964
854.854	4055
854.988	3918
855.122	3987
855.256	3926
855.39	3979
855.524	4074
855.658	4086
855.792	4059
855.926	4109
856.06	4192
856.194	4242
856.327	4105
856.461	4135
856.595	4105
856.729	4185
856.862	4325
856.996	4234
857.13	4303
857.263	4318
857.397	4325
857.53	4310
857.664	4329
857.797	4394
857.931	4402
858.064	4409
858.197	4451
858.331	4409
858.464	4363
858.597	4367
858.731	4386
858.864	4489
858.997	4489
859.13	4466
859.263	4508
859.396	4561
859.529	4580
859.662	4516
859.795	4538
859.928	4596
860.061	4679
860.194	4755
860.327	4656
860.46	4607
860.592	4683
860.725	4733
860.858	4786
860.99	4675
861.123	4702
861.256	4698
861.388	4748
861.521	5520
861.653	4744
861.786	4706
861.918	4725
862.05	4740
862.183	4801
862.315	4889
862.447	4953
862.58	4911
862.712	4744
862.844	4778
862.976	4850
863.108	4873
863.24	5121
863.372	4805
863.504	4904
863.636	4934
863.768	4965
863.9	4957
864.032	4889
864.164	4911
864.296	5064
864.428	5045
864.559	5136
864.691	5124
864.823	5136
864.954	5102
865.086	5094
865.217	5113
865.349	5094
865.48	5140
865.612	5216
865.743	5303
865.875	5220
866.006	5162
866.137	5231
866.269	5273
866.4	5239
866.531	5265
866.662	5212
866.793	5269
866.924	5239
867.055	5322
867.186	5341
867.317	5326
867.448	5330
867.579	5379
867.71	5345
867.841	5395
867.972	5448
868.103	5459
868.233	5455
868.364	5486
868.495	5520
868.625	5653
868.756	5828
868.886	5604
869.017	5688
869.147	5847
869.278	5893
869.408	5798
869.539	5790
869.669	5874
869.799	5927
869.929	5973
870.06	6015
870.19	6148
870.32	6194
870.45	6224
870.58	6296
870.71	6414
870.84	6376
870.97	6334
871.1	6448
871.23	6650
871.36	6677
871.489	6658
871.619	6715
871.749	6779
871.879	6894
872.008	7012
872.138	6977
872.267	6996
872.397	6951
872.526	7012
872.656	7023
872.785	7190
872.915	7396
873.044	7521
873.173	7548
873.303	7628
873.432	7822
873.561	7879
873.69	7921
873.819	7970
873.948	8172
874.077	8210
874.206	8233
874.335	8381
874.464	8590
874.593	8864
874.722	8899
874.851	9085
874.979	9184
875.108	9329
875.237	9431
875.365	9507
875.494	9614
875.623	9770
875.751	9854
875.88	10006
876.008	10143
876.136	10249
876.265	10470
876.393	10736
876.521	10664
876.65	10824
876.778	10816
876.906	10934
877.034	10896
877.162	11113
877.29	11231
877.418	11307
877.546	11402
877.674	11429
877.802	11417
877.93	11551
878.058	11493
878.185	11604
878.313	11630
878.441	11767
878.568	11623
878.696	11737
878.824	11885
878.951	11969
879.079	12072
879.206	12136
879.333	12045
879.461	12041
879.588	12076
879.715	12045
879.842	12205
879.97	12022
880.097	11836
880.224	11859
880.351	11847
880.478	11908
880.605	11828
880.732	11786
880.859	11904
880.986	11741
881.112	11794
881.239	11752
881.366	11608
881.493	11573
881.619	11611
881.746	11558
881.872	11520
881.999	11478
882.125	11493
882.252	11516
882.378	11459
882.505	11577
882.631	11379
882.757	11277
882.883	11311
883.01	11307
883.136	11121
883.262	11102
883.388	11083
883.514	11227
883.64	11235
883.766	11083
883.892	10930
884.018	10995
884.143	11048
884.269	11155
884.395	10889
884.52	10752
884.646	10752
884.772	10706
884.897	10729
885.023	10664
885.148	10771
885.274	10763
885.399	10710
885.524	10611
885.65	10508
885.775	10645
885.9	10542
886.025	10596
886.15	10512
886.275	10409
886.4	10390
886.525	10432
886.65	10322
886.775	10375
886.9	10466
887.025	10542
887.149	10352
887.274	10238
887.399	10158
887.523	10158
887.648	10188
887.773	10185
887.897	10295
888.021	10223
888.146	10040
888.27	10101
888.395	10162
888.519	10120
888.643	10188
888.767	10238
888.891	10082
889.015	10006
889.139	10078
889.263	9899
889.387	10120
889.511	10086
889.635	10067
889.759	9994
889.883	10013
890.006	10048
890.13	10055
890.254	9835
890.377	9941
890.501	9850
890.624	9869
890.748	9865
890.871	9838
890.995	9816
891.118	9751
891.241	9781
891.364	9690
891.488	9781
891.611	9713
891.734	9740
891.857	9701
891.98	9740
892.103	9736
892.226	9705
892.349	9622
892.471	9599
892.594	9542
892.717	9610
892.839	9648
892.962	9584
893.085	9679
893.207	9637
893.33	9500
893.452	9496
893.575	9694
893.697	9534
893.819	9660
893.941	9610
894.064	9614
894.186	9359
894.308	9302
894.43	9462
894.552	9622
894.674	9485
894.796	9405
894.918	9405
895.04	9428
895.161	9401
895.283	9329
895.405	9298
895.526	9275
895.648	9230
895.769	9195
895.891	9245
896.012	9294
896.134	9169
896.255	9157
896.376	9150
896.498	9169
896.619	9131
896.74	9066
896.861	9081
896.982	9275
897.103	9253
897.224	9131
897.345	9013
897.466	9039
897.587	8982
897.708	9077
897.828	9001
897.949	8963
898.07	8845
898.19	8956
898.311	9005
898.431	8883
898.552	8929
898.672	8960
898.792	8937
898.913	8937
899.033	8777
899.153	8750
899.273	8674
899.393	8739
899.513	8773
899.633	8746
899.753	8823
899.873	8670
899.993	8708
900.113	8693
900.232	8674
900.352	8613
900.472	8644
900.591	8549
900.711	8659
900.83	8579
900.95	8667
901.069	8678
901.189	8541
901.308	8389
901.427	8469
901.546	8412
901.665	8404
901.784	8442
901.904	8339
902.023	8298
902.141	8187
902.26	8183
902.379	8259
902.498	8256
902.617	8248
902.735	8271
902.854	8275
902.973	8294
903.091	8119
903.21	8115
903.328	8183
903.446	8126
903.565	8012
903.683	8115
903.801	8027
903.919	8138
904.038	7978
904.156	8092
904.274	8054
904.392	7986
904.51	7978
904.627	8050
904.745	8050
904.863	8130
904.981	7967
905.098	7856
905.216	7852
905.334	7970
905.451	7852
905.569	7906
905.686	7906
905.803	7902
905.921	7761
906.038	7932
906.155	7795
906.272	7624
906.389	7788
906.506	7559
906.623	7620
906.74	7567
906.857	7514
906.974	7525
907.091	7662
907.208	7746
907.324	7609
907.441	7586
907.557	7426
907.674	7499
907.79	7419
907.907	7369
908.023	7449
908.139	7403
908.256	7373
908.372	7373
908.488	7369
908.604	7285
908.72	7217
908.836	7251
908.952	7209
909.068	7346
909.184	7335
909.3	7232
909.415	7228
909.531	7266
909.647	7103
909.762	7069
909.878	7088
909.993	7103
910.108	7061
910.224	7095
910.339	7084
910.454	7023
910.57	7000
910.685	6951
910.8	7152
910.915	7103
911.03	6996
911.145	6894
911.259	6882
911.374	6867
911.489	6844
911.604	6825
911.718	6692
911.833	6730
911.947	6612
912.062	6635
912.176	6654
912.291	6715
912.405	6623
912.519	6821
912.633	6837
912.748	6741
912.862	6673
912.976	6620
913.09	6563
913.204	6597
913.318	6589
913.431	6669
913.545	6620
913.659	6738
913.772	6658
913.886	6601
914	6563
914.113	6658
914.226	6639
914.34	6658
914.453	6452
914.566	6585
914.68	6502
914.793	6521
914.906	6464
915.019	6391
915.132	6285
915.245	6418
915.358	6452
915.47	6422
915.583	6445
915.696	6445
915.809	6490
915.921	6521
916.034	6422
916.146	6384
916.259	6369
916.371	6433
916.483	6506
916.595	6407
916.708	6365
916.82	6346
916.932	6346
917.044	6365
917.156	6380
917.268	6292
917.38	6365
917.491	6311
917.603	6342
917.715	6388
917.826	6433
917.938	6342
918.049	6254
918.161	6300
918.272	6369
918.384	6376
918.495	6342
918.606	6262
918.717	6209
918.828	6273
918.939	6262
919.05	6201
919.161	6254
919.272	6133
919.383	6106
919.494	6273
919.604	6426
919.715	6285
919.826	6213
919.936	6213
920.047	6346
920.157	6296
920.267	6399
920.378	6281
920.488	6296
920.598	6460
920.708	6536
920.818	6422
920.928	6422
921.038	6528
921.148	6578
921.258	6376
921.368	6258
921.477	6163
921.587	6155
921.697	6091
921.806	6182
921.916	6030
922.025	5908
922.134	5889
922.244	5885
922.353	5942
922.462	5855
922.571	5809
922.68	5672
922.789	5699
922.898	5737
923.007	5592
923.116	5737
923.224	5646
923.333	5668
923.442	5646
923.55	5577
923.659	5554
923.767	5619
923.876	5581
923.984	5577
924.092	5512
924.201	5558
924.309	5535
924.417	5516
924.525	5459
924.633	5471
924.741	6190
924.849	5376
924.956	5474
925.064	5322
925.172	5242
925.279	5337
925.387	5353
925.494	5334
925.602	5421
925.709	5379
925.816	5337
925.924	5322
926.031	5353
926.138	5296
926.245	5284
926.352	5223
926.459	5296
926.566	5258
926.673	5212
926.779	5178
926.886	5140
926.993	4995
927.099	5025
927.206	4946
927.312	4961
927.419	5029
927.525	5014
927.631	4995
927.737	4873
927.843	4862
927.95	4812
928.056	4797
928.162	4854
928.267	4786
928.373	5216
928.479	4866
928.585	4687
928.69	4748
928.796	4763
928.901	4664
929.007	4569
929.112	4607
929.218	4675
929.323	4618
929.428	4565
929.533	4622
929.638	4493
929.743	4485
929.848	4588
929.953	4508
930.058	4428
930.163	4371
930.267	4371
930.372	4432
930.477	4306
930.581	4405
930.685	4344
930.79	4257
930.894	4299
930.998	4268
931.103	4375
931.207	4116
931.311	4105
931.415	4055
931.519	3934
931.623	3915
