Data from glass_V78500241_2523.txt Node
Date: Wed Sep 01 19:31:59 CST 2021
User: usil
Spectrometer: V785-0024
Trigger mode: 0
Integration Time (sec): 4.000000E-1
Scans to average: 1
Nonlinearity correction enabled: false
Boxcar width: 0
Storing dark spectrum: false
XAxis mode: Wavelengths
Number of Pixels in Spectrum: 1024
>>>>>Begin Spectral Data<<<<<
801.071	3732
801.214	3720
801.356	3705
801.499	3740
801.641	3713
801.783	3747
801.926	3861
802.068	3808
802.211	3800
802.353	3903
802.496	3819
802.638	3880
802.78	3842
802.923	3930
803.065	3846
803.208	3857
803.35	3892
803.492	3911
803.635	3899
803.777	3816
803.919	3873
804.061	4120
804.204	3949
804.346	3941
804.488	3888
804.63	3994
804.773	3998
804.915	4010
805.057	4128
805.199	4059
805.341	3987
805.483	4143
805.626	4109
805.768	4101
805.91	4223
806.052	4242
806.194	4215
806.336	4310
806.478	4177
806.62	4147
806.762	4162
806.904	4284
807.046	4314
807.188	4185
807.33	4173
807.472	4234
807.614	4169
807.756	4299
807.898	4211
808.04	4253
808.182	4230
808.324	4291
808.465	4322
808.607	4462
808.749	4409
808.891	4459
809.033	4489
809.174	4417
809.316	4234
809.458	4234
809.6	4139
809.741	4120
809.883	4105
810.025	4177
810.166	4169
810.308	4196
810.45	4295
810.591	4261
810.733	4261
810.875	4523
811.016	4805
811.158	5162
811.299	5261
811.441	5288
811.582	5071
811.724	4679
811.865	4489
812.007	4447
812.148	4462
812.29	4421
812.431	4394
812.573	4348
812.714	4375
812.855	4402
812.997	4386
813.138	4516
813.279	4409
813.421	4371
813.562	4371
813.703	4356
813.845	4287
813.986	4246
814.127	4234
814.268	4306
814.41	4265
814.551	4219
814.692	4310
814.833	4272
814.974	4287
815.115	4314
815.256	4230
815.397	4227
815.539	4280
815.68	4211
815.821	4215
815.962	4299
816.103	4257
816.244	4246
816.385	4276
816.526	4261
816.666	4169
816.807	4116
816.948	4166
817.089	4181
817.23	4078
817.371	4055
817.512	4013
817.653	4029
817.793	4021
817.934	4032
818.075	4109
818.216	4040
818.356	4090
818.497	3972
818.638	3896
818.778	3937
818.919	3896
819.06	3880
819.2	3915
819.341	3869
819.481	3835
819.622	3953
819.762	4071
819.903	3953
820.043	3838
820.184	3812
820.324	3816
820.465	3892
820.605	3884
820.746	3869
820.886	3797
821.026	3949
821.167	3918
821.307	3949
821.447	3949
821.588	3949
821.728	3880
821.868	3941
822.008	3800
822.149	3892
822.289	3922
822.429	3804
822.569	3732
822.709	3755
822.849	3667
822.99	3713
823.13	3724
823.27	3759
823.41	3713
823.55	3751
823.69	3701
823.83	3785
823.97	3625
824.11	3595
824.25	3580
824.389	3610
824.529	3663
824.669	3614
824.809	3724
824.949	3698
825.089	3720
825.228	3694
825.368	3549
825.508	3572
825.648	3584
825.787	3629
825.927	3622
826.067	3614
826.206	3637
826.346	3778
826.485	3800
826.625	3873
826.765	3915
826.904	3812
827.044	3572
827.183	3538
827.323	3447
827.462	3481
827.601	3443
827.741	3363
827.88	3416
828.02	3367
828.159	3420
828.298	3507
828.437	3519
828.577	3447
828.716	3561
828.855	3462
828.994	3374
829.134	3386
829.273	3363
829.412	3336
829.551	3302
829.69	3348
829.829	3412
829.968	3477
830.107	3443
830.246	3454
830.385	3298
830.524	3389
830.663	3283
830.802	3214
830.941	3207
831.08	3150
831.219	3230
831.357	3306
831.496	3401
831.635	3233
831.774	3218
831.913	3245
832.051	3146
832.19	3138
832.329	3233
832.467	3135
832.606	3123
832.744	3154
832.883	3161
833.022	3161
833.16	3253
833.299	3291
833.437	3317
833.576	3351
833.714	3386
833.852	3469
833.991	3431
834.129	3450
834.267	3431
834.406	3412
834.544	3420
834.682	3397
834.821	3397
834.959	3538
835.097	3386
835.235	3523
835.373	3462
835.511	3462
835.65	3443
835.788	3481
835.926	3386
836.064	3393
836.202	3424
836.34	3549
836.478	3564
836.615	3515
836.753	3587
836.891	3591
837.029	3561
837.167	3545
837.305	3549
837.443	3511
837.58	3511
837.718	3580
837.856	3530
837.993	3526
838.131	3572
838.269	3572
838.406	3606
838.544	3587
838.681	3450
838.819	3462
838.956	3340
839.094	3386
839.231	3412
839.369	3485
839.506	3686
839.643	3641
839.781	3488
839.918	3496
840.055	3496
840.193	3504
840.33	3530
840.467	3526
840.604	3576
840.742	3846
840.879	3572
841.016	3545
841.153	3553
841.29	3747
841.427	3663
841.564	3686
841.701	3740
841.838	3667
841.975	3671
842.112	3679
842.249	3663
842.385	3622
842.522	3827
842.659	3682
842.796	3690
842.933	3701
843.069	3698
843.206	3652
843.343	3838
843.479	3781
843.616	3808
843.752	3663
843.889	3686
844.025	3838
844.162	3717
844.298	3831
844.435	3800
844.571	3800
844.708	3888
844.844	3949
844.98	3972
845.117	4010
845.253	3930
845.389	3865
845.525	3949
845.661	3911
845.798	3880
845.934	3983
846.07	3941
846.206	4071
846.342	4112
846.478	4040
846.614	4032
846.75	3922
846.886	3907
847.022	4002
847.158	3972
847.294	3964
847.429	3998
847.565	3953
847.701	4238
847.837	3869
847.972	3869
848.108	3945
848.244	3945
848.379	3876
848.515	3774
848.65	3781
848.786	3819
848.921	3819
849.057	3861
849.192	3915
849.328	3930
849.463	3949
849.598	3831
849.734	3857
849.869	3884
850.004	3747
850.14	3797
850.275	3808
850.41	3713
850.545	3751
850.68	3781
850.815	3797
850.95	3724
851.085	3960
851.22	3838
851.355	3823
851.49	3785
851.625	3785
851.76	3770
851.895	3728
852.03	3755
852.165	3797
852.299	3850
852.434	3896
852.569	3861
852.703	3831
852.838	3918
852.973	3991
853.107	3968
853.242	3892
853.376	3842
853.511	3774
853.645	3797
853.78	3930
853.914	3899
854.048	3873
854.183	3873
854.317	3956
854.451	4036
854.585	3941
854.72	3960
854.854	3964
854.988	3884
855.122	4006
855.256	3922
855.39	4006
855.524	4131
855.658	4048
855.792	4101
855.926	4139
856.06	4177
856.194	4227
856.327	4124
856.461	4135
856.595	4112
856.729	4131
856.862	4215
856.996	4238
857.13	4287
857.263	4325
857.397	4379
857.53	4268
857.664	4322
857.797	4402
857.931	4398
858.064	4405
858.197	4443
858.331	4344
858.464	4383
858.597	4383
858.731	4417
858.864	4474
858.997	4478
859.13	4516
859.263	4497
859.396	4538
859.529	4519
859.662	4569
859.795	4512
859.928	4611
860.061	4702
860.194	4660
860.327	4615
860.46	4622
860.592	4736
860.725	4755
860.858	4744
860.99	4675
861.123	4668
861.256	4698
861.388	4744
861.521	5387
861.653	4649
861.786	4687
861.918	4729
862.05	4812
862.183	4854
862.315	4892
862.447	4904
862.58	4858
862.712	4805
862.844	4748
862.976	4896
863.108	4843
863.24	5162
863.372	4801
863.504	4858
863.636	4904
863.768	4938
863.9	4938
864.032	4908
864.164	4930
864.296	5014
864.428	5121
864.559	5079
864.691	5166
864.823	5124
864.954	5086
865.086	5178
865.217	5121
865.349	5113
865.48	5159
865.612	5162
865.743	5284
865.875	5185
866.006	5136
866.137	5201
866.269	5231
866.4	5239
866.531	5227
866.662	5277
866.793	5277
866.924	5345
867.055	5273
867.186	5341
867.317	5303
867.448	5231
867.579	5414
867.71	5364
867.841	5387
867.972	5459
868.103	5440
868.233	5490
868.364	5493
868.495	5478
868.625	5619
868.756	5821
868.886	5680
869.017	5688
869.147	5821
869.278	5885
869.408	5828
869.539	5832
869.669	5870
869.799	5931
869.929	5999
870.06	5923
870.19	6186
870.32	6159
870.45	6205
870.58	6319
870.71	6426
870.84	6498
870.97	6384
871.1	6410
871.23	6631
871.36	6711
871.489	6658
871.619	6707
871.749	6779
871.879	6840
872.008	7015
872.138	6970
872.267	6973
872.397	6993
872.526	7008
872.656	7057
872.785	7221
872.915	7388
873.044	7468
873.173	7499
873.303	7658
873.432	7746
873.561	7845
873.69	7879
873.819	8020
873.948	8199
874.077	8244
874.206	8317
874.335	8377
874.464	8651
874.593	8933
874.722	8876
874.851	9173
874.979	9188
875.108	9351
875.237	9382
875.365	9507
875.494	9618
875.623	9888
875.751	9816
875.88	9964
876.008	10158
876.136	10249
876.265	10504
876.393	10672
876.521	10763
876.65	10778
876.778	10930
876.906	10923
877.034	11022
877.162	11162
877.29	11242
877.418	11258
877.546	11322
877.674	11402
877.802	11421
877.93	11520
878.058	11551
878.185	11585
878.313	11615
878.441	11668
878.568	11672
878.696	11756
878.824	11767
878.951	11897
879.079	11988
879.206	12117
879.333	12022
879.461	11920
879.588	12034
879.715	11969
879.842	12136
879.97	12083
880.097	11882
880.224	11847
880.351	11828
880.478	11889
880.605	11840
880.732	11843
880.859	11965
880.986	11828
881.112	11847
881.239	11695
881.366	11627
881.493	11570
881.619	11486
881.746	11474
881.872	11486
881.999	11486
882.125	11444
882.252	11577
882.378	11436
882.505	11520
882.631	11315
882.757	11307
882.883	11288
883.01	11341
883.136	11189
883.262	11094
883.388	11075
883.514	11185
883.64	11193
883.766	11109
883.892	11018
884.018	10942
884.143	11010
884.269	11006
884.395	10824
884.52	10763
884.646	10744
884.772	10672
884.897	10710
885.023	10698
885.148	10698
885.274	10767
885.399	10611
885.524	10698
885.65	10584
885.775	10656
885.9	10478
886.025	10622
886.15	10462
886.275	10523
886.4	10386
886.525	10382
886.65	10306
886.775	10348
886.9	10398
887.025	10508
887.149	10337
887.274	10219
887.399	10192
887.523	10211
887.648	10090
887.773	10135
887.897	10207
888.021	10109
888.146	10162
888.27	10246
888.395	10150
888.519	10131
888.643	10150
888.767	10268
888.891	10040
889.015	10021
889.139	10097
889.263	9918
889.387	10097
889.511	10044
889.635	10040
889.759	9907
889.883	10055
890.006	9956
890.13	10177
890.254	9880
890.377	9979
890.501	9835
890.624	9800
890.748	9934
890.871	9759
890.995	9812
891.118	9622
891.241	9797
891.364	9812
891.488	9759
891.611	9724
891.734	9743
891.857	9709
891.98	9751
892.103	9740
892.226	9705
892.349	9690
892.471	9435
892.594	9610
892.717	9595
892.839	9595
892.962	9644
893.085	9584
893.207	9515
893.33	9496
893.452	9545
893.575	9610
893.697	9481
893.819	9675
893.941	9637
894.064	9572
894.186	9401
894.308	9397
894.43	9481
894.552	9534
894.674	9519
894.796	9325
894.918	9424
895.04	9325
895.161	9321
895.283	9245
895.405	9291
895.526	9211
895.648	9249
895.769	9214
895.891	9211
896.012	9329
896.134	9222
896.255	9112
896.376	9127
896.498	9184
896.619	9123
896.74	9051
896.861	9047
896.982	9241
897.103	9222
897.224	9100
897.345	9112
897.466	8963
897.587	8979
897.708	9123
897.828	9032
897.949	8944
898.07	8876
898.19	8960
898.311	9032
898.431	8864
898.552	8910
898.672	8948
898.792	9032
898.913	8902
899.033	8735
899.153	8739
899.273	8689
899.393	8731
899.513	8735
899.633	8708
899.753	8686
899.873	8716
899.993	8731
900.113	8697
900.232	8678
900.352	8693
900.472	8629
900.591	8511
900.711	8606
900.83	8495
900.95	8682
901.069	8735
901.189	8541
901.308	8415
901.427	8434
901.546	8385
901.665	8423
901.784	8522
901.904	8400
902.023	8412
902.141	8240
902.26	8206
902.379	8240
902.498	8259
902.617	8244
902.735	8259
902.854	8267
902.973	8286
903.091	8149
903.21	8096
903.328	8149
903.446	8172
903.565	8012
903.683	8096
903.801	8008
903.919	8153
904.038	8069
904.156	7978
904.274	8107
904.392	8035
904.51	8043
904.627	8039
904.745	8054
904.863	8103
904.981	7932
905.098	7811
905.216	7841
905.334	7955
905.451	7868
905.569	7894
905.686	7913
905.803	7902
905.921	7765
906.038	7849
906.155	7761
906.272	7651
906.389	7723
906.506	7636
906.623	7643
906.74	7563
906.857	7567
906.974	7514
907.091	7658
907.208	7704
907.324	7655
907.441	7533
907.557	7445
907.674	7434
907.79	7350
907.907	7354
908.023	7388
908.139	7411
908.256	7384
908.372	7350
908.488	7362
908.604	7187
908.72	7255
908.836	7301
908.952	7228
909.068	7259
909.184	7327
909.3	7278
909.415	7255
909.531	7316
909.647	7149
909.762	7046
909.878	7088
909.993	7145
910.108	7046
910.224	7050
910.339	7099
910.454	6962
910.57	7000
910.685	6973
910.8	7145
910.915	7053
911.03	7012
911.145	6875
911.259	6859
911.374	6939
911.489	6844
911.604	6741
911.718	6696
911.833	6779
911.947	6654
912.062	6627
912.176	6665
912.291	6715
912.405	6662
912.519	6798
912.633	6814
912.748	6757
912.862	6741
912.976	6601
913.09	6525
913.204	6582
913.318	6597
913.431	6616
913.545	6722
913.659	6688
913.772	6616
913.886	6593
914	6574
914.113	6681
914.226	6620
914.34	6555
914.453	6448
914.566	6589
914.68	6528
914.793	6551
914.906	6429
915.019	6365
915.132	6380
915.245	6372
915.358	6467
915.47	6384
915.583	6456
915.696	6456
915.809	6521
915.921	6570
916.034	6380
916.146	6369
916.259	6388
916.371	6448
916.483	6441
916.595	6388
916.708	6384
916.82	6388
916.932	6399
917.044	6422
917.156	6365
917.268	6308
917.38	6376
917.491	6281
917.603	6346
917.715	6384
917.826	6429
917.938	6319
918.049	6232
918.161	6369
918.272	6475
918.384	6475
918.495	6277
918.606	6258
918.717	6175
918.828	6194
918.939	6319
919.05	6205
919.161	6224
919.272	6175
919.383	6152
919.494	6285
919.604	6384
919.715	6266
919.826	6194
919.936	6209
920.047	6327
920.157	6270
920.267	6475
920.378	6376
920.488	6277
920.598	6388
920.708	6509
920.818	6498
920.928	6467
921.038	6517
921.148	6582
921.258	6395
921.368	6251
921.477	6175
921.587	6167
921.697	6102
921.806	6190
921.916	6011
922.025	6015
922.134	5916
922.244	5847
922.353	5958
922.462	5802
922.571	5767
922.68	5688
922.789	5573
922.898	5729
923.007	5646
923.116	5703
923.224	5653
923.333	5688
923.442	5627
923.55	5570
923.659	5532
923.767	5554
923.876	5524
923.984	5562
924.092	5478
924.201	5619
924.309	5482
924.417	5509
924.525	5467
924.633	5482
924.741	6270
924.849	5307
924.956	5509
925.064	5353
925.172	5292
925.279	5307
925.387	5345
925.494	5292
925.602	5463
925.709	5357
925.816	5250
925.924	5315
926.031	5296
926.138	5292
926.245	5288
926.352	5212
926.459	5311
926.566	5280
926.673	5201
926.779	5098
926.886	5048
926.993	5022
927.099	5048
927.206	4984
927.312	4965
927.419	5018
927.525	4919
927.631	4999
927.737	4839
927.843	4908
927.95	4816
928.056	4820
928.162	4816
928.267	4835
928.373	5216
928.479	4801
928.585	4706
928.69	4767
928.796	4793
928.901	4729
929.007	4615
929.112	4653
929.218	4599
929.323	4653
929.428	4516
929.533	4687
929.638	4500
929.743	4550
929.848	4558
929.953	4538
930.058	4409
930.163	4280
930.267	4325
930.372	4436
930.477	4295
930.581	4432
930.685	4337
930.79	4261
930.894	4280
930.998	4234
931.103	4348
931.207	4135
931.311	4040
931.415	4063
931.519	3918
931.623	3899
