Data from glass_V78500241_1436.txt Node
Date: Wed Sep 01 19:24:27 CST 2021
User: usil
Spectrometer: V785-0024
Trigger mode: 0
Integration Time (sec): 4.000000E-1
Scans to average: 1
Nonlinearity correction enabled: false
Boxcar width: 0
Storing dark spectrum: false
XAxis mode: Wavelengths
Number of Pixels in Spectrum: 1024
>>>>>Begin Spectral Data<<<<<
801.071	3720
801.214	3762
801.356	3713
801.499	3713
801.641	3709
801.783	3751
801.926	3865
802.068	3808
802.211	3892
802.353	3907
802.496	3869
802.638	3857
802.78	3884
802.923	3949
803.065	3907
803.208	3838
803.35	3911
803.492	3907
803.635	3911
803.777	3819
803.919	3922
804.061	4169
804.204	3960
804.346	3964
804.488	3949
804.63	4025
804.773	3960
804.915	4071
805.057	4128
805.199	4055
805.341	4135
805.483	4185
805.626	4116
805.768	4078
805.91	4272
806.052	4249
806.194	4238
806.336	4348
806.478	4196
806.62	4143
806.762	4188
806.904	4257
807.046	4337
807.188	4192
807.33	4192
807.472	4276
807.614	4188
807.756	4314
807.898	4181
808.04	4257
808.182	4322
808.324	4299
808.465	4383
808.607	4428
808.749	4459
808.891	4493
809.033	4474
809.174	4405
809.316	4265
809.458	4253
809.6	4150
809.741	4150
809.883	4150
810.025	4219
810.166	4207
810.308	4211
810.45	4230
810.591	4234
810.733	4227
810.875	4516
811.016	4824
811.158	5064
811.299	5303
811.441	5307
811.582	5064
811.724	4687
811.865	4462
812.007	4466
812.148	4443
812.29	4413
812.431	4398
812.573	4394
812.714	4352
812.855	4424
812.997	4405
813.138	4504
813.279	4451
813.421	4367
813.562	4386
813.703	4344
813.845	4348
813.986	4295
814.127	4234
814.268	4287
814.41	4268
814.551	4287
814.692	4299
814.833	4284
814.974	4322
815.115	4375
815.256	4227
815.397	4230
815.539	4268
815.68	4211
815.821	4196
815.962	4280
816.103	4249
816.244	4249
816.385	4177
816.526	4291
816.666	4196
816.807	4128
816.948	4177
817.089	4192
817.23	4120
817.371	4078
817.512	4063
817.653	4048
817.793	3953
817.934	4059
818.075	4131
818.216	4055
818.356	4120
818.497	3953
818.638	3907
818.778	3949
818.919	3869
819.06	3861
819.2	3896
819.341	3880
819.481	3827
819.622	3945
819.762	4051
819.903	3937
820.043	3869
820.184	3781
820.324	3800
820.465	3869
820.605	3873
820.746	3854
820.886	3774
821.026	3918
821.167	3941
821.307	4021
821.447	3991
821.588	3945
821.728	3975
821.868	3926
822.008	3865
822.149	3892
822.289	3956
822.429	3797
822.569	3789
822.709	3762
822.849	3709
822.99	3743
823.13	3759
823.27	3797
823.41	3705
823.55	3736
823.69	3747
823.83	3713
823.97	3682
824.11	3591
824.25	3622
824.389	3663
824.529	3694
824.669	3648
824.809	3686
824.949	3755
825.089	3774
825.228	3720
825.368	3591
825.508	3557
825.648	3557
825.787	3603
825.927	3641
826.067	3622
826.206	3682
826.346	3804
826.485	3903
826.625	3884
826.765	3945
826.904	3831
827.044	3618
827.183	3523
827.323	3454
827.462	3450
827.601	3367
827.741	3473
827.88	3443
828.02	3348
828.159	3466
828.298	3477
828.437	3549
828.577	3496
828.716	3599
828.855	3469
828.994	3378
829.134	3428
829.273	3405
829.412	3405
829.551	3340
829.69	3382
829.829	3428
829.968	3466
830.107	3431
830.246	3420
830.385	3389
830.524	3348
830.663	3321
830.802	3256
830.941	3195
831.08	3173
831.219	3207
831.357	3275
831.496	3443
831.635	3237
831.774	3188
831.913	3207
832.051	3188
832.19	3135
832.329	3241
832.467	3180
832.606	3157
832.744	3169
832.883	3188
833.022	3218
833.16	3253
833.299	3291
833.437	3363
833.576	3382
833.714	3412
833.852	3458
833.991	3447
834.129	3477
834.267	3458
834.406	3386
834.544	3469
834.682	3409
834.821	3416
834.959	3595
835.097	3428
835.235	3542
835.373	3454
835.511	3496
835.65	3450
835.788	3477
835.926	3412
836.064	3348
836.202	3424
836.34	3595
836.478	3637
836.615	3511
836.753	3580
836.891	3648
837.029	3606
837.167	3625
837.305	3572
837.443	3553
837.58	3500
837.718	3580
837.856	3549
837.993	3557
838.131	3595
838.269	3641
838.406	3618
838.544	3576
838.681	3488
838.819	3405
838.956	3374
839.094	3370
839.231	3450
839.369	3507
839.506	3724
839.643	3637
839.781	3500
839.918	3454
840.055	3481
840.193	3530
840.33	3572
840.467	3549
840.604	3618
840.742	3838
840.879	3526
841.016	3549
841.153	3610
841.29	3766
841.427	3709
841.564	3724
841.701	3770
841.838	3675
841.975	3690
842.112	3740
842.249	3625
842.385	3606
842.522	3816
842.659	3656
842.796	3694
842.933	3759
843.069	3709
843.206	3736
843.343	3861
843.479	3770
843.616	3778
843.752	3694
843.889	3667
844.025	3823
844.162	3732
844.298	3835
844.435	3785
844.571	3842
844.708	3892
844.844	4021
844.98	3991
845.117	3998
845.253	3915
845.389	3956
845.525	3953
845.661	4006
845.798	3896
845.934	3998
846.07	3918
846.206	4006
846.342	4143
846.478	4063
846.614	4010
846.75	3884
846.886	3907
847.022	4059
847.158	3956
847.294	3991
847.429	4032
847.565	4044
847.701	4223
847.837	3896
847.972	3842
848.108	4025
848.244	3953
848.379	3876
848.515	3823
848.65	3831
848.786	3876
848.921	3876
849.057	3915
849.192	3930
849.328	3892
849.463	3903
849.598	3873
849.734	3857
849.869	3842
850.004	3804
850.14	3842
850.275	3774
850.41	3766
850.545	3797
850.68	3770
850.815	3827
850.95	3766
851.085	3945
851.22	3861
851.355	3838
851.49	3740
851.625	3762
851.76	3743
851.895	3770
852.03	3785
852.165	3804
852.299	3838
852.434	3892
852.569	3892
852.703	3888
852.838	3926
852.973	4029
853.107	3983
853.242	3873
853.376	3846
853.511	3774
853.645	3846
853.78	4010
853.914	3930
854.048	3876
854.183	3876
854.317	3941
854.451	4086
854.585	3953
854.72	3945
854.854	4032
854.988	3934
855.122	3991
855.256	3930
855.39	4021
855.524	4131
855.658	4105
855.792	4112
855.926	4181
856.06	4139
856.194	4227
856.327	4166
856.461	4147
856.595	4109
856.729	4154
856.862	4291
856.996	4299
857.13	4306
857.263	4310
857.397	4318
857.53	4291
857.664	4322
857.797	4424
857.931	4417
858.064	4390
858.197	4451
858.331	4394
858.464	4405
858.597	4375
858.731	4440
858.864	4478
858.997	4459
859.13	4535
859.263	4538
859.396	4592
859.529	4508
859.662	4508
859.795	4493
859.928	4596
860.061	4698
860.194	4736
860.327	4634
860.46	4637
860.592	4721
860.725	4767
860.858	4790
860.99	4672
861.123	4759
861.256	4656
861.388	4740
861.521	5311
861.653	4729
861.786	4748
861.918	4778
862.05	4801
862.183	4854
862.315	4904
862.447	4938
862.58	4892
862.712	4866
862.844	4805
862.976	4873
863.108	4881
863.24	5170
863.372	4820
863.504	4831
863.636	4896
863.768	4965
863.9	4946
864.032	4980
864.164	4953
864.296	5033
864.428	5113
864.559	5067
864.691	5132
864.823	5105
864.954	5071
865.086	5136
865.217	5136
865.349	5143
865.48	5121
865.612	5197
865.743	5288
865.875	5197
866.006	5132
866.137	5220
866.269	5223
866.4	5280
866.531	5193
866.662	5239
866.793	5273
866.924	5277
867.055	5349
867.186	5353
867.317	5326
867.448	5368
867.579	5410
867.71	5410
867.841	5395
867.972	5455
868.103	5490
868.233	5471
868.364	5497
868.495	5581
868.625	5611
868.756	5836
868.886	5661
869.017	5745
869.147	5904
869.278	5889
869.408	5813
869.539	5828
869.669	5901
869.799	5874
869.929	6015
870.06	6030
870.19	6171
870.32	6205
870.45	6213
870.58	6380
870.71	6418
870.84	6426
870.97	6380
871.1	6448
871.23	6578
871.36	6711
871.489	6604
871.619	6791
871.749	6829
871.879	6821
872.008	6954
872.138	6981
872.267	7027
872.397	7012
872.526	7069
872.656	7103
872.785	7244
872.915	7388
873.044	7502
873.173	7571
873.303	7643
873.432	7769
873.561	7890
873.69	7875
873.819	8027
873.948	8168
874.077	8282
874.206	8343
874.335	8518
874.464	8636
874.593	8876
874.722	8899
874.851	9135
874.979	9157
875.108	9389
875.237	9389
875.365	9435
875.494	9641
875.623	9918
875.751	9884
875.88	10036
876.008	10150
876.136	10261
876.265	10565
876.393	10710
876.521	10790
876.65	10805
876.778	10877
876.906	10881
877.034	10889
877.162	11006
877.29	11143
877.418	11360
877.546	11311
877.674	11360
877.802	11501
877.93	11471
878.058	11596
878.185	11623
878.313	11680
878.441	11748
878.568	11733
878.696	11752
878.824	11904
878.951	11984
879.079	11935
879.206	12152
879.333	12091
879.461	11980
879.588	12129
879.715	12102
879.842	12216
879.97	12087
880.097	11908
880.224	11855
880.351	11931
880.478	11912
880.605	11821
880.732	11703
880.859	12079
880.986	11851
881.112	11882
881.239	11748
881.366	11680
881.493	11649
881.619	11558
881.746	11604
881.872	11512
881.999	11554
882.125	11497
882.252	11566
882.378	11501
882.505	11505
882.631	11345
882.757	11280
882.883	11277
883.01	11235
883.136	11204
883.262	11117
883.388	11052
883.514	11197
883.64	11147
883.766	11048
883.892	10938
884.018	10980
884.143	11071
884.269	11090
884.395	10805
884.52	10748
884.646	10755
884.772	10721
884.897	10691
885.023	10740
885.148	10721
885.274	10801
885.399	10622
885.524	10565
885.65	10653
885.775	10523
885.9	10630
886.025	10622
886.15	10561
886.275	10394
886.4	10421
886.525	10348
886.65	10371
886.775	10310
886.9	10436
887.025	10565
887.149	10405
887.274	10280
887.399	10192
887.523	10200
887.648	10090
887.773	10158
887.897	10341
888.021	10253
888.146	10124
888.27	10207
888.395	10196
888.519	10204
888.643	10192
888.767	10211
888.891	10139
889.015	10082
889.139	10040
889.263	9934
889.387	10051
889.511	10101
889.635	10112
889.759	9949
889.883	9884
890.006	10032
890.13	10051
890.254	9979
890.377	9926
890.501	9869
890.624	9915
890.748	9823
890.871	9759
890.995	9743
891.118	9793
891.241	9785
891.364	9694
891.488	9857
891.611	9740
891.734	9755
891.857	9743
891.98	9701
892.103	9755
892.226	9732
892.349	9606
892.471	9515
892.594	9545
892.717	9663
892.839	9671
892.962	9557
893.085	9671
893.207	9549
893.33	9481
893.452	9572
893.575	9599
893.697	9530
893.819	9603
893.941	9679
894.064	9610
894.186	9481
894.308	9408
894.43	9534
894.552	9663
894.674	9572
894.796	9294
894.918	9382
895.04	9355
895.161	9401
895.283	9355
895.405	9287
895.526	9279
895.648	9245
895.769	9264
895.891	9325
896.012	9233
896.134	9241
896.255	9150
896.376	9142
896.498	9127
896.619	9161
896.74	9032
896.861	9058
896.982	9260
897.103	9287
897.224	9233
897.345	9074
897.466	9020
897.587	9020
897.708	9047
897.828	8998
897.949	8929
898.07	8914
898.19	8918
898.311	9070
898.431	8876
898.552	8956
898.672	8944
898.792	8967
898.913	8876
899.033	8800
899.153	8754
899.273	8689
899.393	8716
899.513	8746
899.633	8792
899.753	8785
899.873	8693
899.993	8746
900.113	8689
900.232	8716
900.352	8617
900.472	8583
900.591	8499
900.711	8640
900.83	8541
900.95	8655
901.069	8689
901.189	8545
901.308	8393
901.427	8374
901.546	8431
901.665	8564
901.784	8541
901.904	8389
902.023	8370
902.141	8271
902.26	8267
902.379	8271
902.498	8206
902.617	8229
902.735	8332
902.854	8275
902.973	8298
903.091	8130
903.21	8149
903.328	8202
903.446	8100
903.565	8119
903.683	8138
903.801	8092
903.919	8172
904.038	8134
904.156	8103
904.274	8111
904.392	8005
904.51	8081
904.627	8050
904.745	8084
904.863	8130
904.981	7932
905.098	7830
905.216	7830
905.334	7940
905.451	7894
905.569	7883
905.686	7887
905.803	7928
905.921	7780
906.038	7875
906.155	7799
906.272	7753
906.389	7772
906.506	7643
906.623	7666
906.74	7563
906.857	7590
906.974	7605
907.091	7742
907.208	7765
907.324	7605
907.441	7586
907.557	7502
907.674	7411
907.79	7392
907.907	7388
908.023	7464
908.139	7422
908.256	7384
908.372	7419
908.488	7282
908.604	7266
908.72	7274
908.836	7316
908.952	7263
909.068	7255
909.184	7331
909.3	7270
909.415	7278
909.531	7289
909.647	7076
909.762	7057
909.878	7107
909.993	7103
910.108	7107
910.224	7034
910.339	7076
910.454	7031
910.57	6993
910.685	6924
910.8	7244
910.915	7088
911.03	7042
911.145	6935
911.259	6833
911.374	6924
911.489	6821
911.604	6802
911.718	6749
911.833	6749
911.947	6642
912.062	6627
912.176	6631
912.291	6707
912.405	6692
912.519	6806
912.633	6837
912.748	6692
912.862	6715
912.976	6662
913.09	6566
913.204	6631
913.318	6585
913.431	6696
913.545	6688
913.659	6760
913.772	6711
913.886	6662
914	6589
914.113	6604
914.226	6669
914.34	6642
914.453	6467
914.566	6639
914.68	6498
914.793	6566
914.906	6388
915.019	6346
915.132	6331
915.245	6433
915.358	6441
915.47	6429
915.583	6433
915.696	6452
915.809	6509
915.921	6521
916.034	6384
916.146	6338
916.259	6414
916.371	6479
916.483	6490
916.595	6369
916.708	6399
916.82	6388
916.932	6361
917.044	6422
917.156	6452
917.268	6323
917.38	6285
917.491	6334
917.603	6365
917.715	6380
917.826	6384
917.938	6342
918.049	6258
918.161	6327
918.272	6445
918.384	6479
918.495	6350
918.606	6239
918.717	6209
918.828	6285
918.939	6277
919.05	6163
919.161	6216
919.272	6091
919.383	6167
919.494	6361
919.604	6437
919.715	6311
919.826	6235
919.936	6216
920.047	6331
920.157	6258
920.267	6475
920.378	6300
920.488	6311
920.598	6467
920.708	6551
920.818	6422
920.928	6452
921.038	6555
921.148	6540
921.258	6376
921.368	6270
921.477	6175
921.587	6190
921.697	6091
921.806	6167
921.916	6076
922.025	5923
922.134	5908
922.244	5828
922.353	6011
922.462	5805
922.571	5847
922.68	5688
922.789	5649
922.898	5695
923.007	5630
923.116	5710
923.224	5642
923.333	5657
923.442	5630
923.55	5577
923.659	5562
923.767	5596
923.876	5589
923.984	5589
924.092	5524
924.201	5509
924.309	5535
924.417	5577
924.525	5471
924.633	5532
924.741	6163
924.849	5341
924.956	5455
925.064	5341
925.172	5322
925.279	5330
925.387	5334
925.494	5353
925.602	5406
925.709	5417
925.816	5303
925.924	5326
926.031	5364
926.138	5303
926.245	5311
926.352	5250
926.459	5334
926.566	5311
926.673	5212
926.779	5155
926.886	5113
926.993	5064
927.099	5003
927.206	4949
927.312	4946
927.419	5018
927.525	4999
927.631	4957
927.737	4946
927.843	4889
927.95	4740
928.056	4812
928.162	4873
928.267	4812
928.373	5258
928.479	4835
928.585	4675
928.69	4752
928.796	4759
928.901	4698
929.007	4569
929.112	4691
929.218	4580
929.323	4637
929.428	4523
929.533	4679
929.638	4554
929.743	4569
929.848	4573
929.953	4478
930.058	4421
930.163	4356
930.267	4329
930.372	4459
930.477	4299
930.581	4523
930.685	4390
930.79	4280
930.894	4329
930.998	4272
931.103	4402
931.207	4181
931.311	4101
931.415	3998
931.519	3949
931.623	3892
