Data from glass_V78500241_2609.txt Node
Date: Wed Sep 01 19:32:35 CST 2021
User: usil
Spectrometer: V785-0024
Trigger mode: 0
Integration Time (sec): 4.000000E-1
Scans to average: 1
Nonlinearity correction enabled: false
Boxcar width: 0
Storing dark spectrum: false
XAxis mode: Wavelengths
Number of Pixels in Spectrum: 1024
>>>>>Begin Spectral Data<<<<<
801.071	3751
801.214	3736
801.356	3724
801.499	3709
801.641	3679
801.783	3759
801.926	3842
802.068	3797
802.211	3838
802.353	3888
802.496	3842
802.638	3888
802.78	3892
802.923	3922
803.065	3823
803.208	3857
803.35	3854
803.492	3884
803.635	3888
803.777	3793
803.919	3854
804.061	4116
804.204	3934
804.346	3907
804.488	3896
804.63	3998
804.773	3987
804.915	3979
805.057	4105
805.199	4074
805.341	4055
805.483	4120
805.626	4097
805.768	4131
805.91	4215
806.052	4299
806.194	4207
806.336	4341
806.478	4230
806.62	4192
806.762	4204
806.904	4280
807.046	4303
807.188	4234
807.33	4173
807.472	4188
807.614	4196
807.756	4261
807.898	4219
808.04	4238
808.182	4276
808.324	4280
808.465	4386
808.607	4440
808.749	4436
808.891	4462
809.033	4466
809.174	4383
809.316	4272
809.458	4268
809.6	4173
809.741	4135
809.883	4120
810.025	4192
810.166	4223
810.308	4173
810.45	4227
810.591	4215
810.733	4257
810.875	4466
811.016	4816
811.158	5136
811.299	5265
811.441	5318
811.582	5086
811.724	4698
811.865	4470
812.007	4459
812.148	4417
812.29	4405
812.431	4413
812.573	4394
812.714	4360
812.855	4409
812.997	4402
813.138	4474
813.279	4398
813.421	4367
813.562	4375
813.703	4287
813.845	4322
813.986	4287
814.127	4204
814.268	4246
814.41	4287
814.551	4249
814.692	4325
814.833	4322
814.974	4284
815.115	4333
815.256	4257
815.397	4257
815.539	4265
815.68	4196
815.821	4177
815.962	4329
816.103	4246
816.244	4249
816.385	4249
816.526	4246
816.666	4181
816.807	4116
816.948	4147
817.089	4105
817.23	4090
817.371	4006
817.512	4036
817.653	4059
817.793	4040
817.934	3968
818.075	4074
818.216	4059
818.356	4071
818.497	3979
818.638	3934
818.778	3945
818.919	3846
819.06	3903
819.2	3884
819.341	3846
819.481	3819
819.622	3892
819.762	4006
819.903	3922
820.043	3842
820.184	3778
820.324	3804
820.465	3831
820.605	3857
820.746	3884
820.886	3831
821.026	3941
821.167	3911
821.307	3934
821.447	3987
821.588	3983
821.728	3964
821.868	3949
822.008	3854
822.149	3922
822.289	3892
822.429	3789
822.569	3751
822.709	3789
822.849	3679
822.99	3713
823.13	3747
823.27	3774
823.41	3679
823.55	3724
823.69	3736
823.83	3736
823.97	3637
824.11	3584
824.25	3610
824.389	3682
824.529	3629
824.669	3614
824.809	3686
824.949	3728
825.089	3705
825.228	3690
825.368	3572
825.508	3530
825.648	3542
825.787	3545
825.927	3656
826.067	3595
826.206	3671
826.346	3812
826.485	3785
826.625	3819
826.765	3991
826.904	3846
827.044	3584
827.183	3523
827.323	3439
827.462	3473
827.601	3416
827.741	3428
827.88	3409
828.02	3340
828.159	3401
828.298	3473
828.437	3519
828.577	3469
828.716	3576
828.855	3481
828.994	3344
829.134	3332
829.273	3424
829.412	3340
829.551	3310
829.69	3348
829.829	3370
829.968	3492
830.107	3481
830.246	3450
830.385	3359
830.524	3363
830.663	3268
830.802	3230
830.941	3207
831.08	3165
831.219	3241
831.357	3253
831.496	3374
831.635	3211
831.774	3161
831.913	3211
832.051	3108
832.19	3108
832.329	3203
832.467	3074
832.606	3135
832.744	3188
832.883	3203
833.022	3169
833.16	3253
833.299	3317
833.437	3313
833.576	3382
833.714	3382
833.852	3393
833.991	3435
834.129	3450
834.267	3447
834.406	3367
834.544	3382
834.682	3382
834.821	3443
834.959	3549
835.097	3405
835.235	3538
835.373	3473
835.511	3473
835.65	3450
835.788	3466
835.926	3412
836.064	3344
836.202	3389
836.34	3530
836.478	3587
836.615	3519
836.753	3553
836.891	3656
837.029	3644
837.167	3591
837.305	3557
837.443	3545
837.58	3477
837.718	3637
837.856	3553
837.993	3549
838.131	3606
838.269	3568
838.406	3622
838.544	3549
838.681	3435
838.819	3450
838.956	3313
839.094	3401
839.231	3443
839.369	3492
839.506	3694
839.643	3591
839.781	3462
839.918	3458
840.055	3523
840.193	3496
840.33	3523
840.467	3576
840.604	3595
840.742	3800
840.879	3584
841.016	3538
841.153	3530
841.29	3747
841.427	3709
841.564	3698
841.701	3720
841.838	3690
841.975	3641
842.112	3671
842.249	3595
842.385	3610
842.522	3827
842.659	3698
842.796	3713
842.933	3667
843.069	3686
843.206	3682
843.343	3812
843.479	3747
843.616	3812
843.752	3648
843.889	3652
844.025	3842
844.162	3698
844.298	3850
844.435	3778
844.571	3785
844.708	3884
844.844	3953
844.98	3975
845.117	4013
845.253	3896
845.389	3888
845.525	3945
845.661	3949
845.798	3937
845.934	4013
846.07	3918
846.206	4078
846.342	4101
846.478	4051
846.614	3964
846.75	3918
846.886	3899
847.022	4051
847.158	3941
847.294	3972
847.429	3975
847.565	4021
847.701	4230
847.837	3922
847.972	3892
848.108	3983
848.244	3949
848.379	3857
848.515	3789
848.65	3819
848.786	3816
848.921	3850
849.057	3903
849.192	3911
849.328	3876
849.463	3899
849.598	3892
849.734	3869
849.869	3831
850.004	3812
850.14	3819
850.275	3759
850.41	3717
850.545	3778
850.68	3778
850.815	3774
850.95	3766
851.085	3926
851.22	3831
851.355	3835
851.49	3770
851.625	3762
851.76	3831
851.895	3747
852.03	3755
852.165	3797
852.299	3865
852.434	3854
852.569	3857
852.703	3827
852.838	3937
852.973	3968
853.107	3953
853.242	3880
853.376	3869
853.511	3698
853.645	3835
853.78	3956
853.914	3888
854.048	3857
854.183	3865
854.317	3922
854.451	4074
854.585	3968
854.72	3934
854.854	3994
854.988	3922
855.122	3964
855.256	3930
855.39	4002
855.524	4090
855.658	4112
855.792	4071
855.926	4147
856.06	4131
856.194	4223
856.327	4105
856.461	4150
856.595	4116
856.729	4181
856.862	4211
856.996	4211
857.13	4295
857.263	4291
857.397	4337
857.53	4276
857.664	4344
857.797	4348
857.931	4390
858.064	4383
858.197	4485
858.331	4348
858.464	4363
858.597	4360
858.731	4417
858.864	4481
858.997	4455
859.13	4485
859.263	4531
859.396	4542
859.529	4512
859.662	4588
859.795	4478
859.928	4573
860.061	4706
860.194	4694
860.327	4653
860.46	4561
860.592	4691
860.725	4816
860.858	4797
860.99	4656
861.123	4687
861.256	4683
861.388	4809
861.521	5288
861.653	4706
861.786	4717
861.918	4752
862.05	4824
862.183	4885
862.315	4854
862.447	4934
862.58	4866
862.712	4767
862.844	4763
862.976	4885
863.108	4866
863.24	5197
863.372	4828
863.504	4923
863.636	4923
863.768	4976
863.9	4995
864.032	4881
864.164	4946
864.296	4980
864.428	5022
864.559	5117
864.691	5083
864.823	5071
864.954	5094
865.086	5109
865.217	5140
865.349	5121
865.48	5162
865.612	5197
865.743	5227
865.875	5162
866.006	5178
866.137	5212
866.269	5220
866.4	5277
866.531	5242
866.662	5220
866.793	5250
866.924	5242
867.055	5345
867.186	5353
867.317	5284
867.448	5311
867.579	5360
867.71	5353
867.841	5299
867.972	5440
868.103	5467
868.233	5433
868.364	5448
868.495	5505
868.625	5657
868.756	5786
868.886	5627
869.017	5748
869.147	5805
869.278	5889
869.408	5745
869.539	5798
869.669	5870
869.799	5889
869.929	5931
870.06	6022
870.19	6167
870.32	6194
870.45	6277
870.58	6304
870.71	6407
870.84	6452
870.97	6391
871.1	6429
871.23	6681
871.36	6700
871.489	6662
871.619	6749
871.749	6783
871.879	6886
872.008	6951
872.138	6920
872.267	6970
872.397	6966
872.526	7050
872.656	7023
872.785	7149
872.915	7403
873.044	7518
873.173	7510
873.303	7647
873.432	7700
873.561	7890
873.69	7887
873.819	7997
873.948	8202
874.077	8275
874.206	8313
874.335	8450
874.464	8693
874.593	8815
874.722	8952
874.851	9146
874.979	9241
875.108	9389
875.237	9462
875.365	9504
875.494	9656
875.623	9797
875.751	9930
875.88	9991
876.008	10158
876.136	10246
876.265	10474
876.393	10774
876.521	10660
876.65	10839
876.778	10805
876.906	10786
877.034	10984
877.162	11022
877.29	11185
877.418	11273
877.546	11398
877.674	11448
877.802	11455
877.93	11448
878.058	11524
878.185	11486
878.313	11672
878.441	11718
878.568	11707
878.696	11794
878.824	11794
878.951	11897
879.079	11999
879.206	12136
879.333	11999
879.461	11897
879.588	12060
879.715	11931
879.842	12106
879.97	12053
880.097	11935
880.224	11847
880.351	11885
880.478	11824
880.605	11828
880.732	11783
880.859	11931
880.986	11855
881.112	11882
881.239	11676
881.366	11710
881.493	11554
881.619	11611
881.746	11634
881.872	11493
881.999	11566
882.125	11440
882.252	11528
882.378	11543
882.505	11543
882.631	11372
882.757	11326
882.883	11364
883.01	11201
883.136	11254
883.262	11162
883.388	11090
883.514	11117
883.64	11136
883.766	11090
883.892	10946
884.018	11067
884.143	11128
884.269	11006
884.395	10831
884.52	10755
884.646	10797
884.772	10767
884.897	10664
885.023	10755
885.148	10767
885.274	10809
885.399	10656
885.524	10569
885.65	10622
885.775	10622
885.9	10508
886.025	10599
886.15	10588
886.275	10497
886.4	10284
886.525	10337
886.65	10344
886.775	10341
886.9	10474
887.025	10580
887.149	10344
887.274	10318
887.399	10158
887.523	10204
887.648	10093
887.773	10116
887.897	10261
888.021	10192
888.146	10055
888.27	10173
888.395	10188
888.519	10135
888.643	10093
888.767	10105
888.891	10036
889.015	10048
889.139	10048
889.263	9975
889.387	10025
889.511	10143
889.635	10090
889.759	9922
889.883	10010
890.006	9945
890.13	10059
890.254	9941
890.377	9953
890.501	9922
890.624	9842
890.748	9857
890.871	9812
890.995	9759
891.118	9686
891.241	9766
891.364	9720
891.488	9812
891.611	9717
891.734	9698
891.857	9778
891.98	9713
892.103	9766
892.226	9728
892.349	9709
892.471	9462
892.594	9686
892.717	9595
892.839	9641
892.962	9709
893.085	9587
893.207	9572
893.33	9500
893.452	9545
893.575	9507
893.697	9431
893.819	9561
893.941	9629
894.064	9595
894.186	9462
894.308	9473
894.43	9485
894.552	9530
894.674	9534
894.796	9317
894.918	9386
895.04	9321
895.161	9397
895.283	9302
895.405	9313
895.526	9218
895.648	9241
895.769	9275
895.891	9344
896.012	9291
896.134	9169
896.255	9154
896.376	9039
896.498	9169
896.619	9127
896.74	9032
896.861	9135
896.982	9275
897.103	9268
897.224	9135
897.345	9032
897.466	8963
897.587	9036
897.708	9123
897.828	9039
897.949	8929
898.07	8857
898.19	8868
898.311	9032
898.431	8845
898.552	8918
898.672	8982
898.792	8956
898.913	8876
899.033	8788
899.153	8727
899.273	8727
899.393	8632
899.513	8766
899.633	8750
899.753	8792
899.873	8708
899.993	8720
900.113	8693
900.232	8670
900.352	8636
900.472	8629
900.591	8594
900.711	8606
900.83	8575
900.95	8697
901.069	8693
901.189	8571
901.308	8442
901.427	8355
901.546	8461
901.665	8427
901.784	8488
901.904	8431
902.023	8309
902.141	8233
902.26	8225
902.379	8294
902.498	8202
902.617	8187
902.735	8290
902.854	8282
902.973	8092
903.091	8130
903.21	8164
903.328	8096
903.446	8096
903.565	8043
903.683	8142
903.801	8043
903.919	8065
904.038	8161
904.156	8008
904.274	8043
904.392	8016
904.51	8046
904.627	8027
904.745	7986
904.863	8062
904.981	7913
905.098	7822
905.216	7807
905.334	7864
905.451	7936
905.569	7864
905.686	7868
905.803	7875
905.921	7734
906.038	7898
906.155	7784
906.272	7704
906.389	7700
906.506	7632
906.623	7578
906.74	7601
906.857	7571
906.974	7552
907.091	7624
907.208	7693
907.324	7571
907.441	7472
907.557	7441
907.674	7407
907.79	7400
907.907	7415
908.023	7377
908.139	7369
908.256	7308
908.372	7316
908.488	7327
908.604	7225
908.72	7244
908.836	7282
908.952	7221
909.068	7217
909.184	7358
909.3	7202
909.415	7228
909.531	7301
909.647	7118
909.762	7084
909.878	7057
909.993	7053
910.108	7061
910.224	7088
910.339	7050
910.454	7031
910.57	7008
910.685	6920
910.8	7141
910.915	7042
911.03	7019
911.145	6897
911.259	6901
911.374	6875
911.489	6768
911.604	6795
911.718	6700
911.833	6757
911.947	6631
912.062	6631
912.176	6684
912.291	6707
912.405	6677
912.519	6779
912.633	6810
912.748	6738
912.862	6650
912.976	6608
913.09	6490
913.204	6563
913.318	6654
913.431	6601
913.545	6688
913.659	6703
913.772	6566
913.886	6593
914	6517
914.113	6650
914.226	6646
914.34	6574
914.453	6528
914.566	6563
914.68	6513
914.793	6452
914.906	6403
915.019	6426
915.132	6311
915.245	6422
915.358	6471
915.47	6437
915.583	6426
915.696	6414
915.809	6540
915.921	6509
916.034	6441
916.146	6407
916.259	6460
916.371	6464
916.483	6437
916.595	6395
916.708	6399
916.82	6361
916.932	6361
917.044	6350
917.156	6369
917.268	6331
917.38	6304
917.491	6327
917.603	6342
917.715	6338
917.826	6403
917.938	6270
918.049	6262
918.161	6292
918.272	6399
918.384	6445
918.495	6308
918.606	6216
918.717	6213
918.828	6285
918.939	6292
919.05	6205
919.161	6220
919.272	6117
919.383	6098
919.494	6289
919.604	6475
919.715	6243
919.826	6155
919.936	6216
920.047	6304
920.157	6254
920.267	6448
920.378	6311
920.488	6277
920.598	6422
920.708	6517
920.818	6433
920.928	6441
921.038	6559
921.148	6551
921.258	6277
921.368	6308
921.477	6209
921.587	6171
921.697	6034
921.806	6186
921.916	6076
922.025	5931
922.134	5878
922.244	5870
922.353	5916
922.462	5840
922.571	5786
922.68	5623
922.789	5642
922.898	5657
923.007	5608
923.116	5691
923.224	5630
923.333	5707
923.442	5600
923.55	5547
923.659	5539
923.767	5604
923.876	5516
923.984	5604
924.092	5505
924.201	5558
924.309	5539
924.417	5520
924.525	5455
924.633	5501
924.741	6251
924.849	5330
924.956	5444
925.064	5349
925.172	5296
925.279	5296
925.387	5364
925.494	5292
925.602	5398
925.709	5387
925.816	5227
925.924	5284
926.031	5360
926.138	5250
926.245	5299
926.352	5178
926.459	5307
926.566	5318
926.673	5220
926.779	5132
926.886	5105
926.993	5010
927.099	5022
927.206	4934
927.312	4949
927.419	5037
927.525	4942
927.631	4923
927.737	4892
927.843	4870
927.95	4767
928.056	4843
928.162	4786
928.267	4824
928.373	5265
928.479	4835
928.585	4736
928.69	4774
928.796	4740
928.901	4664
929.007	4588
929.112	4653
929.218	4584
929.323	4592
929.428	4554
929.533	4607
929.638	4531
929.743	4493
929.848	4550
929.953	4516
930.058	4421
930.163	4333
930.267	4329
930.372	4379
930.477	4322
930.581	4447
930.685	4337
930.79	4181
930.894	4291
930.998	4223
931.103	4409
931.207	4093
931.311	4112
931.415	4032
931.519	3922
931.623	3949
