Data from glass_V78500241_2315.txt Node
Date: Wed Sep 01 19:30:32 CST 2021
User: usil
Spectrometer: V785-0024
Trigger mode: 0
Integration Time (sec): 4.000000E-1
Scans to average: 1
Nonlinearity correction enabled: false
Boxcar width: 0
Storing dark spectrum: false
XAxis mode: Wavelengths
Number of Pixels in Spectrum: 1024
>>>>>Begin Spectral Data<<<<<
801.071	3747
801.214	3759
801.356	3690
801.499	3728
801.641	3701
801.783	3781
801.926	3831
802.068	3812
802.211	3850
802.353	3888
802.496	3804
802.638	3861
802.78	3869
802.923	3926
803.065	3899
803.208	3865
803.35	3819
803.492	3884
803.635	3896
803.777	3800
803.919	3964
804.061	4181
804.204	3937
804.346	3926
804.488	3907
804.63	4036
804.773	3972
804.915	4029
805.057	4162
805.199	4032
805.341	4112
805.483	4105
805.626	4120
805.768	4105
805.91	4215
806.052	4238
806.194	4192
806.336	4284
806.478	4227
806.62	4135
806.762	4188
806.904	4242
807.046	4322
807.188	4147
807.33	4162
807.472	4234
807.614	4200
807.756	4211
807.898	4188
808.04	4188
808.182	4268
808.324	4356
808.465	4333
808.607	4409
808.749	4436
808.891	4443
809.033	4485
809.174	4455
809.316	4192
809.458	4230
809.6	4120
809.741	4128
809.883	4128
810.025	4192
810.166	4211
810.308	4207
810.45	4196
810.591	4280
810.733	4325
810.875	4504
811.016	4778
811.158	5105
811.299	5246
811.441	5288
811.582	5102
811.724	4683
811.865	4470
812.007	4474
812.148	4440
812.29	4383
812.431	4371
812.573	4363
812.714	4402
812.855	4428
812.997	4360
813.138	4462
813.279	4424
813.421	4344
813.562	4413
813.703	4367
813.845	4310
813.986	4306
814.127	4215
814.268	4253
814.41	4299
814.551	4219
814.692	4299
814.833	4272
814.974	4265
815.115	4291
815.256	4253
815.397	4253
815.539	4238
815.68	4131
815.821	4185
815.962	4363
816.103	4242
816.244	4234
816.385	4223
816.526	4329
816.666	4204
816.807	4093
816.948	4200
817.089	4143
817.23	4131
817.371	4032
817.512	4055
817.653	4105
817.793	4025
817.934	4025
818.075	4093
818.216	4090
818.356	4051
818.497	3987
818.638	3884
818.778	3899
818.919	3903
819.06	3850
819.2	3899
819.341	3876
819.481	3857
819.622	3915
819.762	4017
819.903	3968
820.043	3857
820.184	3846
820.324	3797
820.465	3846
820.605	3850
820.746	3869
820.886	3842
821.026	3918
821.167	3911
821.307	3953
821.447	3949
821.588	3983
821.728	3892
821.868	3884
822.008	3842
822.149	3869
822.289	3888
822.429	3755
822.569	3823
822.709	3819
822.849	3675
822.99	3701
823.13	3766
823.27	3762
823.41	3743
823.55	3713
823.69	3705
823.83	3778
823.97	3625
824.11	3633
824.25	3587
824.389	3618
824.529	3686
824.669	3637
824.809	3694
824.949	3732
825.089	3690
825.228	3728
825.368	3572
825.508	3576
825.648	3553
825.787	3595
825.927	3610
826.067	3644
826.206	3637
826.346	3751
826.485	3842
826.625	3812
826.765	3934
826.904	3800
827.044	3603
827.183	3542
827.323	3431
827.462	3473
827.601	3466
827.741	3382
827.88	3439
828.02	3367
828.159	3409
828.298	3450
828.437	3485
828.577	3485
828.716	3572
828.855	3504
828.994	3382
829.134	3325
829.273	3351
829.412	3329
829.551	3298
829.69	3359
829.829	3397
829.968	3488
830.107	3412
830.246	3458
830.385	3367
830.524	3332
830.663	3275
830.802	3230
830.941	3176
831.08	3180
831.219	3283
831.357	3268
831.496	3420
831.635	3207
831.774	3169
831.913	3176
832.051	3116
832.19	3154
832.329	3199
832.467	3108
832.606	3146
832.744	3146
832.883	3173
833.022	3188
833.16	3241
833.299	3268
833.437	3336
833.576	3363
833.714	3409
833.852	3428
833.991	3447
834.129	3450
834.267	3439
834.406	3428
834.544	3397
834.682	3401
834.821	3401
834.959	3553
835.097	3458
835.235	3481
835.373	3469
835.511	3515
835.65	3466
835.788	3492
835.926	3393
836.064	3351
836.202	3412
836.34	3561
836.478	3572
836.615	3549
836.753	3564
836.891	3656
837.029	3622
837.167	3557
837.305	3572
837.443	3523
837.58	3496
837.718	3561
837.856	3561
837.993	3492
838.131	3633
838.269	3542
838.406	3591
838.544	3572
838.681	3454
838.819	3431
838.956	3359
839.094	3374
839.231	3424
839.369	3504
839.506	3713
839.643	3625
839.781	3488
839.918	3462
840.055	3504
840.193	3500
840.33	3504
840.467	3568
840.604	3580
840.742	3804
840.879	3549
841.016	3587
841.153	3584
841.29	3682
841.427	3724
841.564	3701
841.701	3736
841.838	3641
841.975	3694
842.112	3694
842.249	3622
842.385	3622
842.522	3850
842.659	3644
842.796	3690
842.933	3701
843.069	3679
843.206	3698
843.343	3751
843.479	3759
843.616	3812
843.752	3679
843.889	3690
844.025	3808
844.162	3743
844.298	3842
844.435	3774
844.571	3793
844.708	3876
844.844	3937
844.98	4002
845.117	4032
845.253	3888
845.389	3888
845.525	3964
845.661	3975
845.798	3945
845.934	4017
846.07	3892
846.206	4010
846.342	4120
846.478	4067
846.614	3964
846.75	3937
846.886	3884
847.022	3987
847.158	3949
847.294	3975
847.429	3975
847.565	3972
847.701	4238
847.837	3838
847.972	3888
848.108	3949
848.244	3937
848.379	3838
848.515	3846
848.65	3800
848.786	3838
848.921	3850
849.057	3899
849.192	3964
849.328	3937
849.463	3922
849.598	3880
849.734	3838
849.869	3838
850.004	3800
850.14	3804
850.275	3778
850.41	3743
850.545	3736
850.68	3724
850.815	3804
850.95	3759
851.085	3937
851.22	3857
851.355	3800
851.49	3762
851.625	3762
851.76	3762
851.895	3751
852.03	3740
852.165	3793
852.299	3857
852.434	3888
852.569	3876
852.703	3915
852.838	3960
852.973	3983
853.107	3956
853.242	3861
853.376	3816
853.511	3838
853.645	3827
853.78	3998
853.914	3876
854.048	3880
854.183	3884
854.317	3937
854.451	4010
854.585	3899
854.72	3941
854.854	4044
854.988	3918
855.122	4063
855.256	3930
855.39	4025
855.524	4059
855.658	4074
855.792	4086
855.926	4124
856.06	4181
856.194	4158
856.327	4109
856.461	4124
856.595	4078
856.729	4196
856.862	4272
856.996	4219
857.13	4291
857.263	4291
857.397	4386
857.53	4272
857.664	4383
857.797	4390
857.931	4398
858.064	4398
858.197	4440
858.331	4363
858.464	4390
858.597	4337
858.731	4478
858.864	4405
858.997	4466
859.13	4493
859.263	4546
859.396	4542
859.529	4531
859.662	4497
859.795	4497
859.928	4611
860.061	4725
860.194	4721
860.327	4637
860.46	4660
860.592	4717
860.725	4710
860.858	4767
860.99	4683
861.123	4694
861.256	4679
861.388	4755
861.521	5235
861.653	4717
861.786	4679
861.918	4771
862.05	4816
862.183	4870
862.315	4873
862.447	4934
862.58	4889
862.712	4782
862.844	4778
862.976	4900
863.108	4889
863.24	5178
863.372	4793
863.504	4923
863.636	4927
863.768	4961
863.9	4938
864.032	4881
864.164	4923
864.296	5022
864.428	5045
864.559	5067
864.691	5117
864.823	5090
864.954	5155
865.086	5166
865.217	5147
865.349	5067
865.48	5136
865.612	5193
865.743	5280
865.875	5162
866.006	5159
866.137	5212
866.269	5204
866.4	5189
866.531	5220
866.662	5174
866.793	5307
866.924	5258
867.055	5391
867.186	5395
867.317	5360
867.448	5284
867.579	5341
867.71	5379
867.841	5421
867.972	5429
868.103	5455
868.233	5440
868.364	5535
868.495	5592
868.625	5688
868.756	5817
868.886	5661
869.017	5680
869.147	5836
869.278	5794
869.408	5798
869.539	5870
869.669	5885
869.799	5923
869.929	5984
870.06	5999
870.19	6182
870.32	6155
870.45	6216
870.58	6315
870.71	6410
870.84	6418
870.97	6395
871.1	6395
871.23	6665
871.36	6703
871.489	6642
871.619	6734
871.749	6837
871.879	6837
872.008	6939
872.138	6989
872.267	7023
872.397	6993
872.526	6989
872.656	7072
872.785	7217
872.915	7362
873.044	7533
873.173	7487
873.303	7681
873.432	7696
873.561	7860
873.69	7898
873.819	8005
873.948	8084
874.077	8214
874.206	8320
874.335	8465
874.464	8613
874.593	8861
874.722	8925
874.851	9123
874.979	9199
875.108	9351
875.237	9424
875.365	9488
875.494	9618
875.623	9838
875.751	9823
875.88	10021
876.008	10109
876.136	10223
876.265	10538
876.393	10626
876.521	10729
876.65	10786
876.778	10854
876.906	10938
877.034	10904
877.162	11086
877.29	11166
877.418	11254
877.546	11330
877.674	11452
877.802	11459
877.93	11471
878.058	11558
878.185	11516
878.313	11585
878.441	11786
878.568	11627
878.696	11798
878.824	11775
878.951	11927
879.079	12007
879.206	12205
879.333	12098
879.461	11950
879.588	12022
879.715	12053
879.842	12243
879.97	12083
880.097	11931
880.224	11798
880.351	11889
880.478	11836
880.605	11813
880.732	11748
880.859	11954
880.986	11798
881.112	11817
881.239	11756
881.366	11615
881.493	11634
881.619	11543
881.746	11516
881.872	11528
881.999	11535
882.125	11497
882.252	11524
882.378	11509
882.505	11543
882.631	11311
882.757	11223
882.883	11307
883.01	11303
883.136	11151
883.262	11067
883.388	11071
883.514	11220
883.64	11220
883.766	11174
883.892	11052
884.018	10999
884.143	11018
884.269	11132
884.395	10805
884.52	10714
884.646	10752
884.772	10714
884.897	10714
885.023	10714
885.148	10683
885.274	10759
885.399	10656
885.524	10607
885.65	10626
885.775	10596
885.9	10508
886.025	10516
886.15	10519
886.275	10462
886.4	10344
886.525	10421
886.65	10344
886.775	10333
886.9	10500
887.025	10485
887.149	10348
887.274	10253
887.399	10192
887.523	10185
887.648	10067
887.773	10071
887.897	10200
888.021	10261
888.146	10154
888.27	10234
888.395	10101
888.519	10139
888.643	10192
888.767	10158
888.891	10025
889.015	9968
889.139	10051
889.263	9968
889.387	10044
889.511	10051
889.635	10017
889.759	9960
889.883	10013
890.006	10006
890.13	10082
890.254	10017
890.377	9918
890.501	9816
890.624	9915
890.748	9926
890.871	9857
890.995	9781
891.118	9724
891.241	9720
891.364	9755
891.488	9838
891.611	9679
891.734	9736
891.857	9732
891.98	9713
892.103	9762
892.226	9698
892.349	9682
892.471	9515
892.594	9595
892.717	9618
892.839	9561
892.962	9610
893.085	9740
893.207	9545
893.33	9500
893.452	9610
893.575	9595
893.697	9428
893.819	9679
893.941	9629
894.064	9564
894.186	9523
894.308	9370
894.43	9435
894.552	9576
894.674	9564
894.796	9336
894.918	9367
895.04	9283
895.161	9397
895.283	9332
895.405	9275
895.526	9241
895.648	9226
895.769	9230
895.891	9214
896.012	9230
896.134	9199
896.255	9188
896.376	9119
896.498	9127
896.619	9127
896.74	9138
896.861	9123
896.982	9237
897.103	9249
897.224	9154
897.345	9077
897.466	9051
897.587	9013
897.708	9066
897.828	8963
897.949	8914
898.07	8857
898.19	8872
898.311	8986
898.431	8921
898.552	8914
898.672	8979
898.792	8899
898.913	8868
899.033	8838
899.153	8746
899.273	8629
899.393	8697
899.513	8762
899.633	8674
899.753	8701
899.873	8708
899.993	8731
900.113	8766
900.232	8648
900.352	8594
900.472	8610
900.591	8518
900.711	8613
900.83	8556
900.95	8617
901.069	8621
901.189	8613
901.308	8415
901.427	8385
901.546	8408
901.665	8454
901.784	8537
901.904	8423
902.023	8313
902.141	8233
902.26	8248
902.379	8279
902.498	8199
902.617	8202
902.735	8259
902.854	8317
902.973	8298
903.091	8123
903.21	8111
903.328	8145
903.446	8111
903.565	8100
903.683	8111
903.801	8035
903.919	8149
904.038	8153
904.156	8024
904.274	8031
904.392	8020
904.51	7986
904.627	8020
904.745	8088
904.863	8119
904.981	7967
905.098	7868
905.216	7875
905.334	7936
905.451	7925
905.569	7856
905.686	7860
905.803	7906
905.921	7780
906.038	7852
906.155	7795
906.272	7685
906.389	7753
906.506	7632
906.623	7590
906.74	7628
906.857	7552
906.974	7491
907.091	7643
907.208	7757
907.324	7605
907.441	7563
907.557	7392
907.674	7441
907.79	7403
907.907	7373
908.023	7499
908.139	7419
908.256	7396
908.372	7365
908.488	7331
908.604	7247
908.72	7244
908.836	7289
908.952	7232
909.068	7251
909.184	7346
909.3	7240
909.415	7320
909.531	7270
909.647	7110
909.762	7141
909.878	7072
909.993	7141
910.108	7122
910.224	7057
910.339	7118
910.454	7053
910.57	7034
910.685	6943
910.8	7160
910.915	7057
911.03	7023
911.145	6939
911.259	6848
911.374	6913
911.489	6779
911.604	6802
911.718	6684
911.833	6700
911.947	6616
912.062	6585
912.176	6673
912.291	6734
912.405	6684
912.519	6779
912.633	6798
912.748	6764
912.862	6654
912.976	6650
913.09	6525
913.204	6597
913.318	6662
913.431	6696
913.545	6673
913.659	6772
913.772	6627
913.886	6509
914	6547
914.113	6627
914.226	6669
914.34	6604
914.453	6433
914.566	6593
914.68	6509
914.793	6475
914.906	6414
915.019	6410
915.132	6388
915.245	6414
915.358	6388
915.47	6479
915.583	6422
915.696	6441
915.809	6528
915.921	6536
916.034	6422
916.146	6323
916.259	6285
916.371	6437
916.483	6407
916.595	6388
916.708	6395
916.82	6429
916.932	6350
917.044	6422
917.156	6361
917.268	6281
917.38	6357
917.491	6308
917.603	6300
917.715	6353
917.826	6445
917.938	6308
918.049	6296
918.161	6342
918.272	6418
918.384	6479
918.495	6311
918.606	6209
918.717	6213
918.828	6232
918.939	6266
919.05	6114
919.161	6281
919.272	6110
919.383	6114
919.494	6262
919.604	6365
919.715	6296
919.826	6201
919.936	6251
920.047	6323
920.157	6209
920.267	6494
920.378	6304
920.488	6251
920.598	6498
920.708	6521
920.818	6380
920.928	6399
921.038	6570
921.148	6589
921.258	6323
921.368	6254
921.477	6163
921.587	6110
921.697	6110
921.806	6186
921.916	6015
922.025	5923
922.134	5923
922.244	5851
922.353	5942
922.462	5824
922.571	5741
922.68	5737
922.789	5634
922.898	5714
923.007	5619
923.116	5638
923.224	5638
923.333	5623
923.442	5619
923.55	5562
923.659	5570
923.767	5634
923.876	5493
923.984	5592
924.092	5490
924.201	5604
924.309	5505
924.417	5589
924.525	5478
924.633	5482
924.741	6270
924.849	5360
924.956	5493
925.064	5322
925.172	5265
925.279	5296
925.387	5349
925.494	5307
925.602	5440
925.709	5372
925.816	5254
925.924	5303
926.031	5357
926.138	5261
926.245	5402
926.352	5208
926.459	5315
926.566	5315
926.673	5231
926.779	5140
926.886	5117
926.993	5037
927.099	5018
927.206	4965
927.312	4965
927.419	5041
927.525	5010
927.631	4987
927.737	4873
927.843	4854
927.95	4790
928.056	4809
928.162	4752
928.267	4885
928.373	5349
928.479	4847
928.585	4687
928.69	4786
928.796	4786
928.901	4664
929.007	4588
929.112	4649
929.218	4599
929.323	4634
929.428	4561
929.533	4698
929.638	4474
929.743	4489
929.848	4478
929.953	4516
930.058	4421
930.163	4325
930.267	4306
930.372	4455
930.477	4314
930.581	4466
930.685	4329
930.79	4246
930.894	4322
930.998	4204
931.103	4367
931.207	4112
931.311	4029
931.415	4067
931.519	3896
931.623	3937
