Data from glass_V78500241_244.txt Node
Date: Wed Sep 01 19:16:11 CST 2021
User: usil
Spectrometer: V785-0024
Trigger mode: 0
Integration Time (sec): 4.000000E-1
Scans to average: 1
Nonlinearity correction enabled: false
Boxcar width: 0
Storing dark spectrum: false
XAxis mode: Wavelengths
Number of Pixels in Spectrum: 1024
>>>>>Begin Spectral Data<<<<<
801.071	3759
801.214	3766
801.356	3762
801.499	3770
801.641	3755
801.783	3804
801.926	3880
802.068	3857
802.211	3865
802.353	3945
802.496	3854
802.638	3880
802.78	3979
802.923	3937
803.065	3896
803.208	3861
803.35	3865
803.492	3918
803.635	3915
803.777	3838
803.919	3896
804.061	4150
804.204	3983
804.346	3964
804.488	3949
804.63	4048
804.773	3987
804.915	4051
805.057	4131
805.199	4029
805.341	4090
805.483	4131
805.626	4120
805.768	4147
805.91	4219
806.052	4291
806.194	4261
806.336	4356
806.478	4265
806.62	4192
806.762	4192
806.904	4268
807.046	4360
807.188	4238
807.33	4215
807.472	4268
807.614	4215
807.756	4287
807.898	4265
808.04	4234
808.182	4310
808.324	4318
808.465	4443
808.607	4504
808.749	4474
808.891	4474
809.033	4493
809.174	4409
809.316	4295
809.458	4287
809.6	4173
809.741	4188
809.883	4181
810.025	4230
810.166	4211
810.308	4253
810.45	4272
810.591	4257
810.733	4318
810.875	4459
811.016	4839
811.158	5162
811.299	5299
811.441	5280
811.582	5052
811.724	4675
811.865	4481
812.007	4481
812.148	4409
812.29	4443
812.431	4360
812.573	4428
812.714	4363
812.855	4352
812.997	4402
813.138	4538
813.279	4398
813.421	4386
813.562	4386
813.703	4341
813.845	4363
813.986	4246
814.127	4219
814.268	4287
814.41	4325
814.551	4303
814.692	4341
814.833	4265
814.974	4295
815.115	4322
815.256	4234
815.397	4276
815.539	4215
815.68	4196
815.821	4227
815.962	4344
816.103	4310
816.244	4249
816.385	4284
816.526	4246
816.666	4242
816.807	4067
816.948	4181
817.089	4173
817.23	4204
817.371	4071
817.512	4055
817.653	4093
817.793	4086
817.934	4071
818.075	4143
818.216	4135
818.356	4074
818.497	4025
818.638	3934
818.778	3926
818.919	3926
819.06	3888
819.2	3903
819.341	3899
819.481	3865
819.622	3899
819.762	3994
819.903	3979
820.043	3907
820.184	3835
820.324	3857
820.465	3918
820.605	3888
820.746	3907
820.886	3850
821.026	3945
821.167	3907
821.307	3960
821.447	3941
821.588	3949
821.728	3937
821.868	3945
822.008	3854
822.149	3880
822.289	3903
822.429	3781
822.569	3743
822.709	3808
822.849	3724
822.99	3701
823.13	3759
823.27	3759
823.41	3766
823.55	3751
823.69	3732
823.83	3789
823.97	3679
824.11	3618
824.25	3610
824.389	3667
824.529	3724
824.669	3633
824.809	3728
824.949	3720
825.089	3743
825.228	3682
825.368	3584
825.508	3545
825.648	3557
825.787	3641
825.927	3633
826.067	3648
826.206	3701
826.346	3778
826.485	3857
826.625	3888
826.765	3934
826.904	3816
827.044	3622
827.183	3549
827.323	3443
827.462	3485
827.601	3431
827.741	3405
827.88	3473
828.02	3355
828.159	3462
828.298	3511
828.437	3530
828.577	3492
828.716	3629
828.855	3477
828.994	3370
829.134	3344
829.273	3382
829.412	3367
829.551	3351
829.69	3329
829.829	3439
829.968	3545
830.107	3473
830.246	3458
830.385	3416
830.524	3363
830.663	3348
830.802	3260
830.941	3173
831.08	3195
831.219	3298
831.357	3298
831.496	3458
831.635	3256
831.774	3233
831.913	3245
832.051	3135
832.19	3157
832.329	3222
832.467	3154
832.606	3119
832.744	3180
832.883	3218
833.022	3214
833.16	3260
833.299	3310
833.437	3363
833.576	3397
833.714	3428
833.852	3454
833.991	3458
834.129	3477
834.267	3466
834.406	3424
834.544	3450
834.682	3435
834.821	3435
834.959	3553
835.097	3450
835.235	3553
835.373	3500
835.511	3462
835.65	3443
835.788	3485
835.926	3443
836.064	3389
836.202	3397
836.34	3557
836.478	3629
836.615	3549
836.753	3610
836.891	3656
837.029	3633
837.167	3618
837.305	3576
837.443	3553
837.58	3530
837.718	3606
837.856	3591
837.993	3580
838.131	3652
838.269	3591
838.406	3644
838.544	3587
838.681	3492
838.819	3485
838.956	3363
839.094	3389
839.231	3454
839.369	3523
839.506	3770
839.643	3641
839.781	3538
839.918	3488
840.055	3530
840.193	3549
840.33	3542
840.467	3561
840.604	3603
840.742	3842
840.879	3580
841.016	3553
841.153	3606
841.29	3789
841.427	3705
841.564	3736
841.701	3740
841.838	3713
841.975	3679
842.112	3747
842.249	3633
842.385	3637
842.522	3842
842.659	3724
842.796	3671
842.933	3728
843.069	3713
843.206	3671
843.343	3816
843.479	3812
843.616	3857
843.752	3682
843.889	3660
844.025	3846
844.162	3709
844.298	3865
844.435	3816
844.571	3747
844.708	3911
844.844	3975
844.98	4006
845.117	4074
845.253	3918
845.389	3941
845.525	3972
845.661	3972
845.798	3994
845.934	4002
846.07	3915
846.206	4109
846.342	4101
846.478	4071
846.614	3945
846.75	3968
846.886	3953
847.022	4025
847.158	3987
847.294	3983
847.429	4055
847.565	4036
847.701	4261
847.837	3888
847.972	3884
848.108	3987
848.244	3960
848.379	3888
848.515	3831
848.65	3800
848.786	3869
848.921	3892
849.057	3949
849.192	3934
849.328	3937
849.463	3953
849.598	3911
849.734	3846
849.869	3854
850.004	3842
850.14	3838
850.275	3770
850.41	3774
850.545	3717
850.68	3823
850.815	3804
850.95	3797
851.085	3953
851.22	3888
851.355	3850
851.49	3816
851.625	3789
851.76	3827
851.895	3732
852.03	3751
852.165	3781
852.299	3884
852.434	3937
852.569	3911
852.703	3884
852.838	3949
852.973	4036
853.107	3991
853.242	3937
853.376	3869
853.511	3804
853.645	3850
853.78	4002
853.914	3926
854.048	3949
854.183	3915
854.317	3953
854.451	4055
854.585	3930
854.72	3949
854.854	4063
854.988	3972
855.122	4029
855.256	3956
855.39	4013
855.524	4162
855.658	4105
855.792	4124
855.926	4139
856.06	4147
856.194	4223
856.327	4150
856.461	4124
856.595	4150
856.729	4173
856.862	4329
856.996	4227
857.13	4261
857.263	4344
857.397	4394
857.53	4291
857.664	4402
857.797	4402
857.931	4383
858.064	4459
858.197	4474
858.331	4413
858.464	4405
858.597	4386
858.731	4421
858.864	4466
858.997	4462
859.13	4538
859.263	4523
859.396	4561
859.529	4519
859.662	4561
859.795	4542
859.928	4592
860.061	4694
860.194	4793
860.327	4660
860.46	4664
860.592	4759
860.725	4820
860.858	4782
860.99	4714
861.123	4702
861.256	4698
861.388	4801
861.521	5387
861.653	4763
861.786	4721
861.918	4759
862.05	4805
862.183	4862
862.315	4911
862.447	5018
862.58	4896
862.712	4801
862.844	4793
862.976	4870
863.108	4870
863.24	5220
863.372	4885
863.504	4923
863.636	4885
863.768	4949
863.9	4995
864.032	4946
864.164	4999
864.296	5048
864.428	5159
864.559	5086
864.691	5128
864.823	5109
864.954	5071
865.086	5113
865.217	5109
865.349	5105
865.48	5204
865.612	5223
865.743	5296
865.875	5201
866.006	5162
866.137	5265
866.269	5197
866.4	5246
866.531	5227
866.662	5220
866.793	5307
866.924	5315
867.055	5387
867.186	5383
867.317	5330
867.448	5334
867.579	5357
867.71	5368
867.841	5387
867.972	5440
868.103	5482
868.233	5478
868.364	5501
868.495	5532
868.625	5665
868.756	5764
868.886	5691
869.017	5691
869.147	5794
869.278	5893
869.408	5779
869.539	5847
869.669	5904
869.799	5939
869.929	6022
870.06	6019
870.19	6251
870.32	6201
870.45	6254
870.58	6346
870.71	6475
870.84	6555
870.97	6410
871.1	6429
871.23	6696
871.36	6677
871.489	6719
871.619	6719
871.749	6753
871.879	6867
872.008	6977
872.138	6993
872.267	7069
872.397	7012
872.526	7072
872.656	7095
872.785	7183
872.915	7362
873.044	7491
873.173	7548
873.303	7700
873.432	7742
873.561	7940
873.69	7951
873.819	8005
873.948	8233
874.077	8244
874.206	8320
874.335	8454
874.464	8651
874.593	8857
874.722	8899
874.851	9169
874.979	9279
875.108	9374
875.237	9397
875.365	9469
875.494	9671
875.623	9850
875.751	9865
875.88	10051
876.008	10158
876.136	10284
876.265	10535
876.393	10729
876.521	10759
876.65	10869
876.778	10889
876.906	10889
877.034	10980
877.162	11075
877.29	11155
877.418	11227
877.546	11360
877.674	11486
877.802	11452
877.93	11543
878.058	11524
878.185	11634
878.313	11608
878.441	11767
878.568	11703
878.696	11832
878.824	11760
878.951	11931
879.079	12060
879.206	12125
879.333	12140
879.461	12076
879.588	12129
879.715	12057
879.842	12281
879.97	12068
880.097	11897
880.224	11954
880.351	11889
880.478	11901
880.605	11783
880.732	11794
880.859	11973
880.986	11832
881.112	11874
881.239	11733
881.366	11657
881.493	11619
881.619	11528
881.746	11592
881.872	11448
881.999	11524
882.125	11558
882.252	11596
882.378	11478
882.505	11570
882.631	11341
882.757	11269
882.883	11311
883.01	11246
883.136	11273
883.262	11185
883.388	11189
883.514	11220
883.64	11086
883.766	11105
883.892	10976
884.018	11003
884.143	11052
884.269	11094
884.395	10816
884.52	10793
884.646	10847
884.772	10748
884.897	10706
885.023	10660
885.148	10790
885.274	10691
885.399	10740
885.524	10630
885.65	10634
885.775	10561
885.9	10599
886.025	10622
886.15	10550
886.275	10413
886.4	10436
886.525	10360
886.65	10417
886.775	10329
886.9	10497
887.025	10542
887.149	10360
887.274	10303
887.399	10200
887.523	10158
887.648	10120
887.773	10139
887.897	10242
888.021	10337
888.146	10150
888.27	10234
888.395	10177
888.519	10265
888.643	10150
888.767	10234
888.891	10185
889.015	10036
889.139	10044
889.263	10036
889.387	10105
889.511	10044
889.635	10013
889.759	9960
889.883	10002
890.006	10021
890.13	10059
890.254	9960
890.377	9998
890.501	9846
890.624	9899
890.748	9926
890.871	9781
890.995	9804
891.118	9675
891.241	9740
891.364	9690
891.488	9861
891.611	9789
891.734	9781
891.857	9747
891.98	9720
892.103	9747
892.226	9690
892.349	9686
892.471	9591
892.594	9610
892.717	9637
892.839	9576
892.962	9591
893.085	9648
893.207	9587
893.33	9542
893.452	9500
893.575	9595
893.697	9595
893.819	9667
893.941	9660
894.064	9564
894.186	9447
894.308	9382
894.43	9496
894.552	9610
894.674	9523
894.796	9359
894.918	9393
895.04	9389
895.161	9393
895.283	9389
895.405	9218
895.526	9291
895.648	9260
895.769	9241
895.891	9237
896.012	9241
896.134	9150
896.255	9291
896.376	9112
896.498	9173
896.619	9207
896.74	9070
896.861	9097
896.982	9226
897.103	9332
897.224	9211
897.345	9070
897.466	9085
897.587	8963
897.708	9058
897.828	9066
897.949	8941
898.07	8941
898.19	8925
898.311	8929
898.431	8906
898.552	9005
898.672	9017
898.792	8975
898.913	8937
899.033	8826
899.153	8739
899.273	8720
899.393	8670
899.513	8777
899.633	8746
899.753	8769
899.873	8708
899.993	8777
900.113	8739
900.232	8701
900.352	8644
900.472	8610
900.591	8640
900.711	8552
900.83	8594
900.95	8686
901.069	8727
901.189	8583
901.308	8469
901.427	8480
901.546	8427
901.665	8434
901.784	8446
901.904	8370
902.023	8343
902.141	8290
902.26	8237
902.379	8309
902.498	8252
902.617	8263
902.735	8286
902.854	8294
902.973	8328
903.091	8077
903.21	8176
903.328	8191
903.446	8138
903.565	8054
903.683	8161
903.801	8024
903.919	8187
904.038	8123
904.156	8065
904.274	8001
904.392	8069
904.51	8050
904.627	8065
904.745	8046
904.863	8142
904.981	7978
905.098	7879
905.216	7887
905.334	7830
905.451	7928
905.569	7936
905.686	8024
905.803	7883
905.921	7837
906.038	7902
906.155	7746
906.272	7750
906.389	7712
906.506	7647
906.623	7666
906.74	7586
906.857	7537
906.974	7647
907.091	7704
907.208	7727
907.324	7624
907.441	7613
907.557	7403
907.674	7472
907.79	7396
907.907	7422
908.023	7415
908.139	7438
908.256	7422
908.372	7411
908.488	7358
908.604	7236
908.72	7225
908.836	7297
908.952	7221
909.068	7331
909.184	7339
909.3	7320
909.415	7297
909.531	7305
909.647	7065
909.762	7107
909.878	7179
909.993	7183
910.108	7168
910.224	7152
910.339	7171
910.454	7031
910.57	7034
910.685	6985
910.8	7209
910.915	7118
911.03	7084
911.145	6943
911.259	6920
911.374	6943
911.489	6840
911.604	6810
911.718	6741
911.833	6726
911.947	6673
912.062	6593
912.176	6623
912.291	6707
912.405	6738
912.519	6867
912.633	6779
912.748	6833
912.862	6703
912.976	6635
913.09	6521
913.204	6585
913.318	6669
913.431	6665
913.545	6684
913.659	6681
913.772	6696
913.886	6616
914	6570
914.113	6604
914.226	6608
914.34	6589
914.453	6532
914.566	6620
914.68	6486
914.793	6559
914.906	6467
915.019	6395
915.132	6426
915.245	6452
915.358	6452
915.47	6471
915.583	6433
915.696	6509
915.809	6578
915.921	6547
916.034	6422
916.146	6475
916.259	6369
916.371	6441
916.483	6456
916.595	6407
916.708	6460
916.82	6399
916.932	6342
917.044	6334
917.156	6369
917.268	6315
917.38	6369
917.491	6342
917.603	6388
917.715	6403
917.826	6456
917.938	6376
918.049	6254
918.161	6395
918.272	6418
918.384	6414
918.495	6433
918.606	6220
918.717	6270
918.828	6262
918.939	6300
919.05	6155
919.161	6232
919.272	6129
919.383	6201
919.494	6300
919.604	6407
919.715	6311
919.826	6232
919.936	6262
920.047	6380
920.157	6247
920.267	6460
920.378	6331
920.488	6262
920.598	6486
920.708	6570
920.818	6509
920.928	6483
921.038	6589
921.148	6616
921.258	6403
921.368	6266
921.477	6213
921.587	6201
921.697	6072
921.806	6197
921.916	6064
922.025	5942
922.134	5977
922.244	5863
922.353	5950
922.462	5866
922.571	5783
922.68	5741
922.789	5695
922.898	5722
923.007	5615
923.116	5710
923.224	5695
923.333	5623
923.442	5661
923.55	5615
923.659	5577
923.767	5676
923.876	5627
923.984	5615
924.092	5535
924.201	5528
924.309	5528
924.417	5551
924.525	5490
924.633	5516
924.741	6224
924.849	5360
924.956	5501
925.064	5360
925.172	5360
925.279	5330
925.387	5376
925.494	5311
925.602	5433
925.709	5379
925.816	5231
925.924	5318
926.031	5357
926.138	5280
926.245	5391
926.352	5223
926.459	5360
926.566	5398
926.673	5216
926.779	5136
926.886	5128
926.993	5048
927.099	5048
927.206	4946
927.312	4946
927.419	5048
927.525	4942
927.631	5006
927.737	4927
927.843	4877
927.95	4733
928.056	4839
928.162	4858
928.267	4839
928.373	5315
928.479	4870
928.585	4698
928.69	4797
928.796	4763
928.901	4672
929.007	4588
929.112	4748
929.218	4702
929.323	4611
929.428	4615
929.533	4679
929.638	4523
929.743	4504
929.848	4554
929.953	4550
930.058	4451
930.163	4314
930.267	4379
930.372	4447
930.477	4325
930.581	4451
930.685	4379
930.79	4227
930.894	4303
930.998	4325
931.103	4398
931.207	4135
931.311	4090
931.415	4021
931.519	3975
931.623	3964
