Data from glass_V78500241_1089.txt Node
Date: Wed Sep 01 19:22:02 CST 2021
User: usil
Spectrometer: V785-0024
Trigger mode: 0
Integration Time (sec): 4.000000E-1
Scans to average: 1
Nonlinearity correction enabled: false
Boxcar width: 0
Storing dark spectrum: false
XAxis mode: Wavelengths
Number of Pixels in Spectrum: 1024
>>>>>Begin Spectral Data<<<<<
801.071	3743
801.214	3793
801.356	3720
801.499	3808
801.641	3709
801.783	3804
801.926	3827
802.068	3816
802.211	3865
802.353	3899
802.496	3838
802.638	3899
802.78	3941
802.923	3907
803.065	3896
803.208	3838
803.35	3869
803.492	3865
803.635	3941
803.777	3800
803.919	3934
804.061	4124
804.204	3983
804.346	3964
804.488	3945
804.63	4044
804.773	3949
804.915	4010
805.057	4109
805.199	4029
805.341	4124
805.483	4158
805.626	4101
805.768	4143
805.91	4223
806.052	4265
806.194	4196
806.336	4352
806.478	4238
806.62	4215
806.762	4204
806.904	4234
807.046	4344
807.188	4196
807.33	4196
807.472	4246
807.614	4211
807.756	4280
807.898	4185
808.04	4219
808.182	4295
808.324	4333
808.465	4390
808.607	4451
808.749	4504
808.891	4451
809.033	4504
809.174	4440
809.316	4272
809.458	4265
809.6	4158
809.741	4116
809.883	4147
810.025	4215
810.166	4204
810.308	4249
810.45	4287
810.591	4287
810.733	4325
810.875	4466
811.016	4908
811.158	5090
811.299	5261
811.441	5265
811.582	5083
811.724	4748
811.865	4485
812.007	4535
812.148	4462
812.29	4405
812.431	4417
812.573	4352
812.714	4371
812.855	4413
812.997	4417
813.138	4489
813.279	4432
813.421	4371
813.562	4371
813.703	4348
813.845	4348
813.986	4265
814.127	4242
814.268	4257
814.41	4284
814.551	4272
814.692	4352
814.833	4306
814.974	4299
815.115	4360
815.256	4276
815.397	4318
815.539	4284
815.68	4230
815.821	4242
815.962	4314
816.103	4303
816.244	4238
816.385	4207
816.526	4303
816.666	4230
816.807	4131
816.948	4238
817.089	4230
817.23	4097
817.371	4044
817.512	4067
817.653	4078
817.793	4044
817.934	4090
818.075	4109
818.216	4071
818.356	4105
818.497	3956
818.638	3945
818.778	3926
818.919	3911
819.06	3861
819.2	3937
819.341	3896
819.481	3869
819.622	3934
819.762	3987
819.903	3941
820.043	3888
820.184	3797
820.324	3857
820.465	3842
820.605	3873
820.746	3854
820.886	3819
821.026	3945
821.167	3934
821.307	3987
821.447	4017
821.588	3979
821.728	3975
821.868	3941
822.008	3930
822.149	3918
822.289	3896
822.429	3819
822.569	3785
822.709	3789
822.849	3766
822.99	3736
823.13	3781
823.27	3751
823.41	3724
823.55	3740
823.69	3705
823.83	3743
823.97	3720
824.11	3629
824.25	3618
824.389	3637
824.529	3709
824.669	3633
824.809	3701
824.949	3728
825.089	3759
825.228	3709
825.368	3603
825.508	3564
825.648	3538
825.787	3625
825.927	3618
826.067	3629
826.206	3652
826.346	3819
826.485	3846
826.625	3884
826.765	4013
826.904	3827
827.044	3633
827.183	3561
827.323	3458
827.462	3530
827.601	3416
827.741	3439
827.88	3428
828.02	3428
828.159	3462
828.298	3485
828.437	3545
828.577	3488
828.716	3618
828.855	3519
828.994	3420
829.134	3397
829.273	3389
829.412	3340
829.551	3310
829.69	3363
829.829	3424
829.968	3561
830.107	3424
830.246	3439
830.385	3393
830.524	3344
830.663	3332
830.802	3302
830.941	3173
831.08	3214
831.219	3287
831.357	3306
831.496	3367
831.635	3268
831.774	3176
831.913	3214
832.051	3089
832.19	3127
832.329	3233
832.467	3157
832.606	3089
832.744	3211
832.883	3192
833.022	3241
833.16	3302
833.299	3344
833.437	3291
833.576	3367
833.714	3412
833.852	3447
833.991	3462
834.129	3492
834.267	3454
834.406	3409
834.544	3435
834.682	3409
834.821	3458
834.959	3564
835.097	3439
835.235	3542
835.373	3492
835.511	3549
835.65	3473
835.788	3519
835.926	3401
836.064	3355
836.202	3435
836.34	3549
836.478	3629
836.615	3530
836.753	3587
836.891	3633
837.029	3614
837.167	3603
837.305	3561
837.443	3549
837.58	3488
837.718	3625
837.856	3549
837.993	3561
838.131	3595
838.269	3603
838.406	3599
838.544	3549
838.681	3450
838.819	3477
838.956	3382
839.094	3389
839.231	3462
839.369	3500
839.506	3781
839.643	3610
839.781	3496
839.918	3469
840.055	3523
840.193	3557
840.33	3504
840.467	3606
840.604	3580
840.742	3770
840.879	3534
841.016	3580
841.153	3580
841.29	3736
841.427	3770
841.564	3766
841.701	3713
841.838	3660
841.975	3694
842.112	3720
842.249	3637
842.385	3660
842.522	3812
842.659	3690
842.796	3682
842.933	3679
843.069	3713
843.206	3698
843.343	3831
843.479	3751
843.616	3781
843.752	3724
843.889	3705
844.025	3880
844.162	3701
844.298	3884
844.435	3816
844.571	3770
844.708	3915
844.844	4029
844.98	4013
845.117	4021
845.253	3903
845.389	3953
845.525	3987
845.661	3979
845.798	3926
845.934	4032
846.07	3949
846.206	4036
846.342	4097
846.478	4048
846.614	3968
846.75	3937
846.886	3922
847.022	4036
847.158	4010
847.294	4029
847.429	4017
847.565	4025
847.701	4196
847.837	3937
847.972	3892
848.108	4006
848.244	3922
848.379	3903
848.515	3804
848.65	3812
848.786	3850
848.921	3876
849.057	3899
849.192	3960
849.328	3922
849.463	3922
849.598	3892
849.734	3854
849.869	3827
850.004	3804
850.14	3831
850.275	3789
850.41	3755
850.545	3766
850.68	3808
850.815	3823
850.95	3800
851.085	3934
851.22	3854
851.355	3846
851.49	3766
851.625	3785
851.76	3759
851.895	3759
852.03	3747
852.165	3800
852.299	3819
852.434	3934
852.569	3823
852.703	3846
852.838	3964
852.973	4021
853.107	3975
853.242	3873
853.376	3880
853.511	3778
853.645	3835
853.78	3998
853.914	3896
854.048	3941
854.183	3907
854.317	3972
854.451	4090
854.585	3964
854.72	3979
854.854	4002
854.988	3934
855.122	3998
855.256	3915
855.39	4002
855.524	4109
855.658	4131
855.792	4135
855.926	4135
856.06	4169
856.194	4188
856.327	4192
856.461	4109
856.595	4211
856.729	4200
856.862	4287
856.996	4230
857.13	4322
857.263	4337
857.397	4379
857.53	4272
857.664	4360
857.797	4417
857.931	4466
858.064	4386
858.197	4462
858.331	4375
858.464	4409
858.597	4375
858.731	4443
858.864	4447
858.997	4443
859.13	4443
859.263	4569
859.396	4615
859.529	4565
859.662	4561
859.795	4527
859.928	4618
860.061	4778
860.194	4733
860.327	4649
860.46	4683
860.592	4790
860.725	4824
860.858	4782
860.99	4717
861.123	4698
861.256	4645
861.388	4774
861.521	5474
861.653	4771
861.786	4710
861.918	4740
862.05	4839
862.183	4911
862.315	4847
862.447	4923
862.58	4892
862.712	4816
862.844	4740
862.976	4904
863.108	4850
863.24	5265
863.372	4824
863.504	4877
863.636	4885
863.768	5022
863.9	4938
864.032	4843
864.164	4965
864.296	5010
864.428	5094
864.559	5105
864.691	5170
864.823	5147
864.954	5105
865.086	5189
865.217	5136
865.349	5052
865.48	5189
865.612	5201
865.743	5307
865.875	5231
866.006	5174
866.137	5235
866.269	5269
866.4	5254
866.531	5201
866.662	5239
866.793	5269
866.924	5292
867.055	5326
867.186	5364
867.317	5322
867.448	5353
867.579	5448
867.71	5387
867.841	5383
867.972	5467
868.103	5402
868.233	5501
868.364	5490
868.495	5478
868.625	5691
868.756	5790
868.886	5695
869.017	5691
869.147	5847
869.278	5893
869.408	5786
869.539	5859
869.669	5882
869.799	5942
869.929	6041
870.06	6003
870.19	6140
870.32	6178
870.45	6254
870.58	6380
870.71	6353
870.84	6448
870.97	6429
871.1	6464
871.23	6642
871.36	6730
871.489	6703
871.619	6745
871.749	6814
871.879	6871
872.008	6981
872.138	6989
872.267	7019
872.397	7015
872.526	7015
872.656	7080
872.785	7164
872.915	7343
873.044	7518
873.173	7590
873.303	7639
873.432	7761
873.561	7917
873.69	7917
873.819	8031
873.948	8176
874.077	8248
874.206	8366
874.335	8469
874.464	8655
874.593	8826
874.722	8971
874.851	9108
874.979	9245
875.108	9332
875.237	9405
875.365	9500
875.494	9694
875.623	9865
875.751	9800
875.88	10017
876.008	10093
876.136	10261
876.265	10523
876.393	10748
876.521	10763
876.65	10771
876.778	10847
876.906	10854
877.034	11010
877.162	11132
877.29	11189
877.418	11239
877.546	11406
877.674	11448
877.802	11493
877.93	11581
878.058	11589
878.185	11467
878.313	11653
878.441	11817
878.568	11615
878.696	11802
878.824	11805
878.951	11988
879.079	11999
879.206	12182
879.333	12057
879.461	11973
879.588	12121
879.715	12136
879.842	12247
879.97	12049
880.097	11897
880.224	11874
880.351	11999
880.478	11859
880.605	11855
880.732	11802
880.859	12064
880.986	11904
881.112	11794
881.239	11653
881.366	11722
881.493	11634
881.619	11600
881.746	11573
881.872	11566
881.999	11482
882.125	11440
882.252	11589
882.378	11528
882.505	11490
882.631	11414
882.757	11288
882.883	11337
883.01	11227
883.136	11178
883.262	11098
883.388	11102
883.514	11204
883.64	11284
883.766	11105
883.892	11056
884.018	11037
884.143	11018
884.269	11185
884.395	10850
884.52	10828
884.646	10835
884.772	10725
884.897	10683
885.023	10740
885.148	10809
885.274	10824
885.399	10721
885.524	10538
885.65	10569
885.775	10656
885.9	10565
886.025	10592
886.15	10538
886.275	10558
886.4	10394
886.525	10405
886.65	10390
886.775	10303
886.9	10500
887.025	10569
887.149	10348
887.274	10314
887.399	10185
887.523	10135
887.648	10181
887.773	10124
887.897	10265
888.021	10246
888.146	10082
888.27	10249
888.395	10238
888.519	10200
888.643	10227
888.767	10158
888.891	10109
889.015	10048
889.139	10093
889.263	9994
889.387	10097
889.511	10234
889.635	10162
889.759	9960
889.883	9937
890.006	10013
890.13	10101
890.254	9941
890.377	9926
890.501	9911
890.624	9869
890.748	9835
890.871	9873
890.995	9724
891.118	9671
891.241	9724
891.364	9663
891.488	9789
891.611	9751
891.734	9743
891.857	9819
891.98	9686
892.103	9694
892.226	9785
892.349	9709
892.471	9545
892.594	9637
892.717	9667
892.839	9675
892.962	9587
893.085	9652
893.207	9625
893.33	9538
893.452	9530
893.575	9599
893.697	9561
893.819	9629
893.941	9675
894.064	9648
894.186	9389
894.308	9348
894.43	9488
894.552	9633
894.674	9526
894.796	9420
894.918	9351
895.04	9370
895.161	9374
895.283	9370
895.405	9180
895.526	9188
895.648	9298
895.769	9302
895.891	9230
896.012	9275
896.134	9294
896.255	9165
896.376	9077
896.498	9127
896.619	9135
896.74	9108
896.861	9081
896.982	9214
897.103	9355
897.224	9184
897.345	9089
897.466	9005
897.587	8982
897.708	9093
897.828	9074
897.949	8979
898.07	8849
898.19	8918
898.311	9013
898.431	8933
898.552	8963
898.672	8929
898.792	8914
898.913	8876
899.033	8857
899.153	8815
899.273	8682
899.393	8773
899.513	8788
899.633	8708
899.753	8739
899.873	8697
899.993	8739
900.113	8762
900.232	8686
900.352	8693
900.472	8686
900.591	8503
900.711	8606
900.83	8568
900.95	8697
901.069	8727
901.189	8560
901.308	8518
901.427	8408
901.546	8408
901.665	8480
901.784	8518
901.904	8347
902.023	8343
902.141	8221
902.26	8191
902.379	8290
902.498	8259
902.617	8161
902.735	8366
902.854	8313
902.973	8313
903.091	8145
903.21	8183
903.328	8149
903.446	8103
903.565	8062
903.683	8088
903.801	8092
903.919	8103
904.038	8180
904.156	8039
904.274	8081
904.392	7959
904.51	8092
904.627	8039
904.745	8062
904.863	8092
904.981	7947
905.098	7959
905.216	7913
905.334	7917
905.451	7894
905.569	7913
905.686	7963
905.803	7959
905.921	7776
906.038	7887
906.155	7769
906.272	7746
906.389	7674
906.506	7693
906.623	7636
906.74	7674
906.857	7647
906.974	7567
907.091	7681
907.208	7700
907.324	7578
907.441	7605
907.557	7449
907.674	7464
907.79	7480
907.907	7377
908.023	7460
908.139	7476
908.256	7400
908.372	7392
908.488	7373
908.604	7308
908.72	7240
908.836	7244
908.952	7259
909.068	7263
909.184	7343
909.3	7251
909.415	7297
909.531	7282
909.647	7202
909.762	7152
909.878	7084
909.993	7156
910.108	7122
910.224	7103
910.339	7050
910.454	7008
910.57	7034
910.685	6943
910.8	7171
910.915	7061
911.03	7088
911.145	6954
911.259	6875
911.374	6954
911.489	6882
911.604	6791
911.718	6703
911.833	6734
911.947	6681
912.062	6677
912.176	6692
912.291	6757
912.405	6707
912.519	6798
912.633	6878
912.748	6741
912.862	6730
912.976	6604
913.09	6513
913.204	6559
913.318	6635
913.431	6662
913.545	6692
913.659	6741
913.772	6623
913.886	6578
914	6601
914.113	6658
914.226	6608
914.34	6631
914.453	6578
914.566	6582
914.68	6536
914.793	6509
914.906	6437
915.019	6384
915.132	6369
915.245	6437
915.358	6479
915.47	6544
915.583	6422
915.696	6460
915.809	6551
915.921	6528
916.034	6422
916.146	6448
916.259	6422
916.371	6490
916.483	6490
916.595	6395
916.708	6429
916.82	6388
916.932	6399
917.044	6452
917.156	6426
917.268	6350
917.38	6361
917.491	6319
917.603	6372
917.715	6429
917.826	6422
917.938	6338
918.049	6251
918.161	6331
918.272	6460
918.384	6441
918.495	6353
918.606	6258
918.717	6266
918.828	6281
918.939	6277
919.05	6201
919.161	6220
919.272	6148
919.383	6163
919.494	6338
919.604	6372
919.715	6334
919.826	6213
919.936	6270
920.047	6353
920.157	6311
920.267	6471
920.378	6342
920.488	6251
920.598	6502
920.708	6555
920.818	6445
920.928	6502
921.038	6623
921.148	6521
921.258	6327
921.368	6292
921.477	6251
921.587	6228
921.697	6095
921.806	6213
921.916	6083
922.025	5946
922.134	5965
922.244	5908
922.353	5935
922.462	5870
922.571	5798
922.68	5710
922.789	5699
922.898	5733
923.007	5684
923.116	5752
923.224	5642
923.333	5691
923.442	5577
923.55	5543
923.659	5608
923.767	5646
923.876	5558
923.984	5680
924.092	5520
924.201	5528
924.309	5562
924.417	5573
924.525	5524
924.633	5547
924.741	6224
924.849	5398
924.956	5528
925.064	5368
925.172	5322
925.279	5318
925.387	5383
925.494	5330
925.602	5471
925.709	5364
925.816	5303
925.924	5292
926.031	5368
926.138	5318
926.245	5360
926.352	5231
926.459	5368
926.566	5341
926.673	5204
926.779	5098
926.886	5140
926.993	5056
927.099	4987
927.206	4961
927.312	4972
927.419	5022
927.525	4980
927.631	4938
927.737	4915
927.843	4885
927.95	4767
928.056	4828
928.162	4812
928.267	4835
928.373	5364
928.479	4828
928.585	4679
928.69	4805
928.796	4771
928.901	4736
929.007	4596
929.112	4622
929.218	4660
929.323	4622
929.428	4599
929.533	4679
929.638	4561
929.743	4542
929.848	4596
929.953	4500
930.058	4371
930.163	4341
930.267	4360
930.372	4428
930.477	4375
930.581	4508
930.685	4341
930.79	4223
930.894	4318
930.998	4253
931.103	4409
931.207	4128
931.311	4101
931.415	4025
931.519	3911
931.623	3994
