Data from glass_V78500241_569.txt Node
Date: Wed Sep 01 19:18:26 CST 2021
User: usil
Spectrometer: V785-0024
Trigger mode: 0
Integration Time (sec): 4.000000E-1
Scans to average: 1
Nonlinearity correction enabled: false
Boxcar width: 0
Storing dark spectrum: false
XAxis mode: Wavelengths
Number of Pixels in Spectrum: 1024
>>>>>Begin Spectral Data<<<<<
801.071	3747
801.214	3774
801.356	3709
801.499	3740
801.641	3762
801.783	3778
801.926	3884
802.068	3880
802.211	3884
802.353	3892
802.496	3850
802.638	3876
802.78	3918
802.923	3934
803.065	3922
803.208	3850
803.35	3888
803.492	3892
803.635	3930
803.777	3800
803.919	3903
804.061	4200
804.204	3960
804.346	3918
804.488	3960
804.63	4051
804.773	3964
804.915	4055
805.057	4215
805.199	4051
805.341	4067
805.483	4124
805.626	4086
805.768	4158
805.91	4200
806.052	4204
806.194	4200
806.336	4379
806.478	4249
806.62	4181
806.762	4242
806.904	4280
807.046	4303
807.188	4192
807.33	4181
807.472	4265
807.614	4177
807.756	4261
807.898	4230
808.04	4207
808.182	4257
808.324	4348
808.465	4344
808.607	4474
808.749	4481
808.891	4504
809.033	4527
809.174	4405
809.316	4280
809.458	4272
809.6	4150
809.741	4162
809.883	4128
810.025	4204
810.166	4268
810.308	4215
810.45	4303
810.591	4242
810.733	4303
810.875	4558
811.016	4835
811.158	5128
811.299	5296
811.441	5284
811.582	5098
811.724	4733
811.865	4500
812.007	4478
812.148	4405
812.29	4432
812.431	4413
812.573	4424
812.714	4386
812.855	4398
812.997	4440
813.138	4443
813.279	4451
813.421	4390
813.562	4375
813.703	4318
813.845	4348
813.986	4242
814.127	4223
814.268	4272
814.41	4303
814.551	4261
814.692	4348
814.833	4295
814.974	4356
815.115	4341
815.256	4257
815.397	4238
815.539	4295
815.68	4215
815.821	4177
815.962	4287
816.103	4227
816.244	4242
816.385	4242
816.526	4253
816.666	4272
816.807	4169
816.948	4177
817.089	4211
817.23	4124
817.371	4074
817.512	4055
817.653	4128
817.793	4002
817.934	4025
818.075	4124
818.216	4128
818.356	4090
818.497	3987
818.638	3972
818.778	3926
818.919	3918
819.06	3896
819.2	3899
819.341	3884
819.481	3831
819.622	3930
819.762	4040
819.903	3983
820.043	3876
820.184	3808
820.324	3793
820.465	3930
820.605	3835
820.746	3857
820.886	3819
821.026	3949
821.167	3888
821.307	3987
821.447	4029
821.588	3975
821.728	3979
821.868	3926
822.008	3888
822.149	3888
822.289	3896
822.429	3819
822.569	3778
822.709	3835
822.849	3625
822.99	3762
823.13	3781
823.27	3812
823.41	3728
823.55	3720
823.69	3743
823.83	3736
823.97	3740
824.11	3637
824.25	3606
824.389	3622
824.529	3679
824.669	3656
824.809	3755
824.949	3743
825.089	3732
825.228	3747
825.368	3576
825.508	3595
825.648	3584
825.787	3610
825.927	3667
826.067	3633
826.206	3667
826.346	3838
826.485	3831
826.625	3888
826.765	3934
826.904	3816
827.044	3660
827.183	3545
827.323	3450
827.462	3485
827.601	3439
827.741	3447
827.88	3439
828.02	3393
828.159	3466
828.298	3511
828.437	3564
828.577	3485
828.716	3603
828.855	3504
828.994	3359
829.134	3393
829.273	3397
829.412	3359
829.551	3386
829.69	3389
829.829	3447
829.968	3496
830.107	3473
830.246	3462
830.385	3397
830.524	3374
830.663	3340
830.802	3272
830.941	3207
831.08	3233
831.219	3294
831.357	3279
831.496	3412
831.635	3218
831.774	3218
831.913	3230
832.051	3123
832.19	3146
832.329	3207
832.467	3142
832.606	3112
832.744	3180
832.883	3176
833.022	3237
833.16	3306
833.299	3351
833.437	3378
833.576	3409
833.714	3443
833.852	3424
833.991	3450
834.129	3466
834.267	3466
834.406	3397
834.544	3443
834.682	3424
834.821	3450
834.959	3584
835.097	3443
835.235	3564
835.373	3526
835.511	3515
835.65	3492
835.788	3492
835.926	3424
836.064	3359
836.202	3454
836.34	3599
836.478	3599
836.615	3545
836.753	3625
836.891	3694
837.029	3625
837.167	3591
837.305	3542
837.443	3580
837.58	3488
837.718	3603
837.856	3580
837.993	3542
838.131	3587
838.269	3622
838.406	3591
838.544	3564
838.681	3515
838.819	3488
838.956	3389
839.094	3420
839.231	3454
839.369	3549
839.506	3743
839.643	3644
839.781	3511
839.918	3496
840.055	3553
840.193	3553
840.33	3545
840.467	3584
840.604	3618
840.742	3835
840.879	3591
841.016	3572
841.153	3576
841.29	3762
841.427	3743
841.564	3736
841.701	3751
841.838	3743
841.975	3713
842.112	3694
842.249	3641
842.385	3618
842.522	3808
842.659	3705
842.796	3694
842.933	3720
843.069	3705
843.206	3755
843.343	3793
843.479	3812
843.616	3842
843.752	3698
843.889	3698
844.025	3892
844.162	3740
844.298	3854
844.435	3789
844.571	3800
844.708	3930
844.844	4017
844.98	4036
845.117	4029
845.253	3918
845.389	3918
845.525	3964
845.661	3975
845.798	3960
845.934	3983
846.07	3968
846.206	4093
846.342	4150
846.478	4071
846.614	3998
846.75	3941
846.886	3945
847.022	4025
847.158	3979
847.294	4025
847.429	4021
847.565	3998
847.701	4257
847.837	3884
847.972	3876
848.108	3983
848.244	3979
848.379	3876
848.515	3861
848.65	3880
848.786	3857
848.921	3827
849.057	3918
849.192	3956
849.328	3922
849.463	3911
849.598	3899
849.734	3892
849.869	3838
850.004	3785
850.14	3804
850.275	3797
850.41	3770
850.545	3812
850.68	3812
850.815	3812
850.95	3778
851.085	3949
851.22	3930
851.355	3838
851.49	3793
851.625	3800
851.76	3823
851.895	3759
852.03	3728
852.165	3850
852.299	3876
852.434	3930
852.569	3903
852.703	3903
852.838	3968
852.973	4017
853.107	3994
853.242	3888
853.376	3865
853.511	3762
853.645	3831
853.78	3968
853.914	3911
854.048	3922
854.183	3926
854.317	3953
854.451	4067
854.585	3922
854.72	3968
854.854	4021
854.988	3926
855.122	4006
855.256	3930
855.39	4017
855.524	4093
855.658	4078
855.792	4055
855.926	4166
856.06	4150
856.194	4230
856.327	4227
856.461	4166
856.595	4166
856.729	4200
856.862	4287
856.996	4242
857.13	4333
857.263	4386
857.397	4348
857.53	4287
857.664	4363
857.797	4421
857.931	4402
858.064	4390
858.197	4497
858.331	4436
858.464	4413
858.597	4348
858.731	4462
858.864	4440
858.997	4523
859.13	4466
859.263	4516
859.396	4535
859.529	4493
859.662	4516
859.795	4554
859.928	4611
860.061	4752
860.194	4744
860.327	4729
860.46	4660
860.592	4782
860.725	4759
860.858	4725
860.99	4691
861.123	4675
861.256	4698
861.388	4736
861.521	5391
861.653	4687
861.786	4656
861.918	4763
862.05	4854
862.183	4850
862.315	4915
862.447	4927
862.58	4854
862.712	4820
862.844	4797
862.976	4900
863.108	4889
863.24	5193
863.372	4839
863.504	4923
863.636	4900
863.768	5010
863.9	4942
864.032	4904
864.164	4900
864.296	5006
864.428	5136
864.559	5086
864.691	5193
864.823	5121
864.954	5117
865.086	5159
865.217	5128
865.349	5067
865.48	5204
865.612	5197
865.743	5334
865.875	5284
866.006	5181
866.137	5212
866.269	5280
866.4	5231
866.531	5269
866.662	5231
866.793	5307
866.924	5292
867.055	5410
867.186	5429
867.317	5318
867.448	5349
867.579	5341
867.71	5448
867.841	5406
867.972	5482
868.103	5463
868.233	5532
868.364	5539
868.495	5551
868.625	5688
868.756	5805
868.886	5649
869.017	5680
869.147	5809
869.278	5870
869.408	5794
869.539	5840
869.669	5969
869.799	5946
869.929	6041
870.06	6091
870.19	6228
870.32	6205
870.45	6289
870.58	6369
870.71	6445
870.84	6429
870.97	6414
871.1	6433
871.23	6681
871.36	6692
871.489	6681
871.619	6738
871.749	6818
871.879	6852
872.008	7000
872.138	7015
872.267	7004
872.397	7008
872.526	7046
872.656	7103
872.785	7164
872.915	7472
873.044	7487
873.173	7594
873.303	7696
873.432	7742
873.561	7837
873.69	7928
873.819	8062
873.948	8199
874.077	8279
874.206	8332
874.335	8419
874.464	8686
874.593	8785
874.722	9017
874.851	9131
874.979	9272
875.108	9412
875.237	9481
875.365	9450
875.494	9701
875.623	9861
875.751	9816
875.88	9987
876.008	10162
876.136	10295
876.265	10478
876.393	10717
876.521	10691
876.65	10900
876.778	10900
876.906	10927
877.034	11006
877.162	11166
877.29	11197
877.418	11372
877.546	11345
877.674	11459
877.802	11581
877.93	11566
878.058	11642
878.185	11554
878.313	11672
878.441	11805
878.568	11691
878.696	11805
878.824	11824
878.951	12015
879.079	11935
879.206	12125
879.333	12053
879.461	12026
879.588	12095
879.715	12060
879.842	12296
879.97	11999
880.097	11946
880.224	11870
880.351	11901
880.478	11901
880.605	11878
880.732	11840
880.859	12003
880.986	11878
881.112	11764
881.239	11688
881.366	11707
881.493	11547
881.619	11585
881.746	11539
881.872	11509
881.999	11509
882.125	11379
882.252	11627
882.378	11452
882.505	11532
882.631	11364
882.757	11296
882.883	11349
883.01	11368
883.136	11189
883.262	11174
883.388	11181
883.514	11265
883.64	11181
883.766	11208
883.892	11025
884.018	10919
884.143	11052
884.269	11170
884.395	10904
884.52	10828
884.646	10790
884.772	10748
884.897	10660
885.023	10717
885.148	10717
885.274	10778
885.399	10733
885.524	10546
885.65	10630
885.775	10626
885.9	10573
886.025	10664
886.15	10622
886.275	10474
886.4	10413
886.525	10379
886.65	10432
886.775	10424
886.9	10478
887.025	10588
887.149	10367
887.274	10211
887.399	10204
887.523	10265
887.648	10196
887.773	10169
887.897	10234
888.021	10131
888.146	10147
888.27	10268
888.395	10181
888.519	10139
888.643	10192
888.767	10265
888.891	10097
889.015	9956
889.139	9991
889.263	10025
889.387	10090
889.511	10101
889.635	10109
889.759	10002
889.883	9983
890.006	9972
890.13	10051
890.254	10010
890.377	9926
890.501	9865
890.624	9930
890.748	9861
890.871	9819
890.995	9778
891.118	9747
891.241	9835
891.364	9751
891.488	9778
891.611	9690
891.734	9652
891.857	9701
891.98	9663
892.103	9743
892.226	9736
892.349	9690
892.471	9538
892.594	9625
892.717	9580
892.839	9618
892.962	9606
893.085	9614
893.207	9648
893.33	9572
893.452	9519
893.575	9652
893.697	9557
893.819	9759
893.941	9564
894.064	9660
894.186	9473
894.308	9412
894.43	9614
894.552	9549
894.674	9534
894.796	9340
894.918	9405
895.04	9321
895.161	9420
895.283	9340
895.405	9157
895.526	9241
895.648	9302
895.769	9226
895.891	9294
896.012	9226
896.134	9253
896.255	9245
896.376	9146
896.498	9154
896.619	9157
896.74	9119
896.861	9108
896.982	9340
897.103	9298
897.224	9150
897.345	9157
897.466	9005
897.587	9043
897.708	9085
897.828	9028
897.949	8937
898.07	8872
898.19	8895
898.311	9024
898.431	8910
898.552	8960
898.672	8994
898.792	8982
898.913	8887
899.033	8796
899.153	8708
899.273	8663
899.393	8674
899.513	8785
899.633	8762
899.753	8754
899.873	8735
899.993	8796
900.113	8720
900.232	8731
900.352	8701
900.472	8663
900.591	8610
900.711	8602
900.83	8495
900.95	8686
901.069	8720
901.189	8514
901.308	8434
901.427	8412
901.546	8442
901.665	8469
901.784	8465
901.904	8442
902.023	8377
902.141	8256
902.26	8210
902.379	8275
902.498	8282
902.617	8339
902.735	8290
902.854	8252
902.973	8221
903.091	8111
903.21	8100
903.328	8149
903.446	8138
903.565	8145
903.683	8138
903.801	8062
903.919	8138
904.038	8115
904.156	8001
904.274	8100
904.392	8001
904.51	8065
904.627	8107
904.745	8119
904.863	8119
904.981	7940
905.098	7898
905.216	7871
905.334	7921
905.451	7955
905.569	7970
905.686	8024
905.803	7871
905.921	7765
906.038	7879
906.155	7788
906.272	7784
906.389	7693
906.506	7670
906.623	7556
906.74	7662
906.857	7559
906.974	7609
907.091	7689
907.208	7742
907.324	7620
907.441	7597
907.557	7426
907.674	7464
907.79	7419
907.907	7400
908.023	7472
908.139	7426
908.256	7430
908.372	7396
908.488	7403
908.604	7278
908.72	7217
908.836	7274
908.952	7244
909.068	7274
909.184	7346
909.3	7255
909.415	7312
909.531	7308
909.647	7149
909.762	7164
909.878	7099
909.993	7141
910.108	7129
910.224	7069
910.339	7137
910.454	7099
910.57	6989
910.685	6993
910.8	7145
910.915	7095
911.03	7015
911.145	6856
911.259	6833
911.374	6894
911.489	6913
911.604	6772
911.718	6757
911.833	6760
911.947	6684
912.062	6662
912.176	6722
912.291	6726
912.405	6745
912.519	6814
912.633	6878
912.748	6745
912.862	6703
912.976	6620
913.09	6506
913.204	6547
913.318	6570
913.431	6639
913.545	6646
913.659	6692
913.772	6650
913.886	6616
914	6570
914.113	6620
914.226	6608
914.34	6604
914.453	6483
914.566	6601
914.68	6525
914.793	6540
914.906	6445
915.019	6445
915.132	6410
915.245	6448
915.358	6464
915.47	6456
915.583	6486
915.696	6483
915.809	6585
915.921	6544
916.034	6426
916.146	6338
916.259	6357
916.371	6467
916.483	6429
916.595	6395
916.708	6433
916.82	6437
916.932	6429
917.044	6376
917.156	6414
917.268	6311
917.38	6361
917.491	6315
917.603	6353
917.715	6410
917.826	6441
917.938	6350
918.049	6224
918.161	6418
918.272	6426
918.384	6410
918.495	6289
918.606	6369
918.717	6273
918.828	6258
918.939	6289
919.05	6251
919.161	6258
919.272	6197
919.383	6190
919.494	6277
919.604	6433
919.715	6277
919.826	6270
919.936	6235
920.047	6353
920.157	6296
920.267	6452
920.378	6361
920.488	6327
920.598	6464
920.708	6555
920.818	6494
920.928	6494
921.038	6662
921.148	6574
921.258	6369
921.368	6323
921.477	6232
921.587	6178
921.697	6110
921.806	6224
921.916	6098
922.025	5942
922.134	5832
922.244	5908
922.353	5992
922.462	5855
922.571	5805
922.68	5737
922.789	5710
922.898	5756
923.007	5684
923.116	5745
923.224	5729
923.333	5653
923.442	5642
923.55	5589
923.659	5585
923.767	5665
923.876	5577
923.984	5570
924.092	5440
924.201	5554
924.309	5566
924.417	5630
924.525	5520
924.633	5558
924.741	6281
924.849	5421
924.956	5501
925.064	5379
925.172	5330
925.279	5307
925.387	5364
925.494	5273
925.602	5474
925.709	5379
925.816	5265
925.924	5299
926.031	5410
926.138	5299
926.245	5353
926.352	5204
926.459	5376
926.566	5364
926.673	5246
926.779	5212
926.886	5155
926.993	5079
927.099	5018
927.206	4957
927.312	4911
927.419	5045
927.525	4953
927.631	5018
927.737	4900
927.843	4919
927.95	4805
928.056	4824
928.162	4828
928.267	4858
928.373	5250
928.479	4835
928.585	4717
928.69	4767
928.796	4801
928.901	4702
929.007	4611
929.112	4683
929.218	4660
929.323	4637
929.428	4630
929.533	4664
929.638	4550
929.743	4611
929.848	4565
929.953	4546
930.058	4493
930.163	4363
930.267	4329
930.372	4478
930.477	4329
930.581	4485
930.685	4398
930.79	4295
930.894	4268
930.998	4291
931.103	4379
931.207	4150
931.311	4063
931.415	4082
931.519	3911
931.623	3998
