Data from glass_V78500241_489.txt Node
Date: Wed Sep 01 19:17:53 CST 2021
User: usil
Spectrometer: V785-0024
Trigger mode: 0
Integration Time (sec): 4.000000E-1
Scans to average: 1
Nonlinearity correction enabled: false
Boxcar width: 0
Storing dark spectrum: false
XAxis mode: Wavelengths
Number of Pixels in Spectrum: 1024
>>>>>Begin Spectral Data<<<<<
801.071	3762
801.214	3724
801.356	3781
801.499	3774
801.641	3728
801.783	3797
801.926	3838
802.068	3823
802.211	3861
802.353	3846
802.496	3857
802.638	3922
802.78	3926
802.923	3945
803.065	3873
803.208	3892
803.35	3884
803.492	3903
803.635	3915
803.777	3812
803.919	3911
804.061	4139
804.204	3930
804.346	3926
804.488	3903
804.63	4036
804.773	3972
804.915	4025
805.057	4158
805.199	4044
805.341	4109
805.483	4158
805.626	4147
805.768	4143
805.91	4238
806.052	4268
806.194	4207
806.336	4367
806.478	4249
806.62	4211
806.762	4219
806.904	4242
807.046	4325
807.188	4276
807.33	4192
807.472	4242
807.614	4207
807.756	4295
807.898	4234
808.04	4200
808.182	4272
808.324	4379
808.465	4371
808.607	4512
808.749	4470
808.891	4428
809.033	4489
809.174	4394
809.316	4246
809.458	4249
809.6	4158
809.741	4131
809.883	4177
810.025	4192
810.166	4211
810.308	4227
810.45	4272
810.591	4257
810.733	4268
810.875	4535
811.016	4839
811.158	5166
811.299	5303
811.441	5318
811.582	5105
811.724	4702
811.865	4493
812.007	4478
812.148	4443
812.29	4409
812.431	4432
812.573	4398
812.714	4371
812.855	4462
812.997	4443
813.138	4462
813.279	4432
813.421	4367
813.562	4413
813.703	4367
813.845	4341
813.986	4265
814.127	4219
814.268	4306
814.41	4295
814.551	4318
814.692	4348
814.833	4356
814.974	4310
815.115	4318
815.256	4265
815.397	4227
815.539	4249
815.68	4272
815.821	4211
815.962	4276
816.103	4261
816.244	4261
816.385	4246
816.526	4295
816.666	4246
816.807	4116
816.948	4204
817.089	4185
817.23	4147
817.371	4063
817.512	4040
817.653	4124
817.793	4048
817.934	4032
818.075	4105
818.216	4097
818.356	4071
818.497	4013
818.638	3865
818.778	3934
818.919	3934
819.06	3823
819.2	3911
819.341	3911
819.481	3861
819.622	3876
819.762	4029
819.903	3998
820.043	3903
820.184	3816
820.324	3846
820.465	3922
820.605	3934
820.746	3873
820.886	3800
821.026	3922
821.167	3956
821.307	4021
821.447	3998
821.588	3979
821.728	3975
821.868	3937
822.008	3956
822.149	3945
822.289	3930
822.429	3785
822.569	3808
822.709	3823
822.849	3698
822.99	3766
823.13	3762
823.27	3736
823.41	3770
823.55	3713
823.69	3751
823.83	3724
823.97	3705
824.11	3644
824.25	3610
824.389	3629
824.529	3679
824.669	3641
824.809	3720
824.949	3770
825.089	3732
825.228	3690
825.368	3584
825.508	3599
825.648	3584
825.787	3637
825.927	3660
826.067	3637
826.206	3637
826.346	3800
826.485	3884
826.625	3915
826.765	3953
826.904	3831
827.044	3637
827.183	3557
827.323	3469
827.462	3473
827.601	3409
827.741	3439
827.88	3431
828.02	3389
828.159	3477
828.298	3473
828.437	3549
828.577	3496
828.716	3572
828.855	3507
828.994	3374
829.134	3367
829.273	3389
829.412	3374
829.551	3348
829.69	3370
829.829	3416
829.968	3519
830.107	3500
830.246	3450
830.385	3367
830.524	3367
830.663	3321
830.802	3287
830.941	3245
831.08	3176
831.219	3249
831.357	3279
831.496	3450
831.635	3272
831.774	3241
831.913	3222
832.051	3123
832.19	3135
832.329	3237
832.467	3157
832.606	3104
832.744	3195
832.883	3233
833.022	3207
833.16	3237
833.299	3344
833.437	3351
833.576	3420
833.714	3428
833.852	3473
833.991	3458
834.129	3515
834.267	3431
834.406	3412
834.544	3416
834.682	3454
834.821	3450
834.959	3625
835.097	3443
835.235	3519
835.373	3492
835.511	3500
835.65	3435
835.788	3507
835.926	3378
836.064	3386
836.202	3458
836.34	3595
836.478	3637
836.615	3568
836.753	3652
836.891	3682
837.029	3629
837.167	3622
837.305	3545
837.443	3549
837.58	3504
837.718	3561
837.856	3610
837.993	3530
838.131	3625
838.269	3580
838.406	3587
838.544	3568
838.681	3515
838.819	3473
838.956	3351
839.094	3447
839.231	3481
839.369	3576
839.506	3785
839.643	3667
839.781	3500
839.918	3447
840.055	3538
840.193	3511
840.33	3538
840.467	3564
840.604	3629
840.742	3823
840.879	3561
841.016	3542
841.153	3606
841.29	3781
841.427	3736
841.564	3705
841.701	3717
841.838	3701
841.975	3648
842.112	3720
842.249	3690
842.385	3648
842.522	3892
842.659	3724
842.796	3679
842.933	3705
843.069	3770
843.206	3709
843.343	3812
843.479	3804
843.616	3831
843.752	3656
843.889	3679
844.025	3850
844.162	3747
844.298	3846
844.435	3781
844.571	3774
844.708	3930
844.844	4002
844.98	4002
845.117	4010
845.253	3998
845.389	3930
845.525	3960
845.661	3964
845.798	3918
845.934	4036
846.07	3922
846.206	4074
846.342	4109
846.478	4055
846.614	3994
846.75	3964
846.886	3888
847.022	4025
847.158	3987
847.294	4025
847.429	4040
847.565	4040
847.701	4211
847.837	3888
847.972	3869
848.108	4010
848.244	3975
848.379	3865
848.515	3793
848.65	3854
848.786	3876
848.921	3865
849.057	3918
849.192	3915
849.328	3918
849.463	3911
849.598	3888
849.734	3869
849.869	3865
850.004	3785
850.14	3869
850.275	3804
850.41	3713
850.545	3785
850.68	3766
850.815	3804
850.95	3778
851.085	3949
851.22	3884
851.355	3827
851.49	3797
851.625	3789
851.76	3816
851.895	3740
852.03	3709
852.165	3808
852.299	3842
852.434	3915
852.569	3873
852.703	3899
852.838	3907
852.973	4025
853.107	4010
853.242	3922
853.376	3854
853.511	3778
853.645	3812
853.78	4017
853.914	3903
854.048	3926
854.183	3911
854.317	3998
854.451	4101
854.585	3964
854.72	3979
854.854	4025
854.988	3911
855.122	4010
855.256	3899
855.39	4013
855.524	4109
855.658	4082
855.792	4166
855.926	4147
856.06	4166
856.194	4200
856.327	4162
856.461	4101
856.595	4192
856.729	4211
856.862	4295
856.996	4287
857.13	4253
857.263	4360
857.397	4375
857.53	4303
857.664	4337
857.797	4398
857.931	4398
858.064	4379
858.197	4421
858.331	4432
858.464	4383
858.597	4363
858.731	4390
858.864	4451
858.997	4489
859.13	4497
859.263	4596
859.396	4588
859.529	4554
859.662	4565
859.795	4561
859.928	4649
860.061	4725
860.194	4706
860.327	4660
860.46	4721
860.592	4733
860.725	4816
860.858	4744
860.99	4721
861.123	4740
861.256	4725
861.388	4790
861.521	5520
861.653	4710
861.786	4725
861.918	4729
862.05	4854
862.183	4812
862.315	4908
862.447	4946
862.58	4934
862.712	4850
862.844	4801
862.976	4900
863.108	4896
863.24	5189
863.372	4866
863.504	4908
863.636	4919
863.768	4987
863.9	4999
864.032	4930
864.164	4965
864.296	5033
864.428	5102
864.559	5128
864.691	5140
864.823	5189
864.954	5105
865.086	5159
865.217	5140
865.349	5094
865.48	5204
865.612	5201
865.743	5296
865.875	5235
866.006	5261
866.137	5235
866.269	5273
866.4	5227
866.531	5254
866.662	5242
866.793	5292
866.924	5341
867.055	5292
867.186	5318
867.317	5345
867.448	5292
867.579	5315
867.71	5398
867.841	5398
867.972	5455
868.103	5478
868.233	5516
868.364	5478
868.495	5539
868.625	5676
868.756	5844
868.886	5672
869.017	5691
869.147	5847
869.278	5851
869.408	5828
869.539	5836
869.669	5931
869.799	5912
869.929	5977
870.06	5992
870.19	6201
870.32	6205
870.45	6292
870.58	6372
870.71	6399
870.84	6460
870.97	6448
871.1	6494
871.23	6662
871.36	6734
871.489	6684
871.619	6741
871.749	6837
871.879	6913
872.008	7012
872.138	6989
872.267	6905
872.397	6966
872.526	7050
872.656	7114
872.785	7232
872.915	7407
873.044	7563
873.173	7571
873.303	7666
873.432	7693
873.561	7830
873.69	7909
873.819	8012
873.948	8206
874.077	8279
874.206	8240
874.335	8484
874.464	8697
874.593	8754
874.722	8929
874.851	9131
874.979	9287
875.108	9389
875.237	9431
875.365	9557
875.494	9656
875.623	9945
875.751	9846
875.88	10029
876.008	10181
876.136	10268
876.265	10561
876.393	10622
876.521	10740
876.65	10797
876.778	10900
876.906	10915
877.034	10972
877.162	11064
877.29	11117
877.418	11303
877.546	11353
877.674	11455
877.802	11509
877.93	11554
878.058	11604
878.185	11554
878.313	11638
878.441	11756
878.568	11623
878.696	11775
878.824	11855
878.951	11889
879.079	11980
879.206	12140
879.333	12076
879.461	12015
879.588	12095
879.715	12102
879.842	12247
879.97	12068
880.097	11878
880.224	11798
880.351	11847
880.478	11939
880.605	11863
880.732	11745
880.859	12003
880.986	11847
881.112	11790
881.239	11767
881.366	11729
881.493	11707
881.619	11528
881.746	11630
881.872	11570
881.999	11490
882.125	11425
882.252	11539
882.378	11509
882.505	11589
882.631	11391
882.757	11292
882.883	11398
883.01	11280
883.136	11201
883.262	11166
883.388	11018
883.514	11204
883.64	11128
883.766	11140
883.892	11003
884.018	10968
884.143	11056
884.269	11117
884.395	10828
884.52	10733
884.646	10793
884.772	10668
884.897	10634
885.023	10706
885.148	10771
885.274	10778
885.399	10664
885.524	10664
885.65	10637
885.775	10622
885.9	10634
886.025	10542
886.15	10664
886.275	10504
886.4	10322
886.525	10489
886.65	10390
886.775	10348
886.9	10497
887.025	10497
887.149	10299
887.274	10238
887.399	10169
887.523	10280
887.648	10128
887.773	10124
887.897	10192
888.021	10173
888.146	10188
888.27	10272
888.395	10207
888.519	10181
888.643	10249
888.767	10234
888.891	10067
889.015	10074
889.139	10025
889.263	10048
889.387	10109
889.511	10082
889.635	10093
889.759	9987
889.883	9998
890.006	10021
890.13	10097
890.254	9937
890.377	9994
890.501	9846
890.624	9915
890.748	9899
890.871	9831
890.995	9728
891.118	9740
891.241	9804
891.364	9781
891.488	9762
891.611	9652
891.734	9701
891.857	9774
891.98	9720
892.103	9724
892.226	9698
892.349	9675
892.471	9591
892.594	9637
892.717	9660
892.839	9576
892.962	9633
893.085	9622
893.207	9561
893.33	9473
893.452	9587
893.575	9587
893.697	9538
893.819	9629
893.941	9633
894.064	9644
894.186	9530
894.308	9420
894.43	9515
894.552	9553
894.674	9507
894.796	9412
894.918	9329
895.04	9291
895.161	9447
895.283	9420
895.405	9268
895.526	9283
895.648	9237
895.769	9233
895.891	9389
896.012	9256
896.134	9214
896.255	9154
896.376	9146
896.498	9161
896.619	9108
896.74	9146
896.861	9112
896.982	9218
897.103	9389
897.224	9097
897.345	9062
897.466	8967
897.587	8986
897.708	9127
897.828	9024
897.949	9036
898.07	8918
898.19	8910
898.311	9043
898.431	8845
898.552	8902
898.672	9005
898.792	8914
898.913	8899
899.033	8906
899.153	8754
899.273	8697
899.393	8724
899.513	8785
899.633	8743
899.753	8731
899.873	8731
899.993	8727
900.113	8781
900.232	8739
900.352	8693
900.472	8610
900.591	8571
900.711	8560
900.83	8632
900.95	8659
901.069	8644
901.189	8655
901.308	8514
901.427	8396
901.546	8404
901.665	8492
901.784	8488
901.904	8450
902.023	8374
902.141	8191
902.26	8233
902.379	8317
902.498	8210
902.617	8229
902.735	8305
902.854	8282
902.973	8199
903.091	8157
903.21	8130
903.328	8180
903.446	8107
903.565	8100
903.683	8096
903.801	8069
903.919	8138
904.038	8161
904.156	7997
904.274	8111
904.392	8058
904.51	8058
904.627	8008
904.745	8111
904.863	8065
904.981	7978
905.098	7871
905.216	7947
905.334	7780
905.451	7921
905.569	7894
905.686	7906
905.803	7849
905.921	7845
906.038	7932
906.155	7879
906.272	7719
906.389	7807
906.506	7609
906.623	7693
906.74	7571
906.857	7655
906.974	7636
907.091	7712
907.208	7734
907.324	7723
907.441	7540
907.557	7506
907.674	7495
907.79	7403
907.907	7407
908.023	7487
908.139	7453
908.256	7426
908.372	7396
908.488	7293
908.604	7274
908.72	7305
908.836	7270
908.952	7285
909.068	7285
909.184	7289
909.3	7251
909.415	7251
909.531	7270
909.647	7084
909.762	7133
909.878	7091
909.993	7091
910.108	7129
910.224	7031
910.339	7110
910.454	7012
910.57	7031
910.685	7027
910.8	7137
910.915	7129
911.03	7019
911.145	6939
911.259	6875
911.374	6924
911.489	6844
911.604	6837
911.718	6692
911.833	6696
911.947	6711
912.062	6620
912.176	6696
912.291	6749
912.405	6749
912.519	6806
912.633	6886
912.748	6741
912.862	6722
912.976	6639
913.09	6574
913.204	6627
913.318	6646
913.431	6715
913.545	6665
913.659	6692
913.772	6681
913.886	6544
914	6582
914.113	6642
914.226	6646
914.34	6627
914.453	6547
914.566	6646
914.68	6513
914.793	6540
914.906	6475
915.019	6372
915.132	6384
915.245	6426
915.358	6460
915.47	6445
915.583	6433
915.696	6494
915.809	6544
915.921	6563
916.034	6441
916.146	6483
916.259	6414
916.371	6502
916.483	6521
916.595	6429
916.708	6441
916.82	6414
916.932	6361
917.044	6391
917.156	6422
917.268	6319
917.38	6365
917.491	6300
917.603	6331
917.715	6399
917.826	6410
917.938	6281
918.049	6311
918.161	6342
918.272	6494
918.384	6426
918.495	6357
918.606	6281
918.717	6129
918.828	6247
918.939	6266
919.05	6213
919.161	6281
919.272	6194
919.383	6155
919.494	6384
919.604	6437
919.715	6311
919.826	6247
919.936	6296
920.047	6338
920.157	6300
920.267	6506
920.378	6315
920.488	6304
920.598	6486
920.708	6593
920.818	6452
920.928	6460
921.038	6646
921.148	6582
921.258	6361
921.368	6304
921.477	6216
921.587	6224
921.697	6125
921.806	6216
921.916	6049
922.025	5965
922.134	5878
922.244	5935
922.353	5931
922.462	5805
922.571	5794
922.68	5695
922.789	5646
922.898	5718
923.007	5642
923.116	5748
923.224	5676
923.333	5642
923.442	5592
923.55	5611
923.659	5611
923.767	5653
923.876	5554
923.984	5608
924.092	5551
924.201	5566
924.309	5547
924.417	5501
924.525	5512
924.633	5478
924.741	6273
924.849	5372
924.956	5455
925.064	5337
925.172	5280
925.279	5311
925.387	5395
925.494	5311
925.602	5402
925.709	5376
925.816	5269
925.924	5273
926.031	5341
926.138	5322
926.245	5349
926.352	5197
926.459	5299
926.566	5261
926.673	5208
926.779	5155
926.886	5174
926.993	5086
927.099	5014
927.206	5006
927.312	4999
927.419	5067
927.525	4995
927.631	4995
927.737	4923
927.843	4847
927.95	4778
928.056	4816
928.162	4896
928.267	4809
928.373	5318
928.479	4915
928.585	4687
928.69	4771
928.796	4820
928.901	4694
929.007	4653
929.112	4656
929.218	4660
929.323	4634
929.428	4558
929.533	4706
929.638	4493
929.743	4550
929.848	4584
929.953	4565
930.058	4436
930.163	4390
930.267	4386
930.372	4440
930.477	4318
930.581	4462
930.685	4409
930.79	4276
930.894	4272
930.998	4280
931.103	4390
931.207	4112
931.311	4139
931.415	4029
931.519	3926
931.623	3994
