Data from glass_V78500241_1497.txt Node
Date: Wed Sep 01 19:24:52 CST 2021
User: usil
Spectrometer: V785-0024
Trigger mode: 0
Integration Time (sec): 4.000000E-1
Scans to average: 1
Nonlinearity correction enabled: false
Boxcar width: 0
Storing dark spectrum: false
XAxis mode: Wavelengths
Number of Pixels in Spectrum: 1024
>>>>>Begin Spectral Data<<<<<
801.071	3766
801.214	3770
801.356	3709
801.499	3762
801.641	3732
801.783	3781
801.926	3850
802.068	3808
802.211	3850
802.353	3880
802.496	3827
802.638	3926
802.78	3907
802.923	3991
803.065	3903
803.208	3865
803.35	3896
803.492	3892
803.635	3930
803.777	3842
803.919	3880
804.061	4128
804.204	3956
804.346	3960
804.488	3926
804.63	4063
804.773	4021
804.915	4010
805.057	4181
805.199	4013
805.341	4074
805.483	4150
805.626	4124
805.768	4109
805.91	4219
806.052	4227
806.194	4227
806.336	4303
806.478	4230
806.62	4162
806.762	4162
806.904	4272
807.046	4333
807.188	4207
807.33	4207
807.472	4207
807.614	4207
807.756	4265
807.898	4230
808.04	4207
808.182	4265
808.324	4325
808.465	4363
808.607	4443
808.749	4443
808.891	4455
809.033	4538
809.174	4390
809.316	4284
809.458	4227
809.6	4124
809.741	4101
809.883	4116
810.025	4200
810.166	4219
810.308	4242
810.45	4249
810.591	4276
810.733	4299
810.875	4519
811.016	4866
811.158	5132
811.299	5299
811.441	5277
811.582	5071
811.724	4725
811.865	4447
812.007	4474
812.148	4455
812.29	4421
812.431	4421
812.573	4413
812.714	4341
812.855	4428
812.997	4386
813.138	4493
813.279	4371
813.421	4428
813.562	4352
813.703	4325
813.845	4337
813.986	4268
814.127	4223
814.268	4246
814.41	4257
814.551	4246
814.692	4356
814.833	4227
814.974	4295
815.115	4344
815.256	4268
815.397	4242
815.539	4272
815.68	4188
815.821	4223
815.962	4310
816.103	4287
816.244	4215
816.385	4238
816.526	4276
816.666	4238
816.807	4109
816.948	4169
817.089	4204
817.23	4097
817.371	4097
817.512	4025
817.653	4059
817.793	4055
817.934	4032
818.075	4169
818.216	4090
818.356	4093
818.497	3968
818.638	3915
818.778	3899
818.919	3861
819.06	3903
819.2	3934
819.341	3869
819.481	3869
819.622	3911
819.762	4063
819.903	3915
820.043	3865
820.184	3835
820.324	3880
820.465	3865
820.605	3850
820.746	3857
820.886	3800
821.026	3930
821.167	3903
821.307	3964
821.447	4002
821.588	3941
821.728	3934
821.868	3968
822.008	3941
822.149	3918
822.289	3922
822.429	3785
822.569	3766
822.709	3797
822.849	3724
822.99	3713
823.13	3762
823.27	3793
823.41	3728
823.55	3766
823.69	3728
823.83	3713
823.97	3625
824.11	3633
824.25	3637
824.389	3648
824.529	3675
824.669	3622
824.809	3728
824.949	3762
825.089	3728
825.228	3682
825.368	3568
825.508	3557
825.648	3614
825.787	3542
825.927	3606
826.067	3614
826.206	3671
826.346	3835
826.485	3861
826.625	3876
826.765	3896
826.904	3812
827.044	3595
827.183	3553
827.323	3424
827.462	3511
827.601	3447
827.741	3454
827.88	3450
828.02	3393
828.159	3458
828.298	3485
828.437	3507
828.577	3443
828.716	3614
828.855	3477
828.994	3355
829.134	3382
829.273	3397
829.412	3344
829.551	3329
829.69	3401
829.829	3424
829.968	3485
830.107	3454
830.246	3447
830.385	3359
830.524	3370
830.663	3336
830.802	3264
830.941	3192
831.08	3173
831.219	3264
831.357	3260
831.496	3389
831.635	3226
831.774	3203
831.913	3214
832.051	3127
832.19	3157
832.329	3233
832.467	3135
832.606	3108
832.744	3169
832.883	3203
833.022	3199
833.16	3249
833.299	3287
833.437	3325
833.576	3363
833.714	3412
833.852	3401
833.991	3466
834.129	3466
834.267	3420
834.406	3370
834.544	3435
834.682	3431
834.821	3416
834.959	3572
835.097	3405
835.235	3564
835.373	3492
835.511	3477
835.65	3454
835.788	3500
835.926	3454
836.064	3397
836.202	3393
836.34	3553
836.478	3606
836.615	3572
836.753	3618
836.891	3629
837.029	3587
837.167	3553
837.305	3538
837.443	3564
837.58	3511
837.718	3606
837.856	3545
837.993	3523
838.131	3633
838.269	3595
838.406	3603
838.544	3572
838.681	3462
838.819	3466
838.956	3393
839.094	3397
839.231	3458
839.369	3538
839.506	3759
839.643	3610
839.781	3515
839.918	3477
840.055	3538
840.193	3564
840.33	3515
840.467	3557
840.604	3610
840.742	3812
840.879	3553
841.016	3568
841.153	3622
841.29	3785
841.427	3709
841.564	3724
841.701	3747
841.838	3690
841.975	3747
842.112	3709
842.249	3633
842.385	3679
842.522	3816
842.659	3701
842.796	3648
842.933	3709
843.069	3709
843.206	3732
843.343	3873
843.479	3793
843.616	3808
843.752	3667
843.889	3698
844.025	3823
844.162	3728
844.298	3808
844.435	3762
844.571	3823
844.708	3922
844.844	3972
844.98	3983
845.117	4044
845.253	3972
845.389	3873
845.525	3972
845.661	3953
845.798	3930
845.934	4021
846.07	3991
846.206	4017
846.342	4124
846.478	4101
846.614	4006
846.75	3915
846.886	3911
847.022	4013
847.158	4002
847.294	3979
847.429	4013
847.565	4006
847.701	4238
847.837	3888
847.972	3861
848.108	3994
848.244	3983
848.379	3861
848.515	3842
848.65	3770
848.786	3869
848.921	3861
849.057	3930
849.192	3892
849.328	3888
849.463	3922
849.598	3861
849.734	3842
849.869	3846
850.004	3819
850.14	3831
850.275	3755
850.41	3743
850.545	3766
850.68	3774
850.815	3740
850.95	3819
851.085	3915
851.22	3899
851.355	3812
851.49	3789
851.625	3759
851.76	3812
851.895	3747
852.03	3701
852.165	3793
852.299	3842
852.434	3922
852.569	3861
852.703	3876
852.838	3945
852.973	3964
853.107	4006
853.242	3876
853.376	3846
853.511	3789
853.645	3831
853.78	3949
853.914	3880
854.048	3869
854.183	3888
854.317	3949
854.451	4101
854.585	3968
854.72	3922
854.854	4051
854.988	3937
855.122	4013
855.256	3926
855.39	4006
855.524	4116
855.658	4071
855.792	4090
855.926	4173
856.06	4166
856.194	4150
856.327	4173
856.461	4135
856.595	4162
856.729	4169
856.862	4249
856.996	4261
857.13	4291
857.263	4352
857.397	4348
857.53	4268
857.664	4295
857.797	4409
857.931	4436
858.064	4386
858.197	4440
858.331	4390
858.464	4371
858.597	4398
858.731	4417
858.864	4478
858.997	4466
859.13	4508
859.263	4546
859.396	4561
859.529	4535
859.662	4519
859.795	4542
859.928	4565
860.061	4714
860.194	4721
860.327	4714
860.46	4630
860.592	4763
860.725	4801
860.858	4774
860.99	4710
861.123	4717
861.256	4672
861.388	4740
861.521	5410
861.653	4733
861.786	4740
861.918	4767
862.05	4793
862.183	4828
862.315	4858
862.447	4991
862.58	4900
862.712	4812
862.844	4801
862.976	4930
863.108	4850
863.24	5307
863.372	4816
863.504	4904
863.636	4862
863.768	5003
863.9	4972
864.032	4919
864.164	4984
864.296	5003
864.428	5037
864.559	5098
864.691	5140
864.823	5090
864.954	5098
865.086	5178
865.217	5132
865.349	5105
865.48	5193
865.612	5208
865.743	5261
865.875	5166
866.006	5185
866.137	5231
866.269	5284
866.4	5288
866.531	5273
866.662	5212
866.793	5269
866.924	5246
867.055	5387
867.186	5337
867.317	5292
867.448	5284
867.579	5414
867.71	5387
867.841	5398
867.972	5444
868.103	5402
868.233	5482
868.364	5490
868.495	5512
868.625	5665
868.756	5783
868.886	5672
869.017	5741
869.147	5844
869.278	5882
869.408	5824
869.539	5855
869.669	5923
869.799	5939
869.929	5977
870.06	6049
870.19	6220
870.32	6182
870.45	6323
870.58	6369
870.71	6399
870.84	6395
870.97	6429
871.1	6464
871.23	6631
871.36	6684
871.489	6654
871.619	6707
871.749	6795
871.879	6818
872.008	6943
872.138	7008
872.267	7050
872.397	6985
872.526	7053
872.656	7061
872.785	7183
872.915	7422
873.044	7457
873.173	7620
873.303	7674
873.432	7780
873.561	7864
873.69	7913
873.819	7993
873.948	8214
874.077	8195
874.206	8305
874.335	8507
874.464	8621
874.593	8834
874.722	8990
874.851	9135
874.979	9291
875.108	9435
875.237	9424
875.365	9488
875.494	9610
875.623	9770
875.751	9785
875.88	10013
876.008	10063
876.136	10261
876.265	10504
876.393	10733
876.521	10721
876.65	10767
876.778	10889
876.906	10847
877.034	10938
877.162	11064
877.29	11201
877.418	11307
877.546	11246
877.674	11402
877.802	11493
877.93	11463
878.058	11512
878.185	11600
878.313	11668
878.441	11809
878.568	11657
878.696	11809
878.824	11840
878.951	11912
879.079	11977
879.206	12068
879.333	12110
879.461	11999
879.588	12083
879.715	12076
879.842	12273
879.97	12053
880.097	11817
880.224	11916
880.351	12011
880.478	11912
880.605	11817
880.732	11824
880.859	11977
880.986	11824
881.112	11851
881.239	11760
881.366	11623
881.493	11657
881.619	11596
881.746	11512
881.872	11505
881.999	11566
882.125	11459
882.252	11554
882.378	11532
882.505	11497
882.631	11349
882.757	11231
882.883	11296
883.01	11315
883.136	11128
883.262	11113
883.388	11113
883.514	11166
883.64	11193
883.766	11060
883.892	10980
884.018	10965
884.143	11045
884.269	11124
884.395	10869
884.52	10744
884.646	10763
884.772	10755
884.897	10675
885.023	10687
885.148	10683
885.274	10778
885.399	10687
885.524	10554
885.65	10599
885.775	10546
885.9	10500
886.025	10588
886.15	10542
886.275	10504
886.4	10310
886.525	10485
886.65	10413
886.775	10299
886.9	10466
887.025	10481
887.149	10329
887.274	10238
887.399	10261
887.523	10177
887.648	10086
887.773	10143
887.897	10257
888.021	10188
888.146	10086
888.27	10223
888.395	10188
888.519	10124
888.643	10124
888.767	10109
888.891	10021
889.015	10029
889.139	10021
889.263	10017
889.387	10112
889.511	10074
889.635	10040
889.759	10029
889.883	9934
890.006	10013
890.13	10112
890.254	9774
890.377	9987
890.501	9842
890.624	9876
890.748	9892
890.871	9835
890.995	9755
891.118	9709
891.241	9751
891.364	9732
891.488	9812
891.611	9705
891.734	9759
891.857	9713
891.98	9732
892.103	9720
892.226	9717
892.349	9629
892.471	9545
892.594	9603
892.717	9606
892.839	9660
892.962	9614
893.085	9690
893.207	9614
893.33	9523
893.452	9553
893.575	9599
893.697	9523
893.819	9576
893.941	9629
894.064	9545
894.186	9439
894.308	9405
894.43	9538
894.552	9568
894.674	9454
894.796	9344
894.918	9378
895.04	9374
895.161	9389
895.283	9397
895.405	9272
895.526	9218
895.648	9233
895.769	9268
895.891	9245
896.012	9287
896.134	9306
896.255	9230
896.376	9119
896.498	9214
896.619	9100
896.74	9066
896.861	9047
896.982	9226
897.103	9291
897.224	9161
897.345	9024
897.466	9070
897.587	9077
897.708	9150
897.828	9077
897.949	8979
898.07	8960
898.19	8918
898.311	9017
898.431	8876
898.552	8971
898.672	8963
898.792	8944
898.913	8891
899.033	8788
899.153	8788
899.273	8659
899.393	8689
899.513	8689
899.633	8705
899.753	8754
899.873	8689
899.993	8826
900.113	8746
900.232	8689
900.352	8590
900.472	8590
900.591	8549
900.711	8629
900.83	8583
900.95	8735
901.069	8693
901.189	8575
901.308	8400
901.427	8404
901.546	8415
901.665	8389
901.784	8511
901.904	8423
902.023	8351
902.141	8282
902.26	8214
902.379	8267
902.498	8180
902.617	8240
902.735	8271
902.854	8240
902.973	8229
903.091	8161
903.21	8157
903.328	8187
903.446	8084
903.565	8065
903.683	8069
903.801	8050
903.919	8183
904.038	8161
904.156	7959
904.274	8111
904.392	8008
904.51	7982
904.627	8092
904.745	8138
904.863	8107
904.981	7967
905.098	7845
905.216	7909
905.334	7871
905.451	7856
905.569	7890
905.686	7913
905.803	7913
905.921	7769
906.038	7864
906.155	7769
906.272	7700
906.389	7750
906.506	7681
906.623	7597
906.74	7575
906.857	7518
906.974	7601
907.091	7636
907.208	7731
907.324	7567
907.441	7594
907.557	7537
907.674	7449
907.79	7354
907.907	7407
908.023	7388
908.139	7426
908.256	7407
908.372	7362
908.488	7324
908.604	7263
908.72	7221
908.836	7285
908.952	7236
909.068	7301
909.184	7289
909.3	7198
909.415	7278
909.531	7236
909.647	7145
909.762	7069
909.878	7061
909.993	7179
910.108	7053
910.224	7080
910.339	7080
910.454	7061
910.57	7053
910.685	6951
910.8	7168
910.915	7095
911.03	7000
911.145	6924
911.259	6890
911.374	6894
911.489	6787
911.604	6779
911.718	6684
911.833	6772
911.947	6612
912.062	6673
912.176	6654
912.291	6681
912.405	6730
912.519	6848
912.633	6840
912.748	6806
912.862	6696
912.976	6646
913.09	6544
913.204	6604
913.318	6608
913.431	6669
913.545	6700
913.659	6753
913.772	6692
913.886	6540
914	6582
914.113	6601
914.226	6696
914.34	6620
914.453	6502
914.566	6631
914.68	6570
914.793	6490
914.906	6407
915.019	6426
915.132	6418
915.245	6422
915.358	6494
915.47	6513
915.583	6460
915.696	6437
915.809	6509
915.921	6494
916.034	6437
916.146	6414
916.259	6338
916.371	6525
916.483	6452
916.595	6418
916.708	6429
916.82	6399
916.932	6403
917.044	6403
917.156	6369
917.268	6311
917.38	6323
917.491	6281
917.603	6331
917.715	6361
917.826	6452
917.938	6273
918.049	6300
918.161	6308
918.272	6448
918.384	6448
918.495	6361
918.606	6270
918.717	6285
918.828	6273
918.939	6270
919.05	6167
919.161	6243
919.272	6121
919.383	6163
919.494	6308
919.604	6445
919.715	6277
919.826	6194
919.936	6266
920.047	6353
920.157	6304
920.267	6456
920.378	6346
920.488	6239
920.598	6460
920.708	6559
920.818	6445
920.928	6464
921.038	6582
921.148	6597
921.258	6361
921.368	6292
921.477	6270
921.587	6182
921.697	6057
921.806	6095
921.916	6053
922.025	5992
922.134	5916
922.244	5916
922.353	5927
922.462	5855
922.571	5786
922.68	5695
922.789	5653
922.898	5714
923.007	5642
923.116	5726
923.224	5676
923.333	5691
923.442	5600
923.55	5615
923.659	5566
923.767	5604
923.876	5543
923.984	5653
924.092	5528
924.201	5604
924.309	5547
924.417	5604
924.525	5520
924.633	5532
924.741	6167
924.849	5353
924.956	5478
925.064	5341
925.172	5296
925.279	5284
925.387	5288
925.494	5353
925.602	5417
925.709	5357
925.816	5265
925.924	5315
926.031	5292
926.138	5273
926.245	5303
926.352	5220
926.459	5296
926.566	5326
926.673	5185
926.779	5166
926.886	5094
926.993	5010
927.099	5041
927.206	4957
927.312	4946
927.419	4991
927.525	5022
927.631	5025
927.737	4896
927.843	4809
927.95	4759
928.056	4824
928.162	4824
928.267	4843
928.373	5227
928.479	4828
928.585	4687
928.69	4740
928.796	4729
928.901	4710
929.007	4599
929.112	4645
929.218	4588
929.323	4615
929.428	4531
929.533	4653
929.638	4523
929.743	4588
929.848	4554
929.953	4508
930.058	4474
930.163	4322
930.267	4348
930.372	4409
930.477	4295
930.581	4489
930.685	4409
930.79	4268
930.894	4284
930.998	4246
931.103	4375
931.207	4128
931.311	4120
931.415	4036
931.519	3934
931.623	3911
