Data from glass_V78500241_2126.txt Node
Date: Wed Sep 01 19:29:14 CST 2021
User: usil
Spectrometer: V785-0024
Trigger mode: 0
Integration Time (sec): 4.000000E-1
Scans to average: 1
Nonlinearity correction enabled: false
Boxcar width: 0
Storing dark spectrum: false
XAxis mode: Wavelengths
Number of Pixels in Spectrum: 1024
>>>>>Begin Spectral Data<<<<<
801.071	3720
801.214	3740
801.356	3686
801.499	3755
801.641	3717
801.783	3812
801.926	3835
802.068	3800
802.211	3835
802.353	3918
802.496	3827
802.638	3880
802.78	3892
802.923	3899
803.065	3831
803.208	3823
803.35	3827
803.492	3873
803.635	3892
803.777	3785
803.919	3850
804.061	4093
804.204	3987
804.346	3934
804.488	3930
804.63	3972
804.773	3994
804.915	4048
805.057	4158
805.199	4036
805.341	4101
805.483	4147
805.626	4158
805.768	4116
805.91	4188
806.052	4211
806.194	4227
806.336	4314
806.478	4200
806.62	4185
806.762	4169
806.904	4242
807.046	4341
807.188	4158
807.33	4188
807.472	4215
807.614	4211
807.756	4268
807.898	4188
808.04	4166
808.182	4253
808.324	4276
808.465	4398
808.607	4512
808.749	4436
808.891	4451
809.033	4470
809.174	4363
809.316	4268
809.458	4207
809.6	4150
809.741	4150
809.883	4116
810.025	4219
810.166	4177
810.308	4204
810.45	4265
810.591	4238
810.733	4325
810.875	4489
811.016	4850
811.158	5109
811.299	5250
811.441	5261
811.582	5067
811.724	4698
811.865	4470
812.007	4485
812.148	4405
812.29	4428
812.431	4371
812.573	4398
812.714	4375
812.855	4383
812.997	4386
813.138	4428
813.279	4451
813.421	4352
813.562	4375
813.703	4314
813.845	4344
813.986	4253
814.127	4200
814.268	4287
814.41	4287
814.551	4280
814.692	4299
814.833	4287
814.974	4299
815.115	4348
815.256	4268
815.397	4219
815.539	4303
815.68	4219
815.821	4257
815.962	4295
816.103	4299
816.244	4238
816.385	4238
816.526	4257
816.666	4162
816.807	4097
816.948	4162
817.089	4188
817.23	4101
817.371	4051
817.512	4059
817.653	4032
817.793	4029
817.934	4010
818.075	4131
818.216	4101
818.356	4029
818.497	4002
818.638	3956
818.778	3930
818.919	3899
819.06	3823
819.2	3907
819.341	3835
819.481	3823
819.622	3956
819.762	3987
819.903	3899
820.043	3835
820.184	3861
820.324	3846
820.465	3854
820.605	3861
820.746	3896
820.886	3770
821.026	3854
821.167	3873
821.307	3956
821.447	4002
821.588	3949
821.728	3896
821.868	3949
822.008	3861
822.149	3899
822.289	3892
822.429	3759
822.569	3724
822.709	3827
822.849	3705
822.99	3709
823.13	3755
823.27	3709
823.41	3713
823.55	3740
823.69	3736
823.83	3732
823.97	3682
824.11	3591
824.25	3606
824.389	3599
824.529	3629
824.669	3644
824.809	3701
824.949	3755
825.089	3686
825.228	3717
825.368	3603
825.508	3534
825.648	3564
825.787	3625
825.927	3641
826.067	3641
826.206	3648
826.346	3770
826.485	3842
826.625	3857
826.765	3911
826.904	3812
827.044	3572
827.183	3500
827.323	3450
827.462	3492
827.601	3409
827.741	3386
827.88	3450
828.02	3424
828.159	3443
828.298	3504
828.437	3523
828.577	3462
828.716	3606
828.855	3477
828.994	3344
829.134	3351
829.273	3382
829.412	3313
829.551	3344
829.69	3367
829.829	3424
829.968	3507
830.107	3420
830.246	3424
830.385	3382
830.524	3336
830.663	3294
830.802	3207
830.941	3203
831.08	3188
831.219	3272
831.357	3211
831.496	3386
831.635	3207
831.774	3207
831.913	3192
832.051	3150
832.19	3131
832.329	3188
832.467	3157
832.606	3119
832.744	3142
832.883	3157
833.022	3165
833.16	3245
833.299	3268
833.437	3340
833.576	3378
833.714	3416
833.852	3466
833.991	3454
834.129	3466
834.267	3439
834.406	3405
834.544	3450
834.682	3420
834.821	3355
834.959	3542
835.097	3370
835.235	3530
835.373	3500
835.511	3496
835.65	3450
835.788	3500
835.926	3412
836.064	3393
836.202	3424
836.34	3595
836.478	3625
836.615	3549
836.753	3595
836.891	3652
837.029	3648
837.167	3603
837.305	3523
837.443	3542
837.58	3504
837.718	3553
837.856	3523
837.993	3580
838.131	3584
838.269	3572
838.406	3564
838.544	3542
838.681	3488
838.819	3504
838.956	3382
839.094	3378
839.231	3424
839.369	3496
839.506	3728
839.643	3633
839.781	3458
839.918	3450
840.055	3485
840.193	3496
840.33	3534
840.467	3530
840.604	3568
840.742	3781
840.879	3538
841.016	3576
841.153	3576
841.29	3720
841.427	3690
841.564	3751
841.701	3728
841.838	3698
841.975	3679
842.112	3713
842.249	3644
842.385	3637
842.522	3838
842.659	3713
842.796	3690
842.933	3724
843.069	3682
843.206	3667
843.343	3819
843.479	3793
843.616	3804
843.752	3728
843.889	3671
844.025	3854
844.162	3694
844.298	3873
844.435	3759
844.571	3823
844.708	3922
844.844	3953
844.98	4044
845.117	3949
845.253	3945
845.389	3930
845.525	3964
845.661	3964
845.798	3953
845.934	3968
846.07	3998
846.206	4010
846.342	4131
846.478	4055
846.614	3953
846.75	3930
846.886	3911
847.022	4074
847.158	3964
847.294	4006
847.429	4090
847.565	4002
847.701	4276
847.837	3873
847.972	3857
848.108	3994
848.244	3941
848.379	3869
848.515	3823
848.65	3789
848.786	3838
848.921	3861
849.057	3915
849.192	3903
849.328	3915
849.463	3907
849.598	3861
849.734	3846
849.869	3819
850.004	3797
850.14	3800
850.275	3766
850.41	3724
850.545	3759
850.68	3789
850.815	3770
850.95	3797
851.085	3922
851.22	3865
851.355	3835
851.49	3808
851.625	3808
851.76	3785
851.895	3740
852.03	3698
852.165	3793
852.299	3838
852.434	3892
852.569	3869
852.703	3846
852.838	3934
852.973	4036
853.107	4036
853.242	3850
853.376	3838
853.511	3751
853.645	3816
853.78	3949
853.914	3896
854.048	3941
854.183	3857
854.317	3991
854.451	4021
854.585	3953
854.72	3926
854.854	4055
854.988	3899
855.122	4021
855.256	3926
855.39	4029
855.524	4154
855.658	4017
855.792	4093
855.926	4135
856.06	4200
856.194	4200
856.327	4105
856.461	4074
856.595	4135
856.729	4196
856.862	4257
856.996	4242
857.13	4280
857.263	4333
857.397	4333
857.53	4234
857.664	4329
857.797	4356
857.931	4443
858.064	4356
858.197	4443
858.331	4375
858.464	4360
858.597	4341
858.731	4443
858.864	4470
858.997	4413
859.13	4512
859.263	4569
859.396	4615
859.529	4478
859.662	4531
859.795	4500
859.928	4569
860.061	4675
860.194	4687
860.327	4622
860.46	4634
860.592	4702
860.725	4767
860.858	4740
860.99	4675
861.123	4599
861.256	4714
861.388	4752
861.521	5524
861.653	4714
861.786	4698
861.918	4767
862.05	4782
862.183	4831
862.315	4881
862.447	4911
862.58	4911
862.712	4790
862.844	4759
862.976	4847
863.108	4862
863.24	5189
863.372	4835
863.504	4908
863.636	4946
863.768	4953
863.9	4953
864.032	4892
864.164	4961
864.296	4999
864.428	5147
864.559	5067
864.691	5071
864.823	5121
864.954	5128
865.086	5121
865.217	5140
865.349	5071
865.48	5151
865.612	5208
865.743	5277
865.875	5174
866.006	5162
866.137	5223
866.269	5273
866.4	5231
866.531	5296
866.662	5216
866.793	5208
866.924	5258
867.055	5296
867.186	5334
867.317	5299
867.448	5250
867.579	5433
867.71	5318
867.841	5334
867.972	5433
868.103	5471
868.233	5490
868.364	5490
868.495	5528
868.625	5688
868.756	5771
868.886	5630
869.017	5695
869.147	5870
869.278	5863
869.408	5794
869.539	5863
869.669	5885
869.799	5912
869.929	5973
870.06	5973
870.19	6171
870.32	6136
870.45	6247
870.58	6365
870.71	6376
870.84	6467
870.97	6403
871.1	6452
871.23	6623
871.36	6692
871.489	6601
871.619	6681
871.749	6821
871.879	6844
872.008	6993
872.138	6977
872.267	6989
872.397	7015
872.526	7012
872.656	7076
872.785	7202
872.915	7377
873.044	7460
873.173	7537
873.303	7636
873.432	7723
873.561	7841
873.69	7894
873.819	8035
873.948	8123
874.077	8248
874.206	8389
874.335	8374
874.464	8598
874.593	8864
874.722	8910
874.851	9131
874.979	9188
875.108	9363
875.237	9386
875.365	9439
875.494	9644
875.623	9865
875.751	9766
875.88	9926
876.008	10105
876.136	10261
876.265	10489
876.393	10748
876.521	10675
876.65	10809
876.778	10927
876.906	10908
877.034	10987
877.162	11056
877.29	11174
877.418	11242
877.546	11299
877.674	11395
877.802	11452
877.93	11539
878.058	11535
878.185	11570
878.313	11642
878.441	11775
878.568	11604
878.696	11779
878.824	11783
878.951	11901
879.079	11912
879.206	12057
879.333	12034
879.461	11999
879.588	12064
879.715	12133
879.842	12152
879.97	12053
880.097	11939
880.224	11840
880.351	11942
880.478	11874
880.605	11813
880.732	11874
880.859	11977
880.986	11836
881.112	11824
881.239	11699
881.366	11627
881.493	11680
881.619	11627
881.746	11596
881.872	11562
881.999	11474
882.125	11459
882.252	11573
882.378	11474
882.505	11562
882.631	11345
882.757	11349
882.883	11387
883.01	11296
883.136	11136
883.262	11109
883.388	11064
883.514	11151
883.64	11239
883.766	11181
883.892	10908
884.018	10968
884.143	11006
884.269	11105
884.395	10828
884.52	10767
884.646	10767
884.772	10687
884.897	10683
885.023	10691
885.148	10729
885.274	10759
885.399	10698
885.524	10542
885.65	10569
885.775	10588
885.9	10603
886.025	10561
886.15	10599
886.275	10474
886.4	10375
886.525	10451
886.65	10337
886.775	10310
886.9	10470
887.025	10546
887.149	10329
887.274	10287
887.399	10181
887.523	10265
887.648	10150
887.773	10063
887.897	10207
888.021	10253
888.146	10128
888.27	10257
888.395	10181
888.519	10150
888.643	10211
888.767	10207
888.891	10029
889.015	9975
889.139	10059
889.263	9888
889.387	10093
889.511	10074
889.635	10093
889.759	9926
889.883	10048
890.006	10002
890.13	10067
890.254	10048
890.377	9854
890.501	9850
890.624	9804
890.748	9880
890.871	9785
890.995	9781
891.118	9732
891.241	9713
891.364	9770
891.488	9774
891.611	9762
891.734	9724
891.857	9709
891.98	9743
892.103	9781
892.226	9614
892.349	9671
892.471	9553
892.594	9614
892.717	9629
892.839	9671
892.962	9553
893.085	9675
893.207	9580
893.33	9542
893.452	9507
893.575	9507
893.697	9515
893.819	9545
893.941	9591
894.064	9614
894.186	9401
894.308	9386
894.43	9458
894.552	9507
894.674	9439
894.796	9370
894.918	9340
895.04	9389
895.161	9378
895.283	9332
895.405	9195
895.526	9176
895.648	9211
895.769	9211
895.891	9218
896.012	9211
896.134	9264
896.255	9119
896.376	9169
896.498	9169
896.619	9093
896.74	9062
896.861	9097
896.982	9291
897.103	9306
897.224	9135
897.345	9009
897.466	9024
897.587	8952
897.708	9055
897.828	9043
897.949	8975
898.07	8864
898.19	8899
898.311	9028
898.431	8910
898.552	8956
898.672	8986
898.792	8929
898.913	8868
899.033	8792
899.153	8743
899.273	8606
899.393	8758
899.513	8773
899.633	8712
899.753	8693
899.873	8636
899.993	8663
900.113	8716
900.232	8758
900.352	8682
900.472	8651
900.591	8545
900.711	8594
900.83	8575
900.95	8674
901.069	8670
901.189	8602
901.308	8465
901.427	8328
901.546	8446
901.665	8434
901.784	8465
901.904	8404
902.023	8358
902.141	8210
902.26	8176
902.379	8328
902.498	8237
902.617	8176
902.735	8347
902.854	8218
902.973	8218
903.091	8157
903.21	8119
903.328	8164
903.446	8142
903.565	8012
903.683	8126
903.801	8081
903.919	8119
904.038	8161
904.156	8058
904.274	8092
904.392	8062
904.51	8054
904.627	7974
904.745	8065
904.863	8062
904.981	7856
905.098	7841
905.216	7852
905.334	7849
905.451	7875
905.569	7803
905.686	7936
905.803	7875
905.921	7837
906.038	7883
906.155	7864
906.272	7696
906.389	7685
906.506	7628
906.623	7677
906.74	7586
906.857	7559
906.974	7559
907.091	7636
907.208	7708
907.324	7636
907.441	7521
907.557	7464
907.674	7407
907.79	7384
907.907	7384
908.023	7506
908.139	7381
908.256	7430
908.372	7335
908.488	7312
908.604	7270
908.72	7213
908.836	7236
908.952	7190
909.068	7255
909.184	7312
909.3	7282
909.415	7297
909.531	7274
909.647	7141
909.762	7129
909.878	7065
909.993	7141
910.108	7107
910.224	7034
910.339	7107
910.454	7042
910.57	7019
910.685	6970
910.8	7137
910.915	7118
911.03	7000
911.145	6890
911.259	6886
911.374	6882
911.489	6814
911.604	6745
911.718	6642
911.833	6700
911.947	6662
912.062	6654
912.176	6741
912.291	6681
912.405	6703
912.519	6829
912.633	6837
912.748	6700
912.862	6764
912.976	6620
913.09	6566
913.204	6601
913.318	6631
913.431	6719
913.545	6658
913.659	6681
913.772	6642
913.886	6566
914	6604
914.113	6665
914.226	6669
914.34	6620
914.453	6494
914.566	6635
914.68	6547
914.793	6521
914.906	6414
915.019	6384
915.132	6388
915.245	6448
915.358	6479
915.47	6426
915.583	6433
915.696	6551
915.809	6536
915.921	6574
916.034	6384
916.146	6388
916.259	6391
916.371	6479
916.483	6475
916.595	6391
916.708	6418
916.82	6391
916.932	6395
917.044	6399
917.156	6403
917.268	6323
917.38	6331
917.491	6304
917.603	6388
917.715	6353
917.826	6372
917.938	6319
918.049	6251
918.161	6342
918.272	6433
918.384	6410
918.495	6346
918.606	6270
918.717	6194
918.828	6243
918.939	6308
919.05	6205
919.161	6266
919.272	6121
919.383	6136
919.494	6273
919.604	6422
919.715	6289
919.826	6220
919.936	6220
920.047	6292
920.157	6289
920.267	6479
920.378	6308
920.488	6311
920.598	6422
920.708	6517
920.818	6452
920.928	6513
921.038	6604
921.148	6563
921.258	6350
921.368	6315
921.477	6194
921.587	6136
921.697	6110
921.806	6186
921.916	6053
922.025	5984
922.134	5984
922.244	5912
922.353	5931
922.462	5828
922.571	5802
922.68	5729
922.789	5684
922.898	5714
923.007	5653
923.116	5703
923.224	5684
923.333	5649
923.442	5566
923.55	5551
923.659	5528
923.767	5611
923.876	5520
923.984	5589
924.092	5497
924.201	5543
924.309	5581
924.417	5478
924.525	5474
924.633	5505
924.741	6247
924.849	5406
924.956	5490
925.064	5364
925.172	5284
925.279	5280
925.387	5334
925.494	5337
925.602	5417
925.709	5364
925.816	5273
925.924	5292
926.031	5410
926.138	5292
926.245	5364
926.352	5197
926.459	5280
926.566	5311
926.673	5208
926.779	5178
926.886	5128
926.993	5014
927.099	4991
927.206	5022
927.312	4942
927.419	4984
927.525	4984
927.631	5003
927.737	4915
927.843	4873
927.95	4801
928.056	4809
928.162	4858
928.267	4854
928.373	5269
928.479	4889
928.585	4710
928.69	4755
928.796	4763
928.901	4645
929.007	4558
929.112	4698
929.218	4664
929.323	4599
929.428	4558
929.533	4729
929.638	4516
929.743	4470
929.848	4577
929.953	4512
930.058	4455
930.163	4310
930.267	4310
930.372	4402
930.477	4280
930.581	4470
930.685	4325
930.79	4219
930.894	4276
930.998	4196
931.103	4360
931.207	4131
931.311	4112
931.415	4021
931.519	3934
931.623	3960
