Data from glass_V78500241_620.txt Node
Date: Wed Sep 01 19:18:47 CST 2021
User: usil
Spectrometer: V785-0024
Trigger mode: 0
Integration Time (sec): 4.000000E-1
Scans to average: 1
Nonlinearity correction enabled: false
Boxcar width: 0
Storing dark spectrum: false
XAxis mode: Wavelengths
Number of Pixels in Spectrum: 1024
>>>>>Begin Spectral Data<<<<<
801.071	3755
801.214	3808
801.356	3732
801.499	3694
801.641	3751
801.783	3759
801.926	3903
802.068	3838
802.211	3838
802.353	3949
802.496	3876
802.638	3903
802.78	3907
802.923	3907
803.065	3903
803.208	3876
803.35	3884
803.492	3884
803.635	3903
803.777	3800
803.919	3907
804.061	4131
804.204	3994
804.346	3926
804.488	3915
804.63	4055
804.773	4006
804.915	4040
805.057	4112
805.199	4029
805.341	4093
805.483	4131
805.626	4147
805.768	4105
805.91	4238
806.052	4242
806.194	4188
806.336	4417
806.478	4211
806.62	4150
806.762	4227
806.904	4272
807.046	4344
807.188	4268
807.33	4219
807.472	4253
807.614	4227
807.756	4230
807.898	4261
808.04	4242
808.182	4314
808.324	4383
808.465	4367
808.607	4462
808.749	4497
808.891	4436
809.033	4542
809.174	4451
809.316	4246
809.458	4261
809.6	4181
809.741	4154
809.883	4185
810.025	4238
810.166	4230
810.308	4215
810.45	4280
810.591	4265
810.733	4306
810.875	4508
811.016	4885
811.158	5102
811.299	5239
811.441	5231
811.582	5109
811.724	4733
811.865	4508
812.007	4478
812.148	4424
812.29	4451
812.431	4447
812.573	4413
812.714	4383
812.855	4424
812.997	4421
813.138	4493
813.279	4432
813.421	4402
813.562	4371
813.703	4348
813.845	4352
813.986	4257
814.127	4242
814.268	4295
814.41	4280
814.551	4242
814.692	4363
814.833	4261
814.974	4322
815.115	4310
815.256	4295
815.397	4215
815.539	4287
815.68	4204
815.821	4196
815.962	4325
816.103	4268
816.244	4246
816.385	4261
816.526	4261
816.666	4223
816.807	4101
816.948	4227
817.089	4162
817.23	4162
817.371	4067
817.512	4071
817.653	4124
817.793	4002
817.934	4017
818.075	4112
818.216	4112
818.356	4090
818.497	4006
818.638	3930
818.778	3926
818.919	3899
819.06	3869
819.2	3915
819.341	3918
819.481	3850
819.622	3911
819.762	4063
819.903	3991
820.043	3869
820.184	3842
820.324	3816
820.465	3888
820.605	3850
820.746	3857
820.886	3762
821.026	3956
821.167	3915
821.307	4025
821.447	4013
821.588	3975
821.728	3956
821.868	3922
822.008	3861
822.149	3934
822.289	3949
822.429	3766
822.569	3766
822.709	3785
822.849	3701
822.99	3755
823.13	3747
823.27	3800
823.41	3720
823.55	3747
823.69	3743
823.83	3800
823.97	3682
824.11	3610
824.25	3625
824.389	3644
824.529	3660
824.669	3648
824.809	3698
824.949	3793
825.089	3732
825.228	3713
825.368	3603
825.508	3618
825.648	3591
825.787	3614
825.927	3610
826.067	3656
826.206	3667
826.346	3804
826.485	3850
826.625	3911
826.765	3956
826.904	3861
827.044	3637
827.183	3534
827.323	3409
827.462	3511
827.601	3435
827.741	3439
827.88	3450
828.02	3424
828.159	3428
828.298	3523
828.437	3587
828.577	3469
828.716	3587
828.855	3542
828.994	3409
829.134	3405
829.273	3409
829.412	3351
829.551	3351
829.69	3351
829.829	3428
829.968	3568
830.107	3416
830.246	3416
830.385	3378
830.524	3340
830.663	3336
830.802	3279
830.941	3199
831.08	3226
831.219	3256
831.357	3298
831.496	3389
831.635	3264
831.774	3214
831.913	3214
832.051	3165
832.19	3173
832.329	3226
832.467	3176
832.606	3097
832.744	3169
832.883	3214
833.022	3203
833.16	3287
833.299	3329
833.437	3313
833.576	3370
833.714	3393
833.852	3420
833.991	3458
834.129	3496
834.267	3447
834.406	3401
834.544	3439
834.682	3428
834.821	3405
834.959	3599
835.097	3405
835.235	3523
835.373	3511
835.511	3507
835.65	3500
835.788	3530
835.926	3424
836.064	3386
836.202	3462
836.34	3595
836.478	3587
836.615	3557
836.753	3625
836.891	3622
837.029	3622
837.167	3580
837.305	3561
837.443	3542
837.58	3530
837.718	3625
837.856	3549
837.993	3515
838.131	3595
838.269	3625
838.406	3549
838.544	3549
838.681	3481
838.819	3485
838.956	3374
839.094	3389
839.231	3492
839.369	3530
839.506	3770
839.643	3637
839.781	3523
839.918	3485
840.055	3580
840.193	3553
840.33	3526
840.467	3587
840.604	3614
840.742	3804
840.879	3534
841.016	3580
841.153	3606
841.29	3770
841.427	3724
841.564	3743
841.701	3762
841.838	3671
841.975	3660
842.112	3732
842.249	3675
842.385	3572
842.522	3857
842.659	3755
842.796	3675
842.933	3698
843.069	3705
843.206	3705
843.343	3838
843.479	3781
843.616	3835
843.752	3690
843.889	3652
844.025	3865
844.162	3766
844.298	3876
844.435	3873
844.571	3781
844.708	3937
844.844	4002
844.98	4051
845.117	4013
845.253	3945
845.389	3915
845.525	3983
845.661	3956
845.798	3953
845.934	4044
846.07	3983
846.206	4074
846.342	4135
846.478	4078
846.614	3998
846.75	3941
846.886	3907
847.022	4032
847.158	4017
847.294	4010
847.429	4017
847.565	3979
847.701	4211
847.837	3876
847.972	3842
848.108	3975
848.244	3983
848.379	3835
848.515	3835
848.65	3816
848.786	3838
848.921	3861
849.057	3941
849.192	3926
849.328	3926
849.463	3945
849.598	3896
849.734	3838
849.869	3842
850.004	3835
850.14	3835
850.275	3819
850.41	3770
850.545	3808
850.68	3804
850.815	3850
850.95	3778
851.085	3945
851.22	3846
851.355	3865
851.49	3838
851.625	3800
851.76	3831
851.895	3732
852.03	3713
852.165	3797
852.299	3873
852.434	3899
852.569	3880
852.703	3880
852.838	3926
852.973	4021
853.107	3991
853.242	3884
853.376	3884
853.511	3781
853.645	3842
853.78	3964
853.914	3892
854.048	3911
854.183	3896
854.317	3953
854.451	4044
854.585	3953
854.72	3937
854.854	4059
854.988	3960
855.122	4029
855.256	3953
855.39	4055
855.524	4124
855.658	4082
855.792	4086
855.926	4120
856.06	4204
856.194	4185
856.327	4143
856.461	4143
856.595	4173
856.729	4162
856.862	4253
856.996	4291
857.13	4322
857.263	4367
857.397	4341
857.53	4310
857.664	4348
857.797	4432
857.931	4432
858.064	4447
858.197	4436
858.331	4417
858.464	4398
858.597	4383
858.731	4451
858.864	4497
858.997	4470
859.13	4542
859.263	4546
859.396	4577
859.529	4523
859.662	4577
859.795	4531
859.928	4622
860.061	4744
860.194	4752
860.327	4675
860.46	4694
860.592	4759
860.725	4816
860.858	4774
860.99	4721
861.123	4687
861.256	4721
861.388	4748
861.521	5410
861.653	4740
861.786	4744
861.918	4759
862.05	4782
862.183	4847
862.315	4976
862.447	4968
862.58	4908
862.712	4850
862.844	4793
862.976	4896
863.108	4877
863.24	5201
863.372	4828
863.504	4911
863.636	4889
863.768	5033
863.9	4976
864.032	4972
864.164	4991
864.296	4980
864.428	5109
864.559	5109
864.691	5105
864.823	5117
864.954	5105
865.086	5170
865.217	5143
865.349	5079
865.48	5170
865.612	5212
865.743	5307
865.875	5220
866.006	5193
866.137	5197
866.269	5269
866.4	5242
866.531	5220
866.662	5258
866.793	5265
866.924	5303
867.055	5372
867.186	5334
867.317	5299
867.448	5280
867.579	5360
867.71	5436
867.841	5376
867.972	5410
868.103	5554
868.233	5543
868.364	5493
868.495	5570
868.625	5729
868.756	5817
868.886	5722
869.017	5726
869.147	5847
869.278	5901
869.408	5817
869.539	5840
869.669	5916
869.799	5904
869.929	5980
870.06	6034
870.19	6194
870.32	6201
870.45	6235
870.58	6365
870.71	6486
870.84	6456
870.97	6479
871.1	6464
871.23	6677
871.36	6684
871.489	6681
871.619	6730
871.749	6749
871.879	6882
872.008	6973
872.138	6985
872.267	7000
872.397	7004
872.526	7103
872.656	7050
872.785	7247
872.915	7365
873.044	7510
873.173	7605
873.303	7670
873.432	7753
873.561	7925
873.69	7902
873.819	7993
873.948	8187
874.077	8259
874.206	8336
874.335	8511
874.464	8629
874.593	8861
874.722	8891
874.851	9169
874.979	9264
875.108	9408
875.237	9416
875.365	9420
875.494	9682
875.623	9854
875.751	9819
875.88	9960
876.008	10090
876.136	10303
876.265	10478
876.393	10668
876.521	10774
876.65	10736
876.778	10778
876.906	10835
877.034	10911
877.162	11067
877.29	11151
877.418	11296
877.546	11387
877.674	11398
877.802	11509
877.93	11520
878.058	11619
878.185	11532
878.313	11665
878.441	11752
878.568	11600
878.696	11790
878.824	11859
878.951	12011
879.079	12022
879.206	12038
879.333	12076
879.461	12003
879.588	12091
879.715	12098
879.842	12213
879.97	12030
880.097	11916
880.224	11840
880.351	11904
880.478	11908
880.605	11885
880.732	11821
880.859	12049
880.986	11790
881.112	11942
881.239	11748
881.366	11691
881.493	11672
881.619	11665
881.746	11592
881.872	11551
881.999	11493
882.125	11543
882.252	11581
882.378	11512
882.505	11589
882.631	11410
882.757	11353
882.883	11356
883.01	11318
883.136	11246
883.262	11147
883.388	11018
883.514	11197
883.64	11159
883.766	11174
883.892	11033
884.018	11022
884.143	11094
884.269	11151
884.395	10820
884.52	10812
884.646	10748
884.772	10641
884.897	10698
885.023	10683
885.148	10664
885.274	10782
885.399	10740
885.524	10626
885.65	10599
885.775	10546
885.9	10573
886.025	10607
886.15	10607
886.275	10519
886.4	10379
886.525	10367
886.65	10325
886.775	10371
886.9	10516
887.025	10558
887.149	10348
887.274	10242
887.399	10215
887.523	10211
887.648	10143
887.773	10067
887.897	10200
888.021	10234
888.146	10006
888.27	10272
888.395	10234
888.519	10234
888.643	10181
888.767	10158
888.891	10086
889.015	10036
889.139	9998
889.263	10010
889.387	10101
889.511	10150
889.635	9975
889.759	9975
889.883	9964
890.006	10006
890.13	10090
890.254	9953
890.377	9930
890.501	9827
890.624	9854
890.748	9823
890.871	9861
890.995	9759
891.118	9762
891.241	9755
891.364	9698
891.488	9873
891.611	9705
891.734	9713
891.857	9717
891.98	9709
892.103	9781
892.226	9622
892.349	9614
892.471	9443
892.594	9622
892.717	9648
892.839	9591
892.962	9705
893.085	9717
893.207	9591
893.33	9515
893.452	9526
893.575	9603
893.697	9485
893.819	9576
893.941	9671
894.064	9603
894.186	9458
894.308	9408
894.43	9561
894.552	9606
894.674	9477
894.796	9359
894.918	9454
895.04	9313
895.161	9367
895.283	9348
895.405	9287
895.526	9241
895.648	9237
895.769	9237
895.891	9310
896.012	9291
896.134	9264
896.255	9203
896.376	9116
896.498	9154
896.619	9142
896.74	9013
896.861	9055
896.982	9249
897.103	9294
897.224	9138
897.345	9089
897.466	9013
897.587	9009
897.708	9161
897.828	9055
897.949	8952
898.07	8906
898.19	8941
898.311	9039
898.431	8925
898.552	8944
898.672	9013
898.792	9005
898.913	8891
899.033	8800
899.153	8785
899.273	8739
899.393	8762
899.513	8720
899.633	8823
899.753	8781
899.873	8693
899.993	8773
900.113	8712
900.232	8674
900.352	8655
900.472	8594
900.591	8545
900.711	8636
900.83	8514
900.95	8746
901.069	8708
901.189	8537
901.308	8431
901.427	8488
901.546	8488
901.665	8503
901.784	8568
901.904	8393
902.023	8358
902.141	8324
902.26	8248
902.379	8290
902.498	8180
902.617	8214
902.735	8279
902.854	8336
902.973	8317
903.091	8191
903.21	8134
903.328	8161
903.446	8119
903.565	8119
903.683	8123
903.801	8100
903.919	8149
904.038	8153
904.156	8096
904.274	8088
904.392	8065
904.51	7997
904.627	8096
904.745	8062
904.863	8081
904.981	7902
905.098	7879
905.216	7837
905.334	7970
905.451	7967
905.569	7883
905.686	7902
905.803	7932
905.921	7833
906.038	7906
906.155	7776
906.272	7772
906.389	7727
906.506	7670
906.623	7628
906.74	7609
906.857	7552
906.974	7616
907.091	7632
907.208	7765
907.324	7723
907.441	7563
907.557	7518
907.674	7441
907.79	7415
907.907	7373
908.023	7499
908.139	7480
908.256	7384
908.372	7362
908.488	7403
908.604	7293
908.72	7247
908.836	7240
908.952	7259
909.068	7278
909.184	7343
909.3	7240
909.415	7305
909.531	7285
909.647	7076
909.762	7126
909.878	7141
909.993	7187
910.108	7160
910.224	7107
910.339	7145
910.454	7053
910.57	6973
910.685	6951
910.8	7183
910.915	7095
911.03	7057
911.145	6905
911.259	6867
911.374	6890
911.489	6825
911.604	6840
911.718	6745
911.833	6760
911.947	6700
912.062	6639
912.176	6669
912.291	6703
912.405	6745
912.519	6825
912.633	6840
912.748	6715
912.862	6696
912.976	6646
913.09	6578
913.204	6635
913.318	6604
913.431	6646
913.545	6692
913.659	6703
913.772	6642
913.886	6582
914	6642
914.113	6646
914.226	6616
914.34	6623
914.453	6559
914.566	6547
914.68	6536
914.793	6452
914.906	6433
915.019	6422
915.132	6437
915.245	6372
915.358	6388
915.47	6521
915.583	6445
915.696	6498
915.809	6551
915.921	6506
916.034	6414
916.146	6410
916.259	6407
916.371	6475
916.483	6475
916.595	6353
916.708	6414
916.82	6399
916.932	6346
917.044	6429
917.156	6403
917.268	6338
917.38	6346
917.491	6331
917.603	6311
917.715	6441
917.826	6395
917.938	6311
918.049	6300
918.161	6361
918.272	6376
918.384	6483
918.495	6365
918.606	6273
918.717	6209
918.828	6342
918.939	6311
919.05	6216
919.161	6285
919.272	6083
919.383	6129
919.494	6308
919.604	6437
919.715	6239
919.826	6171
919.936	6304
920.047	6365
920.157	6285
920.267	6467
920.378	6338
920.488	6281
920.598	6441
920.708	6597
920.818	6532
920.928	6479
921.038	6585
921.148	6563
921.258	6388
921.368	6315
921.477	6266
921.587	6163
921.697	6072
921.806	6213
921.916	6102
922.025	5954
922.134	5840
922.244	5847
922.353	5973
922.462	5828
922.571	5828
922.68	5737
922.789	5771
922.898	5756
923.007	5619
923.116	5748
923.224	5672
923.333	5657
923.442	5585
923.55	5547
923.659	5608
923.767	5649
923.876	5627
923.984	5604
924.092	5535
924.201	5577
924.309	5592
924.417	5611
924.525	5501
924.633	5535
924.741	6350
924.849	5357
924.956	5467
925.064	5315
925.172	5357
925.279	5337
925.387	5387
925.494	5410
925.602	5440
925.709	5391
925.816	5292
925.924	5360
926.031	5353
926.138	5284
926.245	5326
926.352	5193
926.459	5261
926.566	5303
926.673	5166
926.779	5128
926.886	5181
926.993	5086
927.099	5041
927.206	4980
927.312	4961
927.419	5033
927.525	5029
927.631	4980
927.737	4900
927.843	4870
927.95	4771
928.056	4801
928.162	4816
928.267	4881
928.373	5242
928.479	4885
928.585	4649
928.69	4755
928.796	4816
928.901	4698
929.007	4611
929.112	4687
929.218	4645
929.323	4645
929.428	4588
929.533	4687
929.638	4508
929.743	4561
929.848	4580
929.953	4523
930.058	4421
930.163	4379
930.267	4367
930.372	4478
930.477	4303
930.581	4459
930.685	4371
930.79	4272
930.894	4363
930.998	4276
931.103	4417
931.207	4154
931.311	4109
931.415	4044
931.519	3964
931.623	3960
