Data from glass_V78500241_1384.txt Node
Date: Wed Sep 01 19:24:05 CST 2021
User: usil
Spectrometer: V785-0024
Trigger mode: 0
Integration Time (sec): 4.000000E-1
Scans to average: 1
Nonlinearity correction enabled: false
Boxcar width: 0
Storing dark spectrum: false
XAxis mode: Wavelengths
Number of Pixels in Spectrum: 1024
>>>>>Begin Spectral Data<<<<<
801.071	3759
801.214	3717
801.356	3705
801.499	3736
801.641	3701
801.783	3778
801.926	3896
802.068	3785
802.211	3918
802.353	3892
802.496	3842
802.638	3827
802.78	3888
802.923	3972
803.065	3934
803.208	3857
803.35	3850
803.492	3911
803.635	3915
803.777	3797
803.919	3941
804.061	4109
804.204	3968
804.346	3896
804.488	3922
804.63	4067
804.773	4017
804.915	4013
805.057	4135
805.199	4078
805.341	4105
805.483	4086
805.626	4105
805.768	4109
805.91	4223
806.052	4227
806.194	4230
806.336	4341
806.478	4211
806.62	4188
806.762	4185
806.904	4280
807.046	4360
807.188	4204
807.33	4147
807.472	4238
807.614	4162
807.756	4272
807.898	4211
808.04	4196
808.182	4276
808.324	4299
808.465	4363
808.607	4466
808.749	4474
808.891	4474
809.033	4519
809.174	4405
809.316	4268
809.458	4230
809.6	4116
809.741	4147
809.883	4120
810.025	4185
810.166	4246
810.308	4265
810.45	4246
810.591	4242
810.733	4253
810.875	4531
811.016	4873
811.158	5113
811.299	5292
811.441	5288
811.582	5094
811.724	4698
811.865	4462
812.007	4523
812.148	4466
812.29	4394
812.431	4386
812.573	4394
812.714	4341
812.855	4413
812.997	4455
813.138	4535
813.279	4436
813.421	4413
813.562	4386
813.703	4306
813.845	4356
813.986	4253
814.127	4227
814.268	4268
814.41	4234
814.551	4280
814.692	4375
814.833	4230
814.974	4318
815.115	4379
815.256	4238
815.397	4230
815.539	4310
815.68	4257
815.821	4234
815.962	4303
816.103	4291
816.244	4207
816.385	4230
816.526	4276
816.666	4173
816.807	4139
816.948	4158
817.089	4177
817.23	4120
817.371	4078
817.512	4051
817.653	4051
817.793	4051
817.934	4055
818.075	4097
818.216	4093
818.356	4093
818.497	3964
818.638	3922
818.778	3907
818.919	3835
819.06	3876
819.2	3915
819.341	3892
819.481	3869
819.622	3915
819.762	4010
819.903	3918
820.043	3827
820.184	3831
820.324	3835
820.465	3892
820.605	3865
820.746	3857
820.886	3838
821.026	3956
821.167	3915
821.307	3968
821.447	3994
821.588	3968
821.728	3911
821.868	3953
822.008	3907
822.149	3930
822.289	3953
822.429	3816
822.569	3804
822.709	3778
822.849	3717
822.99	3759
823.13	3709
823.27	3865
823.41	3732
823.55	3705
823.69	3747
823.83	3759
823.97	3709
824.11	3633
824.25	3549
824.389	3644
824.529	3701
824.669	3629
824.809	3728
824.949	3724
825.089	3736
825.228	3720
825.368	3599
825.508	3576
825.648	3591
825.787	3606
825.927	3622
826.067	3637
826.206	3690
826.346	3812
826.485	3865
826.625	3827
826.765	3960
826.904	3831
827.044	3656
827.183	3545
827.323	3443
827.462	3485
827.601	3488
827.741	3405
827.88	3450
828.02	3363
828.159	3454
828.298	3492
828.437	3523
828.577	3466
828.716	3610
828.855	3511
828.994	3420
829.134	3351
829.273	3435
829.412	3332
829.551	3367
829.69	3355
829.829	3435
829.968	3500
830.107	3515
830.246	3450
830.385	3382
830.524	3374
830.663	3329
830.802	3287
830.941	3184
831.08	3218
831.219	3233
831.357	3283
831.496	3424
831.635	3241
831.774	3203
831.913	3230
832.051	3127
832.19	3176
832.329	3260
832.467	3093
832.606	3112
832.744	3176
832.883	3211
833.022	3176
833.16	3249
833.299	3287
833.437	3336
833.576	3363
833.714	3431
833.852	3393
833.991	3462
834.129	3469
834.267	3462
834.406	3431
834.544	3405
834.682	3435
834.821	3401
834.959	3584
835.097	3382
835.235	3523
835.373	3469
835.511	3511
835.65	3477
835.788	3496
835.926	3401
836.064	3367
836.202	3412
836.34	3557
836.478	3595
836.615	3507
836.753	3606
836.891	3622
837.029	3599
837.167	3572
837.305	3561
837.443	3526
837.58	3488
837.718	3606
837.856	3584
837.993	3534
838.131	3606
838.269	3549
838.406	3561
838.544	3557
838.681	3473
838.819	3473
838.956	3412
839.094	3393
839.231	3435
839.369	3530
839.506	3705
839.643	3641
839.781	3488
839.918	3450
840.055	3488
840.193	3549
840.33	3530
840.467	3553
840.604	3599
840.742	3793
840.879	3538
841.016	3534
841.153	3587
841.29	3751
841.427	3717
841.564	3713
841.701	3743
841.838	3671
841.975	3682
842.112	3743
842.249	3633
842.385	3603
842.522	3816
842.659	3671
842.796	3682
842.933	3732
843.069	3724
843.206	3743
843.343	3846
843.479	3770
843.616	3865
843.752	3705
843.889	3701
844.025	3838
844.162	3690
844.298	3884
844.435	3781
844.571	3759
844.708	3960
844.844	4013
844.98	4029
845.117	4013
845.253	3937
845.389	3880
845.525	3987
845.661	4010
845.798	3899
845.934	3972
846.07	3994
846.206	4013
846.342	4143
846.478	4063
846.614	3975
846.75	3960
846.886	3934
847.022	4025
847.158	3979
847.294	4006
847.429	3998
847.565	3991
847.701	4253
847.837	3892
847.972	3865
848.108	4002
848.244	4006
848.379	3869
848.515	3869
848.65	3804
848.786	3857
848.921	3857
849.057	3876
849.192	3975
849.328	3869
849.463	3964
849.598	3876
849.734	3884
849.869	3842
850.004	3770
850.14	3816
850.275	3816
850.41	3781
850.545	3766
850.68	3785
850.815	3816
850.95	3751
851.085	3930
851.22	3838
851.355	3781
851.49	3823
851.625	3819
851.76	3774
851.895	3732
852.03	3736
852.165	3854
852.299	3869
852.434	3911
852.569	3846
852.703	3899
852.838	3934
852.973	3994
853.107	3975
853.242	3842
853.376	3850
853.511	3789
853.645	3846
853.78	3983
853.914	3911
854.048	3873
854.183	3850
854.317	3949
854.451	4086
854.585	3968
854.72	3922
854.854	4048
854.988	3922
855.122	3994
855.256	3907
855.39	3994
855.524	4109
855.658	4116
855.792	4131
855.926	4109
856.06	4173
856.194	4242
856.327	4143
856.461	4131
856.595	4086
856.729	4196
856.862	4249
856.996	4306
857.13	4306
857.263	4314
857.397	4363
857.53	4306
857.664	4398
857.797	4390
857.931	4470
858.064	4405
858.197	4409
858.331	4417
858.464	4379
858.597	4314
858.731	4432
858.864	4440
858.997	4409
859.13	4546
859.263	4535
859.396	4573
859.529	4535
859.662	4523
859.795	4512
859.928	4588
860.061	4729
860.194	4752
860.327	4641
860.46	4668
860.592	4717
860.725	4744
860.858	4801
860.99	4675
861.123	4710
861.256	4656
861.388	4752
861.521	5376
861.653	4710
861.786	4672
861.918	4714
862.05	4793
862.183	4828
862.315	4847
862.447	4915
862.58	4919
862.712	4816
862.844	4786
862.976	4828
863.108	4858
863.24	5170
863.372	4820
863.504	4904
863.636	4881
863.768	5003
863.9	4946
864.032	4934
864.164	5010
864.296	5071
864.428	5094
864.559	5128
864.691	5117
864.823	5105
864.954	5132
865.086	5178
865.217	5083
865.349	5113
865.48	5166
865.612	5231
865.743	5322
865.875	5216
866.006	5201
866.137	5231
866.269	5212
866.4	5242
866.531	5254
866.662	5296
866.793	5258
866.924	5269
867.055	5337
867.186	5353
867.317	5353
867.448	5265
867.579	5337
867.71	5330
867.841	5383
867.972	5467
868.103	5497
868.233	5482
868.364	5490
868.495	5539
868.625	5684
868.756	5775
868.886	5638
869.017	5745
869.147	5874
869.278	5828
869.408	5794
869.539	5821
869.669	5969
869.799	5935
869.929	6003
870.06	6015
870.19	6197
870.32	6213
870.45	6270
870.58	6315
870.71	6456
870.84	6437
870.97	6426
871.1	6437
871.23	6631
871.36	6703
871.489	6696
871.619	6753
871.749	6802
871.879	6825
872.008	6981
872.138	7034
872.267	6996
872.397	6989
872.526	7027
872.656	7133
872.785	7179
872.915	7419
873.044	7571
873.173	7559
873.303	7616
873.432	7723
873.561	7913
873.69	7955
873.819	8035
873.948	8180
874.077	8191
874.206	8286
874.335	8457
874.464	8636
874.593	8887
874.722	8921
874.851	9077
874.979	9180
875.108	9393
875.237	9378
875.365	9424
875.494	9675
875.623	9793
875.751	9789
875.88	9979
876.008	10131
876.136	10341
876.265	10519
876.393	10725
876.521	10641
876.65	10908
876.778	10759
876.906	10877
877.034	11006
877.162	11105
877.29	11174
877.418	11269
877.546	11372
877.674	11433
877.802	11452
877.93	11547
878.058	11611
878.185	11524
878.313	11695
878.441	11756
878.568	11638
878.696	11802
878.824	11893
878.951	11889
879.079	12079
879.206	12034
879.333	12041
879.461	11958
879.588	12091
879.715	12114
879.842	12232
879.97	12076
880.097	11893
880.224	11889
880.351	11889
880.478	11859
880.605	11767
880.732	11783
880.859	11946
880.986	11805
881.112	11863
881.239	11737
881.366	11634
881.493	11589
881.619	11577
881.746	11516
881.872	11520
881.999	11539
882.125	11490
882.252	11589
882.378	11570
882.505	11573
882.631	11372
882.757	11269
882.883	11315
883.01	11265
883.136	11197
883.262	11147
883.388	11079
883.514	11102
883.64	11117
883.766	11075
883.892	11025
884.018	10968
884.143	11094
884.269	11060
884.395	10805
884.52	10736
884.646	10862
884.772	10645
884.897	10649
885.023	10740
885.148	10774
885.274	10801
885.399	10668
885.524	10565
885.65	10569
885.775	10584
885.9	10554
886.025	10603
886.15	10573
886.275	10481
886.4	10481
886.525	10447
886.65	10371
886.775	10306
886.9	10512
887.025	10519
887.149	10337
887.274	10253
887.399	10200
887.523	10188
887.648	10097
887.773	10181
887.897	10265
888.021	10211
888.146	10139
888.27	10227
888.395	10284
888.519	10211
888.643	10246
888.767	10185
888.891	10101
889.015	10029
889.139	10150
889.263	9998
889.387	10082
889.511	10074
889.635	10105
889.759	9888
889.883	9956
890.006	10063
890.13	10044
890.254	9915
890.377	9979
890.501	9797
890.624	9812
890.748	9934
890.871	9724
890.995	9766
891.118	9682
891.241	9732
891.364	9823
891.488	9812
891.611	9740
891.734	9770
891.857	9804
891.98	9694
892.103	9736
892.226	9759
892.349	9656
892.471	9572
892.594	9614
892.717	9603
892.839	9625
892.962	9618
893.085	9603
893.207	9599
893.33	9504
893.452	9542
893.575	9629
893.697	9500
893.819	9637
893.941	9591
894.064	9622
894.186	9488
894.308	9382
894.43	9542
894.552	9587
894.674	9549
894.796	9382
894.918	9382
895.04	9344
895.161	9382
895.283	9386
895.405	9249
895.526	9241
895.648	9272
895.769	9214
895.891	9222
896.012	9279
896.134	9317
896.255	9146
896.376	9176
896.498	9157
896.619	9039
896.74	9116
896.861	9066
896.982	9241
897.103	9325
897.224	9066
897.345	9058
897.466	9005
897.587	9093
897.708	9119
897.828	9123
897.949	8906
898.07	8872
898.19	8902
898.311	8956
898.431	8929
898.552	8902
898.672	8975
898.792	8967
898.913	8830
899.033	8842
899.153	8697
899.273	8674
899.393	8708
899.513	8735
899.633	8766
899.753	8781
899.873	8705
899.993	8766
900.113	8727
900.232	8701
900.352	8655
900.472	8579
900.591	8537
900.711	8526
900.83	8552
900.95	8712
901.069	8708
901.189	8617
901.308	8438
901.427	8358
901.546	8370
901.665	8499
901.784	8514
901.904	8438
902.023	8381
902.141	8240
902.26	8218
902.379	8244
902.498	8183
902.617	8206
902.735	8343
902.854	8259
902.973	8263
903.091	8111
903.21	8153
903.328	8145
903.446	8103
903.565	8149
903.683	8157
903.801	8012
903.919	8119
904.038	8134
904.156	7993
904.274	8058
904.392	8008
904.51	8020
904.627	8031
904.745	8123
904.863	8043
904.981	7921
905.098	7894
905.216	7898
905.334	7959
905.451	7902
905.569	7856
905.686	7925
905.803	7936
905.921	7746
906.038	7864
906.155	7799
906.272	7727
906.389	7738
906.506	7670
906.623	7628
906.74	7616
906.857	7567
906.974	7556
907.091	7689
907.208	7666
907.324	7620
907.441	7540
907.557	7483
907.674	7392
907.79	7358
907.907	7457
908.023	7453
908.139	7388
908.256	7358
908.372	7362
908.488	7400
908.604	7289
908.72	7259
908.836	7270
908.952	7285
909.068	7263
909.184	7285
909.3	7244
909.415	7236
909.531	7278
909.647	7114
909.762	7080
909.878	7103
909.993	7141
910.108	7088
910.224	7053
910.339	7095
910.454	7034
910.57	7046
910.685	6913
910.8	7160
910.915	7103
911.03	6981
911.145	6928
911.259	6875
911.374	6833
911.489	6825
911.604	6852
911.718	6658
911.833	6795
911.947	6646
912.062	6612
912.176	6764
912.291	6665
912.405	6715
912.519	6787
912.633	6913
912.748	6707
912.862	6730
912.976	6677
913.09	6566
913.204	6570
913.318	6635
913.431	6673
913.545	6703
913.659	6673
913.772	6665
913.886	6593
914	6551
914.113	6597
914.226	6650
914.34	6563
914.453	6483
914.566	6669
914.68	6498
914.793	6551
914.906	6399
915.019	6372
915.132	6395
915.245	6445
915.358	6410
915.47	6464
915.583	6467
915.696	6506
915.809	6540
915.921	6563
916.034	6464
916.146	6475
916.259	6422
916.371	6494
916.483	6418
916.595	6365
916.708	6429
916.82	6388
916.932	6422
917.044	6361
917.156	6380
917.268	6338
917.38	6361
917.491	6289
917.603	6323
917.715	6357
917.826	6380
917.938	6289
918.049	6251
918.161	6391
918.272	6433
918.384	6391
918.495	6372
918.606	6258
918.717	6243
918.828	6289
918.939	6296
919.05	6190
919.161	6258
919.272	6140
919.383	6155
919.494	6281
919.604	6426
919.715	6235
919.826	6232
919.936	6270
920.047	6357
920.157	6216
920.267	6479
920.378	6334
920.488	6346
920.598	6479
920.708	6551
920.818	6422
920.928	6486
921.038	6623
921.148	6601
921.258	6350
921.368	6296
921.477	6216
921.587	6224
921.697	6110
921.806	6182
921.916	6095
922.025	5984
922.134	5920
922.244	5912
922.353	5897
922.462	5855
922.571	5786
922.68	5707
922.789	5642
922.898	5676
923.007	5615
923.116	5710
923.224	5695
923.333	5703
923.442	5615
923.55	5611
923.659	5600
923.767	5665
923.876	5516
923.984	5592
924.092	5516
924.201	5516
924.309	5539
924.417	5516
924.525	5520
924.633	5558
924.741	6292
924.849	5383
924.956	5467
925.064	5372
925.172	5322
925.279	5292
925.387	5383
925.494	5337
925.602	5436
925.709	5368
925.816	5254
925.924	5311
926.031	5337
926.138	5311
926.245	5345
926.352	5227
926.459	5334
926.566	5326
926.673	5212
926.779	5105
926.886	5102
926.993	5041
927.099	5006
927.206	4961
927.312	4961
927.419	5071
927.525	5010
927.631	4976
927.737	4930
927.843	4847
927.95	4793
928.056	4843
928.162	4835
928.267	4835
928.373	5265
928.479	4812
928.585	4710
928.69	4763
928.796	4774
928.901	4698
929.007	4561
929.112	4649
929.218	4580
929.323	4596
929.428	4607
929.533	4668
929.638	4538
929.743	4497
929.848	4531
929.953	4489
930.058	4451
930.163	4333
930.267	4352
930.372	4402
930.477	4344
930.581	4447
930.685	4394
930.79	4291
930.894	4299
930.998	4230
931.103	4356
931.207	4109
931.311	4112
931.415	4059
931.519	3918
931.623	3945
