Data from glass_V78500241_535.txt Node
Date: Wed Sep 01 19:18:12 CST 2021
User: usil
Spectrometer: V785-0024
Trigger mode: 0
Integration Time (sec): 4.000000E-1
Scans to average: 1
Nonlinearity correction enabled: false
Boxcar width: 0
Storing dark spectrum: false
XAxis mode: Wavelengths
Number of Pixels in Spectrum: 1024
>>>>>Begin Spectral Data<<<<<
801.071	3774
801.214	3785
801.356	3732
801.499	3781
801.641	3778
801.783	3743
801.926	3880
802.068	3838
802.211	3835
802.353	3922
802.496	3861
802.638	3918
802.78	3937
802.923	3918
803.065	3876
803.208	3884
803.35	3880
803.492	3899
803.635	3918
803.777	3838
803.919	3930
804.061	4128
804.204	3972
804.346	3930
804.488	3975
804.63	4082
804.773	3972
804.915	4032
805.057	4162
805.199	4032
805.341	4131
805.483	4135
805.626	4120
805.768	4139
805.91	4207
806.052	4242
806.194	4158
806.336	4390
806.478	4230
806.62	4173
806.762	4192
806.904	4284
807.046	4314
807.188	4207
807.33	4143
807.472	4249
807.614	4196
807.756	4287
807.898	4249
808.04	4238
808.182	4337
808.324	4352
808.465	4428
808.607	4478
808.749	4489
808.891	4462
809.033	4508
809.174	4413
809.316	4249
809.458	4276
809.6	4249
809.741	4204
809.883	4169
810.025	4246
810.166	4242
810.308	4272
810.45	4280
810.591	4257
810.733	4306
810.875	4565
811.016	4866
811.158	5128
811.299	5261
811.441	5299
811.582	5041
811.724	4763
811.865	4493
812.007	4413
812.148	4474
812.29	4402
812.431	4405
812.573	4405
812.714	4352
812.855	4462
812.997	4413
813.138	4508
813.279	4432
813.421	4356
813.562	4394
813.703	4352
813.845	4367
813.986	4280
814.127	4196
814.268	4306
814.41	4299
814.551	4196
814.692	4352
814.833	4291
814.974	4291
815.115	4329
815.256	4284
815.397	4223
815.539	4215
815.68	4204
815.821	4253
815.962	4322
816.103	4234
816.244	4219
816.385	4200
816.526	4257
816.666	4230
816.807	4128
816.948	4219
817.089	4196
817.23	4124
817.371	3998
817.512	4063
817.653	4093
817.793	4055
817.934	4090
818.075	4120
818.216	4093
818.356	4090
818.497	4013
818.638	3907
818.778	3979
818.919	3861
819.06	3915
819.2	3918
819.341	3892
819.481	3850
819.622	3876
819.762	4055
819.903	3937
820.043	3880
820.184	3838
820.324	3869
820.465	3926
820.605	3892
820.746	3899
820.886	3804
821.026	3930
821.167	3953
821.307	3987
821.447	3945
821.588	3979
821.728	3987
821.868	3934
822.008	3861
822.149	3922
822.289	3937
822.429	3797
822.569	3766
822.709	3812
822.849	3686
822.99	3720
823.13	3800
823.27	3835
823.41	3728
823.55	3785
823.69	3724
823.83	3770
823.97	3717
824.11	3622
824.25	3614
824.389	3663
824.529	3694
824.669	3686
824.809	3743
824.949	3770
825.089	3762
825.228	3720
825.368	3629
825.508	3542
825.648	3606
825.787	3633
825.927	3614
826.067	3656
826.206	3629
826.346	3797
826.485	3865
826.625	3857
826.765	3918
826.904	3854
827.044	3660
827.183	3595
827.323	3409
827.462	3542
827.601	3466
827.741	3443
827.88	3462
828.02	3386
828.159	3485
828.298	3477
828.437	3561
828.577	3500
828.716	3614
828.855	3443
828.994	3439
829.134	3389
829.273	3401
829.412	3329
829.551	3374
829.69	3386
829.829	3420
829.968	3519
830.107	3439
830.246	3466
830.385	3416
830.524	3351
830.663	3302
830.802	3264
830.941	3211
831.08	3192
831.219	3298
831.357	3287
831.496	3351
831.635	3237
831.774	3203
831.913	3207
832.051	3173
832.19	3203
832.329	3222
832.467	3142
832.606	3154
832.744	3131
832.883	3180
833.022	3203
833.16	3275
833.299	3313
833.437	3382
833.576	3420
833.714	3401
833.852	3473
833.991	3462
834.129	3515
834.267	3450
834.406	3386
834.544	3435
834.682	3424
834.821	3405
834.959	3564
835.097	3389
835.235	3519
835.373	3530
835.511	3542
835.65	3462
835.788	3492
835.926	3431
836.064	3351
836.202	3431
836.34	3557
836.478	3637
836.615	3542
836.753	3610
836.891	3622
837.029	3637
837.167	3587
837.305	3545
837.443	3580
837.58	3530
837.718	3618
837.856	3580
837.993	3549
838.131	3610
838.269	3587
838.406	3584
838.544	3580
838.681	3507
838.819	3481
838.956	3378
839.094	3405
839.231	3458
839.369	3523
839.506	3740
839.643	3690
839.781	3519
839.918	3481
840.055	3584
840.193	3530
840.33	3587
840.467	3576
840.604	3614
840.742	3850
840.879	3549
841.016	3576
841.153	3622
841.29	3770
841.427	3736
841.564	3717
841.701	3732
841.838	3694
841.975	3618
842.112	3701
842.249	3713
842.385	3614
842.522	3800
842.659	3679
842.796	3690
842.933	3732
843.069	3736
843.206	3686
843.343	3835
843.479	3827
843.616	3857
843.752	3644
843.889	3698
844.025	3850
844.162	3713
844.298	3880
844.435	3823
844.571	3789
844.708	3960
844.844	4013
844.98	3979
845.117	4002
845.253	3930
845.389	3911
845.525	3991
845.661	3930
845.798	3880
845.934	4021
846.07	4010
846.206	4067
846.342	4124
846.478	4055
846.614	3972
846.75	3926
846.886	3918
847.022	4044
847.158	3987
847.294	3991
847.429	4025
847.565	3983
847.701	4261
847.837	3892
847.972	3903
848.108	3987
848.244	3998
848.379	3873
848.515	3831
848.65	3842
848.786	3880
848.921	3907
849.057	3949
849.192	3949
849.328	3918
849.463	3911
849.598	3903
849.734	3869
849.869	3842
850.004	3789
850.14	3812
850.275	3770
850.41	3747
850.545	3766
850.68	3812
850.815	3819
850.95	3800
851.085	3926
851.22	3873
851.355	3800
851.49	3793
851.625	3812
851.76	3816
851.895	3770
852.03	3759
852.165	3873
852.299	3846
852.434	3911
852.569	3846
852.703	3941
852.838	3998
852.973	4040
853.107	3975
853.242	3903
853.376	3816
853.511	3762
853.645	3850
853.78	3975
853.914	3953
854.048	3949
854.183	3926
854.317	3930
854.451	4112
854.585	3937
854.72	3953
854.854	4032
854.988	3949
855.122	3998
855.256	3941
855.39	4025
855.524	4150
855.658	4124
855.792	4124
855.926	4185
856.06	4200
856.194	4230
856.327	4147
856.461	4185
856.595	4177
856.729	4185
856.862	4287
856.996	4276
857.13	4299
857.263	4322
857.397	4306
857.53	4318
857.664	4329
857.797	4386
857.931	4459
858.064	4390
858.197	4455
858.331	4405
858.464	4383
858.597	4322
858.731	4443
858.864	4485
858.997	4527
859.13	4538
859.263	4519
859.396	4592
859.529	4535
859.662	4504
859.795	4512
859.928	4603
860.061	4710
860.194	4778
860.327	4698
860.46	4645
860.592	4721
860.725	4767
860.858	4752
860.99	4725
861.123	4694
861.256	4725
861.388	4797
861.521	5528
861.653	4740
861.786	4721
861.918	4759
862.05	4797
862.183	4847
862.315	4915
862.447	4972
862.58	4889
862.712	4782
862.844	4752
862.976	4847
863.108	4900
863.24	5174
863.372	4774
863.504	4915
863.636	4873
863.768	4915
863.9	4984
864.032	4965
864.164	4995
864.296	4995
864.428	5109
864.559	5105
864.691	5117
864.823	5151
864.954	5113
865.086	5102
865.217	5166
865.349	5140
865.48	5170
865.612	5185
865.743	5318
865.875	5204
866.006	5197
866.137	5235
866.269	5280
866.4	5265
866.531	5242
866.662	5235
866.793	5284
866.924	5261
867.055	5387
867.186	5349
867.317	5273
867.448	5303
867.579	5406
867.71	5425
867.841	5410
867.972	5440
868.103	5478
868.233	5482
868.364	5520
868.495	5581
868.625	5684
868.756	5802
868.886	5668
869.017	5680
869.147	5824
869.278	5851
869.408	5863
869.539	5870
869.669	5935
869.799	5874
869.929	6038
870.06	6091
870.19	6224
870.32	6194
870.45	6300
870.58	6338
870.71	6464
870.84	6471
870.97	6464
871.1	6456
871.23	6616
871.36	6662
871.489	6681
871.619	6818
871.749	6802
871.879	6897
872.008	7027
872.138	6909
872.267	6970
872.397	7034
872.526	7076
872.656	7091
872.785	7190
872.915	7373
873.044	7540
873.173	7567
873.303	7704
873.432	7803
873.561	7906
873.69	7928
873.819	8046
873.948	8164
874.077	8229
874.206	8271
874.335	8511
874.464	8659
874.593	8910
874.722	8910
874.851	9138
874.979	9233
875.108	9329
875.237	9420
875.365	9469
875.494	9652
875.623	9827
875.751	9762
875.88	10029
876.008	10196
876.136	10284
876.265	10478
876.393	10725
876.521	10771
876.65	10835
876.778	10843
876.906	10900
877.034	10957
877.162	11105
877.29	11105
877.418	11337
877.546	11421
877.674	11448
877.802	11433
877.93	11562
878.058	11573
878.185	11630
878.313	11611
878.441	11752
878.568	11688
878.696	11817
878.824	11805
878.951	11954
879.079	12030
879.206	12140
879.333	12106
879.461	11992
879.588	12129
879.715	12049
879.842	12205
879.97	12117
880.097	11897
880.224	11935
880.351	11927
880.478	11840
880.605	11855
880.732	11878
880.859	12019
880.986	11859
881.112	11893
881.239	11817
881.366	11623
881.493	11570
881.619	11474
881.746	11520
881.872	11570
881.999	11532
882.125	11474
882.252	11577
882.378	11532
882.505	11592
882.631	11356
882.757	11220
882.883	11299
883.01	11151
883.136	11204
883.262	11132
883.388	11109
883.514	11216
883.64	11311
883.766	11090
883.892	10991
884.018	10869
884.143	11045
884.269	11136
884.395	10900
884.52	10740
884.646	10835
884.772	10744
884.897	10641
885.023	10656
885.148	10687
885.274	10774
885.399	10706
885.524	10668
885.65	10592
885.775	10599
885.9	10626
886.025	10615
886.15	10481
886.275	10405
886.4	10402
886.525	10382
886.65	10409
886.775	10352
886.9	10462
887.025	10527
887.149	10325
887.274	10238
887.399	10280
887.523	10173
887.648	10181
887.773	10207
887.897	10246
888.021	10223
888.146	10120
888.27	10204
888.395	10284
888.519	10246
888.643	10188
888.767	10204
888.891	10093
889.015	10051
889.139	10181
889.263	10025
889.387	10051
889.511	10086
889.635	10029
889.759	9926
889.883	9953
890.006	10082
890.13	10086
890.254	9968
890.377	9915
890.501	9842
890.624	9846
890.748	9865
890.871	9861
890.995	9778
891.118	9778
891.241	9816
891.364	9656
891.488	9827
891.611	9705
891.734	9724
891.857	9751
891.98	9740
892.103	9778
892.226	9747
892.349	9675
892.471	9584
892.594	9584
892.717	9580
892.839	9667
892.962	9580
893.085	9591
893.207	9553
893.33	9542
893.452	9576
893.575	9610
893.697	9454
893.819	9656
893.941	9705
894.064	9622
894.186	9485
894.308	9393
894.43	9534
894.552	9599
894.674	9447
894.796	9329
894.918	9370
895.04	9344
895.161	9351
895.283	9321
895.405	9256
895.526	9214
895.648	9279
895.769	9332
895.891	9310
896.012	9344
896.134	9260
896.255	9233
896.376	9127
896.498	9195
896.619	9154
896.74	9104
896.861	9116
896.982	9260
897.103	9325
897.224	9173
897.345	9131
897.466	9062
897.587	9024
897.708	9100
897.828	9070
897.949	8876
898.07	8868
898.19	8956
898.311	9020
898.431	8956
898.552	8986
898.672	8960
898.792	8982
898.913	8921
899.033	8796
899.153	8735
899.273	8663
899.393	8689
899.513	8785
899.633	8804
899.753	8758
899.873	8708
899.993	8750
900.113	8689
900.232	8724
900.352	8632
900.472	8625
900.591	8651
900.711	8617
900.83	8575
900.95	8712
901.069	8678
901.189	8545
901.308	8533
901.427	8385
901.546	8457
901.665	8434
901.784	8484
901.904	8419
902.023	8377
902.141	8279
902.26	8183
902.379	8332
902.498	8225
902.617	8229
902.735	8301
902.854	8275
902.973	8210
903.091	8081
903.21	8172
903.328	8183
903.446	8107
903.565	8092
903.683	8164
903.801	8088
903.919	8130
904.038	8130
904.156	8024
904.274	8100
904.392	8062
904.51	8088
904.627	8062
904.745	8115
904.863	8084
904.981	7906
905.098	7902
905.216	7871
905.334	7970
905.451	7955
905.569	7868
905.686	7932
905.803	7974
905.921	7792
906.038	7883
906.155	7807
906.272	7666
906.389	7753
906.506	7700
906.623	7655
906.74	7651
906.857	7521
906.974	7571
907.091	7605
907.208	7746
907.324	7613
907.441	7578
907.557	7441
907.674	7480
907.79	7369
907.907	7381
908.023	7457
908.139	7419
908.256	7381
908.372	7362
908.488	7343
908.604	7301
908.72	7213
908.836	7312
908.952	7270
909.068	7308
909.184	7320
909.3	7263
909.415	7301
909.531	7232
909.647	7149
909.762	7187
909.878	7110
909.993	7179
910.108	7126
910.224	7042
910.339	7156
910.454	7057
910.57	6993
910.685	6973
910.8	7084
910.915	7072
911.03	7095
911.145	6966
911.259	6867
911.374	6897
911.489	6806
911.604	6867
911.718	6726
911.833	6738
911.947	6688
912.062	6620
912.176	6730
912.291	6715
912.405	6734
912.519	6795
912.633	6867
912.748	6741
912.862	6707
912.976	6616
913.09	6563
913.204	6555
913.318	6650
913.431	6688
913.545	6688
913.659	6719
913.772	6627
913.886	6559
914	6544
914.113	6639
914.226	6681
914.34	6650
914.453	6467
914.566	6620
914.68	6582
914.793	6547
914.906	6452
915.019	6372
915.132	6353
915.245	6460
915.358	6441
915.47	6452
915.583	6486
915.696	6471
915.809	6585
915.921	6582
916.034	6418
916.146	6433
916.259	6391
916.371	6483
916.483	6422
916.595	6490
916.708	6403
916.82	6376
916.932	6388
917.044	6380
917.156	6342
917.268	6369
917.38	6403
917.491	6254
917.603	6292
917.715	6407
917.826	6445
917.938	6369
918.049	6247
918.161	6342
918.272	6388
918.384	6399
918.495	6353
918.606	6228
918.717	6201
918.828	6296
918.939	6331
919.05	6197
919.161	6251
919.272	6159
919.383	6140
919.494	6277
919.604	6399
919.715	6273
919.826	6251
919.936	6220
920.047	6338
920.157	6342
920.267	6441
920.378	6353
920.488	6350
920.598	6437
920.708	6540
920.818	6448
920.928	6460
921.038	6646
921.148	6593
921.258	6338
921.368	6369
921.477	6228
921.587	6186
921.697	6095
921.806	6182
921.916	6087
922.025	5954
922.134	5923
922.244	5931
922.353	5973
922.462	5863
922.571	5851
922.68	5779
922.789	5680
922.898	5642
923.007	5665
923.116	5722
923.224	5699
923.333	5680
923.442	5596
923.55	5562
923.659	5585
923.767	5604
923.876	5501
923.984	5611
924.092	5520
924.201	5570
924.309	5573
924.417	5608
924.525	5539
924.633	5501
924.741	6308
924.849	5395
924.956	5493
925.064	5303
925.172	5307
925.279	5258
925.387	5391
925.494	5315
925.602	5387
925.709	5383
925.816	5280
925.924	5307
926.031	5406
926.138	5307
926.245	5334
926.352	5242
926.459	5322
926.566	5349
926.673	5250
926.779	5170
926.886	5189
926.993	5075
927.099	5041
927.206	5014
927.312	4957
927.419	5022
927.525	5045
927.631	4987
927.737	4870
927.843	4850
927.95	4771
928.056	4847
928.162	4759
928.267	4866
928.373	5227
928.479	4930
928.585	4714
928.69	4782
928.796	4759
928.901	4698
929.007	4588
929.112	4710
929.218	4660
929.323	4584
929.428	4592
929.533	4653
929.638	4516
929.743	4565
929.848	4527
929.953	4512
930.058	4436
930.163	4322
930.267	4409
930.372	4485
930.477	4310
930.581	4481
930.685	4394
930.79	4299
930.894	4261
930.998	4257
931.103	4424
931.207	4154
931.311	4124
931.415	4021
931.519	3949
931.623	3987
