Data from glass_V78500241_2201.txt Node
Date: Wed Sep 01 19:29:45 CST 2021
User: usil
Spectrometer: V785-0024
Trigger mode: 0
Integration Time (sec): 4.000000E-1
Scans to average: 1
Nonlinearity correction enabled: false
Boxcar width: 0
Storing dark spectrum: false
XAxis mode: Wavelengths
Number of Pixels in Spectrum: 1024
>>>>>Begin Spectral Data<<<<<
801.071	3759
801.214	3732
801.356	3679
801.499	3690
801.641	3690
801.783	3762
801.926	3861
802.068	3793
802.211	3804
802.353	3884
802.496	3816
802.638	3876
802.78	3926
802.923	3964
803.065	3884
803.208	3835
803.35	3850
803.492	3896
803.635	3884
803.777	3842
803.919	3884
804.061	4135
804.204	3991
804.346	3964
804.488	3930
804.63	4032
804.773	4010
804.915	3994
805.057	4135
805.199	4025
805.341	4078
805.483	4105
805.626	4120
805.768	4131
805.91	4120
806.052	4268
806.194	4207
806.336	4314
806.478	4265
806.62	4181
806.762	4185
806.904	4249
807.046	4341
807.188	4173
807.33	4173
807.472	4173
807.614	4131
807.756	4268
807.898	4219
808.04	4211
808.182	4306
808.324	4314
808.465	4352
808.607	4459
808.749	4424
808.891	4447
809.033	4470
809.174	4398
809.316	4249
809.458	4249
809.6	4147
809.741	4150
809.883	4120
810.025	4207
810.166	4177
810.308	4234
810.45	4276
810.591	4234
810.733	4257
810.875	4493
811.016	4850
811.158	5166
811.299	5227
811.441	5311
811.582	5060
811.724	4672
811.865	4440
812.007	4466
812.148	4428
812.29	4405
812.431	4402
812.573	4348
812.714	4402
812.855	4363
812.997	4398
813.138	4440
813.279	4409
813.421	4383
813.562	4421
813.703	4337
813.845	4363
813.986	4276
814.127	4238
814.268	4207
814.41	4215
814.551	4268
814.692	4337
814.833	4291
814.974	4295
815.115	4318
815.256	4188
815.397	4215
815.539	4287
815.68	4227
815.821	4219
815.962	4322
816.103	4337
816.244	4272
816.385	4211
816.526	4291
816.666	4211
816.807	4101
816.948	4185
817.089	4166
817.23	4154
817.371	4048
817.512	4109
817.653	4105
817.793	4025
817.934	4017
818.075	4071
818.216	4071
818.356	4090
818.497	3979
818.638	3930
818.778	3915
818.919	3888
819.06	3854
819.2	3888
819.341	3857
819.481	3865
819.622	3880
819.762	3998
819.903	3998
820.043	3812
820.184	3850
820.324	3789
820.465	3876
820.605	3846
820.746	3865
820.886	3808
821.026	3918
821.167	3896
821.307	3998
821.447	3987
821.588	3937
821.728	3926
821.868	3922
822.008	3865
822.149	3880
822.289	3930
822.429	3808
822.569	3759
822.709	3755
822.849	3713
822.99	3686
823.13	3751
823.27	3800
823.41	3667
823.55	3766
823.69	3759
823.83	3724
823.97	3675
824.11	3637
824.25	3587
824.389	3641
824.529	3633
824.669	3648
824.809	3667
824.949	3751
825.089	3682
825.228	3698
825.368	3587
825.508	3526
825.648	3587
825.787	3568
825.927	3652
826.067	3622
826.206	3580
826.346	3747
826.485	3850
826.625	3869
826.765	3937
826.904	3831
827.044	3622
827.183	3549
827.323	3420
827.462	3485
827.601	3409
827.741	3420
827.88	3401
828.02	3378
828.159	3431
828.298	3485
828.437	3538
828.577	3405
828.716	3557
828.855	3511
828.994	3363
829.134	3363
829.273	3340
829.412	3336
829.551	3370
829.69	3370
829.829	3412
829.968	3511
830.107	3409
830.246	3420
830.385	3378
830.524	3336
830.663	3313
830.802	3233
830.941	3192
831.08	3157
831.219	3241
831.357	3249
831.496	3386
831.635	3245
831.774	3192
831.913	3165
832.051	3112
832.19	3150
832.329	3199
832.467	3112
832.606	3142
832.744	3161
832.883	3150
833.022	3199
833.16	3253
833.299	3332
833.437	3348
833.576	3370
833.714	3416
833.852	3374
833.991	3443
834.129	3439
834.267	3428
834.406	3382
834.544	3370
834.682	3420
834.821	3393
834.959	3557
835.097	3401
835.235	3591
835.373	3462
835.511	3500
835.65	3439
835.788	3500
835.926	3351
836.064	3367
836.202	3412
836.34	3614
836.478	3572
836.615	3507
836.753	3568
836.891	3663
837.029	3584
837.167	3576
837.305	3542
837.443	3534
837.58	3469
837.718	3591
837.856	3515
837.993	3485
838.131	3580
838.269	3576
838.406	3564
838.544	3595
838.681	3454
838.819	3447
838.956	3367
839.094	3382
839.231	3454
839.369	3492
839.506	3686
839.643	3656
839.781	3447
839.918	3424
840.055	3549
840.193	3515
840.33	3488
840.467	3519
840.604	3595
840.742	3789
840.879	3545
841.016	3568
841.153	3549
841.29	3720
841.427	3717
841.564	3713
841.701	3701
841.838	3686
841.975	3682
842.112	3705
842.249	3610
842.385	3618
842.522	3854
842.659	3682
842.796	3644
842.933	3705
843.069	3686
843.206	3732
843.343	3808
843.479	3766
843.616	3766
843.752	3625
843.889	3656
844.025	3835
844.162	3713
844.298	3842
844.435	3778
844.571	3762
844.708	3903
844.844	3922
844.98	4025
845.117	4010
845.253	3956
845.389	3945
845.525	3953
845.661	4002
845.798	3884
845.934	4040
846.07	3915
846.206	4002
846.342	4109
846.478	4063
846.614	3979
846.75	3941
846.886	3915
847.022	4017
847.158	3972
847.294	3979
847.429	4040
847.565	3972
847.701	4204
847.837	3880
847.972	3865
848.108	3991
848.244	3953
848.379	3857
848.515	3766
848.65	3789
848.786	3861
848.921	3838
849.057	3930
849.192	3922
849.328	3892
849.463	3918
849.598	3854
849.734	3838
849.869	3812
850.004	3804
850.14	3831
850.275	3804
850.41	3751
850.545	3755
850.68	3800
850.815	3819
850.95	3854
851.085	3899
851.22	3857
851.355	3831
851.49	3724
851.625	3751
851.76	3831
851.895	3713
852.03	3690
852.165	3793
852.299	3823
852.434	3899
852.569	3861
852.703	3819
852.838	3918
852.973	3994
853.107	3960
853.242	3861
853.376	3884
853.511	3812
853.645	3823
853.78	3968
853.914	3899
854.048	3899
854.183	3835
854.317	3945
854.451	4055
854.585	3892
854.72	3918
854.854	4063
854.988	3884
855.122	3994
855.256	3934
855.39	3994
855.524	4082
855.658	4086
855.792	4059
855.926	4120
856.06	4162
856.194	4131
856.327	4158
856.461	4116
856.595	4120
856.729	4150
856.862	4291
856.996	4196
857.13	4287
857.263	4352
857.397	4352
857.53	4284
857.664	4386
857.797	4360
857.931	4424
858.064	4352
858.197	4428
858.331	4402
858.464	4356
858.597	4360
858.731	4443
858.864	4497
858.997	4428
859.13	4504
859.263	4542
859.396	4569
859.529	4531
859.662	4523
859.795	4497
859.928	4580
860.061	4698
860.194	4717
860.327	4618
860.46	4626
860.592	4729
860.725	4759
860.858	4755
860.99	4668
861.123	4691
861.256	4615
861.388	4733
861.521	5463
861.653	4717
861.786	4714
861.918	4729
862.05	4797
862.183	4854
862.315	4854
862.447	4889
862.58	4881
862.712	4805
862.844	4717
862.976	4824
863.108	4866
863.24	5189
863.372	4790
863.504	4889
863.636	4892
863.768	4953
863.9	4987
864.032	4923
864.164	4961
864.296	5018
864.428	5071
864.559	5098
864.691	5117
864.823	5083
864.954	5098
865.086	5140
865.217	5117
865.349	5109
865.48	5128
865.612	5162
865.743	5254
865.875	5204
866.006	5147
866.137	5242
866.269	5223
866.4	5288
866.531	5258
866.662	5197
866.793	5303
866.924	5269
867.055	5341
867.186	5334
867.317	5330
867.448	5311
867.579	5391
867.71	5402
867.841	5372
867.972	5448
868.103	5429
868.233	5543
868.364	5512
868.495	5501
868.625	5661
868.756	5828
868.886	5676
869.017	5699
869.147	5802
869.278	5897
869.408	5828
869.539	5859
869.669	5901
869.799	5904
869.929	5961
870.06	6007
870.19	6209
870.32	6110
870.45	6243
870.58	6273
870.71	6388
870.84	6407
870.97	6433
871.1	6410
871.23	6631
871.36	6696
871.489	6631
871.619	6722
871.749	6791
871.879	6844
872.008	6977
872.138	6932
872.267	7023
872.397	6996
872.526	7023
872.656	7072
872.785	7190
872.915	7365
873.044	7480
873.173	7525
873.303	7681
873.432	7795
873.561	7864
873.69	7947
873.819	8046
873.948	8134
874.077	8199
874.206	8320
874.335	8377
874.464	8678
874.593	8845
874.722	8883
874.851	9077
874.979	9192
875.108	9298
875.237	9428
875.365	9485
875.494	9667
875.623	9808
875.751	9808
875.88	9960
876.008	10139
876.136	10268
876.265	10474
876.393	10733
876.521	10687
876.65	10835
876.778	10889
876.906	10919
877.034	10957
877.162	11022
877.29	11136
877.418	11284
877.546	11372
877.674	11524
877.802	11547
877.93	11524
878.058	11562
878.185	11478
878.313	11611
878.441	11756
878.568	11627
878.696	11722
878.824	11836
878.951	11897
879.079	11988
879.206	12114
879.333	12064
879.461	12022
879.588	12072
879.715	11980
879.842	12273
879.97	12045
880.097	11908
880.224	11863
880.351	11901
880.478	11821
880.605	11878
880.732	11786
880.859	12030
880.986	11840
881.112	11802
881.239	11695
881.366	11691
881.493	11558
881.619	11520
881.746	11528
881.872	11433
881.999	11573
882.125	11528
882.252	11528
882.378	11535
882.505	11505
882.631	11368
882.757	11322
882.883	11277
883.01	11181
883.136	11140
883.262	11109
883.388	11117
883.514	11189
883.64	11166
883.766	11132
883.892	10965
884.018	10980
884.143	11056
884.269	11037
884.395	10793
884.52	10805
884.646	10702
884.772	10740
884.897	10653
885.023	10706
885.148	10725
885.274	10755
885.399	10714
885.524	10660
885.65	10618
885.775	10592
885.9	10603
886.025	10611
886.15	10550
886.275	10459
886.4	10367
886.525	10386
886.65	10329
886.775	10344
886.9	10462
887.025	10565
887.149	10363
887.274	10204
887.399	10207
887.523	10162
887.648	10196
887.773	10116
887.897	10242
888.021	10257
888.146	10086
888.27	10215
888.395	10227
888.519	10223
888.643	10207
888.767	10200
888.891	10120
889.015	10059
889.139	10040
889.263	10029
889.387	10082
889.511	10097
889.635	10097
889.759	9934
889.883	10021
890.006	10017
890.13	10147
890.254	9884
890.377	9987
890.501	9816
890.624	9816
890.748	9937
890.871	9823
890.995	9789
891.118	9656
891.241	9800
891.364	9705
891.488	9835
891.611	9732
891.734	9724
891.857	9747
891.98	9667
892.103	9736
892.226	9713
892.349	9705
892.471	9557
892.594	9553
892.717	9606
892.839	9584
892.962	9576
893.085	9633
893.207	9584
893.33	9534
893.452	9500
893.575	9564
893.697	9557
893.819	9618
893.941	9614
894.064	9580
894.186	9428
894.308	9393
894.43	9603
894.552	9553
894.674	9507
894.796	9370
894.918	9298
895.04	9363
895.161	9382
895.283	9359
895.405	9214
895.526	9222
895.648	9237
895.769	9256
895.891	9272
896.012	9355
896.134	9169
896.255	9112
896.376	9188
896.498	9184
896.619	9146
896.74	8990
896.861	9108
896.982	9294
897.103	9249
897.224	9116
897.345	8990
897.466	9036
897.587	9032
897.708	9146
897.828	8986
897.949	8971
898.07	8834
898.19	8895
898.311	9036
898.431	8918
898.552	8918
898.672	8956
898.792	8918
898.913	8944
899.033	8781
899.153	8769
899.273	8731
899.393	8659
899.513	8708
899.633	8670
899.753	8720
899.873	8678
899.993	8720
900.113	8720
900.232	8655
900.352	8632
900.472	8602
900.591	8564
900.711	8625
900.83	8530
900.95	8705
901.069	8674
901.189	8564
901.308	8442
901.427	8400
901.546	8389
901.665	8415
901.784	8499
901.904	8396
902.023	8313
902.141	8275
902.26	8191
902.379	8336
902.498	8149
902.617	8183
902.735	8309
902.854	8336
902.973	8248
903.091	8153
903.21	8134
903.328	8157
903.446	8142
903.565	8058
903.683	8043
903.801	8043
903.919	8130
904.038	8115
904.156	8043
904.274	8119
904.392	7959
904.51	7997
904.627	8050
904.745	8123
904.863	8062
904.981	7906
905.098	7814
905.216	7925
905.334	7841
905.451	7845
905.569	7860
905.686	7890
905.803	7963
905.921	7780
906.038	7833
906.155	7719
906.272	7731
906.389	7731
906.506	7647
906.623	7708
906.74	7510
906.857	7518
906.974	7525
907.091	7670
907.208	7712
907.324	7651
907.441	7590
907.557	7415
907.674	7476
907.79	7453
907.907	7415
908.023	7441
908.139	7457
908.256	7373
908.372	7369
908.488	7324
908.604	7221
908.72	7289
908.836	7266
908.952	7213
909.068	7251
909.184	7308
909.3	7190
909.415	7240
909.531	7236
909.647	7175
909.762	7099
909.878	7080
909.993	7050
910.108	7145
910.224	7072
910.339	7145
910.454	7053
910.57	7023
910.685	6916
910.8	7129
910.915	7084
911.03	7038
911.145	6886
911.259	6856
911.374	6905
911.489	6852
911.604	6760
911.718	6703
911.833	6760
911.947	6639
912.062	6635
912.176	6692
912.291	6753
912.405	6738
912.519	6783
912.633	6814
912.748	6734
912.862	6650
912.976	6620
913.09	6528
913.204	6585
913.318	6616
913.431	6711
913.545	6692
913.659	6711
913.772	6616
913.886	6566
914	6574
914.113	6593
914.226	6593
914.34	6589
914.453	6494
914.566	6597
914.68	6445
914.793	6551
914.906	6399
915.019	6448
915.132	6395
915.245	6353
915.358	6456
915.47	6445
915.583	6391
915.696	6456
915.809	6490
915.921	6502
916.034	6350
916.146	6418
916.259	6429
916.371	6395
916.483	6429
916.595	6372
916.708	6437
916.82	6357
916.932	6361
917.044	6357
917.156	6331
917.268	6365
917.38	6372
917.491	6300
917.603	6361
917.715	6388
917.826	6388
917.938	6319
918.049	6247
918.161	6338
918.272	6365
918.384	6426
918.495	6342
918.606	6296
918.717	6235
918.828	6262
918.939	6213
919.05	6266
919.161	6247
919.272	6155
919.383	6155
919.494	6266
919.604	6410
919.715	6315
919.826	6209
919.936	6220
920.047	6292
920.157	6247
920.267	6384
920.378	6292
920.488	6281
920.598	6441
920.708	6467
920.818	6448
920.928	6479
921.038	6627
921.148	6582
921.258	6281
921.368	6285
921.477	6186
921.587	6148
921.697	6121
921.806	6175
921.916	6098
922.025	5950
922.134	5870
922.244	5847
922.353	5958
922.462	5901
922.571	5821
922.68	5726
922.789	5642
922.898	5726
923.007	5649
923.116	5684
923.224	5703
923.333	5680
923.442	5638
923.55	5573
923.659	5570
923.767	5619
923.876	5490
923.984	5532
924.092	5471
924.201	5539
924.309	5535
924.417	5543
924.525	5482
924.633	5474
924.741	6243
924.849	5398
924.956	5425
925.064	5383
925.172	5299
925.279	5299
925.387	5410
925.494	5296
925.602	5368
925.709	5368
925.816	5292
925.924	5296
926.031	5379
926.138	5284
926.245	5330
926.352	5220
926.459	5322
926.566	5360
926.673	5227
926.779	5109
926.886	5121
926.993	5075
927.099	4972
927.206	4968
927.312	4961
927.419	4984
927.525	4968
927.631	4991
927.737	4862
927.843	4862
927.95	4774
928.056	4767
928.162	4824
928.267	4805
928.373	5273
928.479	4831
928.585	4721
928.69	4740
928.796	4763
928.901	4645
929.007	4584
929.112	4664
929.218	4634
929.323	4603
929.428	4580
929.533	4637
929.638	4500
929.743	4535
929.848	4561
929.953	4474
930.058	4451
930.163	4314
930.267	4325
930.372	4443
930.477	4303
930.581	4424
930.685	4341
930.79	4280
930.894	4284
930.998	4272
931.103	4344
931.207	4135
931.311	4044
931.415	4017
931.519	3953
931.623	3934
