Data from glass_V78500241_2527.txt Node
Date: Wed Sep 01 19:32:01 CST 2021
User: usil
Spectrometer: V785-0024
Trigger mode: 0
Integration Time (sec): 4.000000E-1
Scans to average: 1
Nonlinearity correction enabled: false
Boxcar width: 0
Storing dark spectrum: false
XAxis mode: Wavelengths
Number of Pixels in Spectrum: 1024
>>>>>Begin Spectral Data<<<<<
801.071	3736
801.214	3720
801.356	3724
801.499	3701
801.641	3740
801.783	3766
801.926	3827
802.068	3789
802.211	3804
802.353	3831
802.496	3842
802.638	3888
802.78	3907
802.923	3911
803.065	3869
803.208	3846
803.35	3850
803.492	3934
803.635	3941
803.777	3797
803.919	3846
804.061	4120
804.204	3983
804.346	3937
804.488	3945
804.63	4059
804.773	3994
804.915	4071
805.057	4120
805.199	3998
805.341	4051
805.483	4162
805.626	4139
805.768	4078
805.91	4249
806.052	4268
806.194	4143
806.336	4348
806.478	4166
806.62	4188
806.762	4188
806.904	4215
807.046	4295
807.188	4188
807.33	4204
807.472	4154
807.614	4185
807.756	4230
807.898	4196
808.04	4219
808.182	4234
808.324	4310
808.465	4363
808.607	4459
808.749	4440
808.891	4474
809.033	4462
809.174	4386
809.316	4242
809.458	4249
809.6	4169
809.741	4181
809.883	4128
810.025	4166
810.166	4238
810.308	4188
810.45	4257
810.591	4215
810.733	4291
810.875	4493
811.016	4835
811.158	5109
811.299	5296
811.441	5269
811.582	5079
811.724	4721
811.865	4481
812.007	4466
812.148	4394
812.29	4371
812.431	4394
812.573	4402
812.714	4356
812.855	4405
812.997	4402
813.138	4466
813.279	4386
813.421	4360
813.562	4398
813.703	4295
813.845	4363
813.986	4215
814.127	4211
814.268	4246
814.41	4295
814.551	4284
814.692	4280
814.833	4284
814.974	4325
815.115	4310
815.256	4207
815.397	4280
815.539	4234
815.68	4143
815.821	4188
815.962	4295
816.103	4265
816.244	4211
816.385	4238
816.526	4272
816.666	4150
816.807	4074
816.948	4131
817.089	4173
817.23	4143
817.371	4071
817.512	4051
817.653	4040
817.793	4071
817.934	4059
818.075	4071
818.216	4048
818.356	4120
818.497	3975
818.638	3915
818.778	3930
818.919	3892
819.06	3888
819.2	3903
819.341	3835
819.481	3846
819.622	3926
819.762	4032
819.903	3972
820.043	3861
820.184	3861
820.324	3819
820.465	3823
820.605	3850
820.746	3850
820.886	3770
821.026	3968
821.167	3922
821.307	4025
821.447	4032
821.588	3972
821.728	3922
821.868	3934
822.008	3857
822.149	3896
822.289	3896
822.429	3728
822.569	3781
822.709	3808
822.849	3728
822.99	3717
823.13	3732
823.27	3743
823.41	3724
823.55	3717
823.69	3743
823.83	3743
823.97	3652
824.11	3622
824.25	3584
824.389	3629
824.529	3694
824.669	3637
824.809	3732
824.949	3762
825.089	3732
825.228	3705
825.368	3606
825.508	3557
825.648	3580
825.787	3603
825.927	3667
826.067	3610
826.206	3682
826.346	3751
826.485	3816
826.625	3869
826.765	3979
826.904	3816
827.044	3686
827.183	3481
827.323	3443
827.462	3488
827.601	3439
827.741	3409
827.88	3439
828.02	3370
828.159	3443
828.298	3469
828.437	3534
828.577	3469
828.716	3580
828.855	3469
828.994	3382
829.134	3363
829.273	3340
829.412	3359
829.551	3344
829.69	3367
829.829	3412
829.968	3496
830.107	3412
830.246	3435
830.385	3344
830.524	3329
830.663	3279
830.802	3233
830.941	3211
831.08	3192
831.219	3291
831.357	3222
831.496	3412
831.635	3211
831.774	3207
831.913	3203
832.051	3127
832.19	3154
832.329	3188
832.467	3100
832.606	3104
832.744	3161
832.883	3203
833.022	3165
833.16	3241
833.299	3291
833.437	3275
833.576	3370
833.714	3351
833.852	3431
833.991	3435
834.129	3458
834.267	3435
834.406	3393
834.544	3367
834.682	3431
834.821	3420
834.959	3542
835.097	3435
835.235	3530
835.373	3507
835.511	3481
835.65	3462
835.788	3488
835.926	3348
836.064	3374
836.202	3382
836.34	3542
836.478	3591
836.615	3542
836.753	3542
836.891	3606
837.029	3625
837.167	3629
837.305	3511
837.443	3515
837.58	3466
837.718	3603
837.856	3553
837.993	3469
838.131	3549
838.269	3561
838.406	3584
838.544	3538
838.681	3401
838.819	3488
838.956	3389
839.094	3359
839.231	3431
839.369	3515
839.506	3694
839.643	3622
839.781	3542
839.918	3477
840.055	3549
840.193	3507
840.33	3496
840.467	3553
840.604	3561
840.742	3785
840.879	3561
841.016	3545
841.153	3572
841.29	3728
841.427	3713
841.564	3686
841.701	3713
841.838	3732
841.975	3648
842.112	3724
842.249	3648
842.385	3637
842.522	3743
842.659	3644
842.796	3648
842.933	3656
843.069	3652
843.206	3701
843.343	3781
843.479	3808
843.616	3827
843.752	3652
843.889	3667
844.025	3861
844.162	3656
844.298	3865
844.435	3762
844.571	3743
844.708	3892
844.844	3960
844.98	4006
845.117	3987
845.253	3926
845.389	3888
845.525	3918
845.661	3983
845.798	3953
845.934	4006
846.07	3941
846.206	4048
846.342	4112
846.478	4048
846.614	3979
846.75	3926
846.886	3884
847.022	4032
847.158	3994
847.294	3983
847.429	4002
847.565	3983
847.701	4242
847.837	3899
847.972	3865
848.108	3945
848.244	3949
848.379	3850
848.515	3819
848.65	3785
848.786	3831
848.921	3838
849.057	3899
849.192	3918
849.328	3850
849.463	3918
849.598	3857
849.734	3789
849.869	3816
850.004	3755
850.14	3751
850.275	3781
850.41	3743
850.545	3671
850.68	3793
850.815	3793
850.95	3808
851.085	3926
851.22	3838
851.355	3816
851.49	3778
851.625	3759
851.76	3774
851.895	3682
852.03	3698
852.165	3774
852.299	3873
852.434	3884
852.569	3812
852.703	3884
852.838	3857
852.973	3937
853.107	4040
853.242	3873
853.376	3846
853.511	3766
853.645	3804
853.78	3998
853.914	3899
854.048	3873
854.183	3873
854.317	3899
854.451	4032
854.585	3983
854.72	3911
854.854	4029
854.988	3915
855.122	4006
855.256	3896
855.39	4002
855.524	4048
855.658	4078
855.792	4086
855.926	4139
856.06	4131
856.194	4215
856.327	4090
856.461	4131
856.595	4143
856.729	4131
856.862	4310
856.996	4207
857.13	4249
857.263	4367
857.397	4333
857.53	4299
857.664	4356
857.797	4405
857.931	4417
858.064	4390
858.197	4436
858.331	4383
858.464	4409
858.597	4341
858.731	4421
858.864	4440
858.997	4459
859.13	4516
859.263	4504
859.396	4531
859.529	4508
859.662	4550
859.795	4550
859.928	4592
860.061	4694
860.194	4729
860.327	4649
860.46	4645
860.592	4698
860.725	4774
860.858	4744
860.99	4702
861.123	4664
861.256	4740
861.388	4759
861.521	5402
861.653	4702
861.786	4702
861.918	4729
862.05	4736
862.183	4812
862.315	4858
862.447	4934
862.58	4873
862.712	4793
862.844	4767
862.976	4862
863.108	4835
863.24	5117
863.372	4831
863.504	4877
863.636	4908
863.768	4923
863.9	4942
864.032	4892
864.164	4911
864.296	5014
864.428	5045
864.559	5151
864.691	5086
864.823	5109
864.954	5098
865.086	5151
865.217	5109
865.349	5162
865.48	5201
865.612	5189
865.743	5318
865.875	5178
866.006	5193
866.137	5212
866.269	5193
866.4	5284
866.531	5277
866.662	5231
866.793	5292
866.924	5273
867.055	5341
867.186	5303
867.317	5299
867.448	5311
867.579	5391
867.71	5372
867.841	5368
867.972	5436
868.103	5463
868.233	5459
868.364	5486
868.495	5570
868.625	5619
868.756	5771
868.886	5608
869.017	5745
869.147	5794
869.278	5821
869.408	5745
869.539	5817
869.669	5870
869.799	5874
869.929	5973
870.06	6022
870.19	6163
870.32	6194
870.45	6232
870.58	6296
870.71	6407
870.84	6403
870.97	6441
871.1	6441
871.23	6608
871.36	6677
871.489	6635
871.619	6749
871.749	6791
871.879	6787
872.008	6943
872.138	6939
872.267	6962
872.397	6985
872.526	7019
872.656	7027
872.785	7190
872.915	7400
873.044	7518
873.173	7514
873.303	7689
873.432	7784
873.561	7921
873.69	7894
873.819	7913
873.948	8134
874.077	8275
874.206	8358
874.335	8461
874.464	8644
874.593	8887
874.722	8883
874.851	9119
874.979	9214
875.108	9370
875.237	9291
875.365	9515
875.494	9587
875.623	9804
875.751	9831
875.88	9937
876.008	10181
876.136	10287
876.265	10443
876.393	10664
876.521	10702
876.65	10801
876.778	10911
876.906	10892
877.034	11025
877.162	11155
877.29	11083
877.418	11265
877.546	11383
877.674	11440
877.802	11459
877.93	11600
878.058	11589
878.185	11497
878.313	11634
878.441	11676
878.568	11630
878.696	11726
878.824	11779
878.951	11969
879.079	11999
879.206	12144
879.333	12076
879.461	12091
879.588	12015
879.715	12110
879.842	12178
879.97	11973
880.097	11809
880.224	11874
880.351	11832
880.478	11904
880.605	11847
880.732	11790
880.859	11969
880.986	11828
881.112	11790
881.239	11775
881.366	11703
881.493	11665
881.619	11440
881.746	11649
881.872	11493
881.999	11512
882.125	11414
882.252	11474
882.378	11486
882.505	11634
882.631	11436
882.757	11292
882.883	11334
883.01	11227
883.136	11140
883.262	11189
883.388	11048
883.514	11185
883.64	11193
883.766	11064
883.892	11029
884.018	10911
884.143	11025
884.269	11041
884.395	10889
884.52	10733
884.646	10793
884.772	10660
884.897	10611
885.023	10687
885.148	10668
885.274	10809
885.399	10660
885.524	10626
885.65	10573
885.775	10596
885.9	10550
886.025	10565
886.15	10538
886.275	10363
886.4	10394
886.525	10481
886.65	10341
886.775	10363
886.9	10485
887.025	10516
887.149	10310
887.274	10242
887.399	10215
887.523	10162
887.648	10093
887.773	10029
887.897	10207
888.021	10227
888.146	10116
888.27	10253
888.395	10051
888.519	10246
888.643	10120
888.767	10192
888.891	10071
889.015	10006
889.139	9987
889.263	9979
889.387	10055
889.511	10090
889.635	10059
889.759	9998
889.883	9972
890.006	9915
890.13	10021
890.254	9907
890.377	9983
890.501	9827
890.624	9861
890.748	9911
890.871	9740
890.995	9755
891.118	9766
891.241	9732
891.364	9701
891.488	9873
891.611	9690
891.734	9740
891.857	9762
891.98	9671
892.103	9762
892.226	9701
892.349	9675
892.471	9485
892.594	9629
892.717	9557
892.839	9538
892.962	9633
893.085	9648
893.207	9568
893.33	9576
893.452	9523
893.575	9618
893.697	9545
893.819	9576
893.941	9656
894.064	9603
894.186	9439
894.308	9389
894.43	9504
894.552	9606
894.674	9504
894.796	9374
894.918	9393
895.04	9355
895.161	9389
895.283	9325
895.405	9195
895.526	9226
895.648	9256
895.769	9169
895.891	9279
896.012	9260
896.134	9173
896.255	9074
896.376	9180
896.498	9104
896.619	9112
896.74	9058
896.861	9077
896.982	9237
897.103	9256
897.224	9192
897.345	9043
897.466	8937
897.587	8971
897.708	9112
897.828	9009
897.949	8883
898.07	8834
898.19	8906
898.311	8979
898.431	8891
898.552	8899
898.672	8876
898.792	8994
898.913	8883
899.033	8826
899.153	8762
899.273	8629
899.393	8701
899.513	8766
899.633	8674
899.753	8785
899.873	8659
899.993	8678
900.113	8712
900.232	8712
900.352	8606
900.472	8629
900.591	8549
900.711	8549
900.83	8533
900.95	8667
901.069	8663
901.189	8606
901.308	8400
901.427	8446
901.546	8396
901.665	8480
901.784	8522
901.904	8393
902.023	8298
902.141	8195
902.26	8199
902.379	8324
902.498	8191
902.617	8187
902.735	8263
902.854	8267
902.973	8259
903.091	8138
903.21	8164
903.328	8149
903.446	8062
903.565	8058
903.683	8138
903.801	8039
903.919	8084
904.038	8103
904.156	8020
904.274	8081
904.392	7944
904.51	7997
904.627	8107
904.745	8050
904.863	8077
904.981	7951
905.098	7814
905.216	7887
905.334	7890
905.451	7849
905.569	7883
905.686	7909
905.803	7925
905.921	7719
906.038	7833
906.155	7746
906.272	7715
906.389	7662
906.506	7708
906.623	7670
906.74	7586
906.857	7495
906.974	7586
907.091	7655
907.208	7757
907.324	7662
907.441	7563
907.557	7441
907.674	7495
907.79	7400
907.907	7327
908.023	7430
908.139	7419
908.256	7415
908.372	7335
908.488	7316
908.604	7244
908.72	7183
908.836	7244
908.952	7247
909.068	7244
909.184	7282
909.3	7236
909.415	7183
909.531	7228
909.647	7069
909.762	7114
909.878	7050
909.993	7061
910.108	7145
910.224	7042
910.339	7099
910.454	7057
910.57	7008
910.685	6928
910.8	7206
910.915	7129
911.03	7042
911.145	6901
911.259	6878
911.374	6878
911.489	6818
911.604	6852
911.718	6760
911.833	6673
911.947	6673
912.062	6566
912.176	6681
912.291	6764
912.405	6741
912.519	6783
912.633	6818
912.748	6688
912.862	6662
912.976	6623
913.09	6555
913.204	6532
913.318	6620
913.431	6677
913.545	6673
913.659	6719
913.772	6627
913.886	6582
914	6513
914.113	6578
914.226	6544
914.34	6604
914.453	6502
914.566	6582
914.68	6547
914.793	6521
914.906	6407
915.019	6429
915.132	6433
915.245	6414
915.358	6414
915.47	6479
915.583	6429
915.696	6483
915.809	6528
915.921	6502
916.034	6365
916.146	6384
916.259	6361
916.371	6407
916.483	6418
916.595	6395
916.708	6372
916.82	6357
916.932	6418
917.044	6376
917.156	6346
917.268	6247
917.38	6334
917.491	6289
917.603	6391
917.715	6422
917.826	6372
917.938	6304
918.049	6209
918.161	6342
918.272	6350
918.384	6384
918.495	6315
918.606	6270
918.717	6213
918.828	6277
918.939	6205
919.05	6205
919.161	6243
919.272	6064
919.383	6091
919.494	6308
919.604	6403
919.715	6300
919.826	6163
919.936	6258
920.047	6266
920.157	6266
920.267	6414
920.378	6292
920.488	6251
920.598	6483
920.708	6528
920.818	6445
920.928	6426
921.038	6642
921.148	6525
921.258	6380
921.368	6273
921.477	6186
921.587	6167
921.697	6060
921.806	6144
921.916	6098
922.025	5999
922.134	5950
922.244	5859
922.353	5923
922.462	5786
922.571	5813
922.68	5726
922.789	5634
922.898	5703
923.007	5646
923.116	5718
923.224	5707
923.333	5619
923.442	5611
923.55	5619
923.659	5596
923.767	5596
923.876	5551
923.984	5566
924.092	5505
924.201	5558
924.309	5509
924.417	5558
924.525	5444
924.633	5395
924.741	6232
924.849	5353
924.956	5478
925.064	5364
925.172	5284
925.279	5299
925.387	5311
925.494	5345
925.602	5395
925.709	5440
925.816	5265
925.924	5277
926.031	5318
926.138	5303
926.245	5307
926.352	5193
926.459	5307
926.566	5318
926.673	5235
926.779	5079
926.886	5140
926.993	5056
927.099	4987
927.206	4923
927.312	4904
927.419	5037
927.525	4946
927.631	4927
927.737	4911
927.843	4873
927.95	4812
928.056	4847
928.162	4797
928.267	4881
928.373	5212
928.479	4793
928.585	4683
928.69	4782
928.796	4744
928.901	4691
929.007	4630
929.112	4714
929.218	4596
929.323	4592
929.428	4546
929.533	4672
929.638	4512
929.743	4523
929.848	4519
929.953	4504
930.058	4428
930.163	4329
930.267	4325
930.372	4443
930.477	4299
930.581	4447
930.685	4379
930.79	4227
930.894	4272
930.998	4230
931.103	4367
931.207	4139
931.311	4059
931.415	4048
931.519	3930
931.623	3964
