Data from glass_V78500241_2886.txt Node
Date: Wed Sep 01 19:34:30 CST 2021
User: usil
Spectrometer: V785-0024
Trigger mode: 0
Integration Time (sec): 4.000000E-1
Scans to average: 1
Nonlinearity correction enabled: false
Boxcar width: 0
Storing dark spectrum: false
XAxis mode: Wavelengths
Number of Pixels in Spectrum: 1024
>>>>>Begin Spectral Data<<<<<
801.071	3740
801.214	3732
801.356	3724
801.499	3755
801.641	3701
801.783	3778
801.926	3816
802.068	3778
802.211	3789
802.353	3850
802.496	3812
802.638	3854
802.78	3804
802.923	3907
803.065	3884
803.208	3873
803.35	3823
803.492	3854
803.635	3857
803.777	3797
803.919	3861
804.061	4097
804.204	3934
804.346	3907
804.488	3941
804.63	3987
804.773	3922
804.915	3983
805.057	4120
805.199	3994
805.341	4090
805.483	4086
805.626	4090
805.768	4105
805.91	4173
806.052	4196
806.194	4181
806.336	4306
806.478	4173
806.62	4166
806.762	4147
806.904	4223
807.046	4287
807.188	4211
807.33	4139
807.472	4234
807.614	4196
807.756	4238
807.898	4188
808.04	4207
808.182	4242
808.324	4310
808.465	4352
808.607	4379
808.749	4432
808.891	4466
809.033	4500
809.174	4421
809.316	4207
809.458	4207
809.6	4131
809.741	4162
809.883	4158
810.025	4200
810.166	4166
810.308	4215
810.45	4207
810.591	4207
810.733	4276
810.875	4516
811.016	4801
811.158	5155
811.299	5231
811.441	5231
811.582	5006
811.724	4664
811.865	4459
812.007	4424
812.148	4402
812.29	4405
812.431	4379
812.573	4402
812.714	4386
812.855	4443
812.997	4424
813.138	4383
813.279	4371
813.421	4337
813.562	4341
813.703	4272
813.845	4280
813.986	4223
814.127	4166
814.268	4234
814.41	4253
814.551	4268
814.692	4272
814.833	4230
814.974	4310
815.115	4356
815.256	4219
815.397	4196
815.539	4257
815.68	4124
815.821	4181
815.962	4360
816.103	4219
816.244	4265
816.385	4204
816.526	4234
816.666	4196
816.807	4051
816.948	4150
817.089	4162
817.23	4105
817.371	4044
817.512	3991
817.653	4017
817.793	4025
817.934	4067
818.075	4063
818.216	4074
818.356	4090
818.497	3975
818.638	3876
818.778	3876
818.919	3926
819.06	3865
819.2	3926
819.341	3846
819.481	3808
819.622	3861
819.762	3975
819.903	3911
820.043	3846
820.184	3808
820.324	3804
820.465	3827
820.605	3850
820.746	3888
820.886	3804
821.026	3934
821.167	3854
821.307	3930
821.447	3975
821.588	3930
821.728	3949
821.868	3888
822.008	3835
822.149	3899
822.289	3880
822.429	3781
822.569	3701
822.709	3755
822.849	3682
822.99	3717
823.13	3736
823.27	3759
823.41	3671
823.55	3728
823.69	3751
823.83	3717
823.97	3637
824.11	3591
824.25	3545
824.389	3641
824.529	3644
824.669	3584
824.809	3701
824.949	3705
825.089	3743
825.228	3698
825.368	3545
825.508	3545
825.648	3557
825.787	3507
825.927	3587
826.067	3591
826.206	3622
826.346	3762
826.485	3781
826.625	3827
826.765	3930
826.904	3838
827.044	3580
827.183	3492
827.323	3389
827.462	3458
827.601	3386
827.741	3424
827.88	3420
828.02	3340
828.159	3443
828.298	3458
828.437	3492
828.577	3450
828.716	3576
828.855	3466
828.994	3359
829.134	3355
829.273	3367
829.412	3340
829.551	3321
829.69	3389
829.829	3424
829.968	3519
830.107	3428
830.246	3420
830.385	3340
830.524	3306
830.663	3249
830.802	3253
830.941	3161
831.08	3207
831.219	3233
831.357	3230
831.496	3393
831.635	3211
831.774	3199
831.913	3150
832.051	3097
832.19	3108
832.329	3154
832.467	3165
832.606	3062
832.744	3176
832.883	3173
833.022	3180
833.16	3241
833.299	3268
833.437	3321
833.576	3348
833.714	3370
833.852	3397
833.991	3424
834.129	3488
834.267	3435
834.406	3310
834.544	3405
834.682	3397
834.821	3393
834.959	3587
835.097	3397
835.235	3507
835.373	3454
835.511	3462
835.65	3443
835.788	3462
835.926	3348
836.064	3317
836.202	3393
836.34	3557
836.478	3618
836.615	3515
836.753	3561
836.891	3633
837.029	3545
837.167	3572
837.305	3519
837.443	3534
837.58	3462
837.718	3584
837.856	3519
837.993	3496
838.131	3564
838.269	3549
838.406	3557
838.544	3549
838.681	3473
838.819	3447
838.956	3416
839.094	3378
839.231	3405
839.369	3504
839.506	3698
839.643	3576
839.781	3443
839.918	3435
840.055	3523
840.193	3496
840.33	3488
840.467	3507
840.604	3576
840.742	3778
840.879	3557
841.016	3511
841.153	3538
841.29	3732
841.427	3705
841.564	3705
841.701	3736
841.838	3644
841.975	3633
842.112	3694
842.249	3614
842.385	3603
842.522	3831
842.659	3629
842.796	3652
842.933	3667
843.069	3720
843.206	3690
843.343	3778
843.479	3755
843.616	3781
843.752	3641
843.889	3648
844.025	3835
844.162	3671
844.298	3846
844.435	3774
844.571	3812
844.708	3869
844.844	3953
844.98	3960
845.117	3941
845.253	3922
845.389	3888
845.525	3934
845.661	3972
845.798	3907
845.934	3968
846.07	3972
846.206	4044
846.342	4090
846.478	4040
846.614	3934
846.75	3926
846.886	3911
847.022	4013
847.158	3930
847.294	3975
847.429	3975
847.565	3987
847.701	4223
847.837	3842
847.972	3838
848.108	3979
848.244	3926
848.379	3800
848.515	3781
848.65	3816
848.786	3827
848.921	3857
849.057	3903
849.192	3907
849.328	3915
849.463	3896
849.598	3876
849.734	3831
849.869	3838
850.004	3785
850.14	3816
850.275	3789
850.41	3747
850.545	3705
850.68	3770
850.815	3751
850.95	3781
851.085	3880
851.22	3835
851.355	3835
851.49	3778
851.625	3728
851.76	3778
851.895	3698
852.03	3679
852.165	3781
852.299	3827
852.434	3888
852.569	3861
852.703	3896
852.838	3907
852.973	3968
853.107	3907
853.242	3816
853.376	3850
853.511	3778
853.645	3873
853.78	3880
853.914	3888
854.048	3835
854.183	3850
854.317	3930
854.451	4055
854.585	3941
854.72	3937
854.854	4032
854.988	3918
855.122	3983
855.256	3899
855.39	3979
855.524	4074
855.658	4074
855.792	4086
855.926	4124
856.06	4154
856.194	4207
856.327	4124
856.461	4112
856.595	4120
856.729	4188
856.862	4234
856.996	4227
857.13	4219
857.263	4310
857.397	4329
857.53	4257
857.664	4314
857.797	4360
857.931	4379
858.064	4329
858.197	4436
858.331	4363
858.464	4337
858.597	4341
858.731	4417
858.864	4440
858.997	4443
859.13	4481
859.263	4500
859.396	4558
859.529	4470
859.662	4504
859.795	4485
859.928	4580
860.061	4672
860.194	4672
860.327	4675
860.46	4645
860.592	4694
860.725	4759
860.858	4786
860.99	4698
861.123	4653
861.256	4683
861.388	4786
861.521	5398
861.653	4733
861.786	4683
861.918	4679
862.05	4736
862.183	4820
862.315	4828
862.447	4896
862.58	4900
862.712	4740
862.844	4759
862.976	4873
863.108	4839
863.24	5136
863.372	4854
863.504	4858
863.636	4839
863.768	4923
863.9	4923
864.032	4923
864.164	4889
864.296	4976
864.428	5067
864.559	5094
864.691	5109
864.823	5094
864.954	5094
865.086	5094
865.217	5090
865.349	5105
865.48	5170
865.612	5204
865.743	5265
865.875	5189
866.006	5174
866.137	5212
866.269	5204
866.4	5239
866.531	5250
866.662	5197
866.793	5269
866.924	5235
867.055	5280
867.186	5330
867.317	5318
867.448	5288
867.579	5387
867.71	5349
867.841	5395
867.972	5429
868.103	5478
868.233	5448
868.364	5505
868.495	5516
868.625	5634
868.756	5783
868.886	5623
869.017	5691
869.147	5764
869.278	5798
869.408	5832
869.539	5817
869.669	5954
869.799	5882
869.929	5965
870.06	5992
870.19	6110
870.32	6125
870.45	6251
870.58	6292
870.71	6410
870.84	6395
870.97	6395
871.1	6399
871.23	6635
871.36	6677
871.489	6635
871.619	6665
871.749	6783
871.879	6867
872.008	6924
872.138	6924
872.267	6977
872.397	6943
872.526	7012
872.656	7118
872.785	7152
872.915	7362
873.044	7537
873.173	7556
873.303	7567
873.432	7715
873.561	7822
873.69	7917
873.819	7993
873.948	8126
874.077	8221
874.206	8252
874.335	8442
874.464	8625
874.593	8804
874.722	8937
874.851	9077
874.979	9218
875.108	9340
875.237	9374
875.365	9431
875.494	9625
875.623	9823
875.751	9842
875.88	9987
876.008	10131
876.136	10242
876.265	10535
876.393	10660
876.521	10649
876.65	10774
876.778	10919
876.906	10923
877.034	10911
877.162	11010
877.29	11170
877.418	11315
877.546	11315
877.674	11387
877.802	11440
877.93	11501
878.058	11596
878.185	11547
878.313	11638
878.441	11707
878.568	11615
878.696	11798
878.824	11904
878.951	11977
879.079	11988
879.206	12026
879.333	12015
879.461	11927
879.588	11999
879.715	12060
879.842	12155
879.97	11999
880.097	11882
880.224	11813
880.351	11878
880.478	11764
880.605	11897
880.732	11798
880.859	11969
880.986	11771
881.112	11813
881.239	11665
881.366	11684
881.493	11581
881.619	11558
881.746	11482
881.872	11493
881.999	11505
882.125	11497
882.252	11501
882.378	11387
882.505	11520
882.631	11345
882.757	11265
882.883	11288
883.01	11204
883.136	11166
883.262	11102
883.388	11022
883.514	11128
883.64	11109
883.766	11075
883.892	10999
884.018	10961
884.143	11010
884.269	11105
884.395	10828
884.52	10771
884.646	10763
884.772	10656
884.897	10634
885.023	10653
885.148	10599
885.274	10824
885.399	10721
885.524	10615
885.65	10546
885.775	10535
885.9	10516
886.025	10546
886.15	10516
886.275	10386
886.4	10428
886.525	10386
886.65	10333
886.775	10405
886.9	10402
887.025	10470
887.149	10299
887.274	10265
887.399	10177
887.523	10093
887.648	10071
887.773	10040
887.897	10223
888.021	10223
888.146	10090
888.27	10223
888.395	10177
888.519	10135
888.643	10112
888.767	10211
888.891	10116
889.015	10025
889.139	10048
889.263	9892
889.387	10029
889.511	10040
889.635	10002
889.759	9922
889.883	9907
890.006	9911
890.13	10025
890.254	9865
890.377	9953
890.501	9759
890.624	9869
890.748	9812
890.871	9778
890.995	9778
891.118	9743
891.241	9743
891.364	9831
891.488	9846
891.611	9701
891.734	9751
891.857	9778
891.98	9675
892.103	9679
892.226	9682
892.349	9576
892.471	9462
892.594	9614
892.717	9530
892.839	9549
892.962	9633
893.085	9610
893.207	9530
893.33	9462
893.452	9564
893.575	9538
893.697	9477
893.819	9641
893.941	9591
894.064	9545
894.186	9378
894.308	9332
894.43	9523
894.552	9504
894.674	9458
894.796	9332
894.918	9424
895.04	9310
895.161	9386
895.283	9245
895.405	9180
895.526	9233
895.648	9184
895.769	9165
895.891	9245
896.012	9237
896.134	9195
896.255	9142
896.376	9100
896.498	9055
896.619	9104
896.74	9142
896.861	9081
896.982	9245
897.103	9249
897.224	9150
897.345	9017
897.466	9017
897.587	8979
897.708	9100
897.828	8910
897.949	8956
898.07	8815
898.19	8861
898.311	9017
898.431	8834
898.552	8891
898.672	8963
898.792	8998
898.913	8876
899.033	8811
899.153	8777
899.273	8598
899.393	8632
899.513	8686
899.633	8651
899.753	8648
899.873	8648
899.993	8682
900.113	8739
900.232	8682
900.352	8686
900.472	8651
900.591	8560
900.711	8560
900.83	8526
900.95	8644
901.069	8693
901.189	8575
901.308	8442
901.427	8355
901.546	8393
901.665	8389
901.784	8495
901.904	8332
902.023	8305
902.141	8229
902.26	8221
902.379	8240
902.498	8176
902.617	8176
902.735	8339
902.854	8240
902.973	8256
903.091	8073
903.21	8062
903.328	8115
903.446	8046
903.565	8062
903.683	7997
903.801	8058
903.919	8065
904.038	8130
904.156	8031
904.274	8065
904.392	8012
904.51	8069
904.627	7970
904.745	8069
904.863	8035
904.981	7925
905.098	7837
905.216	7849
905.334	7883
905.451	7822
905.569	7830
905.686	7940
905.803	7860
905.921	7757
906.038	7871
906.155	7734
906.272	7727
906.389	7647
906.506	7563
906.623	7563
906.74	7537
906.857	7537
906.974	7571
907.091	7548
907.208	7616
907.324	7609
907.441	7529
907.557	7472
907.674	7438
907.79	7362
907.907	7339
908.023	7407
908.139	7411
908.256	7373
908.372	7327
908.488	7354
908.604	7209
908.72	7206
908.836	7225
908.952	7247
909.068	7179
909.184	7289
909.3	7232
909.415	7278
909.531	7232
909.647	7065
909.762	7072
909.878	7072
909.993	7133
910.108	7065
910.224	7057
910.339	7088
910.454	7019
910.57	6993
910.685	6943
910.8	7080
910.915	7084
911.03	7072
911.145	6878
911.259	6821
911.374	6901
911.489	6791
911.604	6840
911.718	6681
911.833	6726
911.947	6662
912.062	6502
912.176	6688
912.291	6665
912.405	6692
912.519	6791
912.633	6818
912.748	6719
912.862	6700
912.976	6589
913.09	6498
913.204	6536
913.318	6555
913.431	6642
913.545	6627
913.659	6681
913.772	6623
913.886	6563
914	6551
914.113	6566
914.226	6544
914.34	6612
914.453	6513
914.566	6582
914.68	6544
914.793	6494
914.906	6319
915.019	6350
915.132	6304
915.245	6353
915.358	6452
915.47	6410
915.583	6372
915.696	6437
915.809	6502
915.921	6513
916.034	6422
916.146	6372
916.259	6300
916.371	6418
916.483	6407
916.595	6346
916.708	6410
916.82	6369
916.932	6304
917.044	6399
917.156	6304
917.268	6300
917.38	6315
917.491	6338
917.603	6270
917.715	6437
917.826	6365
917.938	6319
918.049	6251
918.161	6357
918.272	6403
918.384	6426
918.495	6346
918.606	6178
918.717	6235
918.828	6247
918.939	6251
919.05	6121
919.161	6216
919.272	6117
919.383	6152
919.494	6224
919.604	6441
919.715	6262
919.826	6194
919.936	6220
920.047	6323
920.157	6235
920.267	6391
920.378	6273
920.488	6262
920.598	6384
920.708	6502
920.818	6464
920.928	6467
921.038	6563
921.148	6483
921.258	6289
921.368	6235
921.477	6182
921.587	6175
921.697	6045
921.806	6163
921.916	6019
922.025	5973
922.134	5866
922.244	5882
922.353	5954
922.462	5809
922.571	5809
922.68	5676
922.789	5608
922.898	5653
923.007	5600
923.116	5707
923.224	5661
923.333	5676
923.442	5520
923.55	5554
923.659	5497
923.767	5623
923.876	5512
923.984	5589
924.092	5524
924.201	5535
924.309	5505
924.417	5520
924.525	5478
924.633	5452
924.741	6102
924.849	5307
924.956	5486
925.064	5349
925.172	5239
925.279	5337
925.387	5364
925.494	5299
925.602	5395
925.709	5326
925.816	5220
925.924	5299
926.031	5326
926.138	5231
926.245	5284
926.352	5162
926.459	5288
926.566	5311
926.673	5204
926.779	5136
926.886	5109
926.993	4991
927.099	4968
927.206	4968
927.312	4927
927.419	4999
927.525	4968
927.631	4976
927.737	4915
927.843	4801
927.95	4744
928.056	4752
928.162	4763
928.267	4835
928.373	5299
928.479	4824
928.585	4641
928.69	4710
928.796	4805
928.901	4645
929.007	4561
929.112	4641
929.218	4611
929.323	4592
929.428	4580
929.533	4626
929.638	4481
929.743	4489
929.848	4523
929.953	4497
930.058	4443
930.163	4352
930.267	4295
930.372	4402
930.477	4306
930.581	4409
930.685	4379
930.79	4223
930.894	4242
930.998	4291
931.103	4337
931.207	4074
931.311	4048
931.415	4040
931.519	3918
931.623	3896
