Data from glass_V78500241_1140.txt Node
Date: Wed Sep 01 19:22:24 CST 2021
User: usil
Spectrometer: V785-0024
Trigger mode: 0
Integration Time (sec): 4.000000E-1
Scans to average: 1
Nonlinearity correction enabled: false
Boxcar width: 0
Storing dark spectrum: false
XAxis mode: Wavelengths
Number of Pixels in Spectrum: 1024
>>>>>Begin Spectral Data<<<<<
801.071	3747
801.214	3709
801.356	3732
801.499	3743
801.641	3781
801.783	3740
801.926	3876
802.068	3838
802.211	3873
802.353	3873
802.496	3797
802.638	3903
802.78	3896
802.923	3937
803.065	3842
803.208	3873
803.35	3926
803.492	3865
803.635	3964
803.777	3789
803.919	3880
804.061	4139
804.204	4010
804.346	3941
804.488	3934
804.63	4032
804.773	3972
804.915	4044
805.057	4154
805.199	4025
805.341	4105
805.483	4128
805.626	4177
805.768	4120
805.91	4238
806.052	4246
806.194	4188
806.336	4386
806.478	4188
806.62	4147
806.762	4204
806.904	4261
807.046	4341
807.188	4200
807.33	4211
807.472	4249
807.614	4169
807.756	4291
807.898	4219
808.04	4230
808.182	4310
808.324	4287
808.465	4375
808.607	4466
808.749	4443
808.891	4470
809.033	4516
809.174	4386
809.316	4299
809.458	4272
809.6	4158
809.741	4131
809.883	4158
810.025	4219
810.166	4204
810.308	4230
810.45	4265
810.591	4253
810.733	4291
810.875	4538
811.016	4862
811.158	5147
811.299	5299
811.441	5250
811.582	5098
811.724	4725
811.865	4478
812.007	4451
812.148	4432
812.29	4443
812.431	4390
812.573	4394
812.714	4402
812.855	4379
812.997	4402
813.138	4512
813.279	4462
813.421	4394
813.562	4394
813.703	4318
813.845	4295
813.986	4299
814.127	4284
814.268	4291
814.41	4322
814.551	4242
814.692	4325
814.833	4265
814.974	4314
815.115	4310
815.256	4329
815.397	4238
815.539	4310
815.68	4238
815.821	4211
815.962	4295
816.103	4253
816.244	4249
816.385	4230
816.526	4325
816.666	4242
816.807	4105
816.948	4204
817.089	4173
817.23	4120
817.371	4044
817.512	4051
817.653	4059
817.793	4055
817.934	4090
818.075	4097
818.216	4109
818.356	4059
818.497	3991
818.638	3907
818.778	3941
818.919	3880
819.06	3876
819.2	3907
819.341	3884
819.481	3804
819.622	3907
819.762	4063
819.903	3926
820.043	3857
820.184	3835
820.324	3857
820.465	3880
820.605	3850
820.746	3854
820.886	3819
821.026	3949
821.167	3975
821.307	3987
821.447	3983
821.588	3926
821.728	3945
821.868	3964
822.008	3911
822.149	3953
822.289	3949
822.429	3846
822.569	3740
822.709	3778
822.849	3720
822.99	3724
823.13	3789
823.27	3774
823.41	3705
823.55	3717
823.69	3740
823.83	3720
823.97	3667
824.11	3606
824.25	3587
824.389	3656
824.529	3679
824.669	3694
824.809	3724
824.949	3759
825.089	3705
825.228	3736
825.368	3564
825.508	3595
825.648	3564
825.787	3606
825.927	3679
826.067	3679
826.206	3686
826.346	3789
826.485	3838
826.625	3911
826.765	3922
826.904	3861
827.044	3580
827.183	3504
827.323	3473
827.462	3477
827.601	3450
827.741	3435
827.88	3466
828.02	3409
828.159	3458
828.298	3469
828.437	3515
828.577	3515
828.716	3576
828.855	3507
828.994	3397
829.134	3401
829.273	3386
829.412	3351
829.551	3344
829.69	3363
829.829	3435
829.968	3515
830.107	3462
830.246	3454
830.385	3389
830.524	3397
830.663	3249
830.802	3268
830.941	3195
831.08	3222
831.219	3313
831.357	3264
831.496	3405
831.635	3264
831.774	3214
831.913	3226
832.051	3127
832.19	3150
832.329	3199
832.467	3169
832.606	3127
832.744	3180
832.883	3230
833.022	3184
833.16	3245
833.299	3294
833.437	3351
833.576	3363
833.714	3412
833.852	3431
833.991	3450
834.129	3454
834.267	3428
834.406	3378
834.544	3420
834.682	3431
834.821	3401
834.959	3595
835.097	3477
835.235	3549
835.373	3519
835.511	3504
835.65	3443
835.788	3477
835.926	3431
836.064	3389
836.202	3397
836.34	3568
836.478	3599
836.615	3553
836.753	3576
836.891	3660
837.029	3614
837.167	3618
837.305	3553
837.443	3561
837.58	3549
837.718	3606
837.856	3572
837.993	3511
838.131	3622
838.269	3561
838.406	3622
838.544	3622
838.681	3492
838.819	3466
838.956	3359
839.094	3431
839.231	3450
839.369	3557
839.506	3705
839.643	3641
839.781	3504
839.918	3515
840.055	3519
840.193	3545
840.33	3530
840.467	3549
840.604	3606
840.742	3812
840.879	3534
841.016	3614
841.153	3606
841.29	3755
841.427	3682
841.564	3740
841.701	3720
841.838	3724
841.975	3694
842.112	3743
842.249	3690
842.385	3663
842.522	3838
842.659	3709
842.796	3675
842.933	3698
843.069	3713
843.206	3690
843.343	3816
843.479	3762
843.616	3846
843.752	3667
843.889	3705
844.025	3857
844.162	3755
844.298	3857
844.435	3804
844.571	3804
844.708	3922
844.844	3968
844.98	4029
845.117	4036
845.253	3899
845.389	3911
845.525	4006
845.661	3987
845.798	3899
845.934	4040
846.07	3968
846.206	4036
846.342	4128
846.478	4105
846.614	3972
846.75	3930
846.886	3880
847.022	4040
847.158	3975
847.294	4006
847.429	4032
847.565	4006
847.701	4265
847.837	3888
847.972	3888
848.108	3979
848.244	3964
848.379	3857
848.515	3846
848.65	3854
848.786	3884
848.921	3884
849.057	3945
849.192	3922
849.328	3892
849.463	3964
849.598	3903
849.734	3865
849.869	3880
850.004	3808
850.14	3827
850.275	3804
850.41	3724
850.545	3762
850.68	3785
850.815	3762
850.95	3800
851.085	3922
851.22	3846
851.355	3808
851.49	3838
851.625	3808
851.76	3785
851.895	3759
852.03	3728
852.165	3823
852.299	3827
852.434	3911
852.569	3865
852.703	3816
852.838	3949
852.973	4044
853.107	3987
853.242	3945
853.376	3865
853.511	3774
853.645	3835
853.78	3975
853.914	3911
854.048	3911
854.183	3907
854.317	3930
854.451	4082
854.585	3956
854.72	3975
854.854	3998
854.988	3941
855.122	4002
855.256	3903
855.39	4071
855.524	4154
855.658	4044
855.792	4120
855.926	4169
856.06	4128
856.194	4192
856.327	4173
856.461	4169
856.595	4177
856.729	4169
856.862	4295
856.996	4268
857.13	4325
857.263	4287
857.397	4390
857.53	4276
857.664	4367
857.797	4436
857.931	4447
858.064	4390
858.197	4519
858.331	4405
858.464	4409
858.597	4402
858.731	4462
858.864	4478
858.997	4516
859.13	4535
859.263	4592
859.396	4603
859.529	4493
859.662	4577
859.795	4538
859.928	4603
860.061	4748
860.194	4744
860.327	4653
860.46	4672
860.592	4733
860.725	4805
860.858	4793
860.99	4683
861.123	4675
861.256	4714
861.388	4721
861.521	5345
861.653	4736
861.786	4725
861.918	4797
862.05	4744
862.183	4835
862.315	4934
862.447	4938
862.58	4889
862.712	4831
862.844	4725
862.976	4877
863.108	4938
863.24	5197
863.372	4885
863.504	4885
863.636	4892
863.768	4976
863.9	4999
864.032	4938
864.164	4911
864.296	5014
864.428	5075
864.559	5098
864.691	5132
864.823	5140
864.954	5147
865.086	5220
865.217	5128
865.349	5140
865.48	5185
865.612	5170
865.743	5296
865.875	5231
866.006	5197
866.137	5204
866.269	5223
866.4	5303
866.531	5250
866.662	5212
866.793	5277
866.924	5349
867.055	5315
867.186	5357
867.317	5334
867.448	5337
867.579	5379
867.71	5318
867.841	5334
867.972	5417
868.103	5486
868.233	5471
868.364	5551
868.495	5539
868.625	5707
868.756	5729
868.886	5661
869.017	5760
869.147	5847
869.278	5866
869.408	5847
869.539	5847
869.669	5931
869.799	5954
869.929	5973
870.06	6049
870.19	6152
870.32	6205
870.45	6273
870.58	6296
870.71	6395
870.84	6547
870.97	6391
871.1	6475
871.23	6658
871.36	6722
871.489	6669
871.619	6730
871.749	6829
871.879	6878
872.008	6977
872.138	6966
872.267	6973
872.397	6958
872.526	7069
872.656	7069
872.785	7232
872.915	7377
873.044	7537
873.173	7563
873.303	7655
873.432	7776
873.561	7871
873.69	7906
873.819	7925
873.948	8168
874.077	8180
874.206	8385
874.335	8461
874.464	8735
874.593	8845
874.722	8971
874.851	9135
874.979	9256
875.108	9416
875.237	9469
875.365	9504
875.494	9686
875.623	9869
875.751	9907
875.88	10112
876.008	10131
876.136	10356
876.265	10519
876.393	10748
876.521	10683
876.65	10828
876.778	10778
876.906	10930
877.034	11045
877.162	11064
877.29	11105
877.418	11296
877.546	11436
877.674	11444
877.802	11493
877.93	11524
878.058	11539
878.185	11539
878.313	11680
878.441	11722
878.568	11756
878.696	11798
878.824	11866
878.951	11935
879.079	12091
879.206	12072
879.333	12049
879.461	11958
879.588	12072
879.715	12038
879.842	12300
879.97	12114
880.097	11904
880.224	11832
880.351	11931
880.478	11889
880.605	11878
880.732	11817
880.859	12019
880.986	11847
881.112	11756
881.239	11737
881.366	11707
881.493	11661
881.619	11604
881.746	11566
881.872	11611
881.999	11535
882.125	11558
882.252	11604
882.378	11486
882.505	11520
882.631	11402
882.757	11258
882.883	11383
883.01	11330
883.136	11216
883.262	11151
883.388	11045
883.514	11261
883.64	11201
883.766	11124
883.892	10961
884.018	11041
884.143	11014
884.269	11052
884.395	10877
884.52	10774
884.646	10774
884.772	10672
884.897	10668
885.023	10683
885.148	10729
885.274	10668
885.399	10698
885.524	10634
885.65	10573
885.775	10656
885.9	10599
886.025	10630
886.15	10512
886.275	10428
886.4	10432
886.525	10424
886.65	10344
886.775	10443
886.9	10516
887.025	10569
887.149	10329
887.274	10265
887.399	10211
887.523	10204
887.648	10131
887.773	10067
887.897	10261
888.021	10295
888.146	10116
888.27	10261
888.395	10215
888.519	10154
888.643	10112
888.767	10215
888.891	10093
889.015	10013
889.139	10006
889.263	9956
889.387	10109
889.511	10150
889.635	10017
889.759	10010
889.883	9994
890.006	10021
890.13	10082
890.254	9972
890.377	9960
890.501	9835
890.624	9869
890.748	9899
890.871	9789
890.995	9774
891.118	9743
891.241	9800
891.364	9713
891.488	9827
891.611	9705
891.734	9755
891.857	9759
891.98	9740
892.103	9827
892.226	9717
892.349	9591
892.471	9492
892.594	9561
892.717	9732
892.839	9542
892.962	9622
893.085	9690
893.207	9542
893.33	9526
893.452	9557
893.575	9614
893.697	9507
893.819	9644
893.941	9732
894.064	9584
894.186	9386
894.308	9450
894.43	9564
894.552	9587
894.674	9606
894.796	9370
894.918	9405
895.04	9344
895.161	9389
895.283	9355
895.405	9222
895.526	9291
895.648	9188
895.769	9306
895.891	9237
896.012	9325
896.134	9260
896.255	9253
896.376	9089
896.498	9154
896.619	9119
896.74	9081
896.861	9123
896.982	9195
897.103	9302
897.224	9142
897.345	9058
897.466	9009
897.587	9009
897.708	9119
897.828	9062
897.949	8956
898.07	8857
898.19	8868
898.311	8975
898.431	8887
898.552	8906
898.672	8933
898.792	8944
898.913	8929
899.033	8792
899.153	8769
899.273	8636
899.393	8720
899.513	8788
899.633	8735
899.753	8693
899.873	8655
899.993	8724
900.113	8750
900.232	8739
900.352	8667
900.472	8629
900.591	8545
900.711	8617
900.83	8537
900.95	8670
901.069	8731
901.189	8594
901.308	8450
901.427	8324
901.546	8469
901.665	8427
901.784	8454
901.904	8366
902.023	8374
902.141	8252
902.26	8206
902.379	8355
902.498	8229
902.617	8298
902.735	8336
902.854	8267
902.973	8298
903.091	8187
903.21	8123
903.328	8168
903.446	8153
903.565	8096
903.683	8096
903.801	8092
903.919	8103
904.038	8210
904.156	8119
904.274	8126
904.392	7963
904.51	8016
904.627	8065
904.745	8035
904.863	8176
904.981	7845
905.098	7902
905.216	7883
905.334	7890
905.451	7947
905.569	7864
905.686	7921
905.803	7925
905.921	7830
906.038	7902
906.155	7837
906.272	7693
906.389	7696
906.506	7681
906.623	7643
906.74	7677
906.857	7616
906.974	7594
907.091	7677
907.208	7723
907.324	7651
907.441	7518
907.557	7388
907.674	7476
907.79	7384
907.907	7377
908.023	7350
908.139	7388
908.256	7362
908.372	7384
908.488	7373
908.604	7282
908.72	7221
908.836	7263
908.952	7293
909.068	7236
909.184	7305
909.3	7228
909.415	7232
909.531	7297
909.647	7110
909.762	7137
909.878	7107
909.993	7149
910.108	7107
910.224	7072
910.339	7133
910.454	7061
910.57	7023
910.685	6943
910.8	7175
910.915	7122
911.03	7004
911.145	6913
911.259	6871
911.374	6882
911.489	6837
911.604	6894
911.718	6741
911.833	6764
911.947	6662
912.062	6616
912.176	6684
912.291	6787
912.405	6669
912.519	6791
912.633	6810
912.748	6760
912.862	6749
912.976	6608
913.09	6582
913.204	6639
913.318	6604
913.431	6688
913.545	6677
913.659	6688
913.772	6673
913.886	6585
914	6585
914.113	6722
914.226	6715
914.34	6654
914.453	6502
914.566	6639
914.68	6532
914.793	6506
914.906	6395
915.019	6410
915.132	6372
915.245	6429
915.358	6376
915.47	6384
915.583	6464
915.696	6483
915.809	6593
915.921	6509
916.034	6464
916.146	6410
916.259	6384
916.371	6433
916.483	6448
916.595	6407
916.708	6384
916.82	6448
916.932	6395
917.044	6388
917.156	6384
917.268	6308
917.38	6388
917.491	6311
917.603	6331
917.715	6399
917.826	6490
917.938	6380
918.049	6243
918.161	6350
918.272	6350
918.384	6456
918.495	6331
918.606	6300
918.717	6171
918.828	6254
918.939	6323
919.05	6167
919.161	6213
919.272	6136
919.383	6129
919.494	6331
919.604	6494
919.715	6292
919.826	6205
919.936	6254
920.047	6361
920.157	6273
920.267	6426
920.378	6338
920.488	6292
920.598	6456
920.708	6585
920.818	6471
920.928	6502
921.038	6589
921.148	6627
921.258	6395
921.368	6296
921.477	6205
921.587	6152
921.697	6045
921.806	6175
921.916	6087
922.025	5984
922.134	5912
922.244	5901
922.353	5969
922.462	5859
922.571	5859
922.68	5737
922.789	5680
922.898	5748
923.007	5688
923.116	5729
923.224	5714
923.333	5608
923.442	5615
923.55	5581
923.659	5581
923.767	5623
923.876	5589
923.984	5604
924.092	5520
924.201	5600
924.309	5604
924.417	5528
924.525	5520
924.633	5547
924.741	6296
924.849	5368
924.956	5463
925.064	5360
925.172	5353
925.279	5292
925.387	5383
925.494	5341
925.602	5395
925.709	5364
925.816	5277
925.924	5318
926.031	5414
926.138	5303
926.245	5322
926.352	5254
926.459	5345
926.566	5360
926.673	5174
926.779	5128
926.886	5113
926.993	5025
927.099	5071
927.206	4968
927.312	5025
927.419	4995
927.525	4961
927.631	5075
927.737	4938
927.843	4889
927.95	4771
928.056	4809
928.162	4889
928.267	4839
928.373	5349
928.479	4870
928.585	4672
928.69	4729
928.796	4812
928.901	4653
929.007	4645
929.112	4660
929.218	4622
929.323	4580
929.428	4550
929.533	4660
929.638	4554
929.743	4550
929.848	4584
929.953	4577
930.058	4443
930.163	4356
930.267	4337
930.372	4409
930.477	4322
930.581	4459
930.685	4394
930.79	4272
930.894	4284
930.998	4234
931.103	4360
931.207	4181
931.311	4086
931.415	4040
931.519	3930
931.623	3964
