Data from glass_V78500241_826.txt Node
Date: Wed Sep 01 19:20:13 CST 2021
User: usil
Spectrometer: V785-0024
Trigger mode: 0
Integration Time (sec): 4.000000E-1
Scans to average: 1
Nonlinearity correction enabled: false
Boxcar width: 0
Storing dark spectrum: false
XAxis mode: Wavelengths
Number of Pixels in Spectrum: 1024
>>>>>Begin Spectral Data<<<<<
801.071	3755
801.214	3728
801.356	3747
801.499	3751
801.641	3755
801.783	3785
801.926	3892
802.068	3846
802.211	3865
802.353	3941
802.496	3819
802.638	3922
802.78	3926
802.923	3956
803.065	3892
803.208	3850
803.35	3835
803.492	3896
803.635	3949
803.777	3857
803.919	3930
804.061	4177
804.204	3934
804.346	3949
804.488	3968
804.63	4032
804.773	3987
804.915	4101
805.057	4196
805.199	4063
805.341	4101
805.483	4154
805.626	4147
805.768	4112
805.91	4181
806.052	4261
806.194	4238
806.336	4390
806.478	4238
806.62	4200
806.762	4234
806.904	4310
807.046	4341
807.188	4230
807.33	4188
807.472	4207
807.614	4188
807.756	4306
807.898	4230
808.04	4219
808.182	4318
808.324	4284
808.465	4333
808.607	4455
808.749	4447
808.891	4497
809.033	4546
809.174	4455
809.316	4253
809.458	4249
809.6	4150
809.741	4147
809.883	4204
810.025	4204
810.166	4242
810.308	4253
810.45	4268
810.591	4276
810.733	4272
810.875	4531
811.016	4850
811.158	5105
811.299	5216
811.441	5292
811.582	5071
811.724	4641
811.865	4481
812.007	4459
812.148	4428
812.29	4474
812.431	4379
812.573	4424
812.714	4394
812.855	4440
812.997	4402
813.138	4516
813.279	4432
813.421	4402
813.562	4371
813.703	4329
813.845	4322
813.986	4238
814.127	4230
814.268	4306
814.41	4390
814.551	4310
814.692	4344
814.833	4314
814.974	4352
815.115	4367
815.256	4291
815.397	4291
815.539	4242
815.68	4177
815.821	4211
815.962	4356
816.103	4253
816.244	4238
816.385	4227
816.526	4303
816.666	4257
816.807	4124
816.948	4135
817.089	4166
817.23	4105
817.371	4036
817.512	4086
817.653	4010
817.793	4078
817.934	4025
818.075	4048
818.216	4093
818.356	4124
818.497	3994
818.638	3865
818.778	3892
818.919	3922
819.06	3873
819.2	3922
819.341	3850
819.481	3861
819.622	3892
819.762	4040
819.903	3975
820.043	3907
820.184	3838
820.324	3876
820.465	3899
820.605	3888
820.746	3922
820.886	3831
821.026	3975
821.167	3896
821.307	3998
821.447	4021
821.588	3907
821.728	3937
821.868	3972
822.008	3892
822.149	3941
822.289	3903
822.429	3808
822.569	3747
822.709	3831
822.849	3724
822.99	3675
823.13	3789
823.27	3816
823.41	3747
823.55	3717
823.69	3755
823.83	3751
823.97	3705
824.11	3610
824.25	3622
824.389	3694
824.529	3660
824.669	3663
824.809	3740
824.949	3812
825.089	3747
825.228	3728
825.368	3629
825.508	3553
825.648	3572
825.787	3606
825.927	3660
826.067	3644
826.206	3701
826.346	3793
826.485	3823
826.625	3869
826.765	3975
826.904	3842
827.044	3648
827.183	3584
827.323	3443
827.462	3504
827.601	3466
827.741	3450
827.88	3496
828.02	3340
828.159	3454
828.298	3458
828.437	3549
828.577	3488
828.716	3622
828.855	3511
828.994	3405
829.134	3363
829.273	3401
829.412	3378
829.551	3302
829.69	3397
829.829	3466
829.968	3504
830.107	3443
830.246	3447
830.385	3389
830.524	3386
830.663	3313
830.802	3260
830.941	3195
831.08	3188
831.219	3256
831.357	3287
831.496	3409
831.635	3272
831.774	3195
831.913	3241
832.051	3157
832.19	3154
832.329	3268
832.467	3138
832.606	3127
832.744	3138
832.883	3192
833.022	3211
833.16	3253
833.299	3336
833.437	3367
833.576	3378
833.714	3416
833.852	3466
833.991	3435
834.129	3519
834.267	3447
834.406	3412
834.544	3473
834.682	3424
834.821	3435
834.959	3606
835.097	3412
835.235	3534
835.373	3488
835.511	3534
835.65	3469
835.788	3526
835.926	3412
836.064	3393
836.202	3386
836.34	3576
836.478	3618
836.615	3534
836.753	3614
836.891	3667
837.029	3641
837.167	3568
837.305	3584
837.443	3557
837.58	3534
837.718	3648
837.856	3568
837.993	3545
838.131	3595
838.269	3553
838.406	3610
838.544	3587
838.681	3458
838.819	3431
838.956	3409
839.094	3393
839.231	3416
839.369	3523
839.506	3789
839.643	3644
839.781	3488
839.918	3504
840.055	3511
840.193	3545
840.33	3534
840.467	3580
840.604	3622
840.742	3816
840.879	3587
841.016	3580
841.153	3614
841.29	3728
841.427	3732
841.564	3728
841.701	3755
841.838	3701
841.975	3690
842.112	3724
842.249	3652
842.385	3660
842.522	3846
842.659	3686
842.796	3682
842.933	3740
843.069	3713
843.206	3698
843.343	3846
843.479	3800
843.616	3823
843.752	3690
843.889	3709
844.025	3846
844.162	3724
844.298	3907
844.435	3789
844.571	3816
844.708	3876
844.844	3998
844.98	4036
845.117	4010
845.253	3915
845.389	3899
845.525	3983
845.661	3975
845.798	3937
845.934	3983
846.07	3956
846.206	4101
846.342	4135
846.478	4071
846.614	3987
846.75	3975
846.886	3960
847.022	4036
847.158	4006
847.294	4029
847.429	4067
847.565	4010
847.701	4249
847.837	3937
847.972	3865
848.108	4029
848.244	4017
848.379	3869
848.515	3854
848.65	3827
848.786	3865
848.921	3876
849.057	3945
849.192	3956
849.328	3903
849.463	3934
849.598	3899
849.734	3937
849.869	3850
850.004	3800
850.14	3842
850.275	3781
850.41	3789
850.545	3781
850.68	3827
850.815	3778
850.95	3838
851.085	3934
851.22	3907
851.355	3865
851.49	3759
851.625	3831
851.76	3778
851.895	3778
852.03	3705
852.165	3789
852.299	3846
852.434	3911
852.569	3941
852.703	3873
852.838	3937
852.973	3998
853.107	3979
853.242	3903
853.376	3842
853.511	3770
853.645	3835
853.78	3953
853.914	3899
854.048	3945
854.183	3915
854.317	3998
854.451	4032
854.585	3918
854.72	3934
854.854	4124
854.988	3915
855.122	4010
855.256	3911
855.39	4059
855.524	4101
855.658	4158
855.792	4109
855.926	4185
856.06	4177
856.194	4246
856.327	4120
856.461	4131
856.595	4166
856.729	4188
856.862	4295
856.996	4265
857.13	4337
857.263	4367
857.397	4371
857.53	4303
857.664	4329
857.797	4424
857.931	4443
858.064	4402
858.197	4466
858.331	4440
858.464	4402
858.597	4356
858.731	4481
858.864	4462
858.997	4478
859.13	4542
859.263	4565
859.396	4584
859.529	4527
859.662	4573
859.795	4573
859.928	4626
860.061	4694
860.194	4714
860.327	4641
860.46	4698
860.592	4740
860.725	4771
860.858	4767
860.99	4729
861.123	4683
861.256	4736
861.388	4763
861.521	5436
861.653	4672
861.786	4725
861.918	4793
862.05	4797
862.183	4831
862.315	4915
862.447	4961
862.58	4881
862.712	4797
862.844	4801
862.976	4873
863.108	4847
863.24	5231
863.372	4839
863.504	4881
863.636	4938
863.768	4942
863.9	4957
864.032	4911
864.164	4957
864.296	5048
864.428	5113
864.559	5128
864.691	5155
864.823	5143
864.954	5109
865.086	5166
865.217	5105
865.349	5162
865.48	5185
865.612	5174
865.743	5330
865.875	5212
866.006	5170
866.137	5223
866.269	5280
866.4	5299
866.531	5277
866.662	5246
866.793	5273
866.924	5284
867.055	5330
867.186	5334
867.317	5322
867.448	5334
867.579	5368
867.71	5391
867.841	5414
867.972	5425
868.103	5520
868.233	5493
868.364	5482
868.495	5596
868.625	5699
868.756	5779
868.886	5665
869.017	5805
869.147	5870
869.278	5866
869.408	5897
869.539	5882
869.669	5904
869.799	5927
869.929	5980
870.06	6087
870.19	6178
870.32	6235
870.45	6289
870.58	6331
870.71	6433
870.84	6460
870.97	6426
871.1	6471
871.23	6669
871.36	6749
871.489	6635
871.619	6749
871.749	6840
871.879	6878
872.008	6951
872.138	7023
872.267	7023
872.397	7023
872.526	6996
872.656	7164
872.785	7228
872.915	7434
873.044	7502
873.173	7563
873.303	7674
873.432	7780
873.561	7852
873.69	7856
873.819	7989
873.948	8149
874.077	8225
874.206	8339
874.335	8419
874.464	8686
874.593	8899
874.722	9009
874.851	9074
874.979	9283
875.108	9378
875.237	9416
875.365	9507
875.494	9713
875.623	9766
875.751	9876
875.88	10086
876.008	10150
876.136	10234
876.265	10603
876.393	10656
876.521	10755
876.65	10839
876.778	10885
876.906	11018
877.034	10999
877.162	11075
877.29	11189
877.418	11288
877.546	11349
877.674	11474
877.802	11566
877.93	11589
878.058	11543
878.185	11589
878.313	11703
878.441	11733
878.568	11657
878.696	11767
878.824	11836
878.951	11973
879.079	11980
879.206	12102
879.333	12030
879.461	11977
879.588	12068
879.715	12079
879.842	12220
879.97	12087
880.097	11927
880.224	11973
880.351	11988
880.478	11813
880.605	11878
880.732	11863
880.859	11973
880.986	11840
881.112	11790
881.239	11760
881.366	11653
881.493	11604
881.619	11543
881.746	11543
881.872	11474
881.999	11528
882.125	11425
882.252	11532
882.378	11501
882.505	11596
882.631	11455
882.757	11330
882.883	11406
883.01	11201
883.136	11201
883.262	11140
883.388	11033
883.514	11212
883.64	11220
883.766	11132
883.892	11025
884.018	11067
884.143	11090
884.269	11094
884.395	10839
884.52	10733
884.646	10824
884.772	10691
884.897	10649
885.023	10634
885.148	10755
885.274	10717
885.399	10679
885.524	10672
885.65	10535
885.775	10588
885.9	10523
886.025	10588
886.15	10580
886.275	10413
886.4	10329
886.525	10398
886.65	10432
886.775	10379
886.9	10546
887.025	10592
887.149	10405
887.274	10337
887.399	10219
887.523	10188
887.648	10112
887.773	10105
887.897	10188
888.021	10185
888.146	10128
888.27	10238
888.395	10280
888.519	10211
888.643	10192
888.767	10284
888.891	10150
889.015	10025
889.139	10055
889.263	9975
889.387	10109
889.511	10116
889.635	10082
889.759	9956
889.883	9941
890.006	10059
890.13	10105
890.254	9987
890.377	9968
890.501	9888
890.624	9835
890.748	9945
890.871	9827
890.995	9736
891.118	9652
891.241	9732
891.364	9816
891.488	9880
891.611	9717
891.734	9835
891.857	9800
891.98	9812
892.103	9823
892.226	9694
892.349	9694
892.471	9595
892.594	9580
892.717	9553
892.839	9622
892.962	9584
893.085	9656
893.207	9606
893.33	9481
893.452	9576
893.575	9523
893.697	9530
893.819	9641
893.941	9644
894.064	9580
894.186	9462
894.308	9431
894.43	9507
894.552	9637
894.674	9603
894.796	9424
894.918	9351
895.04	9294
895.161	9424
895.283	9412
895.405	9260
895.526	9222
895.648	9245
895.769	9214
895.891	9272
896.012	9294
896.134	9188
896.255	9150
896.376	9043
896.498	9188
896.619	9150
896.74	9047
896.861	9138
896.982	9241
897.103	9325
897.224	9188
897.345	9074
897.466	8998
897.587	8944
897.708	9085
897.828	9028
897.949	8941
898.07	8834
898.19	8895
898.311	9036
898.431	8902
898.552	8918
898.672	8990
898.792	8937
898.913	8910
899.033	8861
899.153	8743
899.273	8617
899.393	8731
899.513	8758
899.633	8769
899.753	8708
899.873	8689
899.993	8777
900.113	8743
900.232	8629
900.352	8613
900.472	8625
900.591	8552
900.711	8575
900.83	8583
900.95	8606
901.069	8777
901.189	8598
901.308	8469
901.427	8393
901.546	8476
901.665	8419
901.784	8499
901.904	8427
902.023	8396
902.141	8271
902.26	8210
902.379	8313
902.498	8286
902.617	8244
902.735	8332
902.854	8309
902.973	8282
903.091	8119
903.21	8069
903.328	8202
903.446	8092
903.565	8100
903.683	8100
903.801	8054
903.919	8134
904.038	8115
904.156	7993
904.274	8123
904.392	8024
904.51	8016
904.627	8069
904.745	8107
904.863	8111
904.981	7883
905.098	7879
905.216	7909
905.334	7940
905.451	8001
905.569	7890
905.686	7967
905.803	7875
905.921	7761
906.038	7841
906.155	7837
906.272	7715
906.389	7704
906.506	7674
906.623	7590
906.74	7616
906.857	7540
906.974	7586
907.091	7632
907.208	7738
907.324	7636
907.441	7597
907.557	7472
907.674	7453
907.79	7464
907.907	7476
908.023	7510
908.139	7434
908.256	7381
908.372	7377
908.488	7415
908.604	7327
908.72	7259
908.836	7255
908.952	7297
909.068	7251
909.184	7312
909.3	7297
909.415	7358
909.531	7244
909.647	7152
909.762	7149
909.878	7088
909.993	7145
910.108	7084
910.224	7107
910.339	7137
910.454	7072
910.57	7034
910.685	6970
910.8	7126
910.915	7110
911.03	7095
911.145	6909
911.259	6878
911.374	6882
911.489	6886
911.604	6802
911.718	6753
911.833	6757
911.947	6642
912.062	6601
912.176	6772
912.291	6787
912.405	6692
912.519	6837
912.633	6882
912.748	6738
912.862	6734
912.976	6601
913.09	6566
913.204	6574
913.318	6601
913.431	6730
913.545	6700
913.659	6711
913.772	6677
913.886	6642
914	6570
914.113	6578
914.226	6658
914.34	6601
914.453	6502
914.566	6608
914.68	6509
914.793	6540
914.906	6414
915.019	6433
915.132	6361
915.245	6475
915.358	6486
915.47	6445
915.583	6513
915.696	6513
915.809	6631
915.921	6525
916.034	6414
916.146	6391
916.259	6403
916.371	6467
916.483	6441
916.595	6422
916.708	6399
916.82	6422
916.932	6399
917.044	6422
917.156	6414
917.268	6334
917.38	6350
917.491	6289
917.603	6388
917.715	6414
917.826	6418
917.938	6342
918.049	6243
918.161	6281
918.272	6460
918.384	6391
918.495	6388
918.606	6258
918.717	6251
918.828	6323
918.939	6216
919.05	6209
919.161	6277
919.272	6167
919.383	6224
919.494	6289
919.604	6456
919.715	6311
919.826	6235
919.936	6296
920.047	6289
920.157	6315
920.267	6517
920.378	6327
920.488	6311
920.598	6490
920.708	6559
920.818	6502
920.928	6448
921.038	6677
921.148	6544
921.258	6319
921.368	6376
921.477	6232
921.587	6182
921.697	6140
921.806	6190
921.916	6079
922.025	5973
922.134	5942
922.244	5942
922.353	5897
922.462	5786
922.571	5805
922.68	5710
922.789	5688
922.898	5707
923.007	5672
923.116	5684
923.224	5691
923.333	5691
923.442	5615
923.55	5566
923.659	5604
923.767	5672
923.876	5532
923.984	5604
924.092	5543
924.201	5558
924.309	5532
924.417	5577
924.525	5455
924.633	5505
924.741	6152
924.849	5376
924.956	5509
925.064	5353
925.172	5299
925.279	5288
925.387	5376
925.494	5318
925.602	5398
925.709	5391
925.816	5296
925.924	5326
926.031	5376
926.138	5334
926.245	5349
926.352	5235
926.459	5311
926.566	5372
926.673	5242
926.779	5197
926.886	5128
926.993	5025
927.099	5010
927.206	4987
927.312	4995
927.419	5033
927.525	4972
927.631	4980
927.737	4873
927.843	4949
927.95	4763
928.056	4824
928.162	4778
928.267	4847
928.373	5410
928.479	4873
928.585	4691
928.69	4809
928.796	4793
928.901	4675
929.007	4618
929.112	4687
929.218	4664
929.323	4626
929.428	4573
929.533	4675
929.638	4500
929.743	4607
929.848	4554
929.953	4531
930.058	4459
930.163	4367
930.267	4341
930.372	4417
930.477	4306
930.581	4481
930.685	4402
930.79	4246
930.894	4276
930.998	4303
931.103	4432
931.207	4166
931.311	4101
931.415	4032
931.519	3956
931.623	3972
