Data from glass_V78500241_708.txt Node
Date: Wed Sep 01 19:19:24 CST 2021
User: usil
Spectrometer: V785-0024
Trigger mode: 0
Integration Time (sec): 4.000000E-1
Scans to average: 1
Nonlinearity correction enabled: false
Boxcar width: 0
Storing dark spectrum: false
XAxis mode: Wavelengths
Number of Pixels in Spectrum: 1024
>>>>>Begin Spectral Data<<<<<
801.071	3736
801.214	3743
801.356	3709
801.499	3709
801.641	3755
801.783	3785
801.926	3903
802.068	3888
802.211	3892
802.353	3907
802.496	3846
802.638	3896
802.78	3953
802.923	3941
803.065	3930
803.208	3854
803.35	3892
803.492	3922
803.635	3911
803.777	3800
803.919	3896
804.061	4185
804.204	3915
804.346	3949
804.488	3926
804.63	4055
804.773	3983
804.915	4032
805.057	4177
805.199	4071
805.341	4105
805.483	4150
805.626	4101
805.768	4135
805.91	4219
806.052	4268
806.194	4215
806.336	4333
806.478	4238
806.62	4166
806.762	4181
806.904	4268
807.046	4363
807.188	4227
807.33	4154
807.472	4238
807.614	4173
807.756	4299
807.898	4230
808.04	4272
808.182	4352
808.324	4352
808.465	4394
808.607	4432
808.749	4447
808.891	4519
809.033	4516
809.174	4432
809.316	4284
809.458	4242
809.6	4177
809.741	4143
809.883	4135
810.025	4249
810.166	4204
810.308	4227
810.45	4242
810.591	4215
810.733	4306
810.875	4466
811.016	4812
811.158	5128
811.299	5246
811.441	5269
811.582	5086
811.724	4748
811.865	4497
812.007	4470
812.148	4485
812.29	4443
812.431	4398
812.573	4421
812.714	4417
812.855	4402
812.997	4443
813.138	4508
813.279	4462
813.421	4390
813.562	4383
813.703	4402
813.845	4310
813.986	4310
814.127	4249
814.268	4310
814.41	4299
814.551	4291
814.692	4367
814.833	4280
814.974	4329
815.115	4303
815.256	4280
815.397	4242
815.539	4253
815.68	4219
815.821	4246
815.962	4310
816.103	4284
816.244	4219
816.385	4257
816.526	4284
816.666	4242
816.807	4078
816.948	4215
817.089	4169
817.23	4147
817.371	4067
817.512	4029
817.653	4078
817.793	4044
817.934	4051
818.075	4109
818.216	4128
818.356	4116
818.497	4002
818.638	3949
818.778	3949
818.919	3907
819.06	3903
819.2	3945
819.341	3873
819.481	3838
819.622	3911
819.762	4055
819.903	3975
820.043	3892
820.184	3846
820.324	3857
820.465	3918
820.605	3876
820.746	3896
820.886	3800
821.026	3937
821.167	3922
821.307	4002
821.447	4010
821.588	3941
821.728	3949
821.868	3915
822.008	3907
822.149	3915
822.289	3953
822.429	3785
822.569	3770
822.709	3838
822.849	3724
822.99	3713
823.13	3736
823.27	3804
823.41	3766
823.55	3747
823.69	3728
823.83	3774
823.97	3705
824.11	3622
824.25	3618
824.389	3667
824.529	3660
824.669	3633
824.809	3713
824.949	3713
825.089	3759
825.228	3720
825.368	3568
825.508	3564
825.648	3584
825.787	3614
825.927	3682
826.067	3614
826.206	3686
826.346	3766
826.485	3861
826.625	3911
826.765	3953
826.904	3899
827.044	3633
827.183	3549
827.323	3481
827.462	3473
827.601	3466
827.741	3462
827.88	3469
828.02	3382
828.159	3450
828.298	3500
828.437	3534
828.577	3504
828.716	3637
828.855	3507
828.994	3382
829.134	3405
829.273	3412
829.412	3344
829.551	3340
829.69	3321
829.829	3466
829.968	3519
830.107	3420
830.246	3416
830.385	3348
830.524	3374
830.663	3348
830.802	3264
830.941	3253
831.08	3211
831.219	3287
831.357	3256
831.496	3405
831.635	3253
831.774	3173
831.913	3169
832.051	3146
832.19	3131
832.329	3199
832.467	3154
832.606	3123
832.744	3184
832.883	3188
833.022	3199
833.16	3306
833.299	3321
833.437	3359
833.576	3416
833.714	3420
833.852	3420
833.991	3454
834.129	3473
834.267	3462
834.406	3424
834.544	3439
834.682	3447
834.821	3416
834.959	3564
835.097	3466
835.235	3507
835.373	3462
835.511	3500
835.65	3477
835.788	3496
835.926	3386
836.064	3382
836.202	3424
836.34	3538
836.478	3633
836.615	3576
836.753	3618
836.891	3633
837.029	3603
837.167	3618
837.305	3572
837.443	3545
837.58	3515
837.718	3599
837.856	3568
837.993	3530
838.131	3618
838.269	3584
838.406	3614
838.544	3561
838.681	3454
838.819	3462
838.956	3374
839.094	3374
839.231	3466
839.369	3557
839.506	3774
839.643	3660
839.781	3515
839.918	3454
840.055	3519
840.193	3519
840.33	3538
840.467	3568
840.604	3652
840.742	3797
840.879	3564
841.016	3587
841.153	3568
841.29	3740
841.427	3736
841.564	3717
841.701	3774
841.838	3720
841.975	3694
842.112	3705
842.249	3641
842.385	3694
842.522	3804
842.659	3679
842.796	3663
842.933	3698
843.069	3709
843.206	3705
843.343	3816
843.479	3797
843.616	3797
843.752	3694
843.889	3747
844.025	3861
844.162	3743
844.298	3850
844.435	3816
844.571	3774
844.708	3964
844.844	3972
844.98	4036
845.117	4044
845.253	3937
845.389	3915
845.525	3964
845.661	4006
845.798	3926
845.934	4025
846.07	3960
846.206	4055
846.342	4097
846.478	4082
846.614	3983
846.75	3979
846.886	3960
847.022	4013
847.158	3991
847.294	4021
847.429	4029
847.565	4021
847.701	4265
847.837	3896
847.972	3857
848.108	3987
848.244	3975
848.379	3915
848.515	3823
848.65	3854
848.786	3876
848.921	3880
849.057	3907
849.192	3934
849.328	3857
849.463	3922
849.598	3850
849.734	3865
849.869	3819
850.004	3778
850.14	3838
850.275	3854
850.41	3751
850.545	3740
850.68	3797
850.815	3789
850.95	3850
851.085	3987
851.22	3873
851.355	3880
851.49	3804
851.625	3808
851.76	3789
851.895	3774
852.03	3759
852.165	3793
852.299	3850
852.434	3918
852.569	3892
852.703	3884
852.838	3941
852.973	3994
853.107	3968
853.242	3888
853.376	3876
853.511	3823
853.645	3850
853.78	4002
853.914	3896
854.048	3892
854.183	3892
854.317	3975
854.451	4090
854.585	3964
854.72	3953
854.854	4051
854.988	3968
855.122	4025
855.256	3960
855.39	4013
855.524	4128
855.658	4139
855.792	4128
855.926	4139
856.06	4185
856.194	4219
856.327	4116
856.461	4150
856.595	4154
856.729	4188
856.862	4325
856.996	4238
857.13	4329
857.263	4337
857.397	4367
857.53	4284
857.664	4333
857.797	4413
857.931	4432
858.064	4405
858.197	4478
858.331	4386
858.464	4367
858.597	4348
858.731	4443
858.864	4474
858.997	4440
859.13	4489
859.263	4558
859.396	4580
859.529	4538
859.662	4546
859.795	4573
859.928	4615
860.061	4717
860.194	4767
860.327	4675
860.46	4694
860.592	4740
860.725	4812
860.858	4778
860.99	4698
861.123	4691
861.256	4687
861.388	4793
861.521	5250
861.653	4786
861.786	4725
861.918	4767
862.05	4809
862.183	4908
862.315	4938
862.447	4911
862.58	4866
862.712	4847
862.844	4771
862.976	4877
863.108	4908
863.24	5284
863.372	4862
863.504	4892
863.636	4881
863.768	5010
863.9	4923
864.032	4953
864.164	4972
864.296	5064
864.428	5052
864.559	5117
864.691	5105
864.823	5147
864.954	5136
865.086	5181
865.217	5159
865.349	5143
865.48	5178
865.612	5189
865.743	5284
865.875	5220
866.006	5170
866.137	5258
866.269	5220
866.4	5258
866.531	5231
866.662	5239
866.793	5258
866.924	5303
867.055	5368
867.186	5357
867.317	5284
867.448	5322
867.579	5398
867.71	5398
867.841	5448
867.972	5433
868.103	5516
868.233	5509
868.364	5532
868.495	5535
868.625	5729
868.756	5813
868.886	5688
869.017	5760
869.147	5870
869.278	5912
869.408	5851
869.539	5840
869.669	5897
869.799	5889
869.929	5988
870.06	6057
870.19	6178
870.32	6243
870.45	6216
870.58	6391
870.71	6418
870.84	6486
870.97	6437
871.1	6464
871.23	6726
871.36	6722
871.489	6692
871.619	6772
871.749	6806
871.879	6890
872.008	6916
872.138	6970
872.267	7000
872.397	7008
872.526	7038
872.656	7145
872.785	7206
872.915	7415
873.044	7499
873.173	7533
873.303	7655
873.432	7807
873.561	7898
873.69	7906
873.819	8050
873.948	8149
874.077	8279
874.206	8351
874.335	8454
874.464	8693
874.593	8861
874.722	8925
874.851	9165
874.979	9241
875.108	9462
875.237	9507
875.365	9515
875.494	9622
875.623	9819
875.751	9789
875.88	10055
876.008	10181
876.136	10291
876.265	10512
876.393	10717
876.521	10759
876.65	10881
876.778	10927
876.906	10961
877.034	10900
877.162	11086
877.29	11197
877.418	11311
877.546	11353
877.674	11509
877.802	11532
877.93	11493
878.058	11528
878.185	11512
878.313	11756
878.441	11707
878.568	11726
878.696	11802
878.824	11817
878.951	11969
879.079	11996
879.206	12228
879.333	11980
879.461	12079
879.588	12148
879.715	11984
879.842	12220
879.97	12003
880.097	11863
880.224	11916
880.351	11912
880.478	11946
880.605	11961
880.732	11859
880.859	11965
880.986	11859
881.112	11859
881.239	11729
881.366	11680
881.493	11558
881.619	11509
881.746	11577
881.872	11436
881.999	11554
882.125	11467
882.252	11558
882.378	11505
882.505	11665
882.631	11353
882.757	11250
882.883	11368
883.01	11311
883.136	11124
883.262	11159
883.388	11105
883.514	11242
883.64	11212
883.766	11102
883.892	11037
884.018	11048
884.143	11090
884.269	11147
884.395	10881
884.52	10809
884.646	10786
884.772	10740
884.897	10653
885.023	10706
885.148	10706
885.274	10790
885.399	10672
885.524	10675
885.65	10569
885.775	10573
885.9	10607
886.025	10577
886.15	10569
886.275	10474
886.4	10474
886.525	10421
886.65	10367
886.775	10360
886.9	10432
887.025	10584
887.149	10436
887.274	10223
887.399	10261
887.523	10196
887.648	10116
887.773	10143
887.897	10284
888.021	10204
888.146	10150
888.27	10185
888.395	10188
888.519	10276
888.643	10223
888.767	10185
888.891	10116
889.015	10112
889.139	10169
889.263	10021
889.387	10139
889.511	10188
889.635	10090
889.759	10002
889.883	9972
890.006	10006
890.13	10128
890.254	10006
890.377	9945
890.501	9865
890.624	9888
890.748	9861
890.871	9751
890.995	9755
891.118	9701
891.241	9743
891.364	9766
891.488	9835
891.611	9804
891.734	9698
891.857	9819
891.98	9736
892.103	9804
892.226	9724
892.349	9644
892.471	9519
892.594	9587
892.717	9564
892.839	9591
892.962	9641
893.085	9667
893.207	9530
893.33	9557
893.452	9469
893.575	9587
893.697	9595
893.819	9576
893.941	9584
894.064	9637
894.186	9488
894.308	9447
894.43	9549
894.552	9534
894.674	9557
894.796	9382
894.918	9370
895.04	9340
895.161	9382
895.283	9321
895.405	9275
895.526	9291
895.648	9256
895.769	9275
895.891	9272
896.012	9272
896.134	9222
896.255	9188
896.376	9112
896.498	9176
896.619	9165
896.74	9104
896.861	9116
896.982	9233
897.103	9420
897.224	9157
897.345	9036
897.466	8963
897.587	9066
897.708	9146
897.828	9070
897.949	8960
898.07	8883
898.19	8902
898.311	9066
898.431	8937
898.552	8944
898.672	8963
898.792	8952
898.913	8921
899.033	8811
899.153	8781
899.273	8655
899.393	8693
899.513	8792
899.633	8697
899.753	8815
899.873	8697
899.993	8750
900.113	8663
900.232	8712
900.352	8617
900.472	8583
900.591	8621
900.711	8697
900.83	8571
900.95	8686
901.069	8739
901.189	8552
901.308	8446
901.427	8377
901.546	8465
901.665	8434
901.784	8499
901.904	8408
902.023	8355
902.141	8195
902.26	8199
902.379	8240
902.498	8168
902.617	8210
902.735	8301
902.854	8271
902.973	8347
903.091	8153
903.21	8153
903.328	8191
903.446	8115
903.565	8046
903.683	8130
903.801	8069
903.919	8134
904.038	8096
904.156	8046
904.274	8054
904.392	7997
904.51	8039
904.627	8005
904.745	8096
904.863	8130
904.981	7925
905.098	7814
905.216	7898
905.334	7894
905.451	7921
905.569	7917
905.686	7932
905.803	7947
905.921	7822
906.038	7849
906.155	7837
906.272	7731
906.389	7708
906.506	7666
906.623	7681
906.74	7620
906.857	7544
906.974	7658
907.091	7597
907.208	7731
907.324	7708
907.441	7552
907.557	7445
907.674	7525
907.79	7438
907.907	7373
908.023	7373
908.139	7441
908.256	7381
908.372	7308
908.488	7377
908.604	7301
908.72	7198
908.836	7270
908.952	7301
909.068	7308
909.184	7324
909.3	7274
909.415	7282
909.531	7316
909.647	7107
909.762	7171
909.878	7126
909.993	7126
910.108	7061
910.224	7126
910.339	7137
910.454	7050
910.57	7004
910.685	6985
910.8	7164
910.915	7160
911.03	7095
911.145	6928
911.259	6875
911.374	6886
911.489	6848
911.604	6806
911.718	6730
911.833	6779
911.947	6738
912.062	6597
912.176	6703
912.291	6749
912.405	6753
912.519	6867
912.633	6848
912.748	6772
912.862	6677
912.976	6646
913.09	6506
913.204	6593
913.318	6620
913.431	6658
913.545	6616
913.659	6734
913.772	6681
913.886	6559
914	6616
914.113	6631
914.226	6673
914.34	6654
914.453	6536
914.566	6642
914.68	6589
914.793	6513
914.906	6365
915.019	6369
915.132	6365
915.245	6426
915.358	6437
915.47	6467
915.583	6429
915.696	6467
915.809	6506
915.921	6544
916.034	6437
916.146	6403
916.259	6391
916.371	6433
916.483	6403
916.595	6350
916.708	6391
916.82	6448
916.932	6460
917.044	6410
917.156	6346
917.268	6353
917.38	6388
917.491	6289
917.603	6380
917.715	6422
917.826	6429
917.938	6365
918.049	6235
918.161	6407
918.272	6414
918.384	6445
918.495	6365
918.606	6357
918.717	6232
918.828	6277
918.939	6277
919.05	6273
919.161	6304
919.272	6197
919.383	6133
919.494	6254
919.604	6441
919.715	6273
919.826	6304
919.936	6232
920.047	6327
920.157	6357
920.267	6471
920.378	6346
920.488	6323
920.598	6532
920.708	6593
920.818	6513
920.928	6471
921.038	6623
921.148	6582
921.258	6376
921.368	6315
921.477	6182
921.587	6243
921.697	6110
921.806	6178
921.916	6110
922.025	5950
922.134	5931
922.244	5885
922.353	5916
922.462	5840
922.571	5859
922.68	5741
922.789	5760
922.898	5710
923.007	5623
923.116	5707
923.224	5691
923.333	5615
923.442	5600
923.55	5596
923.659	5562
923.767	5668
923.876	5543
923.984	5596
924.092	5562
924.201	5551
924.309	5600
924.417	5543
924.525	5512
924.633	5509
924.741	6125
924.849	5444
924.956	5547
925.064	5345
925.172	5280
925.279	5330
925.387	5337
925.494	5315
925.602	5414
925.709	5395
925.816	5326
925.924	5337
926.031	5360
926.138	5345
926.245	5326
926.352	5231
926.459	5360
926.566	5311
926.673	5170
926.779	5151
926.886	5109
926.993	5033
927.099	5033
927.206	4991
927.312	4949
927.419	5025
927.525	4991
927.631	5022
927.737	4923
927.843	4873
927.95	4797
928.056	4839
928.162	4843
928.267	4873
928.373	5364
928.479	4889
928.585	4694
928.69	4828
928.796	4839
928.901	4687
929.007	4649
929.112	4649
929.218	4656
929.323	4607
929.428	4611
929.533	4664
929.638	4580
929.743	4558
929.848	4558
929.953	4527
930.058	4440
930.163	4360
930.267	4386
930.372	4443
930.477	4344
930.581	4485
930.685	4371
930.79	4257
930.894	4325
930.998	4272
931.103	4440
931.207	4150
931.311	4093
931.415	4040
931.519	3941
931.623	3987
