Data from glass_V78500241_1235.txt Node
Date: Wed Sep 01 19:23:03 CST 2021
User: usil
Spectrometer: V785-0024
Trigger mode: 0
Integration Time (sec): 4.000000E-1
Scans to average: 1
Nonlinearity correction enabled: false
Boxcar width: 0
Storing dark spectrum: false
XAxis mode: Wavelengths
Number of Pixels in Spectrum: 1024
>>>>>Begin Spectral Data<<<<<
801.071	3774
801.214	3770
801.356	3740
801.499	3759
801.641	3740
801.783	3827
801.926	3880
802.068	3816
802.211	3880
802.353	3915
802.496	3846
802.638	3869
802.78	3896
802.923	3930
803.065	3926
803.208	3831
803.35	3907
803.492	3911
803.635	3922
803.777	3800
803.919	3880
804.061	4143
804.204	3956
804.346	3979
804.488	3953
804.63	4036
804.773	3953
804.915	4029
805.057	4166
805.199	4048
805.341	4120
805.483	4169
805.626	4185
805.768	4120
805.91	4219
806.052	4246
806.194	4238
806.336	4367
806.478	4223
806.62	4192
806.762	4192
806.904	4246
807.046	4375
807.188	4238
807.33	4207
807.472	4249
807.614	4177
807.756	4268
807.898	4249
808.04	4200
808.182	4314
808.324	4322
808.465	4352
808.607	4481
808.749	4470
808.891	4462
809.033	4519
809.174	4443
809.316	4261
809.458	4242
809.6	4135
809.741	4154
809.883	4185
810.025	4234
810.166	4211
810.308	4192
810.45	4253
810.591	4227
810.733	4265
810.875	4519
811.016	4835
811.158	5121
811.299	5277
811.441	5239
811.582	5067
811.724	4714
811.865	4489
812.007	4478
812.148	4459
812.29	4455
812.431	4417
812.573	4405
812.714	4394
812.855	4417
812.997	4398
813.138	4504
813.279	4383
813.421	4421
813.562	4398
813.703	4360
813.845	4295
813.986	4257
814.127	4253
814.268	4265
814.41	4276
814.551	4230
814.692	4318
814.833	4265
814.974	4341
815.115	4371
815.256	4242
815.397	4246
815.539	4337
815.68	4219
815.821	4234
815.962	4291
816.103	4284
816.244	4284
816.385	4230
816.526	4268
816.666	4230
816.807	4097
816.948	4169
817.089	4166
817.23	4166
817.371	4051
817.512	4048
817.653	4105
817.793	4040
817.934	4025
818.075	4074
818.216	4086
818.356	4082
818.497	3991
818.638	3949
818.778	3922
818.919	3896
819.06	3842
819.2	3930
819.341	3888
819.481	3785
819.622	3896
819.762	4013
819.903	3945
820.043	3907
820.184	3846
820.324	3876
820.465	3941
820.605	3884
820.746	3880
820.886	3804
821.026	3911
821.167	3865
821.307	4002
821.447	3964
821.588	3956
821.728	3945
821.868	3941
822.008	3857
822.149	3949
822.289	3934
822.429	3778
822.569	3797
822.709	3781
822.849	3709
822.99	3747
823.13	3747
823.27	3812
823.41	3717
823.55	3717
823.69	3736
823.83	3778
823.97	3671
824.11	3587
824.25	3614
824.389	3633
824.529	3660
824.669	3644
824.809	3740
824.949	3755
825.089	3713
825.228	3660
825.368	3549
825.508	3564
825.648	3530
825.787	3614
825.927	3660
826.067	3641
826.206	3694
826.346	3819
826.485	3838
826.625	3903
826.765	3994
826.904	3808
827.044	3599
827.183	3500
827.323	3443
827.462	3481
827.601	3450
827.741	3409
827.88	3454
828.02	3405
828.159	3450
828.298	3462
828.437	3507
828.577	3469
828.716	3587
828.855	3515
828.994	3401
829.134	3397
829.273	3382
829.412	3355
829.551	3363
829.69	3351
829.829	3435
829.968	3523
830.107	3469
830.246	3435
830.385	3397
830.524	3370
830.663	3306
830.802	3260
830.941	3188
831.08	3169
831.219	3268
831.357	3302
831.496	3447
831.635	3195
831.774	3211
831.913	3218
832.051	3169
832.19	3161
832.329	3214
832.467	3142
832.606	3123
832.744	3165
832.883	3195
833.022	3226
833.16	3287
833.299	3298
833.437	3340
833.576	3374
833.714	3409
833.852	3447
833.991	3481
834.129	3477
834.267	3481
834.406	3393
834.544	3412
834.682	3420
834.821	3428
834.959	3557
835.097	3431
835.235	3526
835.373	3469
835.511	3523
835.65	3428
835.788	3462
835.926	3393
836.064	3416
836.202	3447
836.34	3549
836.478	3641
836.615	3561
836.753	3606
836.891	3652
837.029	3633
837.167	3584
837.305	3557
837.443	3519
837.58	3504
837.718	3587
837.856	3568
837.993	3584
838.131	3591
838.269	3580
838.406	3580
838.544	3595
838.681	3458
838.819	3481
838.956	3412
839.094	3401
839.231	3416
839.369	3496
839.506	3762
839.643	3644
839.781	3469
839.918	3454
840.055	3542
840.193	3504
840.33	3542
840.467	3572
840.604	3587
840.742	3812
840.879	3542
841.016	3568
841.153	3618
841.29	3778
841.427	3740
841.564	3728
841.701	3740
841.838	3724
841.975	3717
842.112	3751
842.249	3667
842.385	3625
842.522	3835
842.659	3701
842.796	3675
842.933	3698
843.069	3720
843.206	3713
843.343	3835
843.479	3759
843.616	3812
843.752	3663
843.889	3709
844.025	3854
844.162	3747
844.298	3823
844.435	3838
844.571	3804
844.708	3949
844.844	3964
844.98	4040
845.117	3994
845.253	3937
845.389	3857
845.525	3987
845.661	3991
845.798	3922
845.934	4002
846.07	3930
846.206	4055
846.342	4112
846.478	4090
846.614	3953
846.75	3956
846.886	3884
847.022	4051
847.158	3979
847.294	3975
847.429	4021
847.565	3998
847.701	4261
847.837	3903
847.972	3873
848.108	4002
848.244	4017
848.379	3861
848.515	3804
848.65	3816
848.786	3842
848.921	3842
849.057	3960
849.192	3964
849.328	3907
849.463	3915
849.598	3907
849.734	3835
849.869	3876
850.004	3762
850.14	3846
850.275	3781
850.41	3736
850.545	3789
850.68	3800
850.815	3808
850.95	3789
851.085	3899
851.22	3896
851.355	3842
851.49	3797
851.625	3778
851.76	3770
851.895	3759
852.03	3713
852.165	3827
852.299	3861
852.434	3915
852.569	3896
852.703	3846
852.838	3937
852.973	3991
853.107	4021
853.242	3884
853.376	3892
853.511	3781
853.645	3861
853.78	3956
853.914	3884
854.048	3911
854.183	3903
854.317	3945
854.451	4078
854.585	3964
854.72	3964
854.854	4090
854.988	3934
855.122	3964
855.256	3918
855.39	4010
855.524	4071
855.658	4120
855.792	4135
855.926	4188
856.06	4181
856.194	4230
856.327	4120
856.461	4147
856.595	4173
856.729	4181
856.862	4276
856.996	4268
857.13	4303
857.263	4325
857.397	4360
857.53	4329
857.664	4322
857.797	4455
857.931	4421
858.064	4386
858.197	4466
858.331	4409
858.464	4344
858.597	4303
858.731	4459
858.864	4493
858.997	4558
859.13	4470
859.263	4542
859.396	4538
859.529	4550
859.662	4523
859.795	4546
859.928	4645
860.061	4706
860.194	4702
860.327	4679
860.46	4672
860.592	4694
860.725	4771
860.858	4801
860.99	4714
861.123	4687
861.256	4668
861.388	4771
861.521	5288
861.653	4714
861.786	4660
861.918	4729
862.05	4782
862.183	4870
862.315	4889
862.447	4911
862.58	4923
862.712	4801
862.844	4714
862.976	4915
863.108	4850
863.24	5174
863.372	4854
863.504	4866
863.636	4915
863.768	4968
863.9	5033
864.032	4908
864.164	4976
864.296	5064
864.428	5056
864.559	5083
864.691	5147
864.823	5113
864.954	5067
865.086	5105
865.217	5166
865.349	5147
865.48	5136
865.612	5216
865.743	5330
865.875	5166
866.006	5162
866.137	5261
866.269	5277
866.4	5299
866.531	5227
866.662	5235
866.793	5284
866.924	5296
867.055	5353
867.186	5334
867.317	5318
867.448	5307
867.579	5357
867.71	5395
867.841	5376
867.972	5471
868.103	5501
868.233	5452
868.364	5505
868.495	5539
868.625	5646
868.756	5790
868.886	5680
869.017	5779
869.147	5863
869.278	5847
869.408	5824
869.539	5859
869.669	5935
869.799	5958
869.929	5965
870.06	6026
870.19	6194
870.32	6216
870.45	6281
870.58	6266
870.71	6433
870.84	6479
870.97	6380
871.1	6464
871.23	6681
871.36	6730
871.489	6665
871.619	6726
871.749	6802
871.879	6878
872.008	6996
872.138	6977
872.267	6939
872.397	6962
872.526	7031
872.656	7110
872.785	7114
872.915	7392
873.044	7567
873.173	7552
873.303	7639
873.432	7731
873.561	7860
873.69	7879
873.819	8107
873.948	8168
874.077	8210
874.206	8313
874.335	8412
874.464	8678
874.593	8876
874.722	9020
874.851	9112
874.979	9184
875.108	9363
875.237	9412
875.365	9424
875.494	9618
875.623	9819
875.751	9892
875.88	10139
876.008	10181
876.136	10314
876.265	10508
876.393	10687
876.521	10675
876.65	10801
876.778	10900
876.906	10904
877.034	11037
877.162	11151
877.29	11197
877.418	11299
877.546	11292
877.674	11509
877.802	11474
877.93	11459
878.058	11524
878.185	11566
878.313	11649
878.441	11756
878.568	11760
878.696	11866
878.824	11931
878.951	11942
879.079	11946
879.206	12163
879.333	12011
879.461	12007
879.588	12057
879.715	12060
879.842	12216
879.97	12034
880.097	11908
880.224	11824
880.351	11885
880.478	11828
880.605	11920
880.732	11798
880.859	12110
880.986	11783
881.112	11809
881.239	11737
881.366	11710
881.493	11665
881.619	11543
881.746	11596
881.872	11573
881.999	11543
882.125	11524
882.252	11524
882.378	11551
882.505	11543
882.631	11406
882.757	11242
882.883	11421
883.01	11250
883.136	11261
883.262	11105
883.388	11064
883.514	11113
883.64	11151
883.766	11147
883.892	11045
884.018	11060
884.143	11056
884.269	11132
884.395	10809
884.52	10793
884.646	10778
884.772	10714
884.897	10679
885.023	10721
885.148	10710
885.274	10850
885.399	10725
885.524	10626
885.65	10546
885.775	10710
885.9	10588
886.025	10573
886.15	10626
886.275	10504
886.4	10318
886.525	10402
886.65	10344
886.775	10257
886.9	10527
887.025	10550
887.149	10371
887.274	10143
887.399	10150
887.523	10223
887.648	10150
887.773	10173
887.897	10261
888.021	10280
888.146	10120
888.27	10200
888.395	10177
888.519	10150
888.643	10230
888.767	10219
888.891	10059
889.015	9956
889.139	10147
889.263	10051
889.387	10154
889.511	10154
889.635	10124
889.759	9991
889.883	10021
890.006	10002
890.13	10067
890.254	10002
890.377	9888
890.501	9911
890.624	9907
890.748	9915
890.871	9789
890.995	9865
891.118	9679
891.241	9846
891.364	9759
891.488	9797
891.611	9705
891.734	9781
891.857	9785
891.98	9648
892.103	9781
892.226	9732
892.349	9667
892.471	9572
892.594	9606
892.717	9610
892.839	9534
892.962	9641
893.085	9701
893.207	9549
893.33	9504
893.452	9481
893.575	9564
893.697	9500
893.819	9595
893.941	9610
894.064	9603
894.186	9412
894.308	9466
894.43	9511
894.552	9549
894.674	9507
894.796	9363
894.918	9397
895.04	9393
895.161	9355
895.283	9348
895.405	9253
895.526	9218
895.648	9249
895.769	9218
895.891	9233
896.012	9317
896.134	9207
896.255	9245
896.376	9024
896.498	9161
896.619	9127
896.74	9085
896.861	9112
896.982	9310
897.103	9275
897.224	9150
897.345	9058
897.466	9051
897.587	9089
897.708	9138
897.828	9024
897.949	8956
898.07	8937
898.19	8948
898.311	8944
898.431	8895
898.552	8887
898.672	8994
898.792	8994
898.913	8834
899.033	8754
899.153	8796
899.273	8686
899.393	8743
899.513	8777
899.633	8735
899.753	8819
899.873	8716
899.993	8762
900.113	8716
900.232	8705
900.352	8663
900.472	8583
900.591	8571
900.711	8613
900.83	8640
900.95	8602
901.069	8735
901.189	8625
901.308	8438
901.427	8454
901.546	8465
901.665	8465
901.784	8488
901.904	8404
902.023	8328
902.141	8248
902.26	8187
902.379	8343
902.498	8187
902.617	8218
902.735	8313
902.854	8328
902.973	8259
903.091	8142
903.21	8176
903.328	8107
903.446	8107
903.565	8123
903.683	8100
903.801	7944
903.919	8111
904.038	8142
904.156	8084
904.274	8084
904.392	7997
904.51	8031
904.627	8062
904.745	8092
904.863	8119
904.981	7986
905.098	7883
905.216	7932
905.334	7894
905.451	7925
905.569	7849
905.686	7951
905.803	7883
905.921	7689
906.038	7826
906.155	7822
906.272	7753
906.389	7719
906.506	7651
906.623	7616
906.74	7632
906.857	7540
906.974	7601
907.091	7658
907.208	7780
907.324	7620
907.441	7594
907.557	7518
907.674	7457
907.79	7472
907.907	7499
908.023	7441
908.139	7518
908.256	7396
908.372	7384
908.488	7343
908.604	7289
908.72	7217
908.836	7282
908.952	7297
909.068	7282
909.184	7335
909.3	7202
909.415	7320
909.531	7305
909.647	7122
909.762	7137
909.878	7114
909.993	7084
910.108	7103
910.224	7099
910.339	7103
910.454	7069
910.57	7091
910.685	6993
910.8	7194
910.915	7122
911.03	7027
911.145	6913
911.259	6894
911.374	6932
911.489	6833
911.604	6779
911.718	6677
911.833	6673
911.947	6703
912.062	6631
912.176	6665
912.291	6726
912.405	6753
912.519	6878
912.633	6840
912.748	6703
912.862	6612
912.976	6589
913.09	6559
913.204	6582
913.318	6608
913.431	6696
913.545	6658
913.659	6681
913.772	6684
913.886	6601
914	6604
914.113	6585
914.226	6639
914.34	6593
914.453	6498
914.566	6589
914.68	6494
914.793	6578
914.906	6448
915.019	6342
915.132	6388
915.245	6372
915.358	6441
915.47	6448
915.583	6486
915.696	6467
915.809	6593
915.921	6494
916.034	6380
916.146	6399
916.259	6399
916.371	6513
916.483	6513
916.595	6414
916.708	6388
916.82	6391
916.932	6426
917.044	6407
917.156	6414
917.268	6410
917.38	6357
917.491	6327
917.603	6331
917.715	6376
917.826	6414
917.938	6331
918.049	6300
918.161	6376
918.272	6403
918.384	6403
918.495	6346
918.606	6281
918.717	6258
918.828	6277
918.939	6281
919.05	6220
919.161	6262
919.272	6175
919.383	6175
919.494	6281
919.604	6460
919.715	6319
919.826	6254
919.936	6243
920.047	6338
920.157	6239
920.267	6437
920.378	6331
920.488	6270
920.598	6467
920.708	6536
920.818	6448
920.928	6407
921.038	6593
921.148	6540
921.258	6327
921.368	6273
921.477	6300
921.587	6213
921.697	6095
921.806	6197
921.916	6087
922.025	6003
922.134	5927
922.244	5874
922.353	5996
922.462	5832
922.571	5798
922.68	5714
922.789	5684
922.898	5672
923.007	5684
923.116	5668
923.224	5646
923.333	5665
923.442	5642
923.55	5573
923.659	5604
923.767	5649
923.876	5558
923.984	5630
924.092	5497
924.201	5547
924.309	5547
924.417	5581
924.525	5505
924.633	5433
924.741	6289
924.849	5383
924.956	5440
925.064	5414
925.172	5341
925.279	5322
925.387	5357
925.494	5299
925.602	5410
925.709	5414
925.816	5341
925.924	5246
926.031	5440
926.138	5315
926.245	5372
926.352	5258
926.459	5280
926.566	5303
926.673	5231
926.779	5136
926.886	5136
926.993	5075
927.099	5048
927.206	4999
927.312	4980
927.419	5018
927.525	4949
927.631	4991
927.737	4904
927.843	4831
927.95	4809
928.056	4824
928.162	4824
928.267	4866
928.373	5345
928.479	4900
928.585	4721
928.69	4759
928.796	4774
928.901	4702
929.007	4607
929.112	4675
929.218	4653
929.323	4607
929.428	4573
929.533	4710
929.638	4497
929.743	4558
929.848	4592
929.953	4565
930.058	4440
930.163	4367
930.267	4344
930.372	4443
930.477	4341
930.581	4417
930.685	4329
930.79	4284
930.894	4306
930.998	4280
931.103	4367
931.207	4154
931.311	4150
931.415	4048
931.519	3926
931.623	3953
