Data from glass_V78500241_1588.txt Node
Date: Wed Sep 01 19:25:30 CST 2021
User: usil
Spectrometer: V785-0024
Trigger mode: 0
Integration Time (sec): 4.000000E-1
Scans to average: 1
Nonlinearity correction enabled: false
Boxcar width: 0
Storing dark spectrum: false
XAxis mode: Wavelengths
Number of Pixels in Spectrum: 1024
>>>>>Begin Spectral Data<<<<<
801.071	3736
801.214	3751
801.356	3720
801.499	3728
801.641	3717
801.783	3755
801.926	3876
802.068	3808
802.211	3827
802.353	3873
802.496	3842
802.638	3876
802.78	3861
802.923	3930
803.065	3880
803.208	3854
803.35	3838
803.492	3903
803.635	3884
803.777	3766
803.919	3968
804.061	4162
804.204	3972
804.346	3934
804.488	3896
804.63	3998
804.773	3945
804.915	4048
805.057	4154
805.199	4055
805.341	4074
805.483	4135
805.626	4109
805.768	4063
805.91	4223
806.052	4211
806.194	4227
806.336	4344
806.478	4230
806.62	4154
806.762	4204
806.904	4227
807.046	4363
807.188	4234
807.33	4215
807.472	4223
807.614	4200
807.756	4246
807.898	4257
808.04	4215
808.182	4329
808.324	4291
808.465	4363
808.607	4432
808.749	4447
808.891	4440
809.033	4535
809.174	4360
809.316	4261
809.458	4257
809.6	4135
809.741	4135
809.883	4147
810.025	4227
810.166	4238
810.308	4257
810.45	4242
810.591	4219
810.733	4295
810.875	4538
811.016	4816
811.158	5113
811.299	5315
811.441	5337
811.582	5060
811.724	4717
811.865	4497
812.007	4447
812.148	4398
812.29	4379
812.431	4390
812.573	4379
812.714	4409
812.855	4394
812.997	4394
813.138	4481
813.279	4428
813.421	4386
813.562	4383
813.703	4295
813.845	4348
813.986	4265
814.127	4219
814.268	4257
814.41	4318
814.551	4261
814.692	4299
814.833	4268
814.974	4310
815.115	4344
815.256	4329
815.397	4265
815.539	4253
815.68	4219
815.821	4230
815.962	4314
816.103	4253
816.244	4234
816.385	4211
816.526	4318
816.666	4177
816.807	4109
816.948	4204
817.089	4158
817.23	4128
817.371	4086
817.512	4025
817.653	4032
817.793	4048
817.934	4029
818.075	4109
818.216	4090
818.356	4105
818.497	3960
818.638	3922
818.778	3918
818.919	3869
819.06	3842
819.2	3892
819.341	3831
819.481	3865
819.622	3934
819.762	4059
819.903	3953
820.043	3899
820.184	3797
820.324	3823
820.465	3880
820.605	3857
820.746	3888
820.886	3808
821.026	3892
821.167	3922
821.307	3949
821.447	3998
821.588	3964
821.728	3949
821.868	3941
822.008	3838
822.149	3892
822.289	3896
822.429	3804
822.569	3781
822.709	3789
822.849	3690
822.99	3759
823.13	3774
823.27	3785
823.41	3667
823.55	3740
823.69	3728
823.83	3713
823.97	3713
824.11	3599
824.25	3614
824.389	3641
824.529	3686
824.669	3614
824.809	3740
824.949	3774
825.089	3705
825.228	3728
825.368	3545
825.508	3576
825.648	3572
825.787	3610
825.927	3660
826.067	3660
826.206	3694
826.346	3800
826.485	3838
826.625	3850
826.765	3922
826.904	3789
827.044	3633
827.183	3500
827.323	3439
827.462	3515
827.601	3424
827.741	3466
827.88	3447
828.02	3348
828.159	3424
828.298	3443
828.437	3530
828.577	3538
828.716	3568
828.855	3515
828.994	3348
829.134	3355
829.273	3344
829.412	3317
829.551	3351
829.69	3344
829.829	3443
829.968	3523
830.107	3412
830.246	3458
830.385	3382
830.524	3374
830.663	3275
830.802	3268
830.941	3199
831.08	3184
831.219	3268
831.357	3256
831.496	3344
831.635	3237
831.774	3207
831.913	3230
832.051	3112
832.19	3135
832.329	3264
832.467	3116
832.606	3100
832.744	3192
832.883	3173
833.022	3169
833.16	3207
833.299	3329
833.437	3351
833.576	3378
833.714	3370
833.852	3462
833.991	3439
834.129	3492
834.267	3393
834.406	3389
834.544	3416
834.682	3447
834.821	3435
834.959	3545
835.097	3416
835.235	3545
835.373	3492
835.511	3519
835.65	3466
835.788	3466
835.926	3389
836.064	3359
836.202	3389
836.34	3553
836.478	3622
836.615	3557
836.753	3564
836.891	3633
837.029	3606
837.167	3564
837.305	3584
837.443	3519
837.58	3492
837.718	3610
837.856	3557
837.993	3504
838.131	3587
838.269	3603
838.406	3599
838.544	3587
838.681	3515
838.819	3450
838.956	3344
839.094	3435
839.231	3412
839.369	3534
839.506	3800
839.643	3644
839.781	3485
839.918	3454
840.055	3515
840.193	3492
840.33	3515
840.467	3526
840.604	3584
840.742	3854
840.879	3557
841.016	3511
841.153	3591
841.29	3759
841.427	3686
841.564	3751
841.701	3740
841.838	3694
841.975	3660
842.112	3686
842.249	3644
842.385	3591
842.522	3838
842.659	3682
842.796	3694
842.933	3709
843.069	3740
843.206	3720
843.343	3835
843.479	3804
843.616	3778
843.752	3698
843.889	3682
844.025	3857
844.162	3690
844.298	3835
844.435	3759
844.571	3793
844.708	3918
844.844	3975
844.98	4055
845.117	4025
845.253	3934
845.389	3941
845.525	3930
845.661	3998
845.798	3922
845.934	4021
846.07	3945
846.206	4067
846.342	4143
846.478	4082
846.614	3922
846.75	3964
846.886	3907
847.022	4036
847.158	4017
847.294	4010
847.429	4021
847.565	4010
847.701	4219
847.837	3915
847.972	3873
848.108	3949
848.244	3979
848.379	3857
848.515	3816
848.65	3842
848.786	3838
848.921	3861
849.057	3960
849.192	3945
849.328	3918
849.463	3930
849.598	3850
849.734	3861
849.869	3835
850.004	3774
850.14	3831
850.275	3816
850.41	3740
850.545	3770
850.68	3804
850.815	3808
850.95	3892
851.085	3937
851.22	3865
851.355	3823
851.49	3781
851.625	3804
851.76	3838
851.895	3740
852.03	3747
852.165	3755
852.299	3812
852.434	3911
852.569	3892
852.703	3922
852.838	3953
852.973	3987
853.107	3983
853.242	3918
853.376	3869
853.511	3766
853.645	3842
853.78	3949
853.914	3842
854.048	3911
854.183	3888
854.317	3956
854.451	4051
854.585	3975
854.72	3918
854.854	4040
854.988	3960
855.122	3979
855.256	3930
855.39	4013
855.524	4101
855.658	4086
855.792	4128
855.926	4120
856.06	4158
856.194	4227
856.327	4166
856.461	4116
856.595	4143
856.729	4158
856.862	4246
856.996	4211
857.13	4306
857.263	4325
857.397	4356
857.53	4268
857.664	4379
857.797	4363
857.931	4402
858.064	4394
858.197	4443
858.331	4421
858.464	4379
858.597	4367
858.731	4451
858.864	4493
858.997	4443
859.13	4466
859.263	4535
859.396	4565
859.529	4519
859.662	4542
859.795	4504
859.928	4615
860.061	4645
860.194	4744
860.327	4649
860.46	4645
860.592	4740
860.725	4740
860.858	4702
860.99	4672
861.123	4729
861.256	4691
861.388	4824
861.521	5528
861.653	4740
861.786	4618
861.918	4767
862.05	4797
862.183	4866
862.315	4850
862.447	4904
862.58	4908
862.712	4831
862.844	4767
862.976	4915
863.108	4854
863.24	5201
863.372	4824
863.504	4934
863.636	4915
863.768	4911
863.9	4984
864.032	4896
864.164	4984
864.296	5018
864.428	5075
864.559	5109
864.691	5128
864.823	5109
864.954	5075
865.086	5147
865.217	5151
865.349	5113
865.48	5121
865.612	5212
865.743	5326
865.875	5197
866.006	5208
866.137	5227
866.269	5223
866.4	5235
866.531	5288
866.662	5220
866.793	5216
866.924	5292
867.055	5303
867.186	5307
867.317	5303
867.448	5360
867.579	5353
867.71	5368
867.841	5379
867.972	5444
868.103	5501
868.233	5505
868.364	5482
868.495	5558
868.625	5653
868.756	5752
868.886	5661
869.017	5752
869.147	5836
869.278	5870
869.408	5813
869.539	5817
869.669	5935
869.799	5855
869.929	6011
870.06	5992
870.19	6224
870.32	6194
870.45	6296
870.58	6357
870.71	6452
870.84	6441
870.97	6445
871.1	6464
871.23	6620
871.36	6684
871.489	6650
871.619	6696
871.749	6829
871.879	6852
872.008	7019
872.138	7031
872.267	7004
872.397	7012
872.526	6954
872.656	7103
872.785	7213
872.915	7327
873.044	7491
873.173	7533
873.303	7677
873.432	7769
873.561	7868
873.69	7932
873.819	8012
873.948	8206
874.077	8290
874.206	8381
874.335	8454
874.464	8644
874.593	8819
874.722	8971
874.851	9119
874.979	9218
875.108	9382
875.237	9481
875.365	9405
875.494	9652
875.623	9819
875.751	9816
875.88	9949
876.008	10162
876.136	10325
876.265	10550
876.393	10641
876.521	10778
876.65	10809
876.778	10892
876.906	10930
877.034	10976
877.162	11086
877.29	11132
877.418	11360
877.546	11277
877.674	11520
877.802	11444
877.93	11573
878.058	11558
878.185	11528
878.313	11646
878.441	11741
878.568	11627
878.696	11668
878.824	11961
878.951	11920
879.079	11988
879.206	12098
879.333	12026
879.461	12015
879.588	12068
879.715	12076
879.842	12296
879.97	12034
880.097	11878
880.224	11889
880.351	11946
880.478	11878
880.605	11885
880.732	11752
880.859	12053
880.986	11760
881.112	11821
881.239	11688
881.366	11649
881.493	11680
881.619	11611
881.746	11615
881.872	11551
881.999	11455
882.125	11505
882.252	11520
882.378	11486
882.505	11497
882.631	11364
882.757	11322
882.883	11273
883.01	11269
883.136	11246
883.262	11121
883.388	11124
883.514	11227
883.64	11147
883.766	11060
883.892	10961
884.018	11029
884.143	11006
884.269	11067
884.395	10839
884.52	10816
884.646	10812
884.772	10752
884.897	10679
885.023	10755
885.148	10710
885.274	10752
885.399	10698
885.524	10634
885.65	10618
885.775	10523
885.9	10497
886.025	10675
886.15	10569
886.275	10455
886.4	10424
886.525	10440
886.65	10390
886.775	10367
886.9	10519
887.025	10523
887.149	10329
887.274	10162
887.399	10177
887.523	10181
887.648	10086
887.773	10158
887.897	10249
888.021	10181
888.146	10090
888.27	10234
888.395	10177
888.519	10116
888.643	10253
888.767	10192
888.891	10093
889.015	9953
889.139	10002
889.263	10055
889.387	10105
889.511	10101
889.635	10090
889.759	9907
889.883	10002
890.006	9987
890.13	10177
890.254	9960
890.377	9979
890.501	9781
890.624	9861
890.748	9888
890.871	9774
890.995	9774
891.118	9720
891.241	9774
891.364	9728
891.488	9823
891.611	9740
891.734	9755
891.857	9781
891.98	9606
892.103	9785
892.226	9808
892.349	9728
892.471	9576
892.594	9553
892.717	9610
892.839	9663
892.962	9622
893.085	9576
893.207	9545
893.33	9466
893.452	9561
893.575	9622
893.697	9492
893.819	9584
893.941	9629
894.064	9618
894.186	9428
894.308	9367
894.43	9519
894.552	9519
894.674	9530
894.796	9382
894.918	9386
895.04	9386
895.161	9329
895.283	9424
895.405	9287
895.526	9230
895.648	9230
895.769	9298
895.891	9306
896.012	9329
896.134	9298
896.255	9199
896.376	9192
896.498	9161
896.619	9062
896.74	9055
896.861	9051
896.982	9298
897.103	9321
897.224	9154
897.345	9116
897.466	8994
897.587	9047
897.708	9085
897.828	9043
897.949	9001
898.07	8880
898.19	8921
898.311	9009
898.431	8887
898.552	8914
898.672	9009
898.792	8960
898.913	8937
899.033	8739
899.153	8716
899.273	8678
899.393	8762
899.513	8693
899.633	8701
899.753	8750
899.873	8701
899.993	8754
900.113	8689
900.232	8716
900.352	8648
900.472	8560
900.591	8568
900.711	8629
900.83	8518
900.95	8651
901.069	8724
901.189	8598
901.308	8461
901.427	8438
901.546	8389
901.665	8465
901.784	8457
901.904	8389
902.023	8339
902.141	8168
902.26	8210
902.379	8305
902.498	8214
902.617	8259
902.735	8294
902.854	8301
902.973	8271
903.091	8138
903.21	8107
903.328	8138
903.446	8149
903.565	8100
903.683	8142
903.801	8050
903.919	8130
904.038	8126
904.156	7997
904.274	8005
904.392	7989
904.51	8001
904.627	8084
904.745	8043
904.863	8100
904.981	7944
905.098	7849
905.216	7807
905.334	7932
905.451	7894
905.569	7864
905.686	7944
905.803	7814
905.921	7807
906.038	7871
906.155	7761
906.272	7685
906.389	7597
906.506	7670
906.623	7636
906.74	7594
906.857	7510
906.974	7540
907.091	7685
907.208	7746
907.324	7624
907.441	7601
907.557	7491
907.674	7438
907.79	7430
907.907	7384
908.023	7487
908.139	7422
908.256	7426
908.372	7365
908.488	7297
908.604	7270
908.72	7232
908.836	7282
908.952	7187
909.068	7255
909.184	7308
909.3	7217
909.415	7266
909.531	7282
909.647	7065
909.762	7031
909.878	6993
909.993	7129
910.108	7103
910.224	7145
910.339	7057
910.454	7000
910.57	7015
910.685	6875
910.8	7175
910.915	7091
911.03	6993
911.145	6916
911.259	6882
911.374	6875
911.489	6844
911.604	6749
911.718	6707
911.833	6726
911.947	6711
912.062	6608
912.176	6677
912.291	6707
912.405	6681
912.519	6814
912.633	6863
912.748	6787
912.862	6707
912.976	6620
913.09	6517
913.204	6540
913.318	6593
913.431	6711
913.545	6692
913.659	6787
913.772	6684
913.886	6540
914	6582
914.113	6631
914.226	6578
914.34	6623
914.453	6528
914.566	6601
914.68	6486
914.793	6464
914.906	6452
915.019	6418
915.132	6376
915.245	6437
915.358	6448
915.47	6403
915.583	6429
915.696	6513
915.809	6525
915.921	6563
916.034	6395
916.146	6437
916.259	6414
916.371	6525
916.483	6456
916.595	6372
916.708	6403
916.82	6418
916.932	6372
917.044	6426
917.156	6372
917.268	6334
917.38	6361
917.491	6300
917.603	6357
917.715	6410
917.826	6437
917.938	6273
918.049	6254
918.161	6338
918.272	6422
918.384	6429
918.495	6342
918.606	6262
918.717	6216
918.828	6270
918.939	6220
919.05	6209
919.161	6277
919.272	6087
919.383	6152
919.494	6285
919.604	6418
919.715	6281
919.826	6300
919.936	6235
920.047	6372
920.157	6277
920.267	6380
920.378	6315
920.488	6258
920.598	6437
920.708	6574
920.818	6475
920.928	6464
921.038	6566
921.148	6608
921.258	6357
921.368	6353
921.477	6232
921.587	6144
921.697	6095
921.806	6178
921.916	6091
922.025	5958
922.134	5904
922.244	5870
922.353	5931
922.462	5824
922.571	5809
922.68	5722
922.789	5676
922.898	5653
923.007	5596
923.116	5718
923.224	5733
923.333	5676
923.442	5543
923.55	5604
923.659	5600
923.767	5688
923.876	5554
923.984	5638
924.092	5501
924.201	5558
924.309	5566
924.417	5539
924.525	5444
924.633	5505
924.741	6117
924.849	5379
924.956	5509
925.064	5387
925.172	5337
925.279	5292
925.387	5334
925.494	5334
925.602	5421
925.709	5379
925.816	5246
925.924	5311
926.031	5334
926.138	5307
926.245	5311
926.352	5220
926.459	5288
926.566	5292
926.673	5239
926.779	5189
926.886	5162
926.993	5006
927.099	5029
927.206	4995
927.312	4957
927.419	5010
927.525	4999
927.631	4965
927.737	4942
927.843	4866
927.95	4786
928.056	4809
928.162	4820
928.267	4881
928.373	5357
928.479	4843
928.585	4675
928.69	4797
928.796	4736
928.901	4664
929.007	4573
929.112	4653
929.218	4634
929.323	4618
929.428	4573
929.533	4641
929.638	4523
929.743	4561
929.848	4599
929.953	4489
930.058	4421
930.163	4367
930.267	4371
930.372	4409
930.477	4303
930.581	4459
930.685	4356
930.79	4272
930.894	4295
930.998	4268
931.103	4379
931.207	4166
931.311	4116
931.415	4013
931.519	3964
931.623	3949
