Data from glass_V78500241_1065.txt Node
Date: Wed Sep 01 19:21:52 CST 2021
User: usil
Spectrometer: V785-0024
Trigger mode: 0
Integration Time (sec): 4.000000E-1
Scans to average: 1
Nonlinearity correction enabled: false
Boxcar width: 0
Storing dark spectrum: false
XAxis mode: Wavelengths
Number of Pixels in Spectrum: 1024
>>>>>Begin Spectral Data<<<<<
801.071	3720
801.214	3770
801.356	3766
801.499	3740
801.641	3743
801.783	3789
801.926	3896
802.068	3816
802.211	3892
802.353	3934
802.496	3865
802.638	3892
802.78	3930
802.923	3945
803.065	3876
803.208	3838
803.35	3907
803.492	3922
803.635	3918
803.777	3838
803.919	3922
804.061	4169
804.204	3945
804.346	3960
804.488	3907
804.63	4036
804.773	4002
804.915	4032
805.057	4166
805.199	4093
805.341	4112
805.483	4150
805.626	4177
805.768	4105
805.91	4223
806.052	4257
806.194	4238
806.336	4352
806.478	4230
806.62	4158
806.762	4215
806.904	4280
807.046	4341
807.188	4185
807.33	4185
807.472	4223
807.614	4181
807.756	4242
807.898	4238
808.04	4291
808.182	4306
808.324	4333
808.465	4409
808.607	4485
808.749	4474
808.891	4478
809.033	4527
809.174	4451
809.316	4261
809.458	4249
809.6	4131
809.741	4143
809.883	4188
810.025	4219
810.166	4211
810.308	4215
810.45	4242
810.591	4234
810.733	4295
810.875	4535
811.016	4816
811.158	5147
811.299	5265
811.441	5296
811.582	5071
811.724	4691
811.865	4508
812.007	4451
812.148	4493
812.29	4440
812.431	4394
812.573	4367
812.714	4409
812.855	4402
812.997	4447
813.138	4523
813.279	4383
813.421	4383
813.562	4440
813.703	4386
813.845	4344
813.986	4238
814.127	4265
814.268	4257
814.41	4306
814.551	4284
814.692	4348
814.833	4276
814.974	4303
815.115	4329
815.256	4261
815.397	4238
815.539	4284
815.68	4242
815.821	4200
815.962	4303
816.103	4322
816.244	4249
816.385	4257
816.526	4322
816.666	4173
816.807	4112
816.948	4177
817.089	4173
817.23	4158
817.371	4013
817.512	4074
817.653	4093
817.793	4097
817.934	4086
818.075	4112
818.216	4093
818.356	4112
818.497	3979
818.638	3926
818.778	3918
818.919	3899
819.06	3850
819.2	3899
819.341	3865
819.481	3869
819.622	3846
819.762	4055
819.903	3934
820.043	3888
820.184	3876
820.324	3823
820.465	3915
820.605	3876
820.746	3831
820.886	3857
821.026	3945
821.167	3953
821.307	3964
821.447	3964
821.588	3941
821.728	3926
821.868	3972
822.008	3915
822.149	3964
822.289	3934
822.429	3804
822.569	3808
822.709	3812
822.849	3686
822.99	3701
823.13	3808
823.27	3819
823.41	3751
823.55	3751
823.69	3705
823.83	3759
823.97	3698
824.11	3599
824.25	3618
824.389	3679
824.529	3656
824.669	3656
824.809	3709
824.949	3778
825.089	3762
825.228	3713
825.368	3576
825.508	3591
825.648	3618
825.787	3610
825.927	3606
826.067	3622
826.206	3694
826.346	3838
826.485	3812
826.625	3861
826.765	3979
826.904	3865
827.044	3568
827.183	3553
827.323	3439
827.462	3523
827.601	3496
827.741	3458
827.88	3469
828.02	3370
828.159	3424
828.298	3477
828.437	3542
828.577	3458
828.716	3618
828.855	3515
828.994	3409
829.134	3386
829.273	3378
829.412	3351
829.551	3355
829.69	3363
829.829	3397
829.968	3519
830.107	3378
830.246	3431
830.385	3412
830.524	3389
830.663	3306
830.802	3287
830.941	3214
831.08	3226
831.219	3264
831.357	3302
831.496	3386
831.635	3249
831.774	3218
831.913	3199
832.051	3150
832.19	3154
832.329	3203
832.467	3161
832.606	3123
832.744	3169
832.883	3207
833.022	3218
833.16	3272
833.299	3287
833.437	3359
833.576	3329
833.714	3424
833.852	3447
833.991	3473
834.129	3450
834.267	3462
834.406	3370
834.544	3405
834.682	3428
834.821	3416
834.959	3568
835.097	3428
835.235	3538
835.373	3473
835.511	3530
835.65	3485
835.788	3504
835.926	3397
836.064	3382
836.202	3424
836.34	3591
836.478	3606
836.615	3530
836.753	3580
836.891	3663
837.029	3614
837.167	3606
837.305	3599
837.443	3523
837.58	3507
837.718	3618
837.856	3580
837.993	3553
838.131	3591
838.269	3622
838.406	3591
838.544	3610
838.681	3469
838.819	3458
838.956	3325
839.094	3393
839.231	3466
839.369	3507
839.506	3717
839.643	3663
839.781	3534
839.918	3481
840.055	3553
840.193	3519
840.33	3542
840.467	3599
840.604	3610
840.742	3823
840.879	3542
841.016	3591
841.153	3595
841.29	3747
841.427	3701
841.564	3709
841.701	3808
841.838	3682
841.975	3701
842.112	3747
842.249	3622
842.385	3644
842.522	3865
842.659	3713
842.796	3682
842.933	3717
843.069	3728
843.206	3682
843.343	3812
843.479	3793
843.616	3808
843.752	3713
843.889	3705
844.025	3819
844.162	3705
844.298	3819
844.435	3797
844.571	3804
844.708	3911
844.844	3983
844.98	4078
845.117	4017
845.253	3922
845.389	3930
845.525	3972
845.661	3979
845.798	3918
845.934	3991
846.07	4017
846.206	4063
846.342	4158
846.478	4135
846.614	3960
846.75	3949
846.886	3911
847.022	4040
847.158	3983
847.294	3964
847.429	3964
847.565	4010
847.701	4268
847.837	3896
847.972	3869
848.108	4025
848.244	3941
848.379	3876
848.515	3793
848.65	3823
848.786	3884
848.921	3896
849.057	3949
849.192	3960
849.328	3964
849.463	3960
849.598	3861
849.734	3865
849.869	3838
850.004	3789
850.14	3804
850.275	3831
850.41	3755
850.545	3800
850.68	3789
850.815	3838
850.95	3781
851.085	3941
851.22	3861
851.355	3857
851.49	3781
851.625	3774
851.76	3827
851.895	3713
852.03	3732
852.165	3800
852.299	3846
852.434	3934
852.569	3869
852.703	3869
852.838	3922
852.973	3987
853.107	3994
853.242	3903
853.376	3884
853.511	3789
853.645	3854
853.78	3998
853.914	3892
854.048	3907
854.183	3915
854.317	3926
854.451	4097
854.585	3998
854.72	3983
854.854	4025
854.988	3922
855.122	4021
855.256	3941
855.39	4029
855.524	4093
855.658	4139
855.792	4093
855.926	4131
856.06	4188
856.194	4207
856.327	4135
856.461	4166
856.595	4139
856.729	4196
856.862	4306
856.996	4246
857.13	4344
857.263	4356
857.397	4344
857.53	4291
857.664	4360
857.797	4390
857.931	4394
858.064	4398
858.197	4481
858.331	4383
858.464	4386
858.597	4379
858.731	4417
858.864	4481
858.997	4447
859.13	4523
859.263	4561
859.396	4592
859.529	4497
859.662	4531
859.795	4558
859.928	4622
860.061	4710
860.194	4717
860.327	4672
860.46	4672
860.592	4805
860.725	4782
860.858	4782
860.99	4744
861.123	4714
861.256	4710
861.388	4778
861.521	5330
861.653	4736
861.786	4691
861.918	4729
862.05	4820
862.183	4847
862.315	4949
862.447	4976
862.58	4908
862.712	4752
862.844	4771
862.976	4885
863.108	4854
863.24	5239
863.372	4892
863.504	4927
863.636	4908
863.768	4961
863.9	4976
864.032	4938
864.164	5003
864.296	5048
864.428	5166
864.559	5143
864.691	5170
864.823	5132
864.954	5140
865.086	5159
865.217	5113
865.349	5109
865.48	5181
865.612	5151
865.743	5357
865.875	5231
866.006	5170
866.137	5189
866.269	5261
866.4	5250
866.531	5261
866.662	5273
866.793	5303
866.924	5299
867.055	5364
867.186	5353
867.317	5368
867.448	5292
867.579	5368
867.71	5421
867.841	5417
867.972	5474
868.103	5478
868.233	5520
868.364	5478
868.495	5490
868.625	5729
868.756	5783
868.886	5699
869.017	5760
869.147	5855
869.278	5855
869.408	5824
869.539	5828
869.669	5946
869.799	5935
869.929	5950
870.06	5980
870.19	6216
870.32	6167
870.45	6334
870.58	6334
870.71	6403
870.84	6445
870.97	6448
871.1	6456
871.23	6623
871.36	6688
871.489	6589
871.619	6779
871.749	6791
871.879	6882
872.008	6977
872.138	6996
872.267	7053
872.397	7004
872.526	7080
872.656	7133
872.785	7202
872.915	7400
873.044	7518
873.173	7582
873.303	7696
873.432	7727
873.561	7856
873.69	7871
873.819	8016
873.948	8210
874.077	8237
874.206	8351
874.335	8484
874.464	8613
874.593	8842
874.722	8979
874.851	9176
874.979	9249
875.108	9386
875.237	9462
875.365	9488
875.494	9637
875.623	9854
875.751	9789
875.88	10021
876.008	10150
876.136	10166
876.265	10561
876.393	10672
876.521	10694
876.65	10774
876.778	10930
876.906	10869
877.034	11033
877.162	11064
877.29	11159
877.418	11239
877.546	11356
877.674	11528
877.802	11505
877.93	11520
878.058	11573
878.185	11600
878.313	11577
878.441	11688
878.568	11699
878.696	11767
878.824	11920
878.951	11980
879.079	12049
879.206	12133
879.333	12117
879.461	12034
879.588	12167
879.715	12041
879.842	12182
879.97	12117
880.097	11794
880.224	11923
880.351	11851
880.478	11885
880.605	11855
880.732	11882
880.859	11950
880.986	11779
881.112	11889
881.239	11733
881.366	11634
881.493	11600
881.619	11490
881.746	11562
881.872	11509
881.999	11501
882.125	11642
882.252	11611
882.378	11512
882.505	11577
882.631	11364
882.757	11254
882.883	11387
883.01	11284
883.136	11181
883.262	11162
883.388	11037
883.514	11204
883.64	11151
883.766	11140
883.892	11045
884.018	10957
884.143	11045
884.269	11140
884.395	10858
884.52	10881
884.646	10755
884.772	10736
884.897	10721
885.023	10721
885.148	10763
885.274	10793
885.399	10717
885.524	10672
885.65	10618
885.775	10683
885.9	10504
886.025	10656
886.15	10615
886.275	10550
886.4	10363
886.525	10390
886.65	10390
886.775	10344
886.9	10519
887.025	10542
887.149	10318
887.274	10272
887.399	10223
887.523	10162
887.648	10120
887.773	10101
887.897	10284
888.021	10227
888.146	10173
888.27	10253
888.395	10253
888.519	10192
888.643	10227
888.767	10173
888.891	10097
889.015	10032
889.139	10090
889.263	10032
889.387	10025
889.511	10169
889.635	10029
889.759	9956
889.883	9987
890.006	10071
890.13	10086
890.254	10017
890.377	10002
890.501	9861
890.624	9846
890.748	9937
890.871	9876
890.995	9736
891.118	9682
891.241	9720
891.364	9785
891.488	9797
891.611	9679
891.734	9671
891.857	9755
891.98	9686
892.103	9740
892.226	9682
892.349	9728
892.471	9568
892.594	9568
892.717	9648
892.839	9629
892.962	9675
893.085	9633
893.207	9599
893.33	9568
893.452	9485
893.575	9629
893.697	9523
893.819	9663
893.941	9652
894.064	9660
894.186	9447
894.308	9393
894.43	9477
894.552	9576
894.674	9591
894.796	9405
894.918	9412
895.04	9370
895.161	9443
895.283	9408
895.405	9283
895.526	9317
895.648	9260
895.769	9287
895.891	9249
896.012	9317
896.134	9249
896.255	9131
896.376	9146
896.498	9161
896.619	9112
896.74	9009
896.861	9100
896.982	9313
897.103	9313
897.224	9275
897.345	9047
897.466	9043
897.587	9074
897.708	9085
897.828	9097
897.949	8979
898.07	8948
898.19	8948
898.311	9043
898.431	8929
898.552	8979
898.672	8952
898.792	8979
898.913	8975
899.033	8830
899.153	8720
899.273	8708
899.393	8754
899.513	8785
899.633	8777
899.753	8743
899.873	8724
899.993	8746
900.113	8697
900.232	8777
900.352	8617
900.472	8610
900.591	8556
900.711	8587
900.83	8495
900.95	8705
901.069	8659
901.189	8568
901.308	8423
901.427	8419
901.546	8511
901.665	8473
901.784	8480
901.904	8396
902.023	8351
902.141	8263
902.26	8142
902.379	8279
902.498	8252
902.617	8248
902.735	8362
902.854	8240
902.973	8332
903.091	8100
903.21	8195
903.328	8180
903.446	8126
903.565	8111
903.683	8069
903.801	8145
903.919	8084
904.038	8149
904.156	8046
904.274	8065
904.392	7989
904.51	8073
904.627	8058
904.745	8123
904.863	8180
904.981	7959
905.098	7860
905.216	7833
905.334	7982
905.451	7936
905.569	7883
905.686	7974
905.803	7921
905.921	7772
906.038	7852
906.155	7792
906.272	7727
906.389	7731
906.506	7643
906.623	7731
906.74	7533
906.857	7594
906.974	7582
907.091	7693
907.208	7795
907.324	7632
907.441	7556
907.557	7422
907.674	7396
907.79	7426
907.907	7411
908.023	7464
908.139	7480
908.256	7381
908.372	7392
908.488	7343
908.604	7263
908.72	7255
908.836	7278
908.952	7263
909.068	7293
909.184	7327
909.3	7285
909.415	7278
909.531	7320
909.647	7133
909.762	7129
909.878	7110
909.993	7126
910.108	7050
910.224	7099
910.339	7103
910.454	7072
910.57	6996
910.685	6977
910.8	7107
910.915	7084
911.03	7072
911.145	6981
911.259	6894
911.374	6932
911.489	6806
911.604	6814
911.718	6726
911.833	6760
911.947	6722
912.062	6578
912.176	6665
912.291	6726
912.405	6726
912.519	6897
912.633	6814
912.748	6764
912.862	6715
912.976	6650
913.09	6517
913.204	6555
913.318	6604
913.431	6688
913.545	6703
913.659	6700
913.772	6696
913.886	6521
914	6597
914.113	6662
914.226	6658
914.34	6604
914.453	6566
914.566	6566
914.68	6490
914.793	6494
914.906	6418
915.019	6380
915.132	6399
915.245	6407
915.358	6395
915.47	6498
915.583	6426
915.696	6479
915.809	6532
915.921	6502
916.034	6437
916.146	6418
916.259	6407
916.371	6547
916.483	6486
916.595	6422
916.708	6429
916.82	6399
916.932	6426
917.044	6414
917.156	6380
917.268	6311
917.38	6395
917.491	6327
917.603	6372
917.715	6399
917.826	6513
917.938	6304
918.049	6273
918.161	6334
918.272	6448
918.384	6452
918.495	6350
918.606	6270
918.717	6239
918.828	6232
918.939	6311
919.05	6216
919.161	6224
919.272	6114
919.383	6114
919.494	6232
919.604	6407
919.715	6289
919.826	6209
919.936	6220
920.047	6353
920.157	6353
920.267	6426
920.378	6334
920.488	6327
920.598	6471
920.708	6635
920.818	6460
920.928	6441
921.038	6620
921.148	6544
921.258	6350
921.368	6407
921.477	6247
921.587	6186
921.697	6106
921.806	6182
921.916	6011
922.025	5996
922.134	5912
922.244	5920
922.353	5923
922.462	5847
922.571	5805
922.68	5737
922.789	5688
922.898	5729
923.007	5676
923.116	5676
923.224	5657
923.333	5653
923.442	5615
923.55	5573
923.659	5646
923.767	5661
923.876	5592
923.984	5573
924.092	5482
924.201	5554
924.309	5532
924.417	5532
924.525	5463
924.633	5528
924.741	6281
924.849	5372
924.956	5486
925.064	5353
925.172	5299
925.279	5280
925.387	5353
925.494	5337
925.602	5429
925.709	5395
925.816	5288
925.924	5337
926.031	5357
926.138	5357
926.245	5379
926.352	5258
926.459	5334
926.566	5372
926.673	5223
926.779	5178
926.886	5155
926.993	4999
927.099	4995
927.206	4972
927.312	5010
927.419	5025
927.525	4976
927.631	5003
927.737	4908
927.843	4816
927.95	4828
928.056	4831
928.162	4866
928.267	4828
928.373	5349
928.479	4911
928.585	4683
928.69	4752
928.796	4820
928.901	4683
929.007	4573
929.112	4672
929.218	4569
929.323	4615
929.428	4573
929.533	4668
929.638	4500
929.743	4542
929.848	4538
929.953	4519
930.058	4436
930.163	4287
930.267	4390
930.372	4432
930.477	4299
930.581	4493
930.685	4348
930.79	4314
930.894	4280
930.998	4238
931.103	4394
931.207	4128
931.311	4105
931.415	4036
931.519	3937
931.623	3918
