Data from glass_V78500241_633.txt Node
Date: Wed Sep 01 19:18:53 CST 2021
User: usil
Spectrometer: V785-0024
Trigger mode: 0
Integration Time (sec): 4.000000E-1
Scans to average: 1
Nonlinearity correction enabled: false
Boxcar width: 0
Storing dark spectrum: false
XAxis mode: Wavelengths
Number of Pixels in Spectrum: 1024
>>>>>Begin Spectral Data<<<<<
801.071	3759
801.214	3713
801.356	3747
801.499	3747
801.641	3740
801.783	3789
801.926	3854
802.068	3816
802.211	3907
802.353	3926
802.496	3857
802.638	3846
802.78	3892
802.923	3949
803.065	3937
803.208	3869
803.35	3876
803.492	3892
803.635	3899
803.777	3842
803.919	3926
804.061	4185
804.204	3987
804.346	3983
804.488	3945
804.63	4029
804.773	3972
804.915	4032
805.057	4135
805.199	4048
805.341	4147
805.483	4185
805.626	4124
805.768	4101
805.91	4211
806.052	4242
806.194	4253
806.336	4337
806.478	4234
806.62	4181
806.762	4150
806.904	4272
807.046	4337
807.188	4230
807.33	4200
807.472	4200
807.614	4177
807.756	4253
807.898	4227
808.04	4211
808.182	4322
808.324	4295
808.465	4379
808.607	4455
808.749	4478
808.891	4459
809.033	4516
809.174	4466
809.316	4249
809.458	4276
809.6	4135
809.741	4169
809.883	4154
810.025	4204
810.166	4204
810.308	4246
810.45	4257
810.591	4223
810.733	4291
810.875	4550
811.016	4828
811.158	5204
811.299	5322
811.441	5307
811.582	5121
811.724	4778
811.865	4538
812.007	4462
812.148	4440
812.29	4470
812.431	4432
812.573	4379
812.714	4394
812.855	4436
812.997	4371
813.138	4500
813.279	4405
813.421	4356
813.562	4428
813.703	4352
813.845	4337
813.986	4249
814.127	4227
814.268	4272
814.41	4249
814.551	4242
814.692	4337
814.833	4276
814.974	4303
815.115	4405
815.256	4280
815.397	4196
815.539	4280
815.68	4219
815.821	4234
815.962	4360
816.103	4257
816.244	4242
816.385	4268
816.526	4303
816.666	4200
816.807	4093
816.948	4162
817.089	4192
817.23	4120
817.371	4109
817.512	4029
817.653	4093
817.793	4105
817.934	4036
818.075	4120
818.216	4071
818.356	4078
818.497	4029
818.638	3930
818.778	3926
818.919	3903
819.06	3865
819.2	3926
819.341	3846
819.481	3903
819.622	3869
819.762	4032
819.903	3979
820.043	3850
820.184	3880
820.324	3842
820.465	3846
820.605	3857
820.746	3873
820.886	3831
821.026	3949
821.167	3911
821.307	3983
821.447	3987
821.588	3994
821.728	3964
821.868	3968
822.008	3869
822.149	3930
822.289	3945
822.429	3797
822.569	3785
822.709	3819
822.849	3694
822.99	3743
823.13	3778
823.27	3831
823.41	3762
823.55	3770
823.69	3736
823.83	3751
823.97	3679
824.11	3629
824.25	3618
824.389	3686
824.529	3675
824.669	3660
824.809	3759
824.949	3759
825.089	3732
825.228	3698
825.368	3622
825.508	3610
825.648	3610
825.787	3603
825.927	3652
826.067	3610
826.206	3671
826.346	3804
826.485	3873
826.625	3869
826.765	3945
826.904	3876
827.044	3633
827.183	3500
827.323	3424
827.462	3507
827.601	3428
827.741	3378
827.88	3454
828.02	3359
828.159	3450
828.298	3492
828.437	3496
828.577	3496
828.716	3553
828.855	3496
828.994	3435
829.134	3397
829.273	3412
829.412	3374
829.551	3367
829.69	3401
829.829	3473
829.968	3557
830.107	3458
830.246	3447
830.385	3359
830.524	3367
830.663	3310
830.802	3249
830.941	3188
831.08	3226
831.219	3325
831.357	3291
831.496	3397
831.635	3253
831.774	3211
831.913	3222
832.051	3165
832.19	3138
832.329	3253
832.467	3138
832.606	3119
832.744	3188
832.883	3188
833.022	3211
833.16	3298
833.299	3298
833.437	3321
833.576	3401
833.714	3428
833.852	3469
833.991	3496
834.129	3500
834.267	3439
834.406	3424
834.544	3435
834.682	3428
834.821	3393
834.959	3595
835.097	3435
835.235	3553
835.373	3473
835.511	3500
835.65	3469
835.788	3469
835.926	3412
836.064	3397
836.202	3428
836.34	3530
836.478	3637
836.615	3580
836.753	3610
836.891	3614
837.029	3656
837.167	3629
837.305	3591
837.443	3526
837.58	3515
837.718	3625
837.856	3561
837.993	3568
838.131	3641
838.269	3595
838.406	3568
838.544	3572
838.681	3454
838.819	3450
838.956	3374
839.094	3367
839.231	3454
839.369	3568
839.506	3728
839.643	3618
839.781	3534
839.918	3428
840.055	3564
840.193	3534
840.33	3580
840.467	3572
840.604	3618
840.742	3785
840.879	3542
841.016	3576
841.153	3576
841.29	3789
841.427	3717
841.564	3713
841.701	3812
841.838	3732
841.975	3701
842.112	3759
842.249	3637
842.385	3614
842.522	3831
842.659	3720
842.796	3705
842.933	3724
843.069	3694
843.206	3717
843.343	3808
843.479	3793
843.616	3850
843.752	3709
843.889	3709
844.025	3857
844.162	3747
844.298	3838
844.435	3785
844.571	3804
844.708	3915
844.844	4044
844.98	4013
845.117	4044
845.253	3903
845.389	3884
845.525	3987
845.661	4017
845.798	3934
845.934	3983
846.07	3964
846.206	4044
846.342	4166
846.478	4086
846.614	3930
846.75	3960
846.886	3960
847.022	4025
847.158	4013
847.294	4021
847.429	4036
847.565	4013
847.701	4257
847.837	3941
847.972	3884
848.108	4006
848.244	3994
848.379	3880
848.515	3838
848.65	3816
848.786	3861
848.921	3896
849.057	3964
849.192	3968
849.328	3915
849.463	3896
849.598	3918
849.734	3896
849.869	3842
850.004	3793
850.14	3842
850.275	3800
850.41	3728
850.545	3759
850.68	3797
850.815	3781
850.95	3800
851.085	3934
851.22	3869
851.355	3816
851.49	3816
851.625	3781
851.76	3789
851.895	3743
852.03	3728
852.165	3789
852.299	3861
852.434	3926
852.569	3846
852.703	3888
852.838	3964
852.973	3998
853.107	3998
853.242	3941
853.376	3861
853.511	3835
853.645	3850
853.78	3983
853.914	3937
854.048	3915
854.183	3903
854.317	3975
854.451	4067
854.585	3960
854.72	3941
854.854	4063
854.988	3922
855.122	4017
855.256	3956
855.39	4055
855.524	4147
855.658	4063
855.792	4101
855.926	4158
856.06	4177
856.194	4204
856.327	4131
856.461	4150
856.595	4177
856.729	4150
856.862	4265
856.996	4227
857.13	4295
857.263	4371
857.397	4390
857.53	4314
857.664	4371
857.797	4413
857.931	4436
858.064	4390
858.197	4500
858.331	4390
858.464	4356
858.597	4352
858.731	4447
858.864	4470
858.997	4489
859.13	4554
859.263	4592
859.396	4588
859.529	4481
859.662	4569
859.795	4550
859.928	4580
860.061	4733
860.194	4774
860.327	4691
860.46	4622
860.592	4752
860.725	4748
860.858	4782
860.99	4668
861.123	4706
861.256	4683
861.388	4771
861.521	5280
861.653	4755
861.786	4725
861.918	4759
862.05	4790
862.183	4831
862.315	4908
862.447	4927
862.58	4892
862.712	4816
862.844	4782
862.976	4927
863.108	4873
863.24	5166
863.372	4870
863.504	4881
863.636	4927
863.768	5003
863.9	4953
864.032	4995
864.164	4972
864.296	5056
864.428	5143
864.559	5140
864.691	5098
864.823	5170
864.954	5075
865.086	5170
865.217	5128
865.349	5109
865.48	5193
865.612	5239
865.743	5349
865.875	5246
866.006	5223
866.137	5235
866.269	5299
866.4	5284
866.531	5254
866.662	5246
866.793	5265
866.924	5303
867.055	5315
867.186	5349
867.317	5349
867.448	5322
867.579	5376
867.71	5395
867.841	5421
867.972	5444
868.103	5505
868.233	5535
868.364	5528
868.495	5589
868.625	5680
868.756	5863
868.886	5672
869.017	5767
869.147	5844
869.278	5893
869.408	5817
869.539	5824
869.669	5912
869.799	5958
869.929	6030
870.06	6041
870.19	6243
870.32	6224
870.45	6311
870.58	6308
870.71	6433
870.84	6452
870.97	6437
871.1	6475
871.23	6646
871.36	6734
871.489	6684
871.619	6757
871.749	6802
871.879	6924
872.008	7004
872.138	6951
872.267	7072
872.397	7031
872.526	7061
872.656	7126
872.785	7251
872.915	7346
873.044	7521
873.173	7567
873.303	7636
873.432	7795
873.561	7833
873.69	7963
873.819	8100
873.948	8142
874.077	8282
874.206	8366
874.335	8400
874.464	8659
874.593	8830
874.722	8933
874.851	9180
874.979	9279
875.108	9386
875.237	9447
875.365	9542
875.494	9580
875.623	9823
875.751	9808
875.88	10010
876.008	10177
876.136	10249
876.265	10622
876.393	10637
876.521	10725
876.65	10862
876.778	10934
876.906	10965
877.034	10987
877.162	11094
877.29	11189
877.418	11280
877.546	11372
877.674	11398
877.802	11539
877.93	11562
878.058	11573
878.185	11551
878.313	11649
878.441	11726
878.568	11672
878.696	11798
878.824	11878
878.951	11923
879.079	12060
879.206	12175
879.333	12114
879.461	12045
879.588	12186
879.715	12102
879.842	12209
879.97	12125
880.097	11939
880.224	11851
880.351	11920
880.478	11870
880.605	11878
880.732	11851
880.859	11965
880.986	11851
881.112	11916
881.239	11745
881.366	11672
881.493	11699
881.619	11573
881.746	11539
881.872	11566
881.999	11493
882.125	11421
882.252	11577
882.378	11490
882.505	11520
882.631	11414
882.757	11307
882.883	11296
883.01	11250
883.136	11235
883.262	11143
883.388	11136
883.514	11132
883.64	11269
883.766	11109
883.892	11075
884.018	11052
884.143	11083
884.269	11083
884.395	10805
884.52	10771
884.646	10668
884.772	10721
884.897	10649
885.023	10702
885.148	10717
885.274	10809
885.399	10755
885.524	10584
885.65	10645
885.775	10573
885.9	10531
886.025	10523
886.15	10573
886.275	10508
886.4	10443
886.525	10409
886.65	10379
886.775	10344
886.9	10485
887.025	10504
887.149	10394
887.274	10284
887.399	10227
887.523	10181
887.648	10227
887.773	10139
887.897	10268
888.021	10230
888.146	10158
888.27	10223
888.395	10200
888.519	10219
888.643	10135
888.767	10154
888.891	10090
889.015	10082
889.139	10074
889.263	10021
889.387	10101
889.511	10105
889.635	10036
889.759	9960
889.883	9998
890.006	10040
890.13	10116
890.254	9991
890.377	9998
890.501	9831
890.624	9937
890.748	9876
890.871	9808
890.995	9781
891.118	9679
891.241	9816
891.364	9762
891.488	9800
891.611	9778
891.734	9720
891.857	9778
891.98	9804
892.103	9755
892.226	9709
892.349	9675
892.471	9492
892.594	9618
892.717	9728
892.839	9656
892.962	9682
893.085	9656
893.207	9572
893.33	9584
893.452	9519
893.575	9599
893.697	9496
893.819	9686
893.941	9618
894.064	9709
894.186	9511
894.308	9435
894.43	9572
894.552	9557
894.674	9542
894.796	9393
894.918	9317
895.04	9416
895.161	9329
895.283	9348
895.405	9272
895.526	9298
895.648	9161
895.769	9241
895.891	9268
896.012	9313
896.134	9302
896.255	9169
896.376	9093
896.498	9142
896.619	9089
896.74	9097
896.861	9123
896.982	9317
897.103	9279
897.224	9176
897.345	9146
897.466	9058
897.587	9017
897.708	9165
897.828	9047
897.949	9009
898.07	8895
898.19	8933
898.311	8967
898.431	8929
898.552	8944
898.672	9036
898.792	8956
898.913	8925
899.033	8815
899.153	8804
899.273	8712
899.393	8739
899.513	8785
899.633	8735
899.753	8727
899.873	8712
899.993	8750
900.113	8758
900.232	8667
900.352	8648
900.472	8526
900.591	8556
900.711	8613
900.83	8613
900.95	8686
901.069	8739
901.189	8667
901.308	8461
901.427	8454
901.546	8518
901.665	8488
901.784	8476
901.904	8499
902.023	8328
902.141	8229
902.26	8275
902.379	8298
902.498	8202
902.617	8271
902.735	8252
902.854	8290
902.973	8237
903.091	8077
903.21	8111
903.328	8161
903.446	8096
903.565	8134
903.683	8123
903.801	8115
903.919	8161
904.038	8172
904.156	8058
904.274	8103
904.392	8062
904.51	8039
904.627	8100
904.745	8153
904.863	8164
904.981	7955
905.098	7906
905.216	7944
905.334	7967
905.451	7875
905.569	7947
905.686	7913
905.803	7887
905.921	7784
906.038	7856
906.155	7795
906.272	7776
906.389	7753
906.506	7693
906.623	7704
906.74	7677
906.857	7563
906.974	7605
907.091	7658
907.208	7738
907.324	7616
907.441	7586
907.557	7411
907.674	7499
907.79	7381
907.907	7373
908.023	7426
908.139	7434
908.256	7396
908.372	7381
908.488	7384
908.604	7289
908.72	7305
908.836	7278
908.952	7270
909.068	7278
909.184	7320
909.3	7297
909.415	7259
909.531	7331
909.647	7164
909.762	7126
909.878	7110
909.993	7103
910.108	7103
910.224	7145
910.339	7084
910.454	7031
910.57	7057
910.685	6966
910.8	7168
910.915	7126
911.03	7042
911.145	6878
911.259	6993
911.374	6875
911.489	6909
911.604	6818
911.718	6749
911.833	6722
911.947	6700
912.062	6684
912.176	6700
912.291	6760
912.405	6665
912.519	6829
912.633	6867
912.748	6760
912.862	6783
912.976	6658
913.09	6532
913.204	6658
913.318	6642
913.431	6700
913.545	6654
913.659	6715
913.772	6646
913.886	6563
914	6574
914.113	6631
914.226	6673
914.34	6585
914.453	6490
914.566	6601
914.68	6612
914.793	6517
914.906	6441
915.019	6452
915.132	6399
915.245	6448
915.358	6433
915.47	6494
915.583	6452
915.696	6452
915.809	6509
915.921	6635
916.034	6464
916.146	6403
916.259	6395
916.371	6536
916.483	6437
916.595	6456
916.708	6441
916.82	6433
916.932	6399
917.044	6456
917.156	6350
917.268	6353
917.38	6315
917.491	6380
917.603	6350
917.715	6353
917.826	6422
917.938	6460
918.049	6270
918.161	6262
918.272	6376
918.384	6388
918.495	6338
918.606	6266
918.717	6266
918.828	6292
918.939	6262
919.05	6194
919.161	6167
919.272	6159
919.383	6098
919.494	6270
919.604	6437
919.715	6270
919.826	6266
919.936	6232
920.047	6346
920.157	6285
920.267	6445
920.378	6334
920.488	6251
920.598	6486
920.708	6642
920.818	6528
920.928	6456
921.038	6578
921.148	6612
921.258	6308
921.368	6353
921.477	6220
921.587	6213
921.697	6068
921.806	6205
921.916	6091
922.025	5954
922.134	5946
922.244	5824
922.353	5946
922.462	5885
922.571	5821
922.68	5729
922.789	5722
922.898	5726
923.007	5676
923.116	5699
923.224	5718
923.333	5653
923.442	5627
923.55	5592
923.659	5608
923.767	5600
923.876	5570
923.984	5608
924.092	5516
924.201	5528
924.309	5573
924.417	5573
924.525	5501
924.633	5535
924.741	6357
924.849	5387
924.956	5493
925.064	5353
925.172	5330
925.279	5364
925.387	5357
925.494	5318
925.602	5417
925.709	5391
925.816	5315
925.924	5345
926.031	5398
926.138	5277
926.245	5368
926.352	5269
926.459	5292
926.566	5341
926.673	5239
926.779	5109
926.886	5162
926.993	5052
927.099	5086
927.206	4949
927.312	5025
927.419	5060
927.525	5029
927.631	4984
927.737	4885
927.843	4881
927.95	4812
928.056	4862
928.162	4831
928.267	4904
928.373	5273
928.479	4843
928.585	4733
928.69	4752
928.796	4812
928.901	4714
929.007	4660
929.112	4660
929.218	4596
929.323	4607
929.428	4546
929.533	4649
929.638	4497
929.743	4584
929.848	4561
929.953	4546
930.058	4474
930.163	4383
930.267	4375
930.372	4455
930.477	4352
930.581	4470
930.685	4344
930.79	4261
930.894	4291
930.998	4246
931.103	4375
931.207	4128
931.311	4055
931.415	4074
931.519	3983
931.623	3930
