Data from glass_V78500241_2649.txt Node
Date: Wed Sep 01 19:32:51 CST 2021
User: usil
Spectrometer: V785-0024
Trigger mode: 0
Integration Time (sec): 4.000000E-1
Scans to average: 1
Nonlinearity correction enabled: false
Boxcar width: 0
Storing dark spectrum: false
XAxis mode: Wavelengths
Number of Pixels in Spectrum: 1024
>>>>>Begin Spectral Data<<<<<
801.071	3717
801.214	3732
801.356	3652
801.499	3720
801.641	3732
801.783	3728
801.926	3846
802.068	3835
802.211	3838
802.353	3857
802.496	3827
802.638	3854
802.78	3854
802.923	3888
803.065	3880
803.208	3823
803.35	3861
803.492	3918
803.635	3918
803.777	3838
803.919	3854
804.061	4139
804.204	3979
804.346	3915
804.488	3915
804.63	4032
804.773	3968
804.915	4032
805.057	4112
805.199	4032
805.341	4093
805.483	4124
805.626	4124
805.768	4090
805.91	4215
806.052	4207
806.194	4215
806.336	4371
806.478	4246
806.62	4154
806.762	4185
806.904	4242
807.046	4333
807.188	4192
807.33	4177
807.472	4249
807.614	4166
807.756	4246
807.898	4173
808.04	4177
808.182	4238
808.324	4325
808.465	4383
808.607	4394
808.749	4424
808.891	4451
809.033	4455
809.174	4371
809.316	4249
809.458	4242
809.6	4150
809.741	4131
809.883	4158
810.025	4227
810.166	4166
810.308	4204
810.45	4284
810.591	4204
810.733	4295
810.875	4478
811.016	4793
811.158	5128
811.299	5292
811.441	5299
811.582	5045
811.724	4668
811.865	4443
812.007	4478
812.148	4443
812.29	4447
812.431	4375
812.573	4417
812.714	4363
812.855	4344
812.997	4398
813.138	4436
813.279	4333
813.421	4344
813.562	4394
813.703	4322
813.845	4261
813.986	4257
814.127	4211
814.268	4310
814.41	4268
814.551	4207
814.692	4314
814.833	4215
814.974	4318
815.115	4341
815.256	4287
815.397	4204
815.539	4265
815.68	4207
815.821	4215
815.962	4322
816.103	4257
816.244	4223
816.385	4207
816.526	4276
816.666	4223
816.807	4074
816.948	4128
817.089	4169
817.23	4090
817.371	4032
817.512	4048
817.653	4090
817.793	4040
817.934	4071
818.075	4093
818.216	4074
818.356	4074
818.497	3960
818.638	3922
818.778	3918
818.919	3861
819.06	3816
819.2	3880
819.341	3850
819.481	3850
819.622	3915
819.762	4044
819.903	3941
820.043	3876
820.184	3804
820.324	3854
820.465	3869
820.605	3892
820.746	3861
820.886	3823
821.026	3899
821.167	3903
821.307	3953
821.447	3964
821.588	3964
821.728	3911
821.868	3899
822.008	3857
822.149	3915
822.289	3922
822.429	3774
822.569	3755
822.709	3789
822.849	3705
822.99	3663
823.13	3743
823.27	3800
823.41	3728
823.55	3705
823.69	3724
823.83	3751
823.97	3701
824.11	3591
824.25	3564
824.389	3629
824.529	3679
824.669	3606
824.809	3667
824.949	3732
825.089	3698
825.228	3667
825.368	3576
825.508	3542
825.648	3580
825.787	3587
825.927	3660
826.067	3629
826.206	3682
826.346	3755
826.485	3797
826.625	3835
826.765	3915
826.904	3819
827.044	3576
827.183	3545
827.323	3397
827.462	3473
827.601	3397
827.741	3374
827.88	3420
828.02	3313
828.159	3431
828.298	3447
828.437	3492
828.577	3469
828.716	3572
828.855	3469
828.994	3409
829.134	3359
829.273	3355
829.412	3344
829.551	3310
829.69	3317
829.829	3416
829.968	3519
830.107	3458
830.246	3485
830.385	3336
830.524	3332
830.663	3329
830.802	3237
830.941	3207
831.08	3192
831.219	3222
831.357	3214
831.496	3389
831.635	3241
831.774	3161
831.913	3188
832.051	3119
832.19	3119
832.329	3199
832.467	3154
832.606	3085
832.744	3131
832.883	3142
833.022	3180
833.16	3230
833.299	3298
833.437	3313
833.576	3363
833.714	3424
833.852	3412
833.991	3397
834.129	3435
834.267	3420
834.406	3386
834.544	3428
834.682	3397
834.821	3409
834.959	3538
835.097	3431
835.235	3523
835.373	3488
835.511	3481
835.65	3466
835.788	3492
835.926	3348
836.064	3405
836.202	3443
836.34	3538
836.478	3553
836.615	3557
836.753	3561
836.891	3625
837.029	3572
837.167	3526
837.305	3564
837.443	3545
837.58	3462
837.718	3599
837.856	3542
837.993	3523
838.131	3580
838.269	3553
838.406	3568
838.544	3530
838.681	3466
838.819	3485
838.956	3374
839.094	3401
839.231	3412
839.369	3488
839.506	3720
839.643	3644
839.781	3485
839.918	3435
840.055	3538
840.193	3538
840.33	3542
840.467	3545
840.604	3591
840.742	3770
840.879	3553
841.016	3507
841.153	3629
841.29	3743
841.427	3751
841.564	3736
841.701	3755
841.838	3629
841.975	3701
842.112	3686
842.249	3690
842.385	3614
842.522	3819
842.659	3667
842.796	3652
842.933	3671
843.069	3675
843.206	3717
843.343	3804
843.479	3812
843.616	3789
843.752	3633
843.889	3644
844.025	3892
844.162	3717
844.298	3808
844.435	3743
844.571	3755
844.708	3930
844.844	4010
844.98	4017
845.117	4032
845.253	3915
845.389	3896
845.525	3956
845.661	3930
845.798	3873
845.934	4021
846.07	3975
846.206	4040
846.342	4105
846.478	4036
846.614	3918
846.75	3922
846.886	3880
847.022	3991
847.158	3937
847.294	4025
847.429	4002
847.565	3968
847.701	4185
847.837	3873
847.972	3873
848.108	3930
848.244	3960
848.379	3823
848.515	3823
848.65	3808
848.786	3823
848.921	3846
849.057	3945
849.192	3975
849.328	3903
849.463	3888
849.598	3896
849.734	3835
849.869	3816
850.004	3797
850.14	3789
850.275	3766
850.41	3724
850.545	3755
850.68	3751
850.815	3850
850.95	3762
851.085	3926
851.22	3865
851.355	3816
851.49	3816
851.625	3770
851.76	3781
851.895	3724
852.03	3747
852.165	3812
852.299	3838
852.434	3899
852.569	3861
852.703	3823
852.838	3888
852.973	3998
853.107	3964
853.242	3903
853.376	3861
853.511	3747
853.645	3854
853.78	3937
853.914	3884
854.048	3857
854.183	3831
854.317	3896
854.451	4040
854.585	3945
854.72	3918
854.854	4032
854.988	3949
855.122	4006
855.256	3930
855.39	4036
855.524	4101
855.658	4078
855.792	4093
855.926	4135
856.06	4188
856.194	4223
856.327	4112
856.461	4109
856.595	4131
856.729	4074
856.862	4276
856.996	4211
857.13	4287
857.263	4337
857.397	4375
857.53	4230
857.664	4329
857.797	4417
857.931	4390
858.064	4398
858.197	4436
858.331	4367
858.464	4386
858.597	4356
858.731	4417
858.864	4474
858.997	4413
859.13	4462
859.263	4546
859.396	4554
859.529	4497
859.662	4508
859.795	4535
859.928	4565
860.061	4691
860.194	4778
860.327	4630
860.46	4599
860.592	4694
860.725	4725
860.858	4729
860.99	4725
861.123	4668
861.256	4664
861.388	4763
861.521	5398
861.653	4694
861.786	4668
861.918	4767
862.05	4790
862.183	4854
862.315	4885
862.447	4896
862.58	4854
862.712	4805
862.844	4820
862.976	4847
863.108	4881
863.24	5269
863.372	4816
863.504	4885
863.636	4942
863.768	4987
863.9	5006
864.032	4930
864.164	4953
864.296	4949
864.428	5075
864.559	5060
864.691	5060
864.823	5132
864.954	5098
865.086	5136
865.217	5052
865.349	5071
865.48	5155
865.612	5193
865.743	5277
865.875	5216
866.006	5170
866.137	5231
866.269	5193
866.4	5197
866.531	5178
866.662	5193
866.793	5277
866.924	5265
867.055	5368
867.186	5280
867.317	5326
867.448	5303
867.579	5337
867.71	5379
867.841	5440
867.972	5463
868.103	5459
868.233	5482
868.364	5501
868.495	5516
868.625	5634
868.756	5847
868.886	5699
869.017	5672
869.147	5817
869.278	5863
869.408	5790
869.539	5824
869.669	5908
869.799	5889
869.929	5973
870.06	6015
870.19	6216
870.32	6190
870.45	6258
870.58	6323
870.71	6403
870.84	6414
870.97	6403
871.1	6445
871.23	6646
871.36	6684
871.489	6681
871.619	6730
871.749	6772
871.879	6859
872.008	7027
872.138	7000
872.267	6954
872.397	6996
872.526	7034
872.656	7046
872.785	7217
872.915	7305
873.044	7453
873.173	7525
873.303	7639
873.432	7742
873.561	7871
873.69	7913
873.819	7982
873.948	8142
874.077	8259
874.206	8370
874.335	8408
874.464	8731
874.593	8853
874.722	8845
874.851	9161
874.979	9176
875.108	9317
875.237	9397
875.365	9450
875.494	9644
875.623	9907
875.751	9884
875.88	10017
876.008	10074
876.136	10314
876.265	10519
876.393	10687
876.521	10767
876.65	10839
876.778	10908
876.906	10904
877.034	11086
877.162	11128
877.29	11094
877.418	11204
877.546	11349
877.674	11402
877.802	11372
877.93	11501
878.058	11528
878.185	11558
878.313	11585
878.441	11661
878.568	11649
878.696	11843
878.824	11840
878.951	11980
879.079	12060
879.206	12178
879.333	11954
879.461	11992
879.588	12041
879.715	12003
879.842	12178
879.97	12041
880.097	11904
880.224	11851
880.351	11931
880.478	11904
880.605	11893
880.732	11920
880.859	11923
880.986	11794
881.112	11832
881.239	11676
881.366	11699
881.493	11615
881.619	11558
881.746	11600
881.872	11482
881.999	11589
882.125	11486
882.252	11566
882.378	11433
882.505	11573
882.631	11406
882.757	11242
882.883	11353
883.01	11315
883.136	11208
883.262	11124
883.388	11067
883.514	11227
883.64	11166
883.766	11045
883.892	10965
884.018	10927
884.143	11064
884.269	11090
884.395	10801
884.52	10816
884.646	10801
884.772	10725
884.897	10675
885.023	10649
885.148	10706
885.274	10736
885.399	10710
885.524	10645
885.65	10565
885.775	10577
885.9	10516
886.025	10634
886.15	10542
886.275	10394
886.4	10428
886.525	10379
886.65	10363
886.775	10344
886.9	10443
887.025	10573
887.149	10291
887.274	10276
887.399	10188
887.523	10154
887.648	10128
887.773	10120
887.897	10253
888.021	10204
888.146	10150
888.27	10192
888.395	10192
888.519	10211
888.643	10192
888.767	10150
888.891	10029
889.015	10048
889.139	10074
889.263	9945
889.387	9975
889.511	10135
889.635	10082
889.759	9956
889.883	9922
890.006	10010
890.13	10040
890.254	9941
890.377	9937
890.501	9819
890.624	9922
890.748	9819
890.871	9766
890.995	9835
891.118	9690
891.241	9812
891.364	9720
891.488	9934
891.611	9781
891.734	9709
891.857	9770
891.98	9679
892.103	9724
892.226	9736
892.349	9667
892.471	9523
892.594	9576
892.717	9610
892.839	9561
892.962	9625
893.085	9614
893.207	9652
893.33	9606
893.452	9526
893.575	9576
893.697	9492
893.819	9572
893.941	9633
894.064	9606
894.186	9458
894.308	9401
894.43	9435
894.552	9576
894.674	9485
894.796	9348
894.918	9408
895.04	9378
895.161	9344
895.283	9351
895.405	9298
895.526	9222
895.648	9237
895.769	9199
895.891	9207
896.012	9348
896.134	9218
896.255	9169
896.376	9100
896.498	9214
896.619	9116
896.74	9036
896.861	9093
896.982	9226
897.103	9363
897.224	9135
897.345	8998
897.466	9104
897.587	8998
897.708	9195
897.828	8944
897.949	8944
898.07	8842
898.19	8872
898.311	9005
898.431	8861
898.552	8956
898.672	9001
898.792	8941
898.913	8880
899.033	8792
899.153	8716
899.273	8735
899.393	8678
899.513	8800
899.633	8758
899.753	8693
899.873	8667
899.993	8705
900.113	8648
900.232	8670
900.352	8659
900.472	8606
900.591	8552
900.711	8522
900.83	8469
900.95	8739
901.069	8625
901.189	8488
901.308	8446
901.427	8415
901.546	8415
901.665	8530
901.784	8454
901.904	8415
902.023	8301
902.141	8210
902.26	8103
902.379	8294
902.498	8191
902.617	8164
902.735	8290
902.854	8275
902.973	8259
903.091	8107
903.21	8119
903.328	8168
903.446	8096
903.565	8054
903.683	8065
903.801	8073
903.919	8084
904.038	8073
904.156	8027
904.274	8138
904.392	7997
904.51	8043
904.627	8039
904.745	8039
904.863	8092
904.981	7860
905.098	7852
905.216	7826
905.334	7932
905.451	7913
905.569	7860
905.686	7841
905.803	7883
905.921	7784
906.038	7833
906.155	7742
906.272	7666
906.389	7685
906.506	7601
906.623	7597
906.74	7514
906.857	7514
906.974	7491
907.091	7651
907.208	7662
907.324	7597
907.441	7529
907.557	7419
907.674	7396
907.79	7346
907.907	7426
908.023	7468
908.139	7476
908.256	7381
908.372	7343
908.488	7354
908.604	7247
908.72	7179
908.836	7263
908.952	7263
909.068	7221
909.184	7301
909.3	7202
909.415	7274
909.531	7263
909.647	7050
909.762	7091
909.878	7099
909.993	7122
910.108	7076
910.224	7091
910.339	7095
910.454	6962
910.57	6951
910.685	6947
910.8	7149
910.915	7129
911.03	7027
911.145	6993
911.259	6825
911.374	6878
911.489	6821
911.604	6806
911.718	6772
911.833	6749
911.947	6681
912.062	6654
912.176	6665
912.291	6719
912.405	6669
912.519	6818
912.633	6829
912.748	6669
912.862	6677
912.976	6582
913.09	6566
913.204	6536
913.318	6642
913.431	6722
913.545	6650
913.659	6635
913.772	6601
913.886	6582
914	6578
914.113	6597
914.226	6608
914.34	6631
914.453	6464
914.566	6570
914.68	6540
914.793	6494
914.906	6369
915.019	6407
915.132	6403
915.245	6437
915.358	6475
915.47	6407
915.583	6433
915.696	6433
915.809	6540
915.921	6578
916.034	6441
916.146	6426
916.259	6365
916.371	6479
916.483	6467
916.595	6391
916.708	6414
916.82	6407
916.932	6380
917.044	6380
917.156	6372
917.268	6292
917.38	6273
917.491	6319
917.603	6388
917.715	6391
917.826	6433
917.938	6311
918.049	6235
918.161	6262
918.272	6395
918.384	6407
918.495	6319
918.606	6228
918.717	6251
918.828	6209
918.939	6281
919.05	6213
919.161	6239
919.272	6129
919.383	6133
919.494	6273
919.604	6380
919.715	6296
919.826	6197
919.936	6277
920.047	6266
920.157	6289
920.267	6456
920.378	6327
920.488	6270
920.598	6452
920.708	6582
920.818	6521
920.928	6502
921.038	6578
921.148	6528
921.258	6342
921.368	6262
921.477	6243
921.587	6144
921.697	6117
921.806	6140
921.916	6091
922.025	5923
922.134	5901
922.244	5901
922.353	5893
922.462	5897
922.571	5775
922.68	5691
922.789	5714
922.898	5737
923.007	5649
923.116	5680
923.224	5646
923.333	5699
923.442	5589
923.55	5512
923.659	5585
923.767	5581
923.876	5497
923.984	5611
924.092	5512
924.201	5467
924.309	5528
924.417	5520
924.525	5505
924.633	5532
924.741	6273
924.849	5364
924.956	5486
925.064	5353
925.172	5254
925.279	5277
925.387	5322
925.494	5330
925.602	5395
925.709	5360
925.816	5330
925.924	5235
926.031	5349
926.138	5330
926.245	5284
926.352	5201
926.459	5318
926.566	5299
926.673	5178
926.779	5094
926.886	5147
926.993	5052
927.099	5010
927.206	5003
927.312	4904
927.419	5014
927.525	4980
927.631	4965
927.737	4870
927.843	4847
927.95	4725
928.056	4831
928.162	4786
928.267	4850
928.373	5303
928.479	4843
928.585	4645
928.69	4755
928.796	4782
928.901	4710
929.007	4618
929.112	4645
929.218	4634
929.323	4577
929.428	4565
929.533	4691
929.638	4519
929.743	4531
929.848	4516
929.953	4504
930.058	4459
930.163	4299
930.267	4314
930.372	4436
930.477	4318
930.581	4497
930.685	4322
930.79	4227
930.894	4299
930.998	4280
931.103	4367
931.207	4074
931.311	4063
931.415	4059
931.519	3972
931.623	3941
