Data from glass_V78500241_1415.txt Node
Date: Wed Sep 01 19:24:18 CST 2021
User: usil
Spectrometer: V785-0024
Trigger mode: 0
Integration Time (sec): 4.000000E-1
Scans to average: 1
Nonlinearity correction enabled: false
Boxcar width: 0
Storing dark spectrum: false
XAxis mode: Wavelengths
Number of Pixels in Spectrum: 1024
>>>>>Begin Spectral Data<<<<<
801.071	3736
801.214	3774
801.356	3694
801.499	3732
801.641	3736
801.783	3785
801.926	3880
802.068	3816
802.211	3854
802.353	3850
802.496	3831
802.638	3861
802.78	3915
802.923	3911
803.065	3911
803.208	3876
803.35	3869
803.492	3907
803.635	3918
803.777	3819
803.919	3915
804.061	4185
804.204	3926
804.346	3934
804.488	3888
804.63	4051
804.773	4002
804.915	3991
805.057	4135
805.199	4036
805.341	4097
805.483	4143
805.626	4150
805.768	4124
805.91	4230
806.052	4234
806.194	4227
806.336	4337
806.478	4215
806.62	4215
806.762	4204
806.904	4261
807.046	4352
807.188	4173
807.33	4181
807.472	4280
807.614	4211
807.756	4306
807.898	4207
808.04	4230
808.182	4272
808.324	4318
808.465	4386
808.607	4432
808.749	4497
808.891	4462
809.033	4504
809.174	4398
809.316	4242
809.458	4276
809.6	4207
809.741	4177
809.883	4166
810.025	4207
810.166	4200
810.308	4188
810.45	4219
810.591	4253
810.733	4253
810.875	4538
811.016	4835
811.158	5147
811.299	5299
811.441	5246
811.582	5052
811.724	4698
811.865	4527
812.007	4462
812.148	4451
812.29	4398
812.431	4421
812.573	4402
812.714	4291
812.855	4409
812.997	4409
813.138	4436
813.279	4447
813.421	4379
813.562	4352
813.703	4344
813.845	4390
813.986	4227
814.127	4200
814.268	4276
814.41	4291
814.551	4265
814.692	4314
814.833	4306
814.974	4303
815.115	4333
815.256	4291
815.397	4219
815.539	4238
815.68	4234
815.821	4227
815.962	4333
816.103	4238
816.244	4280
816.385	4242
816.526	4295
816.666	4192
816.807	4105
816.948	4188
817.089	4181
817.23	4101
817.371	4101
817.512	4025
817.653	4078
817.793	4048
817.934	4078
818.075	4097
818.216	4082
818.356	4063
818.497	3994
818.638	3941
818.778	3892
818.919	3880
819.06	3854
819.2	3949
819.341	3873
819.481	3816
819.622	3903
819.762	4048
819.903	3953
820.043	3838
820.184	3816
820.324	3835
820.465	3884
820.605	3846
820.746	3873
820.886	3797
821.026	3926
821.167	3922
821.307	3949
821.447	4002
821.588	3979
821.728	3922
821.868	3960
822.008	3857
822.149	3903
822.289	3907
822.429	3800
822.569	3770
822.709	3823
822.849	3717
822.99	3732
823.13	3793
823.27	3724
823.41	3762
823.55	3717
823.69	3713
823.83	3759
823.97	3709
824.11	3610
824.25	3599
824.389	3660
824.529	3698
824.669	3622
824.809	3671
824.949	3762
825.089	3781
825.228	3694
825.368	3603
825.508	3561
825.648	3603
825.787	3564
825.927	3584
826.067	3618
826.206	3663
826.346	3785
826.485	3854
826.625	3880
826.765	3907
826.904	3850
827.044	3606
827.183	3564
827.323	3466
827.462	3519
827.601	3443
827.741	3435
827.88	3458
828.02	3332
828.159	3397
828.298	3500
828.437	3523
828.577	3454
828.716	3603
828.855	3492
828.994	3370
829.134	3389
829.273	3412
829.412	3348
829.551	3340
829.69	3351
829.829	3447
829.968	3519
830.107	3424
830.246	3500
830.385	3351
830.524	3336
830.663	3306
830.802	3253
830.941	3195
831.08	3222
831.219	3275
831.357	3249
831.496	3420
831.635	3226
831.774	3195
831.913	3180
832.051	3173
832.19	3173
832.329	3207
832.467	3131
832.606	3104
832.744	3199
832.883	3180
833.022	3184
833.16	3283
833.299	3294
833.437	3367
833.576	3348
833.714	3378
833.852	3397
833.991	3469
834.129	3462
834.267	3462
834.406	3397
834.544	3450
834.682	3466
834.821	3389
834.959	3553
835.097	3409
835.235	3511
835.373	3500
835.511	3515
835.65	3454
835.788	3473
835.926	3374
836.064	3367
836.202	3412
836.34	3542
836.478	3637
836.615	3557
836.753	3587
836.891	3663
837.029	3667
837.167	3568
837.305	3549
837.443	3542
837.58	3485
837.718	3637
837.856	3595
837.993	3561
838.131	3614
838.269	3572
838.406	3603
838.544	3557
838.681	3469
838.819	3485
838.956	3351
839.094	3412
839.231	3443
839.369	3519
839.506	3720
839.643	3648
839.781	3507
839.918	3496
840.055	3507
840.193	3492
840.33	3515
840.467	3568
840.604	3568
840.742	3808
840.879	3591
841.016	3595
841.153	3591
841.29	3743
841.427	3724
841.564	3698
841.701	3709
841.838	3698
841.975	3644
842.112	3740
842.249	3633
842.385	3663
842.522	3835
842.659	3652
842.796	3656
842.933	3720
843.069	3690
843.206	3686
843.343	3808
843.479	3827
843.616	3865
843.752	3713
843.889	3686
844.025	3850
844.162	3724
844.298	3854
844.435	3827
844.571	3755
844.708	3915
844.844	4029
844.98	4036
845.117	4017
845.253	3903
845.389	3918
845.525	3998
845.661	3979
845.798	3915
845.934	4025
846.07	3964
846.206	4063
846.342	4131
846.478	4067
846.614	4010
846.75	3915
846.886	3899
847.022	3994
847.158	3949
847.294	3968
847.429	4040
847.565	3964
847.701	4230
847.837	3899
847.972	3861
848.108	4006
848.244	3968
848.379	3857
848.515	3800
848.65	3800
848.786	3827
848.921	3876
849.057	3945
849.192	3941
849.328	3922
849.463	3949
849.598	3873
849.734	3865
849.869	3819
850.004	3755
850.14	3823
850.275	3831
850.41	3747
850.545	3762
850.68	3770
850.815	3812
850.95	3793
851.085	3922
851.22	3876
851.355	3827
851.49	3835
851.625	3797
851.76	3854
851.895	3709
852.03	3728
852.165	3816
852.299	3838
852.434	3941
852.569	3869
852.703	3842
852.838	3899
852.973	4002
853.107	3972
853.242	3854
853.376	3816
853.511	3759
853.645	3812
853.78	3945
853.914	3907
854.048	3892
854.183	3884
854.317	3937
854.451	4101
854.585	3956
854.72	3964
854.854	4090
854.988	3918
855.122	3975
855.256	3975
855.39	4036
855.524	4063
855.658	4112
855.792	4139
855.926	4120
856.06	4143
856.194	4196
856.327	4131
856.461	4112
856.595	4128
856.729	4150
856.862	4280
856.996	4249
857.13	4291
857.263	4352
857.397	4402
857.53	4318
857.664	4409
857.797	4424
857.931	4485
858.064	4398
858.197	4462
858.331	4390
858.464	4375
858.597	4344
858.731	4485
858.864	4470
858.997	4470
859.13	4497
859.263	4580
859.396	4592
859.529	4493
859.662	4523
859.795	4538
859.928	4630
860.061	4725
860.194	4771
860.327	4607
860.46	4679
860.592	4725
860.725	4755
860.858	4752
860.99	4717
861.123	4736
861.256	4687
861.388	4774
861.521	5326
861.653	4710
861.786	4698
861.918	4710
862.05	4790
862.183	4820
862.315	4953
862.447	4946
862.58	4934
862.712	4816
862.844	4793
862.976	4900
863.108	4881
863.24	5132
863.372	4858
863.504	4892
863.636	4881
863.768	4919
863.9	4999
864.032	4930
864.164	4908
864.296	4961
864.428	5067
864.559	5105
864.691	5102
864.823	5109
864.954	5094
865.086	5117
865.217	5117
865.349	5140
865.48	5128
865.612	5208
865.743	5250
865.875	5220
866.006	5170
866.137	5231
866.269	5239
866.4	5220
866.531	5220
866.662	5250
866.793	5288
866.924	5220
867.055	5341
867.186	5368
867.317	5326
867.448	5277
867.579	5364
867.71	5379
867.841	5398
867.972	5478
868.103	5463
868.233	5467
868.364	5471
868.495	5589
868.625	5710
868.756	5813
868.886	5680
869.017	5748
869.147	5863
869.278	5847
869.408	5783
869.539	5893
869.669	5916
869.799	5939
869.929	5939
870.06	6045
870.19	6239
870.32	6175
870.45	6285
870.58	6300
870.71	6448
870.84	6486
870.97	6399
871.1	6486
871.23	6658
871.36	6726
871.489	6658
871.619	6711
871.749	6791
871.879	6844
872.008	7050
872.138	6932
872.267	6981
872.397	6970
872.526	6954
872.656	7160
872.785	7175
872.915	7362
873.044	7533
873.173	7540
873.303	7670
873.432	7753
873.561	7898
873.69	7894
873.819	7970
873.948	8206
874.077	8313
874.206	8328
874.335	8400
874.464	8632
874.593	8842
874.722	8948
874.851	9135
874.979	9233
875.108	9367
875.237	9428
875.365	9519
875.494	9538
875.623	9804
875.751	9838
875.88	9983
876.008	10090
876.136	10303
876.265	10523
876.393	10630
876.521	10744
876.65	10889
876.778	10866
876.906	10919
877.034	10972
877.162	11060
877.29	11181
877.418	11299
877.546	11322
877.674	11436
877.802	11467
877.93	11516
878.058	11505
878.185	11524
878.313	11684
878.441	11756
878.568	11657
878.696	11733
878.824	11836
878.951	12003
879.079	11999
879.206	12102
879.333	12049
879.461	11931
879.588	12125
879.715	12087
879.842	12277
879.97	12030
880.097	11885
880.224	11897
880.351	11802
880.478	11809
880.605	11923
880.732	11798
880.859	12060
880.986	11813
881.112	11840
881.239	11691
881.366	11570
881.493	11638
881.619	11558
881.746	11543
881.872	11589
881.999	11505
882.125	11474
882.252	11630
882.378	11452
882.505	11425
882.631	11474
882.757	11288
882.883	11360
883.01	11254
883.136	11128
883.262	11037
883.388	11071
883.514	11201
883.64	11143
883.766	11124
883.892	10957
884.018	11003
884.143	11025
884.269	11102
884.395	10793
884.52	10782
884.646	10698
884.772	10691
884.897	10702
885.023	10691
885.148	10755
885.274	10782
885.399	10744
885.524	10569
885.65	10603
885.775	10531
885.9	10519
886.025	10637
886.15	10519
886.275	10417
886.4	10382
886.525	10386
886.65	10390
886.775	10451
886.9	10519
887.025	10573
887.149	10337
887.274	10188
887.399	10166
887.523	10227
887.648	10120
887.773	10135
887.897	10238
888.021	10272
888.146	10196
888.27	10276
888.395	10227
888.519	10093
888.643	10128
888.767	10249
888.891	10044
889.015	10002
889.139	10044
889.263	9964
889.387	10074
889.511	10169
889.635	10101
889.759	9930
889.883	9911
890.006	9918
890.13	10051
890.254	9926
890.377	10006
890.501	9861
890.624	9831
890.748	9945
890.871	9827
890.995	9713
891.118	9694
891.241	9759
891.364	9789
891.488	9907
891.611	9755
891.734	9781
891.857	9778
891.98	9717
892.103	9743
892.226	9755
892.349	9686
892.471	9530
892.594	9564
892.717	9564
892.839	9549
892.962	9629
893.085	9618
893.207	9557
893.33	9477
893.452	9519
893.575	9580
893.697	9549
893.819	9637
893.941	9580
894.064	9641
894.186	9412
894.308	9393
894.43	9553
894.552	9587
894.674	9557
894.796	9355
894.918	9351
895.04	9325
895.161	9393
895.283	9321
895.405	9218
895.526	9176
895.648	9207
895.769	9230
895.891	9291
896.012	9275
896.134	9214
896.255	9199
896.376	9047
896.498	9176
896.619	9123
896.74	9058
896.861	8994
896.982	9302
897.103	9325
897.224	9207
897.345	9127
897.466	8925
897.587	8998
897.708	9074
897.828	9039
897.949	8956
898.07	8872
898.19	8899
898.311	8979
898.431	8868
898.552	8918
898.672	8937
898.792	8933
898.913	8906
899.033	8773
899.153	8727
899.273	8606
899.393	8731
899.513	8686
899.633	8750
899.753	8777
899.873	8674
899.993	8678
900.113	8777
900.232	8750
900.352	8659
900.472	8606
900.591	8568
900.711	8602
900.83	8526
900.95	8613
901.069	8724
901.189	8606
901.308	8446
901.427	8419
901.546	8404
901.665	8427
901.784	8408
901.904	8476
902.023	8374
902.141	8195
902.26	8187
902.379	8240
902.498	8195
902.617	8267
902.735	8301
902.854	8271
902.973	8271
903.091	8126
903.21	8130
903.328	8145
903.446	8103
903.565	8100
903.683	8123
903.801	8096
903.919	8123
904.038	8103
904.156	8020
904.274	8084
904.392	7989
904.51	8012
904.627	8077
904.745	8031
904.863	8100
904.981	7898
905.098	7883
905.216	7849
905.334	7890
905.451	7959
905.569	7841
905.686	7856
905.803	7887
905.921	7723
906.038	7898
906.155	7772
906.272	7666
906.389	7731
906.506	7704
906.623	7594
906.74	7601
906.857	7567
906.974	7597
907.091	7685
907.208	7712
907.324	7651
907.441	7586
907.557	7460
907.674	7430
907.79	7392
907.907	7422
908.023	7434
908.139	7453
908.256	7407
908.372	7324
908.488	7365
908.604	7339
908.72	7263
908.836	7221
908.952	7236
909.068	7228
909.184	7350
909.3	7236
909.415	7270
909.531	7308
909.647	7129
909.762	7046
909.878	7088
909.993	7053
910.108	7137
910.224	7061
910.339	7110
910.454	7091
910.57	7012
910.685	6924
910.8	7187
910.915	7137
911.03	7034
911.145	6905
911.259	6867
911.374	6901
911.489	6779
911.604	6825
911.718	6707
911.833	6722
911.947	6696
912.062	6612
912.176	6665
912.291	6696
912.405	6719
912.519	6779
912.633	6821
912.748	6738
912.862	6681
912.976	6608
913.09	6475
913.204	6692
913.318	6578
913.431	6722
913.545	6715
913.659	6688
913.772	6616
913.886	6589
914	6502
914.113	6700
914.226	6650
914.34	6604
914.453	6426
914.566	6623
914.68	6479
914.793	6471
914.906	6407
915.019	6395
915.132	6407
915.245	6399
915.358	6513
915.47	6426
915.583	6445
915.696	6486
915.809	6559
915.921	6589
916.034	6448
916.146	6418
916.259	6353
916.371	6391
916.483	6502
916.595	6448
916.708	6372
916.82	6460
916.932	6331
917.044	6414
917.156	6395
917.268	6353
917.38	6342
917.491	6323
917.603	6376
917.715	6426
917.826	6422
917.938	6350
918.049	6247
918.161	6365
918.272	6369
918.384	6407
918.495	6357
918.606	6194
918.717	6247
918.828	6296
918.939	6319
919.05	6201
919.161	6262
919.272	6110
919.383	6175
919.494	6243
919.604	6418
919.715	6300
919.826	6209
919.936	6239
920.047	6376
920.157	6308
920.267	6410
920.378	6319
920.488	6273
920.598	6456
920.708	6585
920.818	6448
920.928	6528
921.038	6646
921.148	6547
921.258	6350
921.368	6346
921.477	6220
921.587	6133
921.697	6114
921.806	6232
921.916	6133
922.025	5977
922.134	5950
922.244	5923
922.353	5969
922.462	5844
922.571	5764
922.68	5649
922.789	5672
922.898	5668
923.007	5684
923.116	5684
923.224	5703
923.333	5688
923.442	5577
923.55	5573
923.659	5570
923.767	5604
923.876	5566
923.984	5547
924.092	5493
924.201	5562
924.309	5490
924.417	5551
924.525	5444
924.633	5535
924.741	6121
924.849	5349
924.956	5493
925.064	5429
925.172	5322
925.279	5315
925.387	5379
925.494	5349
925.602	5455
925.709	5417
925.816	5265
925.924	5368
926.031	5379
926.138	5284
926.245	5360
926.352	5166
926.459	5299
926.566	5326
926.673	5212
926.779	5109
926.886	5170
926.993	5037
927.099	5037
927.206	4984
927.312	4972
927.419	5033
927.525	4953
927.631	5010
927.737	4889
927.843	4892
927.95	4786
928.056	4835
928.162	4843
928.267	4862
928.373	5326
928.479	4839
928.585	4668
928.69	4793
928.796	4786
928.901	4664
929.007	4565
929.112	4679
929.218	4637
929.323	4668
929.428	4573
929.533	4653
929.638	4474
929.743	4523
929.848	4531
929.953	4497
930.058	4409
930.163	4318
930.267	4344
930.372	4417
930.477	4341
930.581	4481
930.685	4360
930.79	4280
930.894	4329
930.998	4272
931.103	4424
931.207	4147
931.311	4101
931.415	4029
931.519	3949
931.623	3972
