Data from glass_V78500241_369.txt Node
Date: Wed Sep 01 19:17:03 CST 2021
User: usil
Spectrometer: V785-0024
Trigger mode: 0
Integration Time (sec): 4.000000E-1
Scans to average: 1
Nonlinearity correction enabled: false
Boxcar width: 0
Storing dark spectrum: false
XAxis mode: Wavelengths
Number of Pixels in Spectrum: 1024
>>>>>Begin Spectral Data<<<<<
801.071	3740
801.214	3724
801.356	3755
801.499	3732
801.641	3759
801.783	3793
801.926	3831
802.068	3850
802.211	3896
802.353	3922
802.496	3808
802.638	3907
802.78	3945
802.923	3907
803.065	3907
803.208	3865
803.35	3899
803.492	3903
803.635	3907
803.777	3797
803.919	3911
804.061	4185
804.204	3983
804.346	3994
804.488	3896
804.63	4078
804.773	3968
804.915	4071
805.057	4158
805.199	4063
805.341	4120
805.483	4147
805.626	4166
805.768	4116
805.91	4238
806.052	4265
806.194	4268
806.336	4284
806.478	4253
806.62	4177
806.762	4173
806.904	4230
807.046	4341
807.188	4227
807.33	4177
807.472	4261
807.614	4177
807.756	4310
807.898	4227
808.04	4200
808.182	4268
808.324	4375
808.465	4344
808.607	4443
808.749	4474
808.891	4489
809.033	4489
809.174	4455
809.316	4268
809.458	4253
809.6	4143
809.741	4150
809.883	4169
810.025	4196
810.166	4211
810.308	4242
810.45	4238
810.591	4188
810.733	4280
810.875	4504
811.016	4828
811.158	5128
811.299	5273
811.441	5273
811.582	5064
811.724	4729
811.865	4478
812.007	4485
812.148	4447
812.29	4432
812.431	4428
812.573	4390
812.714	4379
812.855	4367
812.997	4428
813.138	4440
813.279	4390
813.421	4363
813.562	4367
813.703	4352
813.845	4348
813.986	4238
814.127	4207
814.268	4265
814.41	4246
814.551	4242
814.692	4375
814.833	4276
814.974	4310
815.115	4356
815.256	4295
815.397	4215
815.539	4265
815.68	4211
815.821	4257
815.962	4318
816.103	4325
816.244	4261
816.385	4242
816.526	4318
816.666	4211
816.807	4116
816.948	4173
817.089	4196
817.23	4131
817.371	4010
817.512	4048
817.653	4109
817.793	4059
817.934	4048
818.075	4128
818.216	4109
818.356	4071
818.497	3975
818.638	3865
818.778	3926
818.919	3922
819.06	3816
819.2	3945
819.341	3880
819.481	3854
819.622	3884
819.762	4002
819.903	3911
820.043	3869
820.184	3842
820.324	3831
820.465	3888
820.605	3876
820.746	3934
820.886	3793
821.026	3998
821.167	3899
821.307	3972
821.447	3983
821.588	3979
821.728	3972
821.868	3930
822.008	3880
822.149	3922
822.289	3941
822.429	3835
822.569	3770
822.709	3823
822.849	3709
822.99	3713
823.13	3774
823.27	3819
823.41	3724
823.55	3762
823.69	3694
823.83	3743
823.97	3732
824.11	3648
824.25	3618
824.389	3641
824.529	3652
824.669	3622
824.809	3717
824.949	3846
825.089	3785
825.228	3709
825.368	3606
825.508	3568
825.648	3576
825.787	3652
825.927	3671
826.067	3648
826.206	3660
826.346	3804
826.485	3869
826.625	3892
826.765	3972
826.904	3842
827.044	3633
827.183	3587
827.323	3454
827.462	3549
827.601	3466
827.741	3412
827.88	3485
828.02	3374
828.159	3435
828.298	3439
828.437	3542
828.577	3469
828.716	3606
828.855	3496
828.994	3325
829.134	3401
829.273	3424
829.412	3374
829.551	3359
829.69	3370
829.829	3431
829.968	3530
830.107	3431
830.246	3469
830.385	3378
830.524	3374
830.663	3306
830.802	3264
830.941	3188
831.08	3207
831.219	3302
831.357	3275
831.496	3412
831.635	3283
831.774	3211
831.913	3222
832.051	3123
832.19	3157
832.329	3211
832.467	3119
832.606	3146
832.744	3184
832.883	3192
833.022	3222
833.16	3260
833.299	3321
833.437	3348
833.576	3378
833.714	3412
833.852	3420
833.991	3435
834.129	3488
834.267	3485
834.406	3424
834.544	3393
834.682	3435
834.821	3454
834.959	3587
835.097	3424
835.235	3553
835.373	3519
835.511	3485
835.65	3454
835.788	3515
835.926	3409
836.064	3393
836.202	3431
836.34	3587
836.478	3614
836.615	3523
836.753	3622
836.891	3625
837.029	3633
837.167	3587
837.305	3587
837.443	3557
837.58	3507
837.718	3614
837.856	3603
837.993	3591
838.131	3606
838.269	3610
838.406	3599
838.544	3625
838.681	3458
838.819	3469
838.956	3409
839.094	3386
839.231	3481
839.369	3553
839.506	3728
839.643	3675
839.781	3561
839.918	3450
840.055	3519
840.193	3564
840.33	3561
840.467	3553
840.604	3629
840.742	3762
840.879	3580
841.016	3561
841.153	3606
841.29	3785
841.427	3690
841.564	3694
841.701	3766
841.838	3724
841.975	3717
842.112	3789
842.249	3618
842.385	3614
842.522	3861
842.659	3728
842.796	3679
842.933	3717
843.069	3720
843.206	3755
843.343	3789
843.479	3793
843.616	3854
843.752	3701
843.889	3705
844.025	3857
844.162	3732
844.298	3835
844.435	3800
844.571	3793
844.708	3899
844.844	3994
844.98	4013
845.117	3991
845.253	3953
845.389	3953
845.525	4002
845.661	3930
845.798	3918
845.934	4044
846.07	3945
846.206	4013
846.342	4101
846.478	4032
846.614	4006
846.75	3964
846.886	3911
847.022	4048
847.158	3983
847.294	4013
847.429	4059
847.565	4036
847.701	4246
847.837	3907
847.972	3876
848.108	3998
848.244	3968
848.379	3869
848.515	3819
848.65	3819
848.786	3880
848.921	3880
849.057	3975
849.192	3968
849.328	3918
849.463	3987
849.598	3884
849.734	3941
849.869	3812
850.004	3736
850.14	3816
850.275	3800
850.41	3740
850.545	3751
850.68	3793
850.815	3755
850.95	3835
851.085	3949
851.22	3930
851.355	3861
851.49	3823
851.625	3800
851.76	3854
851.895	3770
852.03	3736
852.165	3789
852.299	3880
852.434	3926
852.569	3884
852.703	3903
852.838	3922
852.973	4032
853.107	4025
853.242	3934
853.376	3823
853.511	3800
853.645	3823
853.78	3975
853.914	3941
854.048	3918
854.183	3892
854.317	3979
854.451	4071
854.585	3975
854.72	3998
854.854	4086
854.988	3956
855.122	4055
855.256	3964
855.39	4048
855.524	4093
855.658	4105
855.792	4116
855.926	4131
856.06	4196
856.194	4227
856.327	4169
856.461	4135
856.595	4188
856.729	4177
856.862	4306
856.996	4227
857.13	4356
857.263	4344
857.397	4421
857.53	4257
857.664	4360
857.797	4481
857.931	4474
858.064	4409
858.197	4497
858.331	4432
858.464	4394
858.597	4390
858.731	4432
858.864	4462
858.997	4485
859.13	4558
859.263	4561
859.396	4592
859.529	4519
859.662	4599
859.795	4489
859.928	4630
860.061	4740
860.194	4744
860.327	4714
860.46	4637
860.592	4729
860.725	4793
860.858	4748
860.99	4706
861.123	4714
861.256	4679
861.388	4790
861.521	5414
861.653	4771
861.786	4733
861.918	4725
862.05	4809
862.183	4843
862.315	4892
862.447	4968
862.58	4911
862.712	4782
862.844	4774
862.976	4843
863.108	4870
863.24	5284
863.372	4828
863.504	4877
863.636	4896
863.768	4965
863.9	5022
864.032	4949
864.164	4953
864.296	5052
864.428	5105
864.559	5162
864.691	5128
864.823	5121
864.954	5166
865.086	5166
865.217	5075
865.349	5143
865.48	5174
865.612	5280
865.743	5258
865.875	5193
866.006	5178
866.137	5258
866.269	5250
866.4	5315
866.531	5254
866.662	5201
866.793	5288
866.924	5288
867.055	5368
867.186	5307
867.317	5368
867.448	5299
867.579	5364
867.71	5410
867.841	5345
867.972	5509
868.103	5471
868.233	5471
868.364	5463
868.495	5509
868.625	5710
868.756	5824
868.886	5680
869.017	5745
869.147	5836
869.278	5863
869.408	5786
869.539	5832
869.669	5950
869.799	5882
869.929	5999
870.06	5939
870.19	6224
870.32	6163
870.45	6213
870.58	6361
870.71	6445
870.84	6509
870.97	6418
871.1	6471
871.23	6635
871.36	6722
871.489	6726
871.619	6719
871.749	6852
871.879	6859
872.008	7053
872.138	6973
872.267	7027
872.397	6962
872.526	7015
872.656	7122
872.785	7259
872.915	7343
873.044	7556
873.173	7563
873.303	7700
873.432	7700
873.561	7849
873.69	7913
873.819	7970
873.948	8168
874.077	8294
874.206	8336
874.335	8423
874.464	8686
874.593	8925
874.722	8960
874.851	9112
874.979	9237
875.108	9443
875.237	9408
875.365	9492
875.494	9679
875.623	9808
875.751	9888
875.88	10044
876.008	10150
876.136	10227
876.265	10535
876.393	10702
876.521	10771
876.65	10763
876.778	10869
876.906	10976
877.034	11064
877.162	11201
877.29	11124
877.418	11330
877.546	11376
877.674	11395
877.802	11512
877.93	11497
878.058	11608
878.185	11509
878.313	11589
878.441	11813
878.568	11745
878.696	11764
878.824	11828
878.951	11935
879.079	11965
879.206	12083
879.333	12125
879.461	11954
879.588	12106
879.715	12053
879.842	12239
879.97	12038
880.097	11878
880.224	11897
880.351	11980
880.478	11840
880.605	11824
880.732	11794
880.859	12045
880.986	11855
881.112	11882
881.239	11649
881.366	11570
881.493	11741
881.619	11573
881.746	11619
881.872	11589
881.999	11459
882.125	11471
882.252	11547
882.378	11497
882.505	11543
882.631	11459
882.757	11303
882.883	11414
883.01	11277
883.136	11193
883.262	11109
883.388	11102
883.514	11201
883.64	11178
883.766	11098
883.892	10968
884.018	10987
884.143	11041
884.269	11178
884.395	10904
884.52	10816
884.646	10717
884.772	10721
884.897	10645
885.023	10733
885.148	10679
885.274	10752
885.399	10664
885.524	10603
885.65	10607
885.775	10611
885.9	10542
886.025	10588
886.15	10592
886.275	10512
886.4	10417
886.525	10459
886.65	10363
886.775	10390
886.9	10481
887.025	10474
887.149	10322
887.274	10249
887.399	10143
887.523	10185
887.648	10154
887.773	10078
887.897	10337
888.021	10185
888.146	10090
888.27	10276
888.395	10196
888.519	10135
888.643	10227
888.767	10230
888.891	10082
889.015	10093
889.139	10055
889.263	9945
889.387	10143
889.511	10173
889.635	10055
889.759	10010
889.883	9930
890.006	10017
890.13	10177
890.254	10006
890.377	9975
890.501	9835
890.624	9907
890.748	9937
890.871	9892
890.995	9785
891.118	9709
891.241	9823
891.364	9701
891.488	9759
891.611	9785
891.734	9778
891.857	9850
891.98	9728
892.103	9804
892.226	9789
892.349	9675
892.471	9500
892.594	9572
892.717	9587
892.839	9663
892.962	9656
893.085	9614
893.207	9656
893.33	9534
893.452	9530
893.575	9564
893.697	9492
893.819	9591
893.941	9633
894.064	9603
894.186	9447
894.308	9405
894.43	9519
894.552	9568
894.674	9549
894.796	9344
894.918	9466
895.04	9370
895.161	9397
895.283	9332
895.405	9310
895.526	9302
895.648	9245
895.769	9275
895.891	9256
896.012	9230
896.134	9241
896.255	9226
896.376	9203
896.498	9188
896.619	9112
896.74	9108
896.861	9161
896.982	9332
897.103	9283
897.224	9127
897.345	9165
897.466	9047
897.587	8952
897.708	9108
897.828	9089
897.949	8975
898.07	8853
898.19	8937
898.311	9066
898.431	8887
898.552	8902
898.672	8956
898.792	9001
898.913	8944
899.033	8758
899.153	8716
899.273	8674
899.393	8682
899.513	8773
899.633	8686
899.753	8670
899.873	8746
899.993	8667
900.113	8716
900.232	8785
900.352	8746
900.472	8594
900.591	8522
900.711	8610
900.83	8648
900.95	8678
901.069	8720
901.189	8537
901.308	8404
901.427	8370
901.546	8415
901.665	8461
901.784	8480
901.904	8431
902.023	8366
902.141	8199
902.26	8206
902.379	8248
902.498	8286
902.617	8206
902.735	8290
902.854	8282
902.973	8256
903.091	8221
903.21	8130
903.328	8183
903.446	8123
903.565	8115
903.683	8092
903.801	8119
903.919	8164
904.038	8161
904.156	8046
904.274	8111
904.392	8103
904.51	8005
904.627	8058
904.745	8103
904.863	8077
904.981	7887
905.098	7852
905.216	7925
905.334	7913
905.451	7932
905.569	7936
905.686	7993
905.803	7940
905.921	7818
906.038	7936
906.155	7795
906.272	7700
906.389	7723
906.506	7651
906.623	7590
906.74	7655
906.857	7540
906.974	7666
907.091	7651
907.208	7757
907.324	7662
907.441	7567
907.557	7434
907.674	7438
907.79	7415
907.907	7419
908.023	7449
908.139	7472
908.256	7438
908.372	7346
908.488	7381
908.604	7327
908.72	7251
908.836	7228
908.952	7202
909.068	7244
909.184	7358
909.3	7263
909.415	7305
909.531	7331
909.647	7164
909.762	7171
909.878	7110
909.993	7095
910.108	7091
910.224	7118
910.339	7095
910.454	7023
910.57	7000
910.685	6924
910.8	7152
910.915	7057
911.03	7031
911.145	6894
911.259	6844
911.374	6897
911.489	6859
911.604	6871
911.718	6684
911.833	6753
911.947	6741
912.062	6566
912.176	6700
912.291	6730
912.405	6719
912.519	6806
912.633	6932
912.748	6798
912.862	6715
912.976	6593
913.09	6517
913.204	6604
913.318	6608
913.431	6696
913.545	6726
913.659	6757
913.772	6642
913.886	6582
914	6578
914.113	6604
914.226	6646
914.34	6616
914.453	6506
914.566	6612
914.68	6544
914.793	6528
914.906	6429
915.019	6384
915.132	6357
915.245	6410
915.358	6456
915.47	6414
915.583	6479
915.696	6483
915.809	6521
915.921	6582
916.034	6372
916.146	6460
916.259	6407
916.371	6460
916.483	6479
916.595	6467
916.708	6399
916.82	6429
916.932	6361
917.044	6414
917.156	6380
917.268	6342
917.38	6376
917.491	6331
917.603	6388
917.715	6353
917.826	6376
917.938	6403
918.049	6247
918.161	6346
918.272	6365
918.384	6479
918.495	6369
918.606	6258
918.717	6216
918.828	6289
918.939	6292
919.05	6273
919.161	6254
919.272	6152
919.383	6197
919.494	6346
919.604	6456
919.715	6334
919.826	6235
919.936	6251
920.047	6254
920.157	6304
920.267	6528
920.378	6353
920.488	6235
920.598	6429
920.708	6585
920.818	6525
920.928	6460
921.038	6642
921.148	6544
921.258	6407
921.368	6331
921.477	6228
921.587	6178
921.697	6121
921.806	6159
921.916	6076
922.025	5954
922.134	5904
922.244	5863
922.353	5916
922.462	5855
922.571	5813
922.68	5764
922.789	5752
922.898	5756
923.007	5676
923.116	5703
923.224	5710
923.333	5764
923.442	5581
923.55	5547
923.659	5649
923.767	5619
923.876	5562
923.984	5615
924.092	5547
924.201	5558
924.309	5520
924.417	5551
924.525	5497
924.633	5493
924.741	6258
924.849	5349
924.956	5478
925.064	5364
925.172	5296
925.279	5311
925.387	5395
925.494	5353
925.602	5482
925.709	5391
925.816	5292
925.924	5379
926.031	5383
926.138	5296
926.245	5311
926.352	5208
926.459	5277
926.566	5315
926.673	5258
926.779	5201
926.886	5140
926.993	5094
927.099	5010
927.206	4968
927.312	4972
927.419	5037
927.525	4991
927.631	4957
927.737	4915
927.843	4892
927.95	4767
928.056	4793
928.162	4873
928.267	4927
928.373	5254
928.479	4858
928.585	4729
928.69	4748
928.796	4733
928.901	4691
929.007	4626
929.112	4653
929.218	4656
929.323	4641
929.428	4603
929.533	4637
929.638	4531
929.743	4519
929.848	4577
929.953	4489
930.058	4421
930.163	4383
930.267	4348
930.372	4421
930.477	4314
930.581	4474
930.685	4394
930.79	4272
930.894	4265
930.998	4261
931.103	4402
931.207	4135
931.311	4078
931.415	4021
931.519	3960
931.623	3972
