Data from glass_V78500241_2712.txt Node
Date: Wed Sep 01 19:33:18 CST 2021
User: usil
Spectrometer: V785-0024
Trigger mode: 0
Integration Time (sec): 4.000000E-1
Scans to average: 1
Nonlinearity correction enabled: false
Boxcar width: 0
Storing dark spectrum: false
XAxis mode: Wavelengths
Number of Pixels in Spectrum: 1024
>>>>>Begin Spectral Data<<<<<
801.071	3732
801.214	3720
801.356	3717
801.499	3751
801.641	3705
801.783	3778
801.926	3831
802.068	3838
802.211	3857
802.353	3884
802.496	3835
802.638	3823
802.78	3907
802.923	3880
803.065	3876
803.208	3861
803.35	3873
803.492	3911
803.635	3888
803.777	3778
803.919	3926
804.061	4120
804.204	3903
804.346	3918
804.488	3922
804.63	4021
804.773	3991
804.915	4040
805.057	4154
805.199	4036
805.341	4116
805.483	4131
805.626	4078
805.768	4112
805.91	4181
806.052	4192
806.194	4124
806.336	4268
806.478	4169
806.62	4147
806.762	4158
806.904	4219
807.046	4333
807.188	4192
807.33	4147
807.472	4219
807.614	4162
807.756	4219
807.898	4204
808.04	4188
808.182	4280
808.324	4287
808.465	4299
808.607	4493
808.749	4428
808.891	4440
809.033	4497
809.174	4409
809.316	4280
809.458	4219
809.6	4120
809.741	4101
809.883	4143
810.025	4246
810.166	4169
810.308	4246
810.45	4249
810.591	4234
810.733	4314
810.875	4504
811.016	4881
811.158	5098
811.299	5273
811.441	5311
811.582	5033
811.724	4759
811.865	4440
812.007	4485
812.148	4413
812.29	4421
812.431	4436
812.573	4371
812.714	4367
812.855	4405
812.997	4402
813.138	4451
813.279	4451
813.421	4367
813.562	4325
813.703	4318
813.845	4337
813.986	4253
814.127	4238
814.268	4207
814.41	4238
814.551	4227
814.692	4333
814.833	4249
814.974	4291
815.115	4325
815.256	4276
815.397	4219
815.539	4219
815.68	4131
815.821	4211
815.962	4333
816.103	4272
816.244	4230
816.385	4223
816.526	4276
816.666	4211
816.807	4044
816.948	4154
817.089	4169
817.23	4090
817.371	4040
817.512	4006
817.653	4029
817.793	4017
817.934	4063
818.075	4078
818.216	4044
818.356	4059
818.497	3975
818.638	3884
818.778	3907
818.919	3861
819.06	3838
819.2	3922
819.341	3846
819.481	3812
819.622	3888
819.762	3979
819.903	3956
820.043	3857
820.184	3831
820.324	3835
820.465	3854
820.605	3896
820.746	3869
820.886	3804
821.026	3888
821.167	3888
821.307	3968
821.447	3956
821.588	3911
821.728	3884
821.868	3949
822.008	3823
822.149	3899
822.289	3903
822.429	3789
822.569	3724
822.709	3808
822.849	3686
822.99	3732
823.13	3740
823.27	3762
823.41	3698
823.55	3751
823.69	3686
823.83	3682
823.97	3663
824.11	3603
824.25	3576
824.389	3622
824.529	3690
824.669	3641
824.809	3690
824.949	3720
825.089	3720
825.228	3675
825.368	3572
825.508	3553
825.648	3553
825.787	3599
825.927	3629
826.067	3576
826.206	3698
826.346	3751
826.485	3823
826.625	3846
826.765	3911
826.904	3861
827.044	3622
827.183	3473
827.323	3409
827.462	3481
827.601	3428
827.741	3420
827.88	3431
828.02	3344
828.159	3431
828.298	3458
828.437	3488
828.577	3454
828.716	3599
828.855	3492
828.994	3409
829.134	3386
829.273	3428
829.412	3332
829.551	3336
829.69	3336
829.829	3447
829.968	3469
830.107	3416
830.246	3424
830.385	3332
830.524	3359
830.663	3298
830.802	3207
830.941	3154
831.08	3154
831.219	3230
831.357	3214
831.496	3428
831.635	3226
831.774	3173
831.913	3184
832.051	3135
832.19	3123
832.329	3207
832.467	3093
832.606	3097
832.744	3176
832.883	3169
833.022	3211
833.16	3211
833.299	3294
833.437	3298
833.576	3386
833.714	3431
833.852	3409
833.991	3439
834.129	3409
834.267	3397
834.406	3374
834.544	3412
834.682	3416
834.821	3409
834.959	3557
835.097	3405
835.235	3485
835.373	3454
835.511	3504
835.65	3428
835.788	3450
835.926	3405
836.064	3344
836.202	3401
836.34	3549
836.478	3629
836.615	3545
836.753	3595
836.891	3633
837.029	3610
837.167	3542
837.305	3580
837.443	3515
837.58	3469
837.718	3576
837.856	3523
837.993	3523
838.131	3538
838.269	3553
838.406	3599
838.544	3523
838.681	3477
838.819	3447
838.956	3340
839.094	3386
839.231	3443
839.369	3523
839.506	3713
839.643	3656
839.781	3473
839.918	3473
840.055	3504
840.193	3515
840.33	3519
840.467	3542
840.604	3603
840.742	3816
840.879	3530
841.016	3534
841.153	3572
841.29	3732
841.427	3660
841.564	3690
841.701	3705
841.838	3656
841.975	3671
842.112	3682
842.249	3625
842.385	3580
842.522	3793
842.659	3660
842.796	3663
842.933	3663
843.069	3717
843.206	3686
843.343	3797
843.479	3793
843.616	3816
843.752	3675
843.889	3660
844.025	3838
844.162	3709
844.298	3835
844.435	3778
844.571	3789
844.708	3873
844.844	3979
844.98	4013
845.117	3979
845.253	3945
845.389	3842
845.525	3930
845.661	3941
845.798	3888
845.934	4017
846.07	3972
846.206	3983
846.342	4116
846.478	4059
846.614	3998
846.75	3915
846.886	3918
847.022	4059
847.158	3975
847.294	3964
847.429	3956
847.565	4013
847.701	4219
847.837	3884
847.972	3854
848.108	3975
848.244	3918
848.379	3854
848.515	3854
848.65	3835
848.786	3842
848.921	3835
849.057	3896
849.192	3922
849.328	3945
849.463	3903
849.598	3918
849.734	3842
849.869	3793
850.004	3781
850.14	3816
850.275	3800
850.41	3679
850.545	3724
850.68	3751
850.815	3785
850.95	3797
851.085	3930
851.22	3857
851.355	3774
851.49	3770
851.625	3755
851.76	3819
851.895	3720
852.03	3713
852.165	3793
852.299	3804
852.434	3907
852.569	3819
852.703	3865
852.838	3926
852.973	4002
853.107	3991
853.242	3854
853.376	3812
853.511	3781
853.645	3823
853.78	3941
853.914	3880
854.048	3861
854.183	3880
854.317	3915
854.451	4032
854.585	3941
854.72	3930
854.854	4055
854.988	3941
855.122	4002
855.256	3934
855.39	3979
855.524	4097
855.658	4051
855.792	4086
855.926	4124
856.06	4135
856.194	4230
856.327	4116
856.461	4128
856.595	4147
856.729	4124
856.862	4223
856.996	4204
857.13	4242
857.263	4329
857.397	4329
857.53	4291
857.664	4295
857.797	4379
857.931	4402
858.064	4390
858.197	4459
858.331	4421
858.464	4383
858.597	4291
858.731	4440
858.864	4481
858.997	4428
859.13	4508
859.263	4531
859.396	4550
859.529	4531
859.662	4489
859.795	4573
859.928	4588
860.061	4740
860.194	4675
860.327	4660
860.46	4656
860.592	4717
860.725	4782
860.858	4759
860.99	4645
861.123	4672
861.256	4664
861.388	4736
861.521	5299
861.653	4675
861.786	4687
861.918	4733
862.05	4786
862.183	4805
862.315	4801
862.447	4915
862.58	4900
862.712	4736
862.844	4752
862.976	4850
863.108	4835
863.24	5216
863.372	4816
863.504	4881
863.636	4862
863.768	4968
863.9	4946
864.032	4927
864.164	4957
864.296	5006
864.428	5045
864.559	5052
864.691	5132
864.823	5102
864.954	5113
865.086	5174
865.217	5098
865.349	5117
865.48	5147
865.612	5147
865.743	5307
865.875	5147
866.006	5147
866.137	5181
866.269	5174
866.4	5208
866.531	5250
866.662	5185
866.793	5288
866.924	5303
867.055	5326
867.186	5318
867.317	5303
867.448	5318
867.579	5334
867.71	5421
867.841	5349
867.972	5452
868.103	5429
868.233	5471
868.364	5459
868.495	5532
868.625	5676
868.756	5764
868.886	5608
869.017	5657
869.147	5874
869.278	5824
869.408	5779
869.539	5855
869.669	5912
869.799	5885
869.929	5961
870.06	5996
870.19	6121
870.32	6163
870.45	6296
870.58	6365
870.71	6490
870.84	6486
870.97	6422
871.1	6403
871.23	6635
871.36	6696
871.489	6681
871.619	6738
871.749	6798
871.879	6882
872.008	6996
872.138	6935
872.267	7004
872.397	6996
872.526	6973
872.656	7099
872.785	7160
872.915	7339
873.044	7419
873.173	7578
873.303	7666
873.432	7719
873.561	7868
873.69	7997
873.819	7989
873.948	8218
874.077	8195
874.206	8313
874.335	8415
874.464	8644
874.593	8781
874.722	8910
874.851	9093
874.979	9264
875.108	9325
875.237	9416
875.365	9466
875.494	9652
875.623	9800
875.751	9873
875.88	10002
876.008	10265
876.136	10276
876.265	10447
876.393	10645
876.521	10694
876.65	10843
876.778	10843
876.906	10930
877.034	10999
877.162	11124
877.29	11170
877.418	11299
877.546	11398
877.674	11414
877.802	11501
877.93	11486
878.058	11570
878.185	11512
878.313	11623
878.441	11821
878.568	11551
878.696	11859
878.824	11878
878.951	11980
879.079	12007
879.206	12091
879.333	12057
879.461	11958
879.588	12041
879.715	12110
879.842	12186
879.97	12068
880.097	11878
880.224	11920
880.351	11805
880.478	11866
880.605	11878
880.732	11813
880.859	12053
880.986	11767
881.112	11798
881.239	11745
881.366	11684
881.493	11668
881.619	11512
881.746	11520
881.872	11516
881.999	11433
882.125	11448
882.252	11543
882.378	11524
882.505	11596
882.631	11406
882.757	11273
882.883	11376
883.01	11147
883.136	11254
883.262	11159
883.388	11071
883.514	11212
883.64	11197
883.766	11105
883.892	11010
884.018	11010
884.143	10976
884.269	11090
884.395	10824
884.52	10786
884.646	10790
884.772	10740
884.897	10653
885.023	10717
885.148	10759
885.274	10725
885.399	10675
885.524	10603
885.65	10580
885.775	10596
885.9	10512
886.025	10626
886.15	10546
886.275	10402
886.4	10352
886.525	10405
886.65	10398
886.775	10322
886.9	10512
887.025	10500
887.149	10352
887.274	10177
887.399	10135
887.523	10177
887.648	10162
887.773	10082
887.897	10230
888.021	10249
888.146	10185
888.27	10154
888.395	10181
888.519	10177
888.643	10120
888.767	10181
888.891	9987
889.015	10013
889.139	10074
889.263	9998
889.387	10120
889.511	10090
889.635	10128
889.759	9979
889.883	10048
890.006	9956
890.13	10010
890.254	9922
890.377	9945
890.501	9816
890.624	9865
890.748	9922
890.871	9827
890.995	9816
891.118	9705
891.241	9770
891.364	9740
891.488	9808
891.611	9781
891.734	9717
891.857	9709
891.98	9698
892.103	9793
892.226	9755
892.349	9766
892.471	9572
892.594	9538
892.717	9622
892.839	9553
892.962	9606
893.085	9584
893.207	9568
893.33	9492
893.452	9538
893.575	9523
893.697	9557
893.819	9606
893.941	9656
894.064	9606
894.186	9447
894.308	9447
894.43	9515
894.552	9549
894.674	9519
894.796	9332
894.918	9386
895.04	9351
895.161	9408
895.283	9332
895.405	9253
895.526	9256
895.648	9211
895.769	9249
895.891	9291
896.012	9306
896.134	9218
896.255	9222
896.376	9131
896.498	9093
896.619	9077
896.74	9108
896.861	9081
896.982	9260
897.103	9249
897.224	9146
897.345	9062
897.466	9001
897.587	9024
897.708	9039
897.828	9017
897.949	8918
898.07	8834
898.19	8914
898.311	8990
898.431	8864
898.552	8895
898.672	8986
898.792	8948
898.913	8921
899.033	8777
899.153	8689
899.273	8594
899.393	8743
899.513	8663
899.633	8712
899.753	8705
899.873	8724
899.993	8769
900.113	8667
900.232	8716
900.352	8583
900.472	8644
900.591	8537
900.711	8594
900.83	8507
900.95	8678
901.069	8655
901.189	8514
901.308	8404
901.427	8370
901.546	8377
901.665	8434
901.784	8465
901.904	8381
902.023	8370
902.141	8187
902.26	8180
902.379	8279
902.498	8210
902.617	8267
902.735	8244
902.854	8259
902.973	8267
903.091	8138
903.21	8123
903.328	8210
903.446	8065
903.565	8084
903.683	8065
903.801	8001
903.919	8050
904.038	8195
904.156	8024
904.274	8050
904.392	7940
904.51	7989
904.627	8107
904.745	8058
904.863	8069
904.981	7955
905.098	7837
905.216	7856
905.334	7856
905.451	7928
905.569	7864
905.686	7936
905.803	7879
905.921	7746
906.038	7921
906.155	7803
906.272	7719
906.389	7647
906.506	7601
906.623	7636
906.74	7620
906.857	7594
906.974	7529
907.091	7624
907.208	7753
907.324	7586
907.441	7537
907.557	7476
907.674	7400
907.79	7426
907.907	7468
908.023	7415
908.139	7438
908.256	7441
908.372	7312
908.488	7343
908.604	7209
908.72	7259
908.836	7255
908.952	7228
909.068	7164
909.184	7270
909.3	7270
909.415	7285
909.531	7225
909.647	7160
909.762	7114
909.878	7110
909.993	7095
910.108	7091
910.224	7019
910.339	7076
910.454	7015
910.57	7012
910.685	6932
910.8	7126
910.915	7080
911.03	7038
911.145	6878
911.259	6856
911.374	6897
911.489	6821
911.604	6760
911.718	6749
911.833	6791
911.947	6612
912.062	6570
912.176	6715
912.291	6749
912.405	6684
912.519	6829
912.633	6798
912.748	6734
912.862	6662
912.976	6559
913.09	6506
913.204	6608
913.318	6623
913.431	6616
913.545	6608
913.659	6665
913.772	6673
913.886	6551
914	6544
914.113	6612
914.226	6612
914.34	6601
914.453	6471
914.566	6509
914.68	6483
914.793	6525
914.906	6445
915.019	6410
915.132	6376
915.245	6391
915.358	6460
915.47	6418
915.583	6422
915.696	6460
915.809	6540
915.921	6525
916.034	6429
916.146	6388
916.259	6319
916.371	6490
916.483	6448
916.595	6361
916.708	6433
916.82	6384
916.932	6331
917.044	6395
917.156	6353
917.268	6235
917.38	6319
917.491	6289
917.603	6388
917.715	6380
917.826	6372
917.938	6372
918.049	6251
918.161	6304
918.272	6403
918.384	6384
918.495	6376
918.606	6216
918.717	6136
918.828	6254
918.939	6213
919.05	6201
919.161	6224
919.272	6060
919.383	6117
919.494	6232
919.604	6350
919.715	6270
919.826	6201
919.936	6186
920.047	6342
920.157	6247
920.267	6433
920.378	6277
920.488	6235
920.598	6448
920.708	6589
920.818	6429
920.928	6471
921.038	6585
921.148	6578
921.258	6327
921.368	6300
921.477	6190
921.587	6163
921.697	6095
921.806	6152
921.916	6110
922.025	5935
922.134	5931
922.244	5904
922.353	5939
922.462	5798
922.571	5786
922.68	5695
922.789	5646
922.898	5703
923.007	5600
923.116	5638
923.224	5653
923.333	5703
923.442	5615
923.55	5528
923.659	5562
923.767	5608
923.876	5509
923.984	5554
924.092	5490
924.201	5532
924.309	5539
924.417	5497
924.525	5410
924.633	5501
924.741	6228
924.849	5299
924.956	5486
925.064	5280
925.172	5307
925.279	5307
925.387	5337
925.494	5307
925.602	5410
925.709	5372
925.816	5296
925.924	5299
926.031	5383
926.138	5303
926.245	5280
926.352	5235
926.459	5307
926.566	5296
926.673	5204
926.779	5075
926.886	5143
926.993	5003
927.099	5006
927.206	4957
927.312	4930
927.419	4953
927.525	4995
927.631	4961
927.737	4854
927.843	4889
927.95	4740
928.056	4820
928.162	4809
928.267	4835
928.373	5288
928.479	4790
928.585	4702
928.69	4714
928.796	4755
928.901	4721
929.007	4607
929.112	4656
929.218	4664
929.323	4588
929.428	4577
929.533	4626
929.638	4542
929.743	4542
929.848	4542
929.953	4519
930.058	4459
930.163	4303
930.267	4325
930.372	4413
930.477	4299
930.581	4443
930.685	4333
930.79	4227
930.894	4295
930.998	4200
931.103	4352
931.207	4116
931.311	4090
931.415	4040
931.519	3907
931.623	3915
