Data from glass_V78500241_1082.txt Node
Date: Wed Sep 01 19:22:00 CST 2021
User: usil
Spectrometer: V785-0024
Trigger mode: 0
Integration Time (sec): 4.000000E-1
Scans to average: 1
Nonlinearity correction enabled: false
Boxcar width: 0
Storing dark spectrum: false
XAxis mode: Wavelengths
Number of Pixels in Spectrum: 1024
>>>>>Begin Spectral Data<<<<<
801.071	3728
801.214	3781
801.356	3701
801.499	3720
801.641	3740
801.783	3793
801.926	3903
802.068	3854
802.211	3888
802.353	3930
802.496	3857
802.638	3884
802.78	3869
802.923	3934
803.065	3888
803.208	3865
803.35	3922
803.492	3869
803.635	3937
803.777	3823
803.919	3884
804.061	4131
804.204	3991
804.346	3930
804.488	3918
804.63	4040
804.773	4006
804.915	4040
805.057	4200
805.199	4048
805.341	4097
805.483	4181
805.626	4150
805.768	4128
805.91	4249
806.052	4234
806.194	4207
806.336	4344
806.478	4253
806.62	4234
806.762	4166
806.904	4299
807.046	4394
807.188	4242
807.33	4188
807.472	4242
807.614	4215
807.756	4299
807.898	4268
808.04	4265
808.182	4299
808.324	4341
808.465	4379
808.607	4500
808.749	4447
808.891	4451
809.033	4504
809.174	4371
809.316	4280
809.458	4227
809.6	4150
809.741	4128
809.883	4150
810.025	4188
810.166	4219
810.308	4238
810.45	4246
810.591	4238
810.733	4261
810.875	4542
811.016	4843
811.158	5128
811.299	5277
811.441	5299
811.582	5067
811.724	4672
811.865	4497
812.007	4459
812.148	4443
812.29	4413
812.431	4409
812.573	4383
812.714	4455
812.855	4398
812.997	4409
813.138	4512
813.279	4436
813.421	4348
813.562	4394
813.703	4348
813.845	4322
813.986	4287
814.127	4227
814.268	4268
814.41	4276
814.551	4287
814.692	4348
814.833	4249
814.974	4253
815.115	4371
815.256	4268
815.397	4261
815.539	4257
815.68	4211
815.821	4246
815.962	4303
816.103	4280
816.244	4242
816.385	4215
816.526	4253
816.666	4246
816.807	4109
816.948	4166
817.089	4181
817.23	4124
817.371	4093
817.512	4074
817.653	4097
817.793	4055
817.934	4025
818.075	4093
818.216	4086
818.356	4150
818.497	3953
818.638	3934
818.778	3941
818.919	3857
819.06	3850
819.2	3945
819.341	3861
819.481	3857
819.622	3896
819.762	4036
819.903	3972
820.043	3869
820.184	3884
820.324	3812
820.465	3892
820.605	3869
820.746	3876
820.886	3816
821.026	3922
821.167	3930
821.307	4002
821.447	3983
821.588	3934
821.728	3934
821.868	3941
822.008	3880
822.149	3937
822.289	3934
822.429	3770
822.569	3781
822.709	3838
822.849	3667
822.99	3720
823.13	3762
823.27	3785
823.41	3717
823.55	3736
823.69	3774
823.83	3736
823.97	3671
824.11	3660
824.25	3576
824.389	3656
824.529	3641
824.669	3603
824.809	3728
824.949	3747
825.089	3740
825.228	3747
825.368	3557
825.508	3576
825.648	3606
825.787	3641
825.927	3667
826.067	3622
826.206	3652
826.346	3827
826.485	3850
826.625	3838
826.765	3964
826.904	3857
827.044	3618
827.183	3572
827.323	3439
827.462	3473
827.601	3488
827.741	3450
827.88	3447
828.02	3424
828.159	3439
828.298	3504
828.437	3504
828.577	3496
828.716	3648
828.855	3477
828.994	3351
829.134	3409
829.273	3428
829.412	3409
829.551	3374
829.69	3420
829.829	3424
829.968	3507
830.107	3443
830.246	3462
830.385	3355
830.524	3367
830.663	3325
830.802	3317
830.941	3192
831.08	3218
831.219	3253
831.357	3283
831.496	3386
831.635	3287
831.774	3192
831.913	3230
832.051	3157
832.19	3142
832.329	3214
832.467	3123
832.606	3104
832.744	3188
832.883	3188
833.022	3165
833.16	3241
833.299	3287
833.437	3329
833.576	3332
833.714	3435
833.852	3412
833.991	3443
834.129	3496
834.267	3450
834.406	3409
834.544	3435
834.682	3420
834.821	3409
834.959	3549
835.097	3435
835.235	3542
835.373	3515
835.511	3511
835.65	3488
835.788	3496
835.926	3363
836.064	3374
836.202	3435
836.34	3557
836.478	3641
836.615	3530
836.753	3614
836.891	3637
837.029	3648
837.167	3584
837.305	3564
837.443	3542
837.58	3545
837.718	3622
837.856	3599
837.993	3549
838.131	3603
838.269	3591
838.406	3606
838.544	3568
838.681	3450
838.819	3439
838.956	3412
839.094	3424
839.231	3424
839.369	3545
839.506	3724
839.643	3663
839.781	3523
839.918	3492
840.055	3519
840.193	3534
840.33	3568
840.467	3557
840.604	3603
840.742	3831
840.879	3511
841.016	3576
841.153	3606
841.29	3793
841.427	3709
841.564	3705
841.701	3781
841.838	3736
841.975	3686
842.112	3701
842.249	3618
842.385	3690
842.522	3800
842.659	3720
842.796	3679
842.933	3728
843.069	3717
843.206	3743
843.343	3789
843.479	3789
843.616	3819
843.752	3686
843.889	3713
844.025	3846
844.162	3720
844.298	3846
844.435	3800
844.571	3785
844.708	3892
844.844	4006
844.98	3994
845.117	3968
845.253	3926
845.389	3888
845.525	3903
845.661	3972
845.798	3903
845.934	4025
846.07	4006
846.206	4078
846.342	4131
846.478	4105
846.614	3945
846.75	3975
846.886	3896
847.022	4044
847.158	4044
847.294	3987
847.429	4032
847.565	3991
847.701	4234
847.837	3857
847.972	3861
848.108	3987
848.244	3903
848.379	3899
848.515	3846
848.65	3804
848.786	3857
848.921	3903
849.057	3892
849.192	3945
849.328	3934
849.463	3930
849.598	3907
849.734	3831
849.869	3831
850.004	3778
850.14	3808
850.275	3812
850.41	3770
850.545	3747
850.68	3774
850.815	3797
850.95	3823
851.085	3968
851.22	3869
851.355	3842
851.49	3804
851.625	3804
851.76	3800
851.895	3724
852.03	3705
852.165	3823
852.299	3816
852.434	3941
852.569	3884
852.703	3884
852.838	3918
852.973	4010
853.107	4017
853.242	3899
853.376	3850
853.511	3797
853.645	3808
853.78	3983
853.914	3926
854.048	3899
854.183	3949
854.317	3941
854.451	4078
854.585	3934
854.72	3941
854.854	4067
854.988	3956
855.122	3975
855.256	3968
855.39	4029
855.524	4112
855.658	4090
855.792	4158
855.926	4139
856.06	4143
856.194	4207
856.327	4154
856.461	4105
856.595	4150
856.729	4181
856.862	4246
856.996	4227
857.13	4287
857.263	4363
857.397	4325
857.53	4306
857.664	4375
857.797	4394
857.931	4424
858.064	4432
858.197	4481
858.331	4440
858.464	4390
858.597	4337
858.731	4428
858.864	4440
858.997	4436
859.13	4504
859.263	4569
859.396	4584
859.529	4531
859.662	4497
859.795	4493
859.928	4645
860.061	4748
860.194	4736
860.327	4656
860.46	4660
860.592	4752
860.725	4771
860.858	4771
860.99	4691
861.123	4752
861.256	4664
861.388	4831
861.521	5391
861.653	4717
861.786	4710
861.918	4774
862.05	4824
862.183	4782
862.315	4854
862.447	4885
862.58	4862
862.712	4809
862.844	4763
862.976	4854
863.108	4908
863.24	5239
863.372	4805
863.504	4927
863.636	4911
863.768	5006
863.9	4972
864.032	4915
864.164	4946
864.296	4980
864.428	5079
864.559	5113
864.691	5079
864.823	5090
864.954	5117
865.086	5140
865.217	5128
865.349	5102
865.48	5170
865.612	5128
865.743	5288
865.875	5208
866.006	5208
866.137	5296
866.269	5235
866.4	5273
866.531	5216
866.662	5242
866.793	5303
866.924	5239
867.055	5311
867.186	5368
867.317	5292
867.448	5318
867.579	5433
867.71	5372
867.841	5353
867.972	5478
868.103	5467
868.233	5467
868.364	5505
868.495	5577
868.625	5710
868.756	5786
868.886	5634
869.017	5710
869.147	5904
869.278	5893
869.408	5779
869.539	5866
869.669	6007
869.799	5897
869.929	6038
870.06	6068
870.19	6175
870.32	6152
870.45	6285
870.58	6327
870.71	6410
870.84	6506
870.97	6395
871.1	6426
871.23	6620
871.36	6726
871.489	6715
871.619	6764
871.749	6818
871.879	6905
872.008	7000
872.138	7031
872.267	7031
872.397	7000
872.526	6996
872.656	7088
872.785	7190
872.915	7362
873.044	7548
873.173	7575
873.303	7647
873.432	7769
873.561	7921
873.69	7879
873.819	8039
873.948	8183
874.077	8221
874.206	8377
874.335	8438
874.464	8670
874.593	8910
874.722	8944
874.851	9097
874.979	9256
875.108	9340
875.237	9469
875.365	9469
875.494	9720
875.623	9827
875.751	9797
875.88	10013
876.008	10181
876.136	10303
876.265	10596
876.393	10714
876.521	10733
876.65	10736
876.778	10938
876.906	10858
877.034	11064
877.162	11121
877.29	11170
877.418	11307
877.546	11376
877.674	11395
877.802	11478
877.93	11543
878.058	11585
878.185	11619
878.313	11657
878.441	11691
878.568	11672
878.696	11840
878.824	11916
878.951	11965
879.079	11950
879.206	12163
879.333	12007
879.461	12019
879.588	12064
879.715	12057
879.842	12197
879.97	12110
880.097	11916
880.224	11878
880.351	11874
880.478	11920
880.605	11882
880.732	11802
880.859	12041
880.986	11863
881.112	11828
881.239	11748
881.366	11657
881.493	11577
881.619	11562
881.746	11539
881.872	11539
881.999	11570
882.125	11414
882.252	11608
882.378	11505
882.505	11630
882.631	11402
882.757	11379
882.883	11261
883.01	11284
883.136	11231
883.262	11086
883.388	11071
883.514	11174
883.64	11143
883.766	11086
883.892	10972
884.018	11010
884.143	11071
884.269	11136
884.395	10839
884.52	10782
884.646	10809
884.772	10710
884.897	10740
885.023	10706
885.148	10717
885.274	10816
885.399	10729
885.524	10637
885.65	10637
885.775	10687
885.9	10538
886.025	10649
886.15	10512
886.275	10485
886.4	10322
886.525	10428
886.65	10291
886.775	10306
886.9	10493
887.025	10535
887.149	10375
887.274	10188
887.399	10204
887.523	10120
887.648	10154
887.773	10101
887.897	10295
888.021	10173
888.146	10131
888.27	10219
888.395	10284
888.519	10082
888.643	10219
888.767	10166
888.891	10131
889.015	10010
889.139	10093
889.263	10021
889.387	10048
889.511	10097
889.635	10101
889.759	9956
889.883	9991
890.006	9987
890.13	10128
890.254	9998
890.377	10059
890.501	9865
890.624	9911
890.748	9922
890.871	9819
890.995	9804
891.118	9740
891.241	9755
891.364	9778
891.488	9842
891.611	9641
891.734	9743
891.857	9857
891.98	9690
892.103	9728
892.226	9675
892.349	9663
892.471	9530
892.594	9534
892.717	9618
892.839	9644
892.962	9610
893.085	9736
893.207	9610
893.33	9538
893.452	9561
893.575	9622
893.697	9481
893.819	9629
893.941	9606
894.064	9576
894.186	9443
894.308	9447
894.43	9542
894.552	9584
894.674	9526
894.796	9374
894.918	9439
895.04	9367
895.161	9450
895.283	9401
895.405	9207
895.526	9264
895.648	9321
895.769	9272
895.891	9272
896.012	9279
896.134	9279
896.255	9138
896.376	9100
896.498	9150
896.619	9169
896.74	9104
896.861	9184
896.982	9272
897.103	9306
897.224	9169
897.345	9097
897.466	9009
897.587	9017
897.708	9066
897.828	9062
897.949	8971
898.07	8887
898.19	9001
898.311	8963
898.431	8880
898.552	8906
898.672	8971
898.792	9020
898.913	8944
899.033	8887
899.153	8746
899.273	8632
899.393	8758
899.513	8712
899.633	8727
899.753	8811
899.873	8712
899.993	8705
900.113	8739
900.232	8731
900.352	8659
900.472	8621
900.591	8579
900.711	8579
900.83	8537
900.95	8777
901.069	8731
901.189	8629
901.308	8473
901.427	8374
901.546	8415
901.665	8552
901.784	8488
901.904	8358
902.023	8370
902.141	8180
902.26	8176
902.379	8267
902.498	8187
902.617	8263
902.735	8374
902.854	8309
902.973	8309
903.091	8138
903.21	8134
903.328	8153
903.446	8168
903.565	8134
903.683	8073
903.801	8069
903.919	8164
904.038	8103
904.156	7993
904.274	8020
904.392	8046
904.51	7993
904.627	8043
904.745	8039
904.863	8119
904.981	7875
905.098	7852
905.216	7837
905.334	7928
905.451	7898
905.569	7913
905.686	7932
905.803	7928
905.921	7776
906.038	7879
906.155	7742
906.272	7795
906.389	7696
906.506	7620
906.623	7620
906.74	7620
906.857	7567
906.974	7636
907.091	7689
907.208	7742
907.324	7632
907.441	7582
907.557	7480
907.674	7449
907.79	7438
907.907	7438
908.023	7411
908.139	7400
908.256	7381
908.372	7388
908.488	7343
908.604	7308
908.72	7312
908.836	7339
908.952	7228
909.068	7251
909.184	7369
909.3	7247
909.415	7297
909.531	7228
909.647	7122
909.762	7133
909.878	7103
909.993	7129
910.108	7084
910.224	7008
910.339	7145
910.454	7061
910.57	7019
910.685	6958
910.8	7206
910.915	7088
911.03	7110
911.145	6878
911.259	6913
911.374	6924
911.489	6821
911.604	6859
911.718	6760
911.833	6753
911.947	6635
912.062	6639
912.176	6707
912.291	6722
912.405	6646
912.519	6848
912.633	6821
912.748	6711
912.862	6669
912.976	6601
913.09	6506
913.204	6631
913.318	6635
913.431	6741
913.545	6665
913.659	6741
913.772	6692
913.886	6589
914	6528
914.113	6593
914.226	6650
914.34	6597
914.453	6456
914.566	6597
914.68	6532
914.793	6460
914.906	6410
915.019	6452
915.132	6437
915.245	6407
915.358	6407
915.47	6475
915.583	6486
915.696	6509
915.809	6528
915.921	6547
916.034	6353
916.146	6441
916.259	6357
916.371	6475
916.483	6414
916.595	6388
916.708	6391
916.82	6426
916.932	6399
917.044	6357
917.156	6422
917.268	6311
917.38	6357
917.491	6311
917.603	6407
917.715	6380
917.826	6418
917.938	6372
918.049	6281
918.161	6361
918.272	6448
918.384	6403
918.495	6357
918.606	6239
918.717	6247
918.828	6273
918.939	6270
919.05	6197
919.161	6251
919.272	6167
919.383	6140
919.494	6334
919.604	6426
919.715	6338
919.826	6239
919.936	6331
920.047	6369
920.157	6247
920.267	6486
920.378	6334
920.488	6251
920.598	6490
920.708	6623
920.818	6490
920.928	6502
921.038	6593
921.148	6593
921.258	6365
921.368	6311
921.477	6175
921.587	6140
921.697	6057
921.806	6190
921.916	6098
922.025	5984
922.134	5912
922.244	5866
922.353	5889
922.462	5779
922.571	5794
922.68	5718
922.789	5653
922.898	5699
923.007	5608
923.116	5741
923.224	5611
923.333	5649
923.442	5543
923.55	5551
923.659	5596
923.767	5634
923.876	5516
923.984	5619
924.092	5509
924.201	5551
924.309	5589
924.417	5581
924.525	5539
924.633	5490
924.741	6292
924.849	5376
924.956	5471
925.064	5318
925.172	5307
925.279	5303
925.387	5410
925.494	5353
925.602	5368
925.709	5357
925.816	5334
925.924	5391
926.031	5357
926.138	5322
926.245	5368
926.352	5273
926.459	5391
926.566	5345
926.673	5242
926.779	5174
926.886	5124
926.993	5060
927.099	4991
927.206	4968
927.312	5006
927.419	5033
927.525	4984
927.631	5010
927.737	4942
927.843	4877
927.95	4752
928.056	4839
928.162	4847
928.267	4870
928.373	5376
928.479	4858
928.585	4672
928.69	4786
928.796	4793
928.901	4683
929.007	4554
929.112	4687
929.218	4626
929.323	4603
929.428	4561
929.533	4664
929.638	4493
929.743	4596
929.848	4577
929.953	4516
930.058	4451
930.163	4367
930.267	4379
930.372	4455
930.477	4299
930.581	4508
930.685	4383
930.79	4238
930.894	4249
930.998	4268
931.103	4379
931.207	4143
931.311	4093
931.415	4025
931.519	3926
931.623	3979
