Data from glass_V78500241_2393.txt Node
Date: Wed Sep 01 19:31:05 CST 2021
User: usil
Spectrometer: V785-0024
Trigger mode: 0
Integration Time (sec): 4.000000E-1
Scans to average: 1
Nonlinearity correction enabled: false
Boxcar width: 0
Storing dark spectrum: false
XAxis mode: Wavelengths
Number of Pixels in Spectrum: 1024
>>>>>Begin Spectral Data<<<<<
801.071	3720
801.214	3781
801.356	3705
801.499	3728
801.641	3747
801.783	3770
801.926	3838
802.068	3793
802.211	3850
802.353	3873
802.496	3835
802.638	3918
802.78	3869
802.923	3907
803.065	3907
803.208	3850
803.35	3846
803.492	3899
803.635	3884
803.777	3785
803.919	3907
804.061	4166
804.204	3949
804.346	3907
804.488	3888
804.63	4071
804.773	3930
804.915	4002
805.057	4150
805.199	4067
805.341	4067
805.483	4150
805.626	4093
805.768	4082
805.91	4177
806.052	4223
806.194	4154
806.336	4333
806.478	4219
806.62	4196
806.762	4192
806.904	4246
807.046	4284
807.188	4215
807.33	4124
807.472	4192
807.614	4188
807.756	4242
807.898	4242
808.04	4215
808.182	4257
808.324	4303
808.465	4341
808.607	4451
808.749	4417
808.891	4485
809.033	4500
809.174	4402
809.316	4253
809.458	4234
809.6	4181
809.741	4154
809.883	4150
810.025	4215
810.166	4185
810.308	4223
810.45	4261
810.591	4230
810.733	4249
810.875	4519
811.016	4816
811.158	5151
811.299	5296
811.441	5265
811.582	5029
811.724	4637
811.865	4516
812.007	4508
812.148	4421
812.29	4383
812.431	4402
812.573	4375
812.714	4348
812.855	4398
812.997	4417
813.138	4500
813.279	4417
813.421	4375
813.562	4386
813.703	4322
813.845	4303
813.986	4299
814.127	4246
814.268	4272
814.41	4314
814.551	4299
814.692	4310
814.833	4299
814.974	4303
815.115	4371
815.256	4265
815.397	4211
815.539	4200
815.68	4192
815.821	4223
815.962	4356
816.103	4219
816.244	4211
816.385	4234
816.526	4284
816.666	4196
816.807	4044
816.948	4211
817.089	4188
817.23	4082
817.371	4067
817.512	4067
817.653	4040
817.793	4025
817.934	4063
818.075	4074
818.216	4101
818.356	4109
818.497	3941
818.638	3918
818.778	3934
818.919	3876
819.06	3823
819.2	3941
819.341	3835
819.481	3846
819.622	3899
819.762	4063
819.903	3934
820.043	3865
820.184	3812
820.324	3819
820.465	3835
820.605	3869
820.746	3873
820.886	3781
821.026	3953
821.167	3911
821.307	3991
821.447	3968
821.588	3953
821.728	3960
821.868	3899
822.008	3869
822.149	3915
822.289	3892
822.429	3812
822.569	3751
822.709	3789
822.849	3732
822.99	3705
823.13	3751
823.27	3762
823.41	3720
823.55	3705
823.69	3717
823.83	3728
823.97	3648
824.11	3622
824.25	3595
824.389	3644
824.529	3663
824.669	3633
824.809	3720
824.949	3728
825.089	3720
825.228	3663
825.368	3591
825.508	3603
825.648	3545
825.787	3618
825.927	3644
826.067	3610
826.206	3652
826.346	3774
826.485	3804
826.625	3865
826.765	3968
826.904	3831
827.044	3587
827.183	3515
827.323	3443
827.462	3492
827.601	3405
827.741	3454
827.88	3439
828.02	3374
828.159	3409
828.298	3515
828.437	3507
828.577	3428
828.716	3603
828.855	3496
828.994	3363
829.134	3355
829.273	3389
829.412	3374
829.551	3329
829.69	3313
829.829	3386
829.968	3538
830.107	3450
830.246	3454
830.385	3389
830.524	3348
830.663	3283
830.802	3264
830.941	3199
831.08	3184
831.219	3260
831.357	3249
831.496	3416
831.635	3226
831.774	3184
831.913	3245
832.051	3108
832.19	3135
832.329	3165
832.467	3104
832.606	3089
832.744	3135
832.883	3203
833.022	3161
833.16	3192
833.299	3291
833.437	3336
833.576	3359
833.714	3416
833.852	3435
833.991	3450
834.129	3462
834.267	3458
834.406	3389
834.544	3412
834.682	3416
834.821	3405
834.959	3553
835.097	3405
835.235	3523
835.373	3473
835.511	3534
835.65	3450
835.788	3473
835.926	3389
836.064	3351
836.202	3367
836.34	3587
836.478	3633
836.615	3545
836.753	3584
836.891	3648
837.029	3572
837.167	3591
837.305	3553
837.443	3564
837.58	3500
837.718	3606
837.856	3530
837.993	3557
838.131	3591
838.269	3580
838.406	3572
838.544	3557
838.681	3450
838.819	3450
838.956	3355
839.094	3420
839.231	3412
839.369	3515
839.506	3736
839.643	3614
839.781	3481
839.918	3469
840.055	3515
840.193	3515
840.33	3534
840.467	3568
840.604	3549
840.742	3785
840.879	3542
841.016	3515
841.153	3595
841.29	3720
841.427	3705
841.564	3709
841.701	3747
841.838	3679
841.975	3641
842.112	3690
842.249	3679
842.385	3629
842.522	3838
842.659	3701
842.796	3629
842.933	3679
843.069	3667
843.206	3713
843.343	3808
843.479	3789
843.616	3800
843.752	3644
843.889	3663
844.025	3861
844.162	3717
844.298	3854
844.435	3778
844.571	3770
844.708	3884
844.844	4002
844.98	4029
845.117	4010
845.253	3953
845.389	3911
845.525	3945
845.661	3911
845.798	3911
845.934	3998
846.07	3945
846.206	4006
846.342	4078
846.478	4013
846.614	3964
846.75	3911
846.886	3911
847.022	3964
847.158	3968
847.294	3994
847.429	4036
847.565	3945
847.701	4234
847.837	3869
847.972	3838
848.108	3991
848.244	3972
848.379	3861
848.515	3797
848.65	3766
848.786	3842
848.921	3827
849.057	3915
849.192	3941
849.328	3918
849.463	3861
849.598	3827
849.734	3865
849.869	3831
850.004	3747
850.14	3800
850.275	3827
850.41	3682
850.545	3755
850.68	3755
850.815	3793
850.95	3751
851.085	3930
851.22	3842
851.355	3804
851.49	3800
851.625	3816
851.76	3770
851.895	3740
852.03	3728
852.165	3759
852.299	3804
852.434	3903
852.569	3869
852.703	3850
852.838	3941
852.973	3949
853.107	3960
853.242	3842
853.376	3831
853.511	3759
853.645	3797
853.78	3968
853.914	3854
854.048	3934
854.183	3854
854.317	3941
854.451	4017
854.585	3953
854.72	3953
854.854	4059
854.988	3956
855.122	4017
855.256	3930
855.39	3983
855.524	4139
855.658	4048
855.792	4097
855.926	4135
856.06	4166
856.194	4173
856.327	4128
856.461	4090
856.595	4112
856.729	4192
856.862	4234
856.996	4227
857.13	4287
857.263	4295
857.397	4375
857.53	4291
857.664	4348
857.797	4394
857.931	4402
858.064	4371
858.197	4447
858.331	4386
858.464	4367
858.597	4352
858.731	4436
858.864	4417
858.997	4470
859.13	4455
859.263	4519
859.396	4554
859.529	4554
859.662	4523
859.795	4538
859.928	4603
860.061	4725
860.194	4763
860.327	4653
860.46	4653
860.592	4729
860.725	4763
860.858	4736
860.99	4649
861.123	4702
861.256	4698
861.388	4816
861.521	5482
861.653	4702
861.786	4729
861.918	4736
862.05	4797
862.183	4835
862.315	4896
862.447	4885
862.58	4850
862.712	4782
862.844	4752
862.976	4858
863.108	4847
863.24	5197
863.372	4805
863.504	4847
863.636	4885
863.768	4942
863.9	4965
864.032	4900
864.164	4938
864.296	5006
864.428	5075
864.559	5105
864.691	5102
864.823	5083
864.954	5105
865.086	5147
865.217	5048
865.349	5128
865.48	5185
865.612	5166
865.743	5242
865.875	5166
866.006	5185
866.137	5216
866.269	5254
866.4	5273
866.531	5185
866.662	5204
866.793	5288
866.924	5235
867.055	5330
867.186	5326
867.317	5318
867.448	5334
867.579	5360
867.71	5360
867.841	5341
867.972	5452
868.103	5471
868.233	5425
868.364	5497
868.495	5551
868.625	5649
868.756	5737
868.886	5638
869.017	5741
869.147	5863
869.278	5855
869.408	5802
869.539	5824
869.669	5908
869.799	5882
869.929	6019
870.06	5988
870.19	6171
870.32	6213
870.45	6308
870.58	6414
870.71	6448
870.84	6498
870.97	6403
871.1	6418
871.23	6650
871.36	6700
871.489	6635
871.619	6684
871.749	6760
871.879	6806
872.008	6962
872.138	6894
872.267	7084
872.397	7012
872.526	7061
872.656	7114
872.785	7194
872.915	7320
873.044	7457
873.173	7506
873.303	7628
873.432	7742
873.561	7788
873.69	7826
873.819	8016
873.948	8100
874.077	8305
874.206	8294
874.335	8465
874.464	8598
874.593	8872
874.722	8918
874.851	9074
874.979	9253
875.108	9313
875.237	9386
875.365	9435
875.494	9682
875.623	9823
875.751	9835
875.88	9930
876.008	10154
876.136	10306
876.265	10459
876.393	10653
876.521	10637
876.65	10790
876.778	10949
876.906	10911
877.034	11029
877.162	11060
877.29	11121
877.418	11258
877.546	11395
877.674	11444
877.802	11471
877.93	11493
878.058	11619
878.185	11547
878.313	11726
878.441	11680
878.568	11638
878.696	11775
878.824	11859
878.951	11939
879.079	12034
879.206	12079
879.333	12133
879.461	11999
879.588	12045
879.715	12095
879.842	12186
879.97	12076
880.097	11863
880.224	11745
880.351	11912
880.478	11969
880.605	11908
880.732	11821
880.859	11950
880.986	11836
881.112	11817
881.239	11726
881.366	11707
881.493	11573
881.619	11509
881.746	11558
881.872	11566
881.999	11486
882.125	11474
882.252	11474
882.378	11448
882.505	11573
882.631	11379
882.757	11254
882.883	11277
883.01	11189
883.136	11208
883.262	11128
883.388	11128
883.514	11189
883.64	11155
883.766	11060
883.892	10972
884.018	10961
884.143	11052
884.269	11071
884.395	10869
884.52	10793
884.646	10759
884.772	10748
884.897	10687
885.023	10679
885.148	10744
885.274	10740
885.399	10748
885.524	10577
885.65	10596
885.775	10577
885.9	10538
886.025	10637
886.15	10535
886.275	10409
886.4	10432
886.525	10382
886.65	10386
886.775	10337
886.9	10519
887.025	10577
887.149	10341
887.274	10200
887.399	10139
887.523	10139
887.648	10128
887.773	10101
887.897	10238
888.021	10158
888.146	10048
888.27	10253
888.395	10261
888.519	10139
888.643	10215
888.767	10215
888.891	10120
889.015	9972
889.139	10128
889.263	9903
889.387	10139
889.511	10036
889.635	10067
889.759	9918
889.883	9907
890.006	9975
890.13	10093
890.254	9945
890.377	9983
890.501	9835
890.624	9884
890.748	9930
890.871	9793
890.995	9690
891.118	9759
891.241	9732
891.364	9705
891.488	9892
891.611	9740
891.734	9694
891.857	9838
891.98	9686
892.103	9766
892.226	9641
892.349	9663
892.471	9530
892.594	9603
892.717	9663
892.839	9587
892.962	9622
893.085	9633
893.207	9614
893.33	9534
893.452	9500
893.575	9580
893.697	9492
893.819	9679
893.941	9660
894.064	9606
894.186	9428
894.308	9321
894.43	9523
894.552	9458
894.674	9447
894.796	9431
894.918	9325
895.04	9344
895.161	9363
895.283	9294
895.405	9237
895.526	9253
895.648	9241
895.769	9260
895.891	9203
896.012	9298
896.134	9176
896.255	9230
896.376	9192
896.498	9176
896.619	9112
896.74	9077
896.861	9135
896.982	9180
897.103	9302
897.224	9070
897.345	9077
897.466	9013
897.587	9032
897.708	9058
897.828	9020
897.949	8910
898.07	8902
898.19	8914
898.311	8941
898.431	8895
898.552	8921
898.672	8872
898.792	8891
898.913	8937
899.033	8701
899.153	8792
899.273	8670
899.393	8701
899.513	8682
899.633	8731
899.753	8670
899.873	8651
899.993	8682
900.113	8708
900.232	8667
900.352	8655
900.472	8598
900.591	8568
900.711	8613
900.83	8476
900.95	8686
901.069	8697
901.189	8526
901.308	8446
901.427	8381
901.546	8396
901.665	8514
901.784	8499
901.904	8396
902.023	8339
902.141	8259
902.26	8168
902.379	8248
902.498	8202
902.617	8206
902.735	8248
902.854	8176
902.973	8294
903.091	8138
903.21	8134
903.328	8145
903.446	8176
903.565	8020
903.683	8088
903.801	8012
903.919	8062
904.038	8065
904.156	8077
904.274	8043
904.392	8012
904.51	8024
904.627	8001
904.745	8161
904.863	8077
904.981	7913
905.098	7909
905.216	7864
905.334	7849
905.451	7932
905.569	7890
905.686	7894
905.803	7887
905.921	7738
906.038	7868
906.155	7818
906.272	7670
906.389	7658
906.506	7689
906.623	7609
906.74	7616
906.857	7582
906.974	7563
907.091	7681
907.208	7685
907.324	7613
907.441	7510
907.557	7430
907.674	7491
907.79	7339
907.907	7373
908.023	7422
908.139	7491
908.256	7377
908.372	7381
908.488	7343
908.604	7225
908.72	7225
908.836	7316
908.952	7236
909.068	7263
909.184	7297
909.3	7274
909.415	7285
909.531	7289
909.647	7129
909.762	7122
909.878	7152
909.993	7114
910.108	7019
910.224	7076
910.339	7076
910.454	7053
910.57	6970
910.685	6916
910.8	7149
910.915	7122
911.03	7084
911.145	6909
911.259	6837
911.374	6840
911.489	6745
911.604	6833
911.718	6662
911.833	6681
911.947	6631
912.062	6593
912.176	6673
912.291	6669
912.405	6715
912.519	6795
912.633	6798
912.748	6730
912.862	6616
912.976	6563
913.09	6563
913.204	6570
913.318	6601
913.431	6730
913.545	6662
913.659	6688
913.772	6616
913.886	6559
914	6528
914.113	6616
914.226	6604
914.34	6601
914.453	6486
914.566	6601
914.68	6498
914.793	6547
914.906	6410
915.019	6475
915.132	6311
915.245	6486
915.358	6464
915.47	6441
915.583	6456
915.696	6418
915.809	6494
915.921	6566
916.034	6304
916.146	6426
916.259	6346
916.371	6441
916.483	6418
916.595	6376
916.708	6357
916.82	6418
916.932	6331
917.044	6429
917.156	6327
917.268	6338
917.38	6350
917.491	6365
917.603	6315
917.715	6399
917.826	6388
917.938	6372
918.049	6247
918.161	6365
918.272	6464
918.384	6369
918.495	6384
918.606	6277
918.717	6148
918.828	6258
918.939	6258
919.05	6220
919.161	6232
919.272	6140
919.383	6125
919.494	6258
919.604	6441
919.715	6334
919.826	6254
919.936	6247
920.047	6289
920.157	6235
920.267	6429
920.378	6353
920.488	6270
920.598	6486
920.708	6528
920.818	6490
920.928	6448
921.038	6593
921.148	6532
921.258	6391
921.368	6308
921.477	6190
921.587	6197
921.697	6098
921.806	6197
921.916	6034
922.025	5958
922.134	5874
922.244	5824
922.353	5935
922.462	5817
922.571	5748
922.68	5680
922.789	5668
922.898	5688
923.007	5611
923.116	5699
923.224	5695
923.333	5668
923.442	5623
923.55	5630
923.659	5573
923.767	5665
923.876	5509
923.984	5573
924.092	5486
924.201	5528
924.309	5543
924.417	5520
924.525	5459
924.633	5497
924.741	6308
924.849	5357
924.956	5520
925.064	5357
925.172	5326
925.279	5258
925.387	5330
925.494	5349
925.602	5383
925.709	5372
925.816	5250
925.924	5292
926.031	5288
926.138	5261
926.245	5307
926.352	5250
926.459	5299
926.566	5288
926.673	5174
926.779	5102
926.886	5151
926.993	5045
927.099	5025
927.206	4984
927.312	4953
927.419	5041
927.525	5025
927.631	4949
927.737	4915
927.843	4881
927.95	4793
928.056	4816
928.162	4797
928.267	4831
928.373	5235
928.479	4824
928.585	4710
928.69	4801
928.796	4767
928.901	4630
929.007	4611
929.112	4683
929.218	4645
929.323	4611
929.428	4542
929.533	4668
929.638	4478
929.743	4519
929.848	4569
929.953	4512
930.058	4485
930.163	4306
930.267	4284
930.372	4409
930.477	4280
930.581	4447
930.685	4341
930.79	4249
930.894	4303
930.998	4200
931.103	4394
931.207	4093
931.311	4101
931.415	4032
931.519	3941
931.623	3968
