Data from glass_V78500241_2782.txt Node
Date: Wed Sep 01 19:33:47 CST 2021
User: usil
Spectrometer: V785-0024
Trigger mode: 0
Integration Time (sec): 4.000000E-1
Scans to average: 1
Nonlinearity correction enabled: false
Boxcar width: 0
Storing dark spectrum: false
XAxis mode: Wavelengths
Number of Pixels in Spectrum: 1024
>>>>>Begin Spectral Data<<<<<
801.071	3736
801.214	3717
801.356	3675
801.499	3732
801.641	3686
801.783	3781
801.926	3831
802.068	3804
802.211	3819
802.353	3876
802.496	3800
802.638	3854
802.78	3876
802.923	3884
803.065	3880
803.208	3869
803.35	3876
803.492	3888
803.635	3907
803.777	3759
803.919	3930
804.061	4185
804.204	3998
804.346	3922
804.488	3911
804.63	4059
804.773	3983
804.915	4010
805.057	4112
805.199	4029
805.341	4093
805.483	4101
805.626	4131
805.768	4143
805.91	4185
806.052	4227
806.194	4177
806.336	4303
806.478	4173
806.62	4177
806.762	4162
806.904	4261
807.046	4360
807.188	4204
807.33	4158
807.472	4200
807.614	4177
807.756	4223
807.898	4223
808.04	4207
808.182	4207
808.324	4276
808.465	4322
808.607	4436
808.749	4413
808.891	4455
809.033	4443
809.174	4398
809.316	4223
809.458	4227
809.6	4097
809.741	4154
809.883	4131
810.025	4211
810.166	4166
810.308	4185
810.45	4215
810.591	4223
810.733	4329
810.875	4481
811.016	4820
811.158	5083
811.299	5246
811.441	5242
811.582	5048
811.724	4679
811.865	4409
812.007	4470
812.148	4402
812.29	4405
812.431	4405
812.573	4360
812.714	4371
812.855	4394
812.997	4360
813.138	4455
813.279	4344
813.421	4276
813.562	4390
813.703	4291
813.845	4310
813.986	4280
814.127	4181
814.268	4238
814.41	4265
814.551	4223
814.692	4287
814.833	4265
814.974	4291
815.115	4310
815.256	4261
815.397	4192
815.539	4238
815.68	4211
815.821	4169
815.962	4314
816.103	4268
816.244	4169
816.385	4185
816.526	4291
816.666	4177
816.807	4074
816.948	4169
817.089	4143
817.23	4124
817.371	4017
817.512	4021
817.653	4090
817.793	4021
817.934	3994
818.075	4074
818.216	4025
818.356	4048
818.497	3956
818.638	3918
818.778	3903
818.919	3873
819.06	3873
819.2	3892
819.341	3869
819.481	3816
819.622	3880
819.762	4021
819.903	3953
820.043	3880
820.184	3861
820.324	3804
820.465	3873
820.605	3850
820.746	3903
820.886	3728
821.026	3915
821.167	3926
821.307	3907
821.447	3979
821.588	3956
821.728	3903
821.868	3918
822.008	3854
822.149	3888
822.289	3888
822.429	3759
822.569	3793
822.709	3778
822.849	3633
822.99	3682
823.13	3755
823.27	3774
823.41	3686
823.55	3705
823.69	3690
823.83	3743
823.97	3705
824.11	3572
824.25	3572
824.389	3618
824.529	3705
824.669	3591
824.809	3682
824.949	3759
825.089	3709
825.228	3694
825.368	3584
825.508	3530
825.648	3580
825.787	3625
825.927	3652
826.067	3625
826.206	3637
826.346	3789
826.485	3827
826.625	3827
826.765	3983
826.904	3842
827.044	3580
827.183	3473
827.323	3454
827.462	3435
827.601	3420
827.741	3401
827.88	3450
828.02	3313
828.159	3412
828.298	3469
828.437	3496
828.577	3477
828.716	3564
828.855	3481
828.994	3348
829.134	3374
829.273	3359
829.412	3336
829.551	3329
829.69	3386
829.829	3412
829.968	3477
830.107	3401
830.246	3389
830.385	3389
830.524	3268
830.663	3272
830.802	3237
830.941	3150
831.08	3203
831.219	3260
831.357	3230
831.496	3382
831.635	3222
831.774	3173
831.913	3165
832.051	3123
832.19	3146
832.329	3184
832.467	3085
832.606	3093
832.744	3173
832.883	3214
833.022	3192
833.16	3260
833.299	3310
833.437	3302
833.576	3340
833.714	3424
833.852	3469
833.991	3443
834.129	3435
834.267	3443
834.406	3409
834.544	3458
834.682	3382
834.821	3401
834.959	3507
835.097	3397
835.235	3519
835.373	3466
835.511	3450
835.65	3431
835.788	3469
835.926	3378
836.064	3348
836.202	3397
836.34	3564
836.478	3561
836.615	3523
836.753	3538
836.891	3599
837.029	3633
837.167	3568
837.305	3549
837.443	3534
837.58	3496
837.718	3591
837.856	3542
837.993	3542
838.131	3591
838.269	3542
838.406	3564
838.544	3576
838.681	3447
838.819	3405
838.956	3378
839.094	3363
839.231	3424
839.369	3477
839.506	3747
839.643	3591
839.781	3443
839.918	3450
840.055	3500
840.193	3485
840.33	3515
840.467	3553
840.604	3591
840.742	3781
840.879	3538
841.016	3564
841.153	3587
841.29	3713
841.427	3671
841.564	3698
841.701	3682
841.838	3675
841.975	3679
842.112	3698
842.249	3663
842.385	3618
842.522	3781
842.659	3667
842.796	3660
842.933	3705
843.069	3709
843.206	3686
843.343	3797
843.479	3766
843.616	3804
843.752	3652
843.889	3686
844.025	3823
844.162	3663
844.298	3800
844.435	3781
844.571	3732
844.708	3873
844.844	3956
844.98	3975
845.117	3983
845.253	3915
845.389	3880
845.525	3930
845.661	3972
845.798	3850
845.934	4006
846.07	3968
846.206	4059
846.342	4120
846.478	4006
846.614	3930
846.75	3922
846.886	3903
847.022	4029
847.158	3956
847.294	3968
847.429	3991
847.565	3991
847.701	4169
847.837	3865
847.972	3819
848.108	3945
848.244	3975
848.379	3838
848.515	3838
848.65	3808
848.786	3800
848.921	3827
849.057	3915
849.192	3953
849.328	3861
849.463	3888
849.598	3899
849.734	3816
849.869	3793
850.004	3766
850.14	3789
850.275	3743
850.41	3808
850.545	3740
850.68	3732
850.815	3781
850.95	3762
851.085	3880
851.22	3838
851.355	3781
851.49	3762
851.625	3785
851.76	3766
851.895	3705
852.03	3774
852.165	3785
852.299	3804
852.434	3876
852.569	3846
852.703	3854
852.838	3899
852.973	3991
853.107	3941
853.242	3876
853.376	3842
853.511	3766
853.645	3812
853.78	3968
853.914	3918
854.048	3869
854.183	3907
854.317	3915
854.451	4013
854.585	3918
854.72	3937
854.854	4086
854.988	3884
855.122	3991
855.256	3949
855.39	4002
855.524	4086
855.658	4063
855.792	4074
855.926	4112
856.06	4139
856.194	4200
856.327	4101
856.461	4116
856.595	4131
856.729	4120
856.862	4242
856.996	4257
857.13	4268
857.263	4322
857.397	4299
857.53	4261
857.664	4398
857.797	4341
857.931	4360
858.064	4375
858.197	4436
858.331	4371
858.464	4314
858.597	4360
858.731	4428
858.864	4421
858.997	4478
859.13	4504
859.263	4516
859.396	4527
859.529	4497
859.662	4481
859.795	4538
859.928	4573
860.061	4626
860.194	4679
860.327	4649
860.46	4611
860.592	4736
860.725	4736
860.858	4725
860.99	4717
861.123	4687
861.256	4710
861.388	4786
861.521	5277
861.653	4698
861.786	4740
861.918	4790
862.05	4801
862.183	4786
862.315	4854
862.447	4923
862.58	4870
862.712	4755
862.844	4717
862.976	4889
863.108	4835
863.24	5136
863.372	4820
863.504	4892
863.636	4877
863.768	4938
863.9	4965
864.032	4934
864.164	4934
864.296	5041
864.428	5037
864.559	5090
864.691	5086
864.823	5052
864.954	5109
865.086	5151
865.217	5105
865.349	5086
865.48	5151
865.612	5166
865.743	5322
865.875	5181
866.006	5185
866.137	5193
866.269	5166
866.4	5227
866.531	5254
866.662	5208
866.793	5250
866.924	5242
867.055	5360
867.186	5395
867.317	5250
867.448	5284
867.579	5353
867.71	5376
867.841	5368
867.972	5448
868.103	5398
868.233	5490
868.364	5505
868.495	5547
868.625	5672
868.756	5722
868.886	5661
869.017	5741
869.147	5847
869.278	5844
869.408	5790
869.539	5817
869.669	5901
869.799	5882
869.929	5908
870.06	6011
870.19	6194
870.32	6155
870.45	6235
870.58	6323
870.71	6441
870.84	6426
870.97	6464
871.1	6399
871.23	6639
871.36	6578
871.489	6589
871.619	6684
871.749	6810
871.879	6932
872.008	6981
872.138	6962
872.267	7015
872.397	6966
872.526	7004
872.656	7065
872.785	7168
872.915	7415
873.044	7445
873.173	7487
873.303	7594
873.432	7715
873.561	7845
873.69	7909
873.819	7982
873.948	8180
874.077	8279
874.206	8290
874.335	8389
874.464	8613
874.593	8921
874.722	8906
874.851	9070
874.979	9192
875.108	9386
875.237	9393
875.365	9447
875.494	9633
875.623	9816
875.751	9770
875.88	9953
876.008	10246
876.136	10257
876.265	10493
876.393	10691
876.521	10691
876.65	10828
876.778	10934
876.906	10831
877.034	10896
877.162	11060
877.29	11174
877.418	11212
877.546	11254
877.674	11440
877.802	11452
877.93	11543
878.058	11524
878.185	11478
878.313	11653
878.441	11745
878.568	11680
878.696	11805
878.824	11916
878.951	11916
879.079	12064
879.206	12175
879.333	12019
879.461	12064
879.588	12057
879.715	12045
879.842	12144
879.97	12053
880.097	11874
880.224	11813
880.351	11794
880.478	11897
880.605	11935
880.732	11863
880.859	11923
880.986	11866
881.112	11775
881.239	11649
881.366	11547
881.493	11608
881.619	11505
881.746	11486
881.872	11573
881.999	11436
882.125	11543
882.252	11528
882.378	11474
882.505	11467
882.631	11376
882.757	11299
882.883	11341
883.01	11292
883.136	11151
883.262	11105
883.388	11067
883.514	11185
883.64	11132
883.766	11189
883.892	11056
884.018	10961
884.143	11037
884.269	11022
884.395	10843
884.52	10725
884.646	10755
884.772	10679
884.897	10664
885.023	10675
885.148	10622
885.274	10656
885.399	10672
885.524	10588
885.65	10622
885.775	10626
885.9	10455
886.025	10611
886.15	10485
886.275	10443
886.4	10356
886.525	10417
886.65	10363
886.775	10291
886.9	10443
887.025	10531
887.149	10356
887.274	10196
887.399	10181
887.523	10192
887.648	10131
887.773	10166
887.897	10223
888.021	10310
888.146	10105
888.27	10223
888.395	10242
888.519	10177
888.643	10135
888.767	10196
888.891	10109
889.015	10013
889.139	10063
889.263	9930
889.387	9991
889.511	10059
889.635	10048
889.759	10002
889.883	9949
890.006	10048
890.13	10055
890.254	9960
890.377	9926
890.501	9857
890.624	9827
890.748	9941
890.871	9789
890.995	9717
891.118	9675
891.241	9736
891.364	9800
891.488	9778
891.611	9663
891.734	9766
891.857	9816
891.98	9785
892.103	9736
892.226	9625
892.349	9580
892.471	9580
892.594	9580
892.717	9572
892.839	9595
892.962	9591
893.085	9694
893.207	9530
893.33	9439
893.452	9492
893.575	9561
893.697	9469
893.819	9603
893.941	9682
894.064	9553
894.186	9386
894.308	9401
894.43	9488
894.552	9553
894.674	9564
894.796	9321
894.918	9348
895.04	9367
895.161	9389
895.283	9329
895.405	9207
895.526	9298
895.648	9264
895.769	9275
895.891	9272
896.012	9294
896.134	9237
896.255	9184
896.376	9123
896.498	9127
896.619	9127
896.74	9055
896.861	9062
896.982	9233
897.103	9313
897.224	9184
897.345	9005
897.466	8956
897.587	9001
897.708	9020
897.828	9062
897.949	8918
898.07	8883
898.19	8845
898.311	9032
898.431	8796
898.552	8880
898.672	8994
898.792	8906
898.913	8895
899.033	8758
899.153	8727
899.273	8727
899.393	8739
899.513	8705
899.633	8678
899.753	8769
899.873	8682
899.993	8727
900.113	8667
900.232	8640
900.352	8632
900.472	8625
900.591	8602
900.711	8594
900.83	8514
900.95	8674
901.069	8621
901.189	8571
901.308	8495
901.427	8419
901.546	8469
901.665	8404
901.784	8438
901.904	8290
902.023	8294
902.141	8286
902.26	8195
902.379	8233
902.498	8172
902.617	8210
902.735	8267
902.854	8214
902.973	8229
903.091	8138
903.21	8050
903.328	8149
903.446	8138
903.565	8062
903.683	8107
903.801	8039
903.919	8054
904.038	8142
904.156	7940
904.274	8035
904.392	7997
904.51	8020
904.627	8043
904.745	8054
904.863	8115
904.981	7955
905.098	7845
905.216	7913
905.334	7887
905.451	7913
905.569	7928
905.686	7970
905.803	7898
905.921	7765
906.038	7856
906.155	7803
906.272	7719
906.389	7727
906.506	7651
906.623	7594
906.74	7578
906.857	7487
906.974	7594
907.091	7597
907.208	7750
907.324	7639
907.441	7567
907.557	7495
907.674	7499
907.79	7346
907.907	7346
908.023	7441
908.139	7358
908.256	7388
908.372	7354
908.488	7343
908.604	7289
908.72	7217
908.836	7228
908.952	7213
909.068	7247
909.184	7343
909.3	7225
909.415	7324
909.531	7217
909.647	7080
909.762	7103
909.878	7103
909.993	7137
910.108	7088
910.224	7061
910.339	7050
910.454	7088
910.57	6973
910.685	6951
910.8	7164
910.915	7084
911.03	7031
911.145	6901
911.259	6837
911.374	6829
911.489	6856
911.604	6772
911.718	6703
911.833	6730
911.947	6601
912.062	6582
912.176	6650
912.291	6749
912.405	6726
912.519	6810
912.633	6783
912.748	6741
912.862	6700
912.976	6620
913.09	6502
913.204	6551
913.318	6631
913.431	6688
913.545	6684
913.659	6707
913.772	6677
913.886	6574
914	6570
914.113	6585
914.226	6669
914.34	6612
914.453	6479
914.566	6547
914.68	6445
914.793	6540
914.906	6456
915.019	6346
915.132	6323
915.245	6319
915.358	6422
915.47	6429
915.583	6399
915.696	6441
915.809	6506
915.921	6521
916.034	6361
916.146	6388
916.259	6361
916.371	6441
916.483	6441
916.595	6342
916.708	6334
916.82	6365
916.932	6346
917.044	6426
917.156	6372
917.268	6296
917.38	6319
917.491	6331
917.603	6327
917.715	6433
917.826	6407
917.938	6338
918.049	6220
918.161	6365
918.272	6395
918.384	6410
918.495	6323
918.606	6247
918.717	6270
918.828	6232
918.939	6311
919.05	6254
919.161	6292
919.272	6152
919.383	6129
919.494	6243
919.604	6433
919.715	6273
919.826	6201
919.936	6285
920.047	6342
920.157	6239
920.267	6460
920.378	6327
920.488	6239
920.598	6372
920.708	6559
920.818	6426
920.928	6445
921.038	6570
921.148	6502
921.258	6350
921.368	6251
921.477	6232
921.587	6140
921.697	6114
921.806	6102
921.916	6019
922.025	5946
922.134	5904
922.244	5874
922.353	5973
922.462	5840
922.571	5813
922.68	5707
922.789	5672
922.898	5718
923.007	5604
923.116	5657
923.224	5699
923.333	5649
923.442	5627
923.55	5596
923.659	5486
923.767	5646
923.876	5501
923.984	5551
924.092	5486
924.201	5543
924.309	5589
924.417	5509
924.525	5482
924.633	5486
924.741	6247
924.849	5349
924.956	5486
925.064	5349
925.172	5330
925.279	5288
925.387	5379
925.494	5318
925.602	5387
925.709	5345
925.816	5292
925.924	5307
926.031	5376
926.138	5280
926.245	5315
926.352	5216
926.459	5296
926.566	5334
926.673	5181
926.779	5071
926.886	5132
926.993	5037
927.099	4980
927.206	4957
927.312	4911
927.419	4999
927.525	4930
927.631	4968
927.737	4873
927.843	4889
927.95	4771
928.056	4858
928.162	4831
928.267	4820
928.373	5311
928.479	4831
928.585	4664
928.69	4755
928.796	4797
928.901	4702
929.007	4649
929.112	4675
929.218	4626
929.323	4550
929.428	4535
929.533	4626
929.638	4462
929.743	4554
929.848	4519
929.953	4558
930.058	4405
930.163	4352
930.267	4344
930.372	4417
930.477	4322
930.581	4455
930.685	4348
930.79	4242
930.894	4280
930.998	4268
931.103	4428
931.207	4097
931.311	4059
931.415	3991
931.519	3941
931.623	3930
