Data from glass_V78500241_1838.txt Node
Date: Wed Sep 01 19:27:14 CST 2021
User: usil
Spectrometer: V785-0024
Trigger mode: 0
Integration Time (sec): 4.000000E-1
Scans to average: 1
Nonlinearity correction enabled: false
Boxcar width: 0
Storing dark spectrum: false
XAxis mode: Wavelengths
Number of Pixels in Spectrum: 1024
>>>>>Begin Spectral Data<<<<<
801.071	3743
801.214	3751
801.356	3713
801.499	3736
801.641	3740
801.783	3785
801.926	3838
802.068	3819
802.211	3842
802.353	3888
802.496	3842
802.638	3880
802.78	3857
802.923	3903
803.065	3915
803.208	3880
803.35	3884
803.492	3876
803.635	3896
803.777	3838
803.919	3896
804.061	4135
804.204	3991
804.346	3945
804.488	3915
804.63	4025
804.773	3975
804.915	4040
805.057	4139
805.199	4059
805.341	4139
805.483	4128
805.626	4139
805.768	4116
805.91	4207
806.052	4181
806.194	4188
806.336	4375
806.478	4188
806.62	4173
806.762	4192
806.904	4314
807.046	4344
807.188	4219
807.33	4200
807.472	4192
807.614	4188
807.756	4257
807.898	4169
808.04	4215
808.182	4257
808.324	4371
808.465	4367
808.607	4474
808.749	4459
808.891	4390
809.033	4500
809.174	4402
809.316	4207
809.458	4196
809.6	4166
809.741	4158
809.883	4131
810.025	4181
810.166	4204
810.308	4215
810.45	4234
810.591	4265
810.733	4268
810.875	4474
811.016	4835
811.158	5162
811.299	5258
811.441	5250
811.582	5056
811.724	4687
811.865	4432
812.007	4451
812.148	4417
812.29	4428
812.431	4447
812.573	4398
812.714	4363
812.855	4390
812.997	4443
813.138	4519
813.279	4386
813.421	4348
813.562	4360
813.703	4318
813.845	4291
813.986	4249
814.127	4192
814.268	4257
814.41	4299
814.551	4265
814.692	4341
814.833	4284
814.974	4306
815.115	4363
815.256	4272
815.397	4215
815.539	4303
815.68	4227
815.821	4242
815.962	4344
816.103	4295
816.244	4238
816.385	4227
816.526	4276
816.666	4219
816.807	4082
816.948	4154
817.089	4169
817.23	4139
817.371	4116
817.512	4078
817.653	4059
817.793	4021
817.934	4040
818.075	4112
818.216	4048
818.356	4090
818.497	3983
818.638	3937
818.778	3880
818.919	3907
819.06	3861
819.2	3953
819.341	3884
819.481	3819
819.622	3884
819.762	3972
819.903	3930
820.043	3838
820.184	3850
820.324	3838
820.465	3835
820.605	3846
820.746	3869
820.886	3789
821.026	3880
821.167	3899
821.307	3983
821.447	3960
821.588	3915
821.728	3945
821.868	3945
822.008	3892
822.149	3907
822.289	3953
822.429	3766
822.569	3751
822.709	3789
822.849	3675
822.99	3720
823.13	3781
823.27	3755
823.41	3713
823.55	3701
823.69	3732
823.83	3724
823.97	3663
824.11	3637
824.25	3606
824.389	3572
824.529	3690
824.669	3610
824.809	3724
824.949	3766
825.089	3728
825.228	3686
825.368	3538
825.508	3584
825.648	3557
825.787	3599
825.927	3656
826.067	3629
826.206	3652
826.346	3770
826.485	3838
826.625	3854
826.765	3930
826.904	3816
827.044	3625
827.183	3534
827.323	3435
827.462	3530
827.601	3416
827.741	3424
827.88	3477
828.02	3359
828.159	3443
828.298	3485
828.437	3538
828.577	3515
828.716	3542
828.855	3473
828.994	3405
829.134	3363
829.273	3405
829.412	3367
829.551	3340
829.69	3367
829.829	3416
829.968	3492
830.107	3424
830.246	3447
830.385	3431
830.524	3348
830.663	3317
830.802	3241
830.941	3207
831.08	3199
831.219	3279
831.357	3260
831.496	3405
831.635	3241
831.774	3169
831.913	3207
832.051	3131
832.19	3165
832.329	3253
832.467	3127
832.606	3104
832.744	3138
832.883	3184
833.022	3195
833.16	3283
833.299	3306
833.437	3302
833.576	3412
833.714	3359
833.852	3386
833.991	3466
834.129	3496
834.267	3447
834.406	3382
834.544	3412
834.682	3428
834.821	3416
834.959	3603
835.097	3386
835.235	3534
835.373	3500
835.511	3488
835.65	3420
835.788	3485
835.926	3374
836.064	3332
836.202	3409
836.34	3534
836.478	3564
836.615	3549
836.753	3549
836.891	3667
837.029	3648
837.167	3587
837.305	3542
837.443	3561
837.58	3492
837.718	3606
837.856	3526
837.993	3534
838.131	3576
838.269	3572
838.406	3557
838.544	3519
838.681	3412
838.819	3443
838.956	3409
839.094	3382
839.231	3447
839.369	3580
839.506	3732
839.643	3656
839.781	3488
839.918	3462
840.055	3492
840.193	3519
840.33	3511
840.467	3542
840.604	3618
840.742	3816
840.879	3545
841.016	3576
841.153	3637
841.29	3747
841.427	3698
841.564	3720
841.701	3732
841.838	3724
841.975	3682
842.112	3705
842.249	3660
842.385	3622
842.522	3823
842.659	3667
842.796	3671
842.933	3694
843.069	3724
843.206	3698
843.343	3800
843.479	3774
843.616	3812
843.752	3641
843.889	3743
844.025	3842
844.162	3720
844.298	3850
844.435	3800
844.571	3781
844.708	3907
844.844	3945
844.98	3987
845.117	4025
845.253	3922
845.389	3911
845.525	3949
845.661	3994
845.798	3907
845.934	4025
846.07	3960
846.206	4051
846.342	4128
846.478	4105
846.614	3968
846.75	3907
846.886	3907
847.022	4032
847.158	3979
847.294	4017
847.429	4017
847.565	4017
847.701	4261
847.837	3918
847.972	3899
848.108	3956
848.244	3960
848.379	3850
848.515	3823
848.65	3831
848.786	3800
848.921	3827
849.057	3876
849.192	3922
849.328	3911
849.463	3896
849.598	3911
849.734	3857
849.869	3835
850.004	3774
850.14	3827
850.275	3785
850.41	3785
850.545	3751
850.68	3785
850.815	3781
850.95	3781
851.085	3922
851.22	3854
851.355	3785
851.49	3781
851.625	3778
851.76	3804
851.895	3690
852.03	3736
852.165	3797
852.299	3854
852.434	3934
852.569	3854
852.703	3876
852.838	3915
852.973	3987
853.107	3968
853.242	3876
853.376	3869
853.511	3774
853.645	3816
853.78	3953
853.914	3838
854.048	3892
854.183	3861
854.317	3934
854.451	4048
854.585	3991
854.72	3926
854.854	4048
854.988	3930
855.122	3994
855.256	3884
855.39	4013
855.524	4067
855.658	4059
855.792	4086
855.926	4131
856.06	4196
856.194	4188
856.327	4150
856.461	4101
856.595	4181
856.729	4173
856.862	4249
856.996	4223
857.13	4325
857.263	4303
857.397	4375
857.53	4268
857.664	4348
857.797	4383
857.931	4447
858.064	4394
858.197	4462
858.331	4413
858.464	4394
858.597	4344
858.731	4413
858.864	4409
858.997	4421
859.13	4527
859.263	4531
859.396	4607
859.529	4550
859.662	4565
859.795	4512
859.928	4584
860.061	4672
860.194	4736
860.327	4675
860.46	4694
860.592	4687
860.725	4752
860.858	4809
860.99	4687
861.123	4679
861.256	4691
861.388	4714
861.521	5307
861.653	4710
861.786	4717
861.918	4740
862.05	4801
862.183	4835
862.315	4934
862.447	4934
862.58	4892
862.712	4831
862.844	4774
862.976	4809
863.108	4816
863.24	5235
863.372	4805
863.504	4908
863.636	4957
863.768	4965
863.9	4911
864.032	4911
864.164	4953
864.296	5018
864.428	5079
864.559	5124
864.691	5098
864.823	5113
864.954	5147
865.086	5124
865.217	5117
865.349	5117
865.48	5170
865.612	5170
865.743	5322
865.875	5227
866.006	5166
866.137	5223
866.269	5204
866.4	5273
866.531	5239
866.662	5235
866.793	5318
866.924	5239
867.055	5330
867.186	5322
867.317	5307
867.448	5299
867.579	5372
867.71	5395
867.841	5421
867.972	5493
868.103	5414
868.233	5524
868.364	5532
868.495	5520
868.625	5627
868.756	5790
868.886	5627
869.017	5714
869.147	5836
869.278	5828
869.408	5775
869.539	5840
869.669	5923
869.799	5885
869.929	5935
870.06	5996
870.19	6216
870.32	6167
870.45	6304
870.58	6350
870.71	6441
870.84	6498
870.97	6429
871.1	6380
871.23	6688
871.36	6662
871.489	6620
871.619	6802
871.749	6829
871.879	6871
872.008	6951
872.138	6970
872.267	6985
872.397	6981
872.526	6996
872.656	7129
872.785	7213
872.915	7362
873.044	7521
873.173	7525
873.303	7651
873.432	7715
873.561	7833
873.69	7890
873.819	7993
873.948	8168
874.077	8233
874.206	8305
874.335	8450
874.464	8663
874.593	8861
874.722	8933
874.851	9112
874.979	9203
875.108	9355
875.237	9428
875.365	9462
875.494	9641
875.623	9831
875.751	9812
875.88	9937
876.008	10162
876.136	10246
876.265	10500
876.393	10668
876.521	10706
876.65	10740
876.778	10820
876.906	10854
877.034	11022
877.162	11056
877.29	11155
877.418	11326
877.546	11372
877.674	11436
877.802	11459
877.93	11471
878.058	11539
878.185	11585
878.313	11543
878.441	11733
878.568	11691
878.696	11802
878.824	11821
878.951	11950
879.079	11999
879.206	12125
879.333	12064
879.461	12015
879.588	11999
879.715	12022
879.842	12243
879.97	12095
880.097	11859
880.224	11939
880.351	11931
880.478	11840
880.605	11912
880.732	11870
880.859	11889
880.986	11836
881.112	11893
881.239	11752
881.366	11737
881.493	11688
881.619	11501
881.746	11585
881.872	11516
881.999	11509
882.125	11452
882.252	11577
882.378	11570
882.505	11608
882.631	11379
882.757	11261
882.883	11360
883.01	11273
883.136	11170
883.262	11174
883.388	11041
883.514	11121
883.64	11105
883.766	11124
883.892	11086
884.018	11052
884.143	11029
884.269	11098
884.395	10854
884.52	10660
884.646	10824
884.772	10763
884.897	10668
885.023	10733
885.148	10679
885.274	10748
885.399	10729
885.524	10672
885.65	10531
885.775	10577
885.9	10580
886.025	10573
886.15	10599
886.275	10440
886.4	10413
886.525	10390
886.65	10318
886.775	10367
886.9	10546
887.025	10527
887.149	10333
887.274	10185
887.399	10082
887.523	10139
887.648	10173
887.773	10086
887.897	10196
888.021	10169
888.146	10162
888.27	10299
888.395	10143
888.519	10204
888.643	10158
888.767	10124
888.891	10143
889.015	9964
889.139	9972
889.263	10029
889.387	10067
889.511	10169
889.635	10082
889.759	9907
889.883	9979
890.006	9941
890.13	10158
890.254	9991
890.377	9991
890.501	9869
890.624	9888
890.748	9922
890.871	9774
890.995	9812
891.118	9690
891.241	9732
891.364	9698
891.488	9827
891.611	9797
891.734	9800
891.857	9751
891.98	9625
892.103	9728
892.226	9743
892.349	9641
892.471	9519
892.594	9644
892.717	9557
892.839	9519
892.962	9545
893.085	9652
893.207	9622
893.33	9538
893.452	9587
893.575	9564
893.697	9485
893.819	9584
893.941	9587
894.064	9656
894.186	9401
894.308	9412
894.43	9492
894.552	9534
894.674	9496
894.796	9393
894.918	9428
895.04	9351
895.161	9355
895.283	9401
895.405	9249
895.526	9203
895.648	9256
895.769	9211
895.891	9298
896.012	9291
896.134	9268
896.255	9211
896.376	9138
896.498	9249
896.619	9154
896.74	9024
896.861	9176
896.982	9222
897.103	9287
897.224	9192
897.345	9108
897.466	9028
897.587	8975
897.708	9055
897.828	8998
897.949	8986
898.07	8914
898.19	9047
898.311	9005
898.431	8880
898.552	8918
898.672	8910
898.792	8982
898.913	8845
899.033	8746
899.153	8674
899.273	8644
899.393	8674
899.513	8777
899.633	8693
899.753	8800
899.873	8712
899.993	8705
900.113	8735
900.232	8735
900.352	8686
900.472	8613
900.591	8575
900.711	8617
900.83	8587
900.95	8632
901.069	8655
901.189	8606
901.308	8446
901.427	8301
901.546	8427
901.665	8461
901.784	8488
901.904	8347
902.023	8313
902.141	8195
902.26	8240
902.379	8252
902.498	8187
902.617	8202
902.735	8328
902.854	8294
902.973	8240
903.091	8062
903.21	8180
903.328	8069
903.446	8103
903.565	8077
903.683	8153
903.801	8054
903.919	8100
904.038	8172
904.156	8050
904.274	8142
904.392	8020
904.51	8081
904.627	8077
904.745	8039
904.863	8115
904.981	7936
905.098	7868
905.216	7833
905.334	7921
905.451	7955
905.569	7890
905.686	7936
905.803	7974
905.921	7788
906.038	7875
906.155	7811
906.272	7712
906.389	7734
906.506	7632
906.623	7571
906.74	7571
906.857	7548
906.974	7620
907.091	7719
907.208	7681
907.324	7674
907.441	7575
907.557	7449
907.674	7434
907.79	7346
907.907	7388
908.023	7419
908.139	7403
908.256	7407
908.372	7369
908.488	7365
908.604	7247
908.72	7179
908.836	7350
908.952	7312
909.068	7175
909.184	7312
909.3	7247
909.415	7312
909.531	7297
909.647	7118
909.762	7076
909.878	7053
909.993	7129
910.108	7110
910.224	7023
910.339	7110
910.454	7050
910.57	6970
910.685	7015
910.8	7206
910.915	7057
911.03	7050
911.145	6905
911.259	6932
911.374	6909
911.489	6840
911.604	6768
911.718	6703
911.833	6806
911.947	6684
912.062	6559
912.176	6681
912.291	6776
912.405	6677
912.519	6791
912.633	6886
912.748	6764
912.862	6707
912.976	6616
913.09	6486
913.204	6566
913.318	6627
913.431	6612
913.545	6642
913.659	6722
913.772	6681
913.886	6521
914	6578
914.113	6551
914.226	6692
914.34	6608
914.453	6486
914.566	6612
914.68	6536
914.793	6517
914.906	6407
915.019	6395
915.132	6350
915.245	6445
915.358	6456
915.47	6414
915.583	6410
915.696	6471
915.809	6513
915.921	6601
916.034	6433
916.146	6429
916.259	6384
916.371	6460
916.483	6490
916.595	6422
916.708	6403
916.82	6369
916.932	6338
917.044	6342
917.156	6391
917.268	6365
917.38	6327
917.491	6308
917.603	6414
917.715	6334
917.826	6376
917.938	6270
918.049	6182
918.161	6357
918.272	6384
918.384	6456
918.495	6319
918.606	6243
918.717	6232
918.828	6270
918.939	6304
919.05	6190
919.161	6258
919.272	6091
919.383	6129
919.494	6285
919.604	6384
919.715	6277
919.826	6209
919.936	6197
920.047	6323
920.157	6296
920.267	6395
920.378	6331
920.488	6327
920.598	6456
920.708	6506
920.818	6422
920.928	6528
921.038	6631
921.148	6563
921.258	6384
921.368	6289
921.477	6194
921.587	6144
921.697	6053
921.806	6148
921.916	6079
922.025	5980
922.134	5954
922.244	5832
922.353	5939
922.462	5817
922.571	5748
922.68	5714
922.789	5634
922.898	5695
923.007	5634
923.116	5790
923.224	5657
923.333	5695
923.442	5638
923.55	5554
923.659	5554
923.767	5634
923.876	5486
923.984	5604
924.092	5478
924.201	5501
924.309	5490
924.417	5535
924.525	5467
924.633	5436
924.741	6296
924.849	5353
924.956	5463
925.064	5299
925.172	5288
925.279	5277
925.387	5353
925.494	5341
925.602	5459
925.709	5421
925.816	5273
925.924	5269
926.031	5368
926.138	5318
926.245	5311
926.352	5193
926.459	5296
926.566	5360
926.673	5227
926.779	5113
926.886	5086
926.993	5033
927.099	4995
927.206	4949
927.312	4987
927.419	5010
927.525	5014
927.631	4987
927.737	4892
927.843	4892
927.95	4767
928.056	4889
928.162	4801
928.267	4824
928.373	5280
928.479	4866
928.585	4634
928.69	4786
928.796	4831
928.901	4702
929.007	4561
929.112	4691
929.218	4668
929.323	4538
929.428	4561
929.533	4634
929.638	4561
929.743	4546
929.848	4527
929.953	4531
930.058	4459
930.163	4329
930.267	4371
930.372	4440
930.477	4310
930.581	4466
930.685	4329
930.79	4246
930.894	4265
930.998	4238
931.103	4367
931.207	4143
931.311	4032
931.415	4013
931.519	3983
931.623	3949
