Data from glass_V78500241_2152.txt Node
Date: Wed Sep 01 19:29:25 CST 2021
User: usil
Spectrometer: V785-0024
Trigger mode: 0
Integration Time (sec): 4.000000E-1
Scans to average: 1
Nonlinearity correction enabled: false
Boxcar width: 0
Storing dark spectrum: false
XAxis mode: Wavelengths
Number of Pixels in Spectrum: 1024
>>>>>Begin Spectral Data<<<<<
801.071	3717
801.214	3747
801.356	3686
801.499	3694
801.641	3736
801.783	3743
801.926	3838
802.068	3831
802.211	3808
802.353	3896
802.496	3812
802.638	3873
802.78	3876
802.923	3880
803.065	3884
803.208	3831
803.35	3838
803.492	3934
803.635	3896
803.777	3766
803.919	3896
804.061	4135
804.204	3968
804.346	3953
804.488	3937
804.63	4044
804.773	3987
804.915	3987
805.057	4128
805.199	4032
805.341	4059
805.483	4112
805.626	4124
805.768	4105
805.91	4169
806.052	4227
806.194	4196
806.336	4272
806.478	4215
806.62	4128
806.762	4181
806.904	4215
807.046	4303
807.188	4204
807.33	4139
807.472	4257
807.614	4215
807.756	4246
807.898	4211
808.04	4227
808.182	4215
808.324	4341
808.465	4333
808.607	4489
808.749	4455
808.891	4500
809.033	4493
809.174	4360
809.316	4234
809.458	4204
809.6	4169
809.741	4166
809.883	4158
810.025	4196
810.166	4230
810.308	4166
810.45	4188
810.591	4246
810.733	4257
810.875	4489
811.016	4816
811.158	5162
811.299	5265
811.441	5311
811.582	5075
811.724	4679
811.865	4481
812.007	4459
812.148	4405
812.29	4424
812.431	4398
812.573	4440
812.714	4383
812.855	4417
812.997	4360
813.138	4455
813.279	4451
813.421	4386
813.562	4394
813.703	4325
813.845	4352
813.986	4211
814.127	4204
814.268	4204
814.41	4314
814.551	4230
814.692	4352
814.833	4234
814.974	4295
815.115	4322
815.256	4234
815.397	4223
815.539	4207
815.68	4158
815.821	4207
815.962	4310
816.103	4249
816.244	4261
816.385	4215
816.526	4276
816.666	4249
816.807	4093
816.948	4150
817.089	4112
817.23	4124
817.371	4032
817.512	4040
817.653	4086
817.793	3979
817.934	4071
818.075	4063
818.216	4044
818.356	4044
818.497	4013
818.638	3888
818.778	3937
818.919	3884
819.06	3888
819.2	3915
819.341	3896
819.481	3800
819.622	3941
819.762	4029
819.903	3953
820.043	3842
820.184	3831
820.324	3797
820.465	3854
820.605	3850
820.746	3869
820.886	3854
821.026	3926
821.167	3896
821.307	3949
821.447	3972
821.588	3937
821.728	3983
821.868	3960
822.008	3861
822.149	3888
822.289	3941
822.429	3800
822.569	3778
822.709	3812
822.849	3694
822.99	3698
823.13	3740
823.27	3781
823.41	3724
823.55	3743
823.69	3709
823.83	3713
823.97	3648
824.11	3568
824.25	3580
824.389	3633
824.529	3644
824.669	3606
824.809	3660
824.949	3778
825.089	3694
825.228	3755
825.368	3557
825.508	3561
825.648	3576
825.787	3610
825.927	3633
826.067	3625
826.206	3698
826.346	3789
826.485	3785
826.625	3854
826.765	3930
826.904	3816
827.044	3564
827.183	3534
827.323	3466
827.462	3519
827.601	3397
827.741	3431
827.88	3454
828.02	3348
828.159	3420
828.298	3466
828.437	3542
828.577	3462
828.716	3591
828.855	3462
828.994	3378
829.134	3340
829.273	3355
829.412	3329
829.551	3344
829.69	3405
829.829	3424
829.968	3477
830.107	3412
830.246	3447
830.385	3355
830.524	3351
830.663	3241
830.802	3253
830.941	3207
831.08	3207
831.219	3249
831.357	3249
831.496	3374
831.635	3264
831.774	3188
831.913	3180
832.051	3142
832.19	3157
832.329	3211
832.467	3100
832.606	3100
832.744	3192
832.883	3180
833.022	3165
833.16	3253
833.299	3302
833.437	3310
833.576	3336
833.714	3370
833.852	3416
833.991	3420
834.129	3454
834.267	3447
834.406	3386
834.544	3378
834.682	3435
834.821	3416
834.959	3564
835.097	3454
835.235	3496
835.373	3511
835.511	3481
835.65	3473
835.788	3488
835.926	3424
836.064	3386
836.202	3412
836.34	3576
836.478	3603
836.615	3549
836.753	3557
836.891	3637
837.029	3561
837.167	3580
837.305	3542
837.443	3534
837.58	3511
837.718	3568
837.856	3545
837.993	3534
838.131	3625
838.269	3568
838.406	3584
838.544	3542
838.681	3431
838.819	3458
838.956	3370
839.094	3389
839.231	3439
839.369	3507
839.506	3675
839.643	3610
839.781	3530
839.918	3439
840.055	3545
840.193	3526
840.33	3538
840.467	3557
840.604	3610
840.742	3812
840.879	3526
841.016	3572
841.153	3618
841.29	3774
841.427	3717
841.564	3713
841.701	3717
841.838	3667
841.975	3648
842.112	3679
842.249	3629
842.385	3614
842.522	3873
842.659	3679
842.796	3675
842.933	3713
843.069	3644
843.206	3724
843.343	3785
843.479	3766
843.616	3838
843.752	3663
843.889	3652
844.025	3884
844.162	3671
844.298	3831
844.435	3808
844.571	3793
844.708	3880
844.844	3983
844.98	4063
845.117	4048
845.253	3896
845.389	3911
845.525	3949
845.661	3930
845.798	3861
845.934	3983
846.07	3953
846.206	4006
846.342	4109
846.478	4059
846.614	4006
846.75	3964
846.886	3888
847.022	4017
847.158	3979
847.294	3941
847.429	4048
847.565	3979
847.701	4238
847.837	3876
847.972	3888
848.108	3956
848.244	3915
848.379	3831
848.515	3774
848.65	3842
848.786	3831
848.921	3876
849.057	3911
849.192	3937
849.328	3873
849.463	3903
849.598	3857
849.734	3869
849.869	3850
850.004	3793
850.14	3846
850.275	3755
850.41	3759
850.545	3781
850.68	3740
850.815	3789
850.95	3743
851.085	3937
851.22	3899
851.355	3808
851.49	3762
851.625	3816
851.76	3800
851.895	3736
852.03	3709
852.165	3766
852.299	3819
852.434	3926
852.569	3869
852.703	3854
852.838	3960
852.973	3998
853.107	3991
853.242	3850
853.376	3846
853.511	3709
853.645	3850
853.78	3953
853.914	3907
854.048	3937
854.183	3884
854.317	3934
854.451	4074
854.585	3934
854.72	3964
854.854	4067
854.988	3869
855.122	4021
855.256	3930
855.39	3983
855.524	4139
855.658	4101
855.792	4097
855.926	4097
856.06	4181
856.194	4204
856.327	4139
856.461	4109
856.595	4147
856.729	4166
856.862	4253
856.996	4242
857.13	4238
857.263	4306
857.397	4318
857.53	4303
857.664	4329
857.797	4440
857.931	4402
858.064	4348
858.197	4478
858.331	4390
858.464	4386
858.597	4386
858.731	4421
858.864	4409
858.997	4405
859.13	4527
859.263	4512
859.396	4561
859.529	4519
859.662	4523
859.795	4508
859.928	4584
860.061	4672
860.194	4740
860.327	4664
860.46	4634
860.592	4706
860.725	4736
860.858	4778
860.99	4698
861.123	4687
861.256	4710
861.388	4797
861.521	5501
861.653	4725
861.786	4675
861.918	4774
862.05	4812
862.183	4820
862.315	4881
862.447	4881
862.58	4881
862.712	4790
862.844	4740
862.976	4843
863.108	4927
863.24	5170
863.372	4809
863.504	4908
863.636	4900
863.768	4949
863.9	4919
864.032	4904
864.164	4949
864.296	5003
864.428	5094
864.559	5128
864.691	5086
864.823	5109
864.954	5098
865.086	5155
865.217	5170
865.349	5098
865.48	5147
865.612	5155
865.743	5288
865.875	5208
866.006	5181
866.137	5239
866.269	5227
866.4	5204
866.531	5239
866.662	5216
866.793	5220
866.924	5246
867.055	5307
867.186	5299
867.317	5311
867.448	5330
867.579	5387
867.71	5379
867.841	5398
867.972	5444
868.103	5474
868.233	5501
868.364	5478
868.495	5562
868.625	5668
868.756	5794
868.886	5646
869.017	5733
869.147	5836
869.278	5836
869.408	5817
869.539	5859
869.669	5897
869.799	5931
869.929	5939
870.06	5999
870.19	6144
870.32	6205
870.45	6235
870.58	6239
870.71	6471
870.84	6502
870.97	6395
871.1	6437
871.23	6616
871.36	6681
871.489	6677
871.619	6722
871.749	6791
871.879	6837
872.008	6958
872.138	7000
872.267	6966
872.397	6928
872.526	7076
872.656	7103
872.785	7141
872.915	7373
873.044	7472
873.173	7575
873.303	7666
873.432	7704
873.561	7875
873.69	7951
873.819	7989
873.948	8176
874.077	8206
874.206	8339
874.335	8419
874.464	8648
874.593	8857
874.722	8925
874.851	9173
874.979	9176
875.108	9317
875.237	9447
875.365	9492
875.494	9652
875.623	9857
875.751	9812
875.88	9994
876.008	10162
876.136	10280
876.265	10508
876.393	10729
876.521	10717
876.65	10809
876.778	10881
876.906	10904
877.034	10938
877.162	11113
877.29	11105
877.418	11292
877.546	11261
877.674	11398
877.802	11493
877.93	11554
878.058	11509
878.185	11558
878.313	11646
878.441	11817
878.568	11585
878.696	11790
878.824	11843
878.951	11916
879.079	12011
879.206	12148
879.333	11992
879.461	11980
879.588	12076
879.715	12019
879.842	12175
879.97	12098
880.097	11927
880.224	11878
880.351	11786
880.478	11923
880.605	11931
880.732	11847
880.859	11939
880.986	11805
881.112	11832
881.239	11741
881.366	11680
881.493	11596
881.619	11474
881.746	11623
881.872	11608
881.999	11493
882.125	11486
882.252	11570
882.378	11520
882.505	11566
882.631	11436
882.757	11345
882.883	11356
883.01	11242
883.136	11261
883.262	11124
883.388	11098
883.514	11185
883.64	11239
883.766	11155
883.892	10961
884.018	11079
884.143	11029
884.269	11178
884.395	10904
884.52	10774
884.646	10771
884.772	10744
884.897	10691
885.023	10706
885.148	10691
885.274	10759
885.399	10717
885.524	10592
885.65	10607
885.775	10615
885.9	10512
886.025	10580
886.15	10500
886.275	10436
886.4	10398
886.525	10440
886.65	10405
886.775	10363
886.9	10519
887.025	10470
887.149	10402
887.274	10181
887.399	10215
887.523	10223
887.648	10158
887.773	10116
887.897	10204
888.021	10249
888.146	10116
888.27	10207
888.395	10230
888.519	10147
888.643	10143
888.767	10230
888.891	10055
889.015	10025
889.139	10101
889.263	10010
889.387	10074
889.511	10029
889.635	10082
889.759	9934
889.883	10040
890.006	9968
890.13	10128
890.254	9922
890.377	9968
890.501	9892
890.624	9892
890.748	9876
890.871	9793
890.995	9713
891.118	9682
891.241	9770
891.364	9747
891.488	9785
891.611	9774
891.734	9717
891.857	9762
891.98	9698
892.103	9740
892.226	9732
892.349	9709
892.471	9561
892.594	9663
892.717	9652
892.839	9671
892.962	9595
893.085	9625
893.207	9622
893.33	9466
893.452	9538
893.575	9523
893.697	9488
893.819	9553
893.941	9580
894.064	9523
894.186	9443
894.308	9477
894.43	9519
894.552	9526
894.674	9504
894.796	9443
894.918	9408
895.04	9355
895.161	9386
895.283	9344
895.405	9214
895.526	9268
895.648	9188
895.769	9203
895.891	9207
896.012	9245
896.134	9176
896.255	9226
896.376	9058
896.498	9207
896.619	9161
896.74	9112
896.861	9081
896.982	9211
897.103	9359
897.224	9203
897.345	9116
897.466	8990
897.587	8944
897.708	9062
897.828	8944
897.949	8944
898.07	8883
898.19	8960
898.311	8948
898.431	8861
898.552	8887
898.672	8906
898.792	8929
898.913	8899
899.033	8788
899.153	8750
899.273	8727
899.393	8670
899.513	8708
899.633	8693
899.753	8693
899.873	8705
899.993	8735
900.113	8727
900.232	8693
900.352	8651
900.472	8560
900.591	8560
900.711	8625
900.83	8530
900.95	8648
901.069	8644
901.189	8575
901.308	8484
901.427	8446
901.546	8332
901.665	8473
901.784	8412
901.904	8374
902.023	8358
902.141	8240
902.26	8221
902.379	8267
902.498	8191
902.617	8206
902.735	8301
902.854	8237
902.973	8267
903.091	8054
903.21	8119
903.328	8214
903.446	8123
903.565	7993
903.683	8130
903.801	7989
903.919	8123
904.038	8142
904.156	7932
904.274	8031
904.392	7982
904.51	8027
904.627	8043
904.745	8008
904.863	8096
904.981	7963
905.098	7849
905.216	7868
905.334	7928
905.451	7849
905.569	7856
905.686	7875
905.803	7951
905.921	7753
906.038	7849
906.155	7784
906.272	7670
906.389	7693
906.506	7670
906.623	7559
906.74	7590
906.857	7578
906.974	7601
907.091	7685
907.208	7746
907.324	7636
907.441	7514
907.557	7487
907.674	7415
907.79	7400
907.907	7422
908.023	7426
908.139	7381
908.256	7403
908.372	7400
908.488	7324
908.604	7305
908.72	7240
908.836	7263
908.952	7175
909.068	7221
909.184	7274
909.3	7228
909.415	7255
909.531	7308
909.647	7137
909.762	7103
909.878	7099
909.993	7190
910.108	7110
910.224	7076
910.339	7088
910.454	7050
910.57	6989
910.685	6905
910.8	7149
910.915	7061
911.03	7050
911.145	6909
911.259	6806
911.374	6829
911.489	6859
911.604	6856
911.718	6711
911.833	6722
911.947	6627
912.062	6551
912.176	6669
912.291	6684
912.405	6642
912.519	6875
912.633	6829
912.748	6734
912.862	6741
912.976	6585
913.09	6494
913.204	6566
913.318	6627
913.431	6623
913.545	6677
913.659	6654
913.772	6658
913.886	6498
914	6532
914.113	6589
914.226	6642
914.34	6608
914.453	6471
914.566	6597
914.68	6513
914.793	6563
914.906	6445
915.019	6391
915.132	6311
915.245	6403
915.358	6422
915.47	6422
915.583	6429
915.696	6502
915.809	6502
915.921	6540
916.034	6490
916.146	6414
916.259	6365
916.371	6483
916.483	6494
916.595	6437
916.708	6433
916.82	6429
916.932	6357
917.044	6372
917.156	6353
917.268	6296
917.38	6292
917.491	6376
917.603	6395
917.715	6388
917.826	6437
917.938	6357
918.049	6254
918.161	6350
918.272	6429
918.384	6429
918.495	6410
918.606	6304
918.717	6159
918.828	6304
918.939	6232
919.05	6228
919.161	6262
919.272	6076
919.383	6091
919.494	6285
919.604	6410
919.715	6270
919.826	6216
919.936	6220
920.047	6380
920.157	6289
920.267	6369
920.378	6270
920.488	6281
920.598	6513
920.708	6532
920.818	6479
920.928	6410
921.038	6608
921.148	6589
921.258	6350
921.368	6353
921.477	6232
921.587	6148
921.697	6079
921.806	6163
921.916	6049
922.025	5946
922.134	5912
922.244	5828
922.353	5889
922.462	5859
922.571	5771
922.68	5695
922.789	5649
922.898	5672
923.007	5668
923.116	5695
923.224	5649
923.333	5729
923.442	5581
923.55	5543
923.659	5524
923.767	5668
923.876	5535
923.984	5592
924.092	5520
924.201	5566
924.309	5535
924.417	5520
924.525	5486
924.633	5482
924.741	6273
924.849	5379
924.956	5490
925.064	5372
925.172	5303
925.279	5299
925.387	5341
925.494	5372
925.602	5398
925.709	5364
925.816	5273
925.924	5307
926.031	5353
926.138	5261
926.245	5341
926.352	5185
926.459	5284
926.566	5326
926.673	5208
926.779	5109
926.886	5151
926.993	5025
927.099	4968
927.206	4995
927.312	4968
927.419	5010
927.525	4987
927.631	5029
927.737	4892
927.843	4892
927.95	4748
928.056	4831
928.162	4782
928.267	4835
928.373	5357
928.479	4812
928.585	4691
928.69	4786
928.796	4782
928.901	4733
929.007	4538
929.112	4672
929.218	4603
929.323	4592
929.428	4577
929.533	4702
929.638	4497
929.743	4531
929.848	4561
929.953	4512
930.058	4436
930.163	4318
930.267	4356
930.372	4421
930.477	4280
930.581	4375
930.685	4356
930.79	4253
930.894	4280
930.998	4211
931.103	4360
931.207	4116
931.311	4109
931.415	4040
931.519	3960
931.623	3960
