Data from glass_V78500241_562.txt Node
Date: Wed Sep 01 19:18:23 CST 2021
User: usil
Spectrometer: V785-0024
Trigger mode: 0
Integration Time (sec): 4.000000E-1
Scans to average: 1
Nonlinearity correction enabled: false
Boxcar width: 0
Storing dark spectrum: false
XAxis mode: Wavelengths
Number of Pixels in Spectrum: 1024
>>>>>Begin Spectral Data<<<<<
801.071	3705
801.214	3793
801.356	3713
801.499	3709
801.641	3724
801.783	3827
801.926	3865
802.068	3865
802.211	3888
802.353	3869
802.496	3823
802.638	3922
802.78	3926
802.923	3968
803.065	3930
803.208	3857
803.35	3896
803.492	3892
803.635	3892
803.777	3838
803.919	3941
804.061	4147
804.204	3987
804.346	3983
804.488	3968
804.63	4032
804.773	3975
804.915	4051
805.057	4177
805.199	4055
805.341	4139
805.483	4131
805.626	4128
805.768	4128
805.91	4230
806.052	4242
806.194	4211
806.336	4333
806.478	4249
806.62	4230
806.762	4188
806.904	4265
807.046	4348
807.188	4200
807.33	4242
807.472	4303
807.614	4227
807.756	4318
807.898	4154
808.04	4181
808.182	4303
808.324	4314
808.465	4417
808.607	4516
808.749	4489
808.891	4451
809.033	4550
809.174	4424
809.316	4291
809.458	4230
809.6	4131
809.741	4139
809.883	4143
810.025	4188
810.166	4272
810.308	4230
810.45	4268
810.591	4257
810.733	4341
810.875	4542
811.016	4801
811.158	5132
811.299	5299
811.441	5284
811.582	5098
811.724	4729
811.865	4455
812.007	4474
812.148	4436
812.29	4462
812.431	4421
812.573	4432
812.714	4383
812.855	4443
812.997	4417
813.138	4493
813.279	4409
813.421	4413
813.562	4432
813.703	4360
813.845	4329
813.986	4257
814.127	4227
814.268	4306
814.41	4310
814.551	4299
814.692	4303
814.833	4246
814.974	4314
815.115	4371
815.256	4234
815.397	4230
815.539	4234
815.68	4215
815.821	4215
815.962	4306
816.103	4299
816.244	4246
816.385	4284
816.526	4257
816.666	4173
816.807	4139
816.948	4158
817.089	4135
817.23	4101
817.371	4059
817.512	4055
817.653	4105
817.793	4090
817.934	4032
818.075	4105
818.216	4135
818.356	4120
818.497	3994
818.638	3930
818.778	3896
818.919	3918
819.06	3850
819.2	3956
819.341	3869
819.481	3838
819.622	3907
819.762	4010
819.903	4010
820.043	3861
820.184	3865
820.324	3838
820.465	3892
820.605	3869
820.746	3899
820.886	3838
821.026	3930
821.167	3922
821.307	3964
821.447	3964
821.588	3975
821.728	3953
821.868	3918
822.008	3880
822.149	3918
822.289	3956
822.429	3827
822.569	3751
822.709	3816
822.849	3751
822.99	3713
823.13	3816
823.27	3774
823.41	3720
823.55	3747
823.69	3724
823.83	3694
823.97	3679
824.11	3637
824.25	3610
824.389	3656
824.529	3652
824.669	3656
824.809	3713
824.949	3743
825.089	3682
825.228	3709
825.368	3584
825.508	3591
825.648	3580
825.787	3599
825.927	3637
826.067	3637
826.206	3698
826.346	3800
826.485	3850
826.625	3941
826.765	3934
826.904	3838
827.044	3641
827.183	3564
827.323	3409
827.462	3500
827.601	3469
827.741	3450
827.88	3458
828.02	3393
828.159	3496
828.298	3515
828.437	3538
828.577	3511
828.716	3591
828.855	3511
828.994	3378
829.134	3359
829.273	3420
829.412	3363
829.551	3329
829.69	3401
829.829	3454
829.968	3564
830.107	3500
830.246	3447
830.385	3401
830.524	3367
830.663	3313
830.802	3294
830.941	3195
831.08	3260
831.219	3260
831.357	3275
831.496	3443
831.635	3260
831.774	3214
831.913	3218
832.051	3173
832.19	3123
832.329	3230
832.467	3157
832.606	3123
832.744	3173
832.883	3188
833.022	3207
833.16	3264
833.299	3313
833.437	3321
833.576	3412
833.714	3431
833.852	3447
833.991	3435
834.129	3496
834.267	3428
834.406	3416
834.544	3435
834.682	3435
834.821	3462
834.959	3622
835.097	3439
835.235	3553
835.373	3523
835.511	3523
835.65	3469
835.788	3515
835.926	3397
836.064	3397
836.202	3416
836.34	3572
836.478	3599
836.615	3538
836.753	3614
836.891	3656
837.029	3606
837.167	3622
837.305	3538
837.443	3530
837.58	3507
837.718	3595
837.856	3576
837.993	3542
838.131	3603
838.269	3625
838.406	3580
838.544	3549
838.681	3492
838.819	3488
838.956	3363
839.094	3382
839.231	3450
839.369	3526
839.506	3747
839.643	3618
839.781	3515
839.918	3485
840.055	3519
840.193	3485
840.33	3561
840.467	3553
840.604	3648
840.742	3797
840.879	3549
841.016	3549
841.153	3603
841.29	3800
841.427	3720
841.564	3698
841.701	3800
841.838	3686
841.975	3713
842.112	3713
842.249	3610
842.385	3660
842.522	3789
842.659	3736
842.796	3652
842.933	3701
843.069	3675
843.206	3705
843.343	3838
843.479	3797
843.616	3842
843.752	3663
843.889	3686
844.025	3880
844.162	3770
844.298	3846
844.435	3812
844.571	3766
844.708	3899
844.844	4002
844.98	4010
845.117	4017
845.253	3968
845.389	3922
845.525	3987
845.661	3956
845.798	3979
845.934	4013
846.07	3956
846.206	4040
846.342	4139
846.478	4071
846.614	4017
846.75	3918
846.886	3930
847.022	4048
847.158	4002
847.294	4071
847.429	4021
847.565	3994
847.701	4268
847.837	3899
847.972	3831
848.108	4025
848.244	4036
848.379	3930
848.515	3797
848.65	3804
848.786	3823
848.921	3865
849.057	3964
849.192	3964
849.328	3918
849.463	3930
849.598	3922
849.734	3899
849.869	3835
850.004	3812
850.14	3812
850.275	3781
850.41	3766
850.545	3804
850.68	3770
850.815	3827
850.95	3770
851.085	3918
851.22	3930
851.355	3869
851.49	3827
851.625	3812
851.76	3816
851.895	3751
852.03	3736
852.165	3808
852.299	3854
852.434	3892
852.569	3876
852.703	3892
852.838	3975
852.973	3987
853.107	4044
853.242	3873
853.376	3880
853.511	3819
853.645	3869
853.78	3964
853.914	3876
854.048	3926
854.183	3869
854.317	3934
854.451	4086
854.585	3991
854.72	3934
854.854	4090
854.988	3983
855.122	4006
855.256	3934
855.39	4032
855.524	4150
855.658	4074
855.792	4059
855.926	4105
856.06	4185
856.194	4230
856.327	4177
856.461	4147
856.595	4162
856.729	4207
856.862	4295
856.996	4215
857.13	4303
857.263	4344
857.397	4303
857.53	4329
857.664	4367
857.797	4405
857.931	4417
858.064	4375
858.197	4459
858.331	4409
858.464	4341
858.597	4360
858.731	4432
858.864	4470
858.997	4459
859.13	4508
859.263	4542
859.396	4584
859.529	4538
859.662	4527
859.795	4592
859.928	4607
860.061	4691
860.194	4748
860.327	4660
860.46	4664
860.592	4721
860.725	4774
860.858	4786
860.99	4725
861.123	4672
861.256	4706
861.388	4782
861.521	5406
861.653	4702
861.786	4721
861.918	4736
862.05	4843
862.183	4850
862.315	4892
862.447	5022
862.58	4866
862.712	4828
862.844	4752
862.976	4870
863.108	4824
863.24	5212
863.372	4793
863.504	4946
863.636	4885
863.768	4961
863.9	4968
864.032	4953
864.164	4953
864.296	5094
864.428	5090
864.559	5147
864.691	5090
864.823	5109
864.954	5128
865.086	5174
865.217	5121
865.349	5162
865.48	5181
865.612	5204
865.743	5292
865.875	5204
866.006	5193
866.137	5227
866.269	5220
866.4	5273
866.531	5208
866.662	5220
866.793	5299
866.924	5326
867.055	5364
867.186	5303
867.317	5296
867.448	5322
867.579	5353
867.71	5395
867.841	5383
867.972	5486
868.103	5482
868.233	5471
868.364	5562
868.495	5535
868.625	5710
868.756	5847
868.886	5707
869.017	5737
869.147	5859
869.278	5859
869.408	5832
869.539	5836
869.669	5901
869.799	5935
869.929	6049
870.06	6038
870.19	6220
870.32	6178
870.45	6258
870.58	6323
870.71	6399
870.84	6445
870.97	6414
871.1	6494
871.23	6639
871.36	6700
871.489	6715
871.619	6795
871.749	6810
871.879	6848
872.008	6882
872.138	7023
872.267	7019
872.397	7023
872.526	7072
872.656	7027
872.785	7247
872.915	7377
873.044	7495
873.173	7632
873.303	7685
873.432	7833
873.561	7860
873.69	7917
873.819	8046
873.948	8157
874.077	8317
874.206	8317
874.335	8423
874.464	8689
874.593	8842
874.722	8929
874.851	9127
874.979	9222
875.108	9450
875.237	9439
875.365	9466
875.494	9694
875.623	9823
875.751	9880
875.88	10017
876.008	10150
876.136	10227
876.265	10500
876.393	10725
876.521	10664
876.65	10812
876.778	10957
876.906	10831
877.034	11003
877.162	11109
877.29	11155
877.418	11277
877.546	11387
877.674	11463
877.802	11509
877.93	11608
878.058	11535
878.185	11573
878.313	11638
878.441	11710
878.568	11767
878.696	11855
878.824	11843
878.951	11923
879.079	12026
879.206	12117
879.333	12038
879.461	12019
879.588	12121
879.715	12144
879.842	12209
879.97	12060
880.097	11889
880.224	11927
880.351	11893
880.478	11866
880.605	11821
880.732	11859
880.859	11942
880.986	11859
881.112	11843
881.239	11756
881.366	11714
881.493	11630
881.619	11520
881.746	11528
881.872	11467
881.999	11551
882.125	11417
882.252	11524
882.378	11455
882.505	11619
882.631	11368
882.757	11181
882.883	11383
883.01	11277
883.136	11147
883.262	11086
883.388	11197
883.514	11105
883.64	11181
883.766	11121
883.892	10976
884.018	10972
884.143	11064
884.269	11064
884.395	10881
884.52	10771
884.646	10790
884.772	10755
884.897	10668
885.023	10725
885.148	10736
885.274	10801
885.399	10733
885.524	10622
885.65	10626
885.775	10611
885.9	10558
886.025	10607
886.15	10580
886.275	10470
886.4	10367
886.525	10443
886.65	10394
886.775	10276
886.9	10481
887.025	10523
887.149	10344
887.274	10314
887.399	10246
887.523	10207
887.648	10162
887.773	10090
887.897	10238
888.021	10280
888.146	10139
888.27	10150
888.395	10215
888.519	10131
888.643	10188
888.767	10177
888.891	10109
889.015	10059
889.139	10013
889.263	10010
889.387	10059
889.511	10128
889.635	10116
889.759	9960
889.883	9994
890.006	10032
890.13	10139
890.254	9987
890.377	9991
890.501	9949
890.624	9873
890.748	9926
890.871	9838
890.995	9747
891.118	9766
891.241	9785
891.364	9751
891.488	9808
891.611	9759
891.734	9766
891.857	9770
891.98	9709
892.103	9740
892.226	9800
892.349	9660
892.471	9523
892.594	9625
892.717	9648
892.839	9606
892.962	9633
893.085	9633
893.207	9576
893.33	9542
893.452	9542
893.575	9629
893.697	9542
893.819	9641
893.941	9652
894.064	9587
894.186	9424
894.308	9469
894.43	9561
894.552	9545
894.674	9549
894.796	9420
894.918	9458
895.04	9355
895.161	9401
895.283	9367
895.405	9302
895.526	9237
895.648	9245
895.769	9294
895.891	9367
896.012	9207
896.134	9226
896.255	9173
896.376	9123
896.498	9180
896.619	9142
896.74	9077
896.861	9081
896.982	9192
897.103	9272
897.224	9218
897.345	9055
897.466	9024
897.587	9024
897.708	9100
897.828	9081
897.949	8971
898.07	8883
898.19	8899
898.311	9024
898.431	8910
898.552	8960
898.672	8960
898.792	8948
898.913	8887
899.033	8838
899.153	8758
899.273	8667
899.393	8739
899.513	8743
899.633	8769
899.753	8735
899.873	8739
899.993	8777
900.113	8716
900.232	8701
900.352	8678
900.472	8682
900.591	8518
900.711	8629
900.83	8549
900.95	8674
901.069	8754
901.189	8636
901.308	8438
901.427	8412
901.546	8446
901.665	8419
901.784	8564
901.904	8412
902.023	8313
902.141	8221
902.26	8221
902.379	8290
902.498	8259
902.617	8183
902.735	8366
902.854	8294
902.973	8256
903.091	8149
903.21	8168
903.328	8229
903.446	8096
903.565	8054
903.683	8065
903.801	8012
903.919	8081
904.038	8065
904.156	7986
904.274	8092
904.392	8054
904.51	8065
904.627	8073
904.745	8111
904.863	8024
904.981	7890
905.098	7822
905.216	7879
905.334	7906
905.451	7837
905.569	7890
905.686	7955
905.803	7936
905.921	7784
906.038	7879
906.155	7807
906.272	7738
906.389	7753
906.506	7632
906.623	7636
906.74	7609
906.857	7556
906.974	7563
907.091	7696
907.208	7731
907.324	7689
907.441	7620
907.557	7491
907.674	7502
907.79	7422
907.907	7453
908.023	7502
908.139	7449
908.256	7438
908.372	7407
908.488	7327
908.604	7316
908.72	7278
908.836	7247
908.952	7274
909.068	7297
909.184	7396
909.3	7206
909.415	7377
909.531	7324
909.647	7160
909.762	7095
909.878	7133
909.993	7133
910.108	7095
910.224	7095
910.339	7103
910.454	7046
910.57	6954
910.685	6981
910.8	7190
910.915	7133
911.03	7061
911.145	6913
911.259	6875
911.374	6871
911.489	6791
911.604	6863
911.718	6768
911.833	6776
911.947	6673
912.062	6677
912.176	6722
912.291	6764
912.405	6681
912.519	6806
912.633	6852
912.748	6738
912.862	6673
912.976	6684
913.09	6528
913.204	6509
913.318	6631
913.431	6673
913.545	6620
913.659	6703
913.772	6616
913.886	6589
914	6551
914.113	6639
914.226	6654
914.34	6616
914.453	6521
914.566	6589
914.68	6536
914.793	6517
914.906	6422
915.019	6456
915.132	6384
915.245	6464
915.358	6448
915.47	6410
915.583	6467
915.696	6429
915.809	6513
915.921	6563
916.034	6437
916.146	6441
916.259	6391
916.371	6452
916.483	6460
916.595	6403
916.708	6456
916.82	6414
916.932	6418
917.044	6407
917.156	6429
917.268	6334
917.38	6433
917.491	6369
917.603	6315
917.715	6448
917.826	6410
917.938	6365
918.049	6239
918.161	6369
918.272	6422
918.384	6433
918.495	6399
918.606	6300
918.717	6209
918.828	6296
918.939	6273
919.05	6194
919.161	6232
919.272	6076
919.383	6175
919.494	6289
919.604	6429
919.715	6304
919.826	6251
919.936	6331
920.047	6342
920.157	6289
920.267	6471
920.378	6395
920.488	6262
920.598	6471
920.708	6570
920.818	6467
920.928	6448
921.038	6631
921.148	6593
921.258	6433
921.368	6346
921.477	6254
921.587	6209
921.697	6125
921.806	6201
921.916	6098
922.025	6011
922.134	5935
922.244	5916
922.353	5931
922.462	5870
922.571	5847
922.68	5688
922.789	5676
922.898	5672
923.007	5638
923.116	5775
923.224	5680
923.333	5668
923.442	5577
923.55	5589
923.659	5630
923.767	5630
923.876	5570
923.984	5619
924.092	5535
924.201	5581
924.309	5577
924.417	5573
924.525	5478
924.633	5490
924.741	6304
924.849	5398
924.956	5448
925.064	5353
925.172	5349
925.279	5326
925.387	5368
925.494	5322
925.602	5452
925.709	5406
925.816	5280
925.924	5303
926.031	5341
926.138	5318
926.245	5349
926.352	5254
926.459	5315
926.566	5337
926.673	5193
926.779	5170
926.886	5124
926.993	5022
927.099	4999
927.206	4942
927.312	4946
927.419	5003
927.525	4957
927.631	4965
927.737	4919
927.843	4850
927.95	4717
928.056	4854
928.162	4843
928.267	4862
928.373	5258
928.479	4858
928.585	4664
928.69	4752
928.796	4820
928.901	4740
929.007	4618
929.112	4668
929.218	4607
929.323	4660
929.428	4599
929.533	4630
929.638	4516
929.743	4554
929.848	4569
929.953	4542
930.058	4451
930.163	4329
930.267	4367
930.372	4459
930.477	4318
930.581	4493
930.685	4329
930.79	4234
930.894	4303
930.998	4280
931.103	4390
931.207	4116
931.311	4139
931.415	4036
931.519	3918
931.623	3911
