Data from glass_V78500241_1865.txt Node
Date: Wed Sep 01 19:27:25 CST 2021
User: usil
Spectrometer: V785-0024
Trigger mode: 0
Integration Time (sec): 4.000000E-1
Scans to average: 1
Nonlinearity correction enabled: false
Boxcar width: 0
Storing dark spectrum: false
XAxis mode: Wavelengths
Number of Pixels in Spectrum: 1024
>>>>>Begin Spectral Data<<<<<
801.071	3755
801.214	3804
801.356	3682
801.499	3759
801.641	3724
801.783	3812
801.926	3838
802.068	3865
802.211	3873
802.353	3850
802.496	3873
802.638	3903
802.78	3865
802.923	3899
803.065	3892
803.208	3838
803.35	3888
803.492	3865
803.635	3907
803.777	3793
803.919	3888
804.061	4150
804.204	3968
804.346	3930
804.488	3903
804.63	3994
804.773	3983
804.915	4017
805.057	4116
805.199	4063
805.341	4044
805.483	4135
805.626	4131
805.768	4105
805.91	4166
806.052	4242
806.194	4173
806.336	4333
806.478	4211
806.62	4211
806.762	4207
806.904	4257
807.046	4299
807.188	4215
807.33	4147
807.472	4215
807.614	4162
807.756	4284
807.898	4211
808.04	4177
808.182	4306
808.324	4272
808.465	4352
808.607	4451
808.749	4459
808.891	4440
809.033	4516
809.174	4390
809.316	4287
809.458	4230
809.6	4147
809.741	4139
809.883	4147
810.025	4166
810.166	4192
810.308	4268
810.45	4230
810.591	4219
810.733	4291
810.875	4538
811.016	4759
811.158	5143
811.299	5231
811.441	5246
811.582	5075
811.724	4649
811.865	4459
812.007	4516
812.148	4443
812.29	4451
812.431	4390
812.573	4386
812.714	4360
812.855	4451
812.997	4417
813.138	4436
813.279	4383
813.421	4413
813.562	4394
813.703	4337
813.845	4310
813.986	4295
814.127	4207
814.268	4284
814.41	4318
814.551	4291
814.692	4284
814.833	4253
814.974	4268
815.115	4352
815.256	4261
815.397	4253
815.539	4287
815.68	4188
815.821	4219
815.962	4318
816.103	4276
816.244	4223
816.385	4207
816.526	4276
816.666	4204
816.807	4097
816.948	4223
817.089	4154
817.23	4116
817.371	4021
817.512	4040
817.653	4086
817.793	4082
817.934	4021
818.075	4097
818.216	4090
818.356	4105
818.497	4002
818.638	3922
818.778	3869
818.919	3880
819.06	3876
819.2	3903
819.341	3880
819.481	3869
819.622	3907
819.762	4021
819.903	3964
820.043	3861
820.184	3880
820.324	3816
820.465	3880
820.605	3873
820.746	3857
820.886	3800
821.026	3918
821.167	3880
821.307	3972
821.447	3975
821.588	3945
821.728	3934
821.868	3953
822.008	3876
822.149	3880
822.289	3926
822.429	3823
822.569	3759
822.709	3812
822.849	3690
822.99	3705
823.13	3701
823.27	3762
823.41	3724
823.55	3728
823.69	3732
823.83	3732
823.97	3656
824.11	3584
824.25	3572
824.389	3667
824.529	3660
824.669	3599
824.809	3686
824.949	3698
825.089	3705
825.228	3686
825.368	3591
825.508	3564
825.648	3564
825.787	3595
825.927	3625
826.067	3648
826.206	3701
826.346	3816
826.485	3861
826.625	3880
826.765	3915
826.904	3804
827.044	3633
827.183	3523
827.323	3397
827.462	3439
827.601	3420
827.741	3397
827.88	3447
828.02	3348
828.159	3462
828.298	3504
828.437	3504
828.577	3439
828.716	3610
828.855	3542
828.994	3370
829.134	3382
829.273	3393
829.412	3389
829.551	3298
829.69	3340
829.829	3412
829.968	3496
830.107	3450
830.246	3435
830.385	3386
830.524	3329
830.663	3287
830.802	3283
830.941	3192
831.08	3192
831.219	3241
831.357	3256
831.496	3428
831.635	3245
831.774	3184
831.913	3207
832.051	3127
832.19	3135
832.329	3203
832.467	3154
832.606	3070
832.744	3169
832.883	3161
833.022	3188
833.16	3256
833.299	3294
833.437	3313
833.576	3351
833.714	3382
833.852	3435
833.991	3424
834.129	3466
834.267	3450
834.406	3416
834.544	3424
834.682	3439
834.821	3405
834.959	3542
835.097	3443
835.235	3572
835.373	3519
835.511	3500
835.65	3428
835.788	3466
835.926	3412
836.064	3389
836.202	3367
836.34	3553
836.478	3614
836.615	3511
836.753	3603
836.891	3633
837.029	3625
837.167	3591
837.305	3561
837.443	3488
837.58	3530
837.718	3568
837.856	3580
837.993	3568
838.131	3572
838.269	3614
838.406	3614
838.544	3542
838.681	3481
838.819	3428
838.956	3351
839.094	3393
839.231	3412
839.369	3511
839.506	3717
839.643	3675
839.781	3488
839.918	3511
840.055	3466
840.193	3500
840.33	3576
840.467	3564
840.604	3618
840.742	3819
840.879	3511
841.016	3568
841.153	3561
841.29	3728
841.427	3743
841.564	3728
841.701	3717
841.838	3682
841.975	3667
842.112	3694
842.249	3622
842.385	3591
842.522	3831
842.659	3705
842.796	3652
842.933	3732
843.069	3667
843.206	3724
843.343	3812
843.479	3793
843.616	3797
843.752	3679
843.889	3660
844.025	3842
844.162	3740
844.298	3865
844.435	3785
844.571	3781
844.708	3876
844.844	3960
844.98	4010
845.117	4025
845.253	3892
845.389	3903
845.525	3945
845.661	3953
845.798	3896
845.934	3960
846.07	3949
846.206	4082
846.342	4131
846.478	4044
846.614	3972
846.75	3964
846.886	3968
847.022	3983
847.158	3998
847.294	3998
847.429	4010
847.565	3987
847.701	4223
847.837	3880
847.972	3838
848.108	3975
848.244	3937
848.379	3873
848.515	3827
848.65	3797
848.786	3850
848.921	3850
849.057	3918
849.192	3934
849.328	3915
849.463	3888
849.598	3926
849.734	3873
849.869	3812
850.004	3789
850.14	3819
850.275	3800
850.41	3755
850.545	3785
850.68	3732
850.815	3838
850.95	3819
851.085	3964
851.22	3857
851.355	3800
851.49	3789
851.625	3759
851.76	3785
851.895	3732
852.03	3736
852.165	3846
852.299	3838
852.434	3880
852.569	3865
852.703	3869
852.838	3926
852.973	3991
853.107	4013
853.242	3880
853.376	3808
853.511	3732
853.645	3819
853.78	3979
853.914	3903
854.048	3903
854.183	3876
854.317	3903
854.451	4090
854.585	3937
854.72	3915
854.854	4055
854.988	3934
855.122	4032
855.256	3937
855.39	3983
855.524	4071
855.658	4029
855.792	4029
855.926	4086
856.06	4112
856.194	4192
856.327	4154
856.461	4120
856.595	4166
856.729	4188
856.862	4287
856.996	4249
857.13	4287
857.263	4329
857.397	4348
857.53	4261
857.664	4318
857.797	4417
857.931	4424
858.064	4360
858.197	4474
858.331	4398
858.464	4432
858.597	4333
858.731	4428
858.864	4474
858.997	4440
859.13	4500
859.263	4546
859.396	4611
859.529	4523
859.662	4546
859.795	4516
859.928	4634
860.061	4687
860.194	4740
860.327	4656
860.46	4630
860.592	4710
860.725	4767
860.858	4748
860.99	4702
861.123	4626
861.256	4679
861.388	4729
861.521	5402
861.653	4740
861.786	4706
861.918	4790
862.05	4847
862.183	4763
862.315	4831
862.447	4942
862.58	4896
862.712	4858
862.844	4774
862.976	4873
863.108	4896
863.24	5277
863.372	4831
863.504	4908
863.636	4885
863.768	4938
863.9	4942
864.032	4927
864.164	4896
864.296	4999
864.428	5025
864.559	5128
864.691	5090
864.823	5170
864.954	5113
865.086	5151
865.217	5132
865.349	5064
865.48	5155
865.612	5220
865.743	5292
865.875	5181
866.006	5109
866.137	5223
866.269	5242
866.4	5235
866.531	5174
866.662	5201
866.793	5261
866.924	5280
867.055	5334
867.186	5349
867.317	5303
867.448	5273
867.579	5360
867.71	5368
867.841	5334
867.972	5467
868.103	5539
868.233	5440
868.364	5436
868.495	5524
868.625	5684
868.756	5771
868.886	5680
869.017	5684
869.147	5832
869.278	5859
869.408	5809
869.539	5863
869.669	5950
869.799	5946
869.929	5980
870.06	5999
870.19	6194
870.32	6136
870.45	6247
870.58	6327
870.71	6422
870.84	6426
870.97	6418
871.1	6426
871.23	6688
871.36	6665
871.489	6585
871.619	6719
871.749	6798
871.879	6894
872.008	6993
872.138	7019
872.267	6962
872.397	6966
872.526	7008
872.656	7149
872.785	7228
872.915	7430
873.044	7529
873.173	7567
873.303	7616
873.432	7765
873.561	7898
873.69	7883
873.819	8020
873.948	8183
874.077	8214
874.206	8328
874.335	8431
874.464	8682
874.593	8849
874.722	8902
874.851	9119
874.979	9287
875.108	9359
875.237	9450
875.365	9458
875.494	9564
875.623	9804
875.751	9808
875.88	9998
876.008	10177
876.136	10299
876.265	10504
876.393	10698
876.521	10710
876.65	10793
876.778	10854
876.906	10919
877.034	10961
877.162	11086
877.29	11159
877.418	11273
877.546	11353
877.674	11440
877.802	11524
877.93	11429
878.058	11585
878.185	11600
878.313	11600
878.441	11684
878.568	11661
878.696	11710
878.824	11813
878.951	11935
879.079	12045
879.206	12167
879.333	11992
879.461	11977
879.588	12049
879.715	12102
879.842	12159
879.97	12106
880.097	11923
880.224	11863
880.351	11874
880.478	11870
880.605	11859
880.732	11745
880.859	12015
880.986	11851
881.112	11783
881.239	11786
881.366	11634
881.493	11570
881.619	11543
881.746	11573
881.872	11577
881.999	11501
882.125	11505
882.252	11547
882.378	11512
882.505	11573
882.631	11414
882.757	11307
882.883	11292
883.01	11231
883.136	11155
883.262	11098
883.388	11140
883.514	11170
883.64	11227
883.766	11037
883.892	10995
884.018	11010
884.143	11067
884.269	11048
884.395	10866
884.52	10778
884.646	10782
884.772	10691
884.897	10527
885.023	10706
885.148	10679
885.274	10774
885.399	10664
885.524	10615
885.65	10550
885.775	10584
885.9	10584
886.025	10615
886.15	10489
886.275	10478
886.4	10295
886.525	10405
886.65	10371
886.775	10257
886.9	10508
887.025	10599
887.149	10341
887.274	10268
887.399	10147
887.523	10109
887.648	10086
887.773	10227
887.897	10200
888.021	10169
888.146	10188
888.27	10166
888.395	10272
888.519	10200
888.643	10139
888.767	10200
888.891	10150
889.015	10071
889.139	10029
889.263	9915
889.387	10051
889.511	10105
889.635	10044
889.759	9987
889.883	10006
890.006	10025
890.13	10093
890.254	9953
890.377	9926
890.501	9808
890.624	9857
890.748	9861
890.871	9743
890.995	9717
891.118	9705
891.241	9800
891.364	9751
891.488	9812
891.611	9709
891.734	9736
891.857	9766
891.98	9732
892.103	9770
892.226	9709
892.349	9682
892.471	9515
892.594	9587
892.717	9580
892.839	9671
892.962	9629
893.085	9705
893.207	9545
893.33	9519
893.452	9641
893.575	9538
893.697	9561
893.819	9633
893.941	9629
894.064	9557
894.186	9428
894.308	9443
894.43	9519
894.552	9599
894.674	9507
894.796	9370
894.918	9348
895.04	9336
895.161	9325
895.283	9313
895.405	9264
895.526	9317
895.648	9321
895.769	9192
895.891	9173
896.012	9275
896.134	9264
896.255	9127
896.376	9127
896.498	9184
896.619	9062
896.74	9036
896.861	9127
896.982	9298
897.103	9283
897.224	9226
897.345	9089
897.466	9009
897.587	9062
897.708	9066
897.828	9039
897.949	8956
898.07	8891
898.19	8960
898.311	8960
898.431	8899
898.552	8944
898.672	8971
898.792	8994
898.913	8899
899.033	8788
899.153	8792
899.273	8659
899.393	8621
899.513	8731
899.633	8708
899.753	8663
899.873	8708
899.993	8667
900.113	8678
900.232	8678
900.352	8636
900.472	8545
900.591	8583
900.711	8613
900.83	8552
900.95	8686
901.069	8724
901.189	8530
901.308	8461
901.427	8419
901.546	8427
901.665	8457
901.784	8461
901.904	8434
902.023	8324
902.141	8237
902.26	8248
902.379	8294
902.498	8244
902.617	8240
902.735	8290
902.854	8320
902.973	8233
903.091	8157
903.21	8130
903.328	8180
903.446	8115
903.565	8115
903.683	8103
903.801	8062
903.919	8008
904.038	8172
904.156	8119
904.274	8069
904.392	8043
904.51	8008
904.627	7993
904.745	8062
904.863	8020
904.981	7936
905.098	7830
905.216	7803
905.334	7917
905.451	7959
905.569	7864
905.686	7947
905.803	7982
905.921	7772
906.038	7803
906.155	7803
906.272	7772
906.389	7670
906.506	7681
906.623	7647
906.74	7597
906.857	7506
906.974	7537
907.091	7689
907.208	7765
907.324	7647
907.441	7571
907.557	7407
907.674	7415
907.79	7362
907.907	7400
908.023	7407
908.139	7415
908.256	7358
908.372	7384
908.488	7343
908.604	7240
908.72	7247
908.836	7289
908.952	7209
909.068	7228
909.184	7278
909.3	7270
909.415	7255
909.531	7263
909.647	7152
909.762	7053
909.878	7084
909.993	7069
910.108	7095
910.224	7080
910.339	7126
910.454	6996
910.57	7008
910.685	6928
910.8	7122
910.915	7053
911.03	7000
911.145	6928
911.259	6863
911.374	6852
911.489	6798
911.604	6829
911.718	6730
911.833	6719
911.947	6616
912.062	6604
912.176	6654
912.291	6703
912.405	6696
912.519	6795
912.633	6818
912.748	6768
912.862	6620
912.976	6631
913.09	6521
913.204	6639
913.318	6620
913.431	6650
913.545	6650
913.659	6692
913.772	6646
913.886	6589
914	6608
914.113	6551
914.226	6646
914.34	6582
914.453	6464
914.566	6589
914.68	6559
914.793	6521
914.906	6441
915.019	6429
915.132	6395
915.245	6399
915.358	6414
915.47	6403
915.583	6471
915.696	6506
915.809	6536
915.921	6551
916.034	6410
916.146	6418
916.259	6414
916.371	6509
916.483	6426
916.595	6426
916.708	6422
916.82	6346
916.932	6361
917.044	6384
917.156	6350
917.268	6258
917.38	6323
917.491	6342
917.603	6350
917.715	6372
917.826	6380
917.938	6315
918.049	6205
918.161	6327
918.272	6372
918.384	6433
918.495	6334
918.606	6209
918.717	6216
918.828	6228
918.939	6273
919.05	6197
919.161	6209
919.272	6106
919.383	6148
919.494	6289
919.604	6448
919.715	6319
919.826	6201
919.936	6292
920.047	6334
920.157	6270
920.267	6448
920.378	6308
920.488	6258
920.598	6498
920.708	6532
920.818	6410
920.928	6433
921.038	6623
921.148	6616
921.258	6311
921.368	6251
921.477	6228
921.587	6152
921.697	6133
921.806	6171
921.916	6095
922.025	5939
922.134	5904
922.244	5855
922.353	5954
922.462	5851
922.571	5802
922.68	5703
922.789	5707
922.898	5688
923.007	5623
923.116	5680
923.224	5642
923.333	5581
923.442	5558
923.55	5570
923.659	5581
923.767	5653
923.876	5589
923.984	5566
924.092	5467
924.201	5577
924.309	5581
924.417	5558
924.525	5551
924.633	5497
924.741	6285
924.849	5379
924.956	5486
925.064	5299
925.172	5280
925.279	5307
925.387	5292
925.494	5330
925.602	5402
925.709	5387
925.816	5299
925.924	5288
926.031	5372
926.138	5296
926.245	5318
926.352	5197
926.459	5318
926.566	5383
926.673	5250
926.779	5181
926.886	5128
926.993	5079
927.099	4991
927.206	5018
927.312	4930
927.419	4987
927.525	4995
927.631	4987
927.737	4870
927.843	4866
927.95	4816
928.056	4790
928.162	4835
928.267	4873
928.373	5242
928.479	4858
928.585	4687
928.69	4729
928.796	4805
928.901	4694
929.007	4542
929.112	4702
929.218	4577
929.323	4573
929.428	4584
929.533	4725
929.638	4489
929.743	4573
929.848	4542
929.953	4497
930.058	4462
930.163	4333
930.267	4341
930.372	4424
930.477	4291
930.581	4519
930.685	4318
930.79	4249
930.894	4246
930.998	4246
931.103	4375
931.207	4101
931.311	4086
931.415	4051
931.519	3907
931.623	3918
