Data from glass_V78500241_1707.txt Node
Date: Wed Sep 01 19:26:20 CST 2021
User: usil
Spectrometer: V785-0024
Trigger mode: 0
Integration Time (sec): 4.000000E-1
Scans to average: 1
Nonlinearity correction enabled: false
Boxcar width: 0
Storing dark spectrum: false
XAxis mode: Wavelengths
Number of Pixels in Spectrum: 1024
>>>>>Begin Spectral Data<<<<<
801.071	3755
801.214	3724
801.356	3705
801.499	3713
801.641	3743
801.783	3785
801.926	3861
802.068	3899
802.211	3854
802.353	3876
802.496	3854
802.638	3892
802.78	3888
802.923	3937
803.065	3892
803.208	3861
803.35	3865
803.492	3899
803.635	3854
803.777	3797
803.919	3861
804.061	4196
804.204	3956
804.346	3907
804.488	3922
804.63	4040
804.773	3991
804.915	4048
805.057	4173
805.199	3994
805.341	4120
805.483	4150
805.626	4105
805.768	4101
805.91	4181
806.052	4253
806.194	4230
806.336	4352
806.478	4207
806.62	4177
806.762	4230
806.904	4268
807.046	4322
807.188	4227
807.33	4143
807.472	4234
807.614	4204
807.756	4291
807.898	4234
808.04	4196
808.182	4265
808.324	4325
808.465	4371
808.607	4493
808.749	4466
808.891	4436
809.033	4504
809.174	4413
809.316	4276
809.458	4227
809.6	4124
809.741	4105
809.883	4139
810.025	4204
810.166	4200
810.308	4246
810.45	4223
810.591	4268
810.733	4299
810.875	4519
811.016	4862
811.158	5117
811.299	5239
811.441	5280
811.582	5086
811.724	4706
811.865	4489
812.007	4451
812.148	4417
812.29	4421
812.431	4424
812.573	4436
812.714	4379
812.855	4402
812.997	4436
813.138	4466
813.279	4417
813.421	4386
813.562	4405
813.703	4371
813.845	4341
813.986	4272
814.127	4234
814.268	4257
814.41	4306
814.551	4227
814.692	4322
814.833	4215
814.974	4299
815.115	4371
815.256	4234
815.397	4276
815.539	4261
815.68	4230
815.821	4230
815.962	4367
816.103	4246
816.244	4234
816.385	4192
816.526	4272
816.666	4227
816.807	4078
816.948	4230
817.089	4181
817.23	4109
817.371	4063
817.512	4055
817.653	4086
817.793	4040
817.934	4029
818.075	4116
818.216	4078
818.356	4086
818.497	4006
818.638	3922
818.778	3896
818.919	3934
819.06	3876
819.2	3964
819.341	3884
819.481	3865
819.622	3975
819.762	4017
819.903	3926
820.043	3835
820.184	3808
820.324	3804
820.465	3873
820.605	3869
820.746	3876
820.886	3800
821.026	3949
821.167	3930
821.307	4013
821.447	3983
821.588	3937
821.728	3926
821.868	3945
822.008	3880
822.149	3903
822.289	3880
822.429	3789
822.569	3785
822.709	3766
822.849	3644
822.99	3690
823.13	3759
823.27	3755
823.41	3762
823.55	3762
823.69	3705
823.83	3747
823.97	3671
824.11	3610
824.25	3614
824.389	3644
824.529	3701
824.669	3591
824.809	3709
824.949	3759
825.089	3747
825.228	3701
825.368	3572
825.508	3553
825.648	3553
825.787	3603
825.927	3671
826.067	3622
826.206	3633
826.346	3774
826.485	3835
826.625	3850
826.765	3930
826.904	3816
827.044	3618
827.183	3488
827.323	3447
827.462	3420
827.601	3469
827.741	3439
827.88	3435
828.02	3359
828.159	3424
828.298	3462
828.437	3526
828.577	3462
828.716	3599
828.855	3507
828.994	3359
829.134	3374
829.273	3374
829.412	3351
829.551	3332
829.69	3363
829.829	3412
829.968	3462
830.107	3481
830.246	3447
830.385	3424
830.524	3332
830.663	3256
830.802	3233
830.941	3165
831.08	3192
831.219	3226
831.357	3226
831.496	3409
831.635	3203
831.774	3192
831.913	3233
832.051	3100
832.19	3138
832.329	3180
832.467	3116
832.606	3135
832.744	3203
832.883	3176
833.022	3169
833.16	3275
833.299	3283
833.437	3378
833.576	3355
833.714	3416
833.852	3412
833.991	3458
834.129	3450
834.267	3450
834.406	3405
834.544	3424
834.682	3431
834.821	3397
834.959	3530
835.097	3450
835.235	3542
835.373	3500
835.511	3507
835.65	3507
835.788	3500
835.926	3374
836.064	3405
836.202	3401
836.34	3572
836.478	3595
836.615	3538
836.753	3603
836.891	3641
837.029	3614
837.167	3580
837.305	3580
837.443	3576
837.58	3523
837.718	3606
837.856	3599
837.993	3519
838.131	3572
838.269	3584
838.406	3576
838.544	3534
838.681	3473
838.819	3443
838.956	3382
839.094	3393
839.231	3504
839.369	3507
839.506	3755
839.643	3679
839.781	3462
839.918	3488
840.055	3530
840.193	3538
840.33	3553
840.467	3572
840.604	3637
840.742	3785
840.879	3534
841.016	3580
841.153	3610
841.29	3793
841.427	3709
841.564	3694
841.701	3732
841.838	3713
841.975	3682
842.112	3694
842.249	3656
842.385	3591
842.522	3835
842.659	3686
842.796	3667
842.933	3720
843.069	3724
843.206	3720
843.343	3793
843.479	3762
843.616	3816
843.752	3656
843.889	3686
844.025	3850
844.162	3720
844.298	3907
844.435	3785
844.571	3797
844.708	3915
844.844	3949
844.98	3991
845.117	3998
845.253	3975
845.389	3892
845.525	3983
845.661	4002
845.798	3949
845.934	4040
846.07	3945
846.206	4067
846.342	4147
846.478	4048
846.614	3975
846.75	3903
846.886	3892
847.022	4044
847.158	3987
847.294	3994
847.429	4040
847.565	3956
847.701	4276
847.837	3873
847.972	3823
848.108	3991
848.244	3953
848.379	3838
848.515	3797
848.65	3785
848.786	3808
848.921	3880
849.057	3937
849.192	3937
849.328	3888
849.463	3918
849.598	3873
849.734	3861
849.869	3854
850.004	3793
850.14	3819
850.275	3789
850.41	3732
850.545	3736
850.68	3816
850.815	3774
850.95	3766
851.085	3964
851.22	3857
851.355	3827
851.49	3781
851.625	3816
851.76	3743
851.895	3709
852.03	3755
852.165	3812
852.299	3850
852.434	3899
852.569	3835
852.703	3880
852.838	3922
852.973	3994
853.107	4021
853.242	3903
853.376	3846
853.511	3827
853.645	3869
853.78	3975
853.914	3884
854.048	3899
854.183	3884
854.317	3949
854.451	4109
854.585	3907
854.72	3899
854.854	4021
854.988	3911
855.122	3994
855.256	3922
855.39	4017
855.524	4078
855.658	4036
855.792	4124
855.926	4105
856.06	4204
856.194	4196
856.327	4150
856.461	4147
856.595	4112
856.729	4150
856.862	4272
856.996	4261
857.13	4295
857.263	4303
857.397	4383
857.53	4306
857.664	4344
857.797	4371
857.931	4398
858.064	4344
858.197	4466
858.331	4383
858.464	4360
858.597	4333
858.731	4440
858.864	4493
858.997	4421
859.13	4508
859.263	4531
859.396	4588
859.529	4516
859.662	4500
859.795	4497
859.928	4611
860.061	4679
860.194	4706
860.327	4679
860.46	4664
860.592	4721
860.725	4729
860.858	4797
860.99	4649
861.123	4672
861.256	4668
861.388	4759
861.521	5421
861.653	4710
861.786	4710
861.918	4721
862.05	4710
862.183	4850
862.315	4911
862.447	4862
862.58	4873
862.712	4778
862.844	4771
862.976	4900
863.108	4809
863.24	5254
863.372	4839
863.504	4900
863.636	4900
863.768	4999
863.9	4919
864.032	4934
864.164	4919
864.296	5037
864.428	5048
864.559	5132
864.691	5079
864.823	5105
864.954	5075
865.086	5109
865.217	5124
865.349	5109
865.48	5166
865.612	5185
865.743	5311
865.875	5216
866.006	5208
866.137	5242
866.269	5197
866.4	5204
866.531	5197
866.662	5204
866.793	5280
866.924	5292
867.055	5353
867.186	5360
867.317	5307
867.448	5337
867.579	5391
867.71	5368
867.841	5326
867.972	5463
868.103	5474
868.233	5505
868.364	5505
868.495	5554
868.625	5642
868.756	5748
868.886	5699
869.017	5764
869.147	5859
869.278	5889
869.408	5828
869.539	5809
869.669	5912
869.799	5927
869.929	5916
870.06	6026
870.19	6201
870.32	6213
870.45	6239
870.58	6346
870.71	6418
870.84	6464
870.97	6475
871.1	6445
871.23	6658
871.36	6722
871.489	6700
871.619	6772
871.749	6798
871.879	6859
872.008	6989
872.138	6970
872.267	6947
872.397	6985
872.526	7019
872.656	7072
872.785	7187
872.915	7388
873.044	7495
873.173	7502
873.303	7586
873.432	7780
873.561	7852
873.69	7928
873.819	8062
873.948	8229
874.077	8240
874.206	8370
874.335	8415
874.464	8629
874.593	8872
874.722	8952
874.851	9047
874.979	9211
875.108	9382
875.237	9450
875.365	9496
875.494	9667
875.623	9812
875.751	9831
875.88	10021
876.008	10192
876.136	10242
876.265	10535
876.393	10683
876.521	10706
876.65	10763
876.778	10927
876.906	10866
877.034	11018
877.162	11086
877.29	11124
877.418	11277
877.546	11349
877.674	11455
877.802	11452
877.93	11592
878.058	11535
878.185	11554
878.313	11688
878.441	11745
878.568	11714
878.696	11775
878.824	11863
878.951	11954
879.079	11958
879.206	12163
879.333	12068
879.461	11942
879.588	11996
879.715	12121
879.842	12239
879.97	12011
880.097	11889
880.224	11855
880.351	11851
880.478	11939
880.605	11817
880.732	11809
880.859	12034
880.986	11824
881.112	11863
881.239	11767
881.366	11634
881.493	11566
881.619	11589
881.746	11539
881.872	11562
881.999	11547
882.125	11433
882.252	11535
882.378	11627
882.505	11611
882.631	11326
882.757	11246
882.883	11303
883.01	11235
883.136	11197
883.262	11132
883.388	11052
883.514	11086
883.64	11159
883.766	11109
883.892	11018
884.018	10968
884.143	11079
884.269	11170
884.395	10862
884.52	10702
884.646	10767
884.772	10691
884.897	10679
885.023	10691
885.148	10698
885.274	10778
885.399	10664
885.524	10596
885.65	10554
885.775	10554
885.9	10516
886.025	10569
886.15	10561
886.275	10413
886.4	10386
886.525	10432
886.65	10390
886.775	10379
886.9	10436
887.025	10584
887.149	10356
887.274	10234
887.399	10249
887.523	10188
887.648	10147
887.773	10093
887.897	10261
888.021	10276
888.146	10105
888.27	10219
888.395	10276
888.519	10188
888.643	10139
888.767	10158
888.891	10036
889.015	10040
889.139	10048
889.263	9937
889.387	10112
889.511	10109
889.635	10032
889.759	9869
889.883	9968
890.006	10021
890.13	10071
890.254	9945
890.377	9964
890.501	9789
890.624	9865
890.748	9888
890.871	9789
890.995	9717
891.118	9698
891.241	9800
891.364	9701
891.488	9865
891.611	9781
891.734	9759
891.857	9720
891.98	9743
892.103	9778
892.226	9747
892.349	9641
892.471	9511
892.594	9618
892.717	9637
892.839	9481
892.962	9595
893.085	9625
893.207	9564
893.33	9523
893.452	9553
893.575	9622
893.697	9488
893.819	9671
893.941	9667
894.064	9568
894.186	9462
894.308	9469
894.43	9523
894.552	9572
894.674	9515
894.796	9351
894.918	9401
895.04	9348
895.161	9317
895.283	9367
895.405	9146
895.526	9310
895.648	9287
895.769	9272
895.891	9218
896.012	9279
896.134	9192
896.255	9211
896.376	9119
896.498	9165
896.619	9173
896.74	9127
896.861	9081
896.982	9260
897.103	9313
897.224	9161
897.345	9058
897.466	9097
897.587	9036
897.708	9135
897.828	9138
897.949	8944
898.07	8861
898.19	8929
898.311	8998
898.431	8952
898.552	8921
898.672	8895
898.792	8952
898.913	8921
899.033	8785
899.153	8735
899.273	8727
899.393	8701
899.513	8735
899.633	8731
899.753	8701
899.873	8663
899.993	8788
900.113	8655
900.232	8739
900.352	8648
900.472	8575
900.591	8598
900.711	8541
900.83	8560
900.95	8659
901.069	8686
901.189	8537
901.308	8461
901.427	8412
901.546	8431
901.665	8415
901.784	8465
901.904	8351
902.023	8358
902.141	8271
902.26	8271
902.379	8282
902.498	8191
902.617	8206
902.735	8282
902.854	8309
902.973	8229
903.091	8138
903.21	8218
903.328	8172
903.446	8130
903.565	8012
903.683	8073
903.801	8005
903.919	8168
904.038	8161
904.156	8084
904.274	8107
904.392	7959
904.51	8043
904.627	8058
904.745	8054
904.863	8134
904.981	7837
905.098	7909
905.216	7875
905.334	7970
905.451	7875
905.569	7894
905.686	7925
905.803	7978
905.921	7814
906.038	7868
906.155	7772
906.272	7655
906.389	7693
906.506	7632
906.623	7605
906.74	7567
906.857	7552
906.974	7605
907.091	7636
907.208	7658
907.324	7620
907.441	7636
907.557	7464
907.674	7460
907.79	7305
907.907	7445
908.023	7449
908.139	7430
908.256	7320
908.372	7346
908.488	7327
908.604	7324
908.72	7198
908.836	7316
908.952	7278
909.068	7202
909.184	7293
909.3	7259
909.415	7308
909.531	7259
909.647	7122
909.762	7149
909.878	7129
909.993	7133
910.108	7031
910.224	7031
910.339	7095
910.454	7046
910.57	7069
910.685	6947
910.8	7145
910.915	7076
911.03	6993
911.145	6916
911.259	6856
911.374	6875
911.489	6779
911.604	6928
911.718	6779
911.833	6768
911.947	6684
912.062	6620
912.176	6840
912.291	6639
912.405	6692
912.519	6859
912.633	6825
912.748	6734
912.862	6703
912.976	6620
913.09	6517
913.204	6563
913.318	6639
913.431	6700
913.545	6665
913.659	6696
913.772	6620
913.886	6559
914	6559
914.113	6703
914.226	6623
914.34	6612
914.453	6460
914.566	6623
914.68	6513
914.793	6494
914.906	6486
915.019	6410
915.132	6372
915.245	6414
915.358	6407
915.47	6506
915.583	6433
915.696	6433
915.809	6566
915.921	6570
916.034	6433
916.146	6433
916.259	6369
916.371	6456
916.483	6433
916.595	6395
916.708	6422
916.82	6437
916.932	6399
917.044	6395
917.156	6384
917.268	6281
917.38	6315
917.491	6315
917.603	6334
917.715	6376
917.826	6433
917.938	6315
918.049	6262
918.161	6331
918.272	6441
918.384	6448
918.495	6327
918.606	6304
918.717	6216
918.828	6281
918.939	6292
919.05	6136
919.161	6258
919.272	6125
919.383	6178
919.494	6289
919.604	6426
919.715	6281
919.826	6205
919.936	6258
920.047	6361
920.157	6239
920.267	6456
920.378	6315
920.488	6258
920.598	6467
920.708	6540
920.818	6376
920.928	6547
921.038	6631
921.148	6612
921.258	6361
921.368	6315
921.477	6186
921.587	6213
921.697	6072
921.806	6190
921.916	6095
922.025	5946
922.134	5916
922.244	5912
922.353	5912
922.462	5836
922.571	5855
922.68	5737
922.789	5630
922.898	5661
923.007	5623
923.116	5710
923.224	5661
923.333	5672
923.442	5638
923.55	5551
923.659	5573
923.767	5638
923.876	5577
923.984	5585
924.092	5429
924.201	5535
924.309	5566
924.417	5566
924.525	5532
924.633	5493
924.741	6243
924.849	5383
924.956	5497
925.064	5364
925.172	5326
925.279	5322
925.387	5360
925.494	5368
925.602	5421
925.709	5387
925.816	5261
925.924	5292
926.031	5395
926.138	5277
926.245	5326
926.352	5223
926.459	5337
926.566	5315
926.673	5201
926.779	5113
926.886	5098
926.993	4991
927.099	4957
927.206	4946
927.312	4961
927.419	5014
927.525	4961
927.631	4957
927.737	4881
927.843	4850
927.95	4809
928.056	4831
928.162	4820
928.267	4885
928.373	5353
928.479	4873
928.585	4702
928.69	4755
928.796	4721
928.901	4675
929.007	4577
929.112	4717
929.218	4641
929.323	4615
929.428	4554
929.533	4721
929.638	4481
929.743	4546
929.848	4592
929.953	4535
930.058	4466
930.163	4325
930.267	4333
930.372	4447
930.477	4284
930.581	4489
930.685	4352
930.79	4242
930.894	4333
930.998	4299
931.103	4375
931.207	4101
931.311	4105
931.415	4013
931.519	3930
931.623	3953
