Data from glass_V78500241_1755.txt Node
Date: Wed Sep 01 19:26:39 CST 2021
User: usil
Spectrometer: V785-0024
Trigger mode: 0
Integration Time (sec): 4.000000E-1
Scans to average: 1
Nonlinearity correction enabled: false
Boxcar width: 0
Storing dark spectrum: false
XAxis mode: Wavelengths
Number of Pixels in Spectrum: 1024
>>>>>Begin Spectral Data<<<<<
801.071	3713
801.214	3751
801.356	3698
801.499	3732
801.641	3713
801.783	3770
801.926	3838
802.068	3827
802.211	3884
802.353	3827
802.496	3823
802.638	3888
802.78	3945
802.923	3888
803.065	3884
803.208	3812
803.35	3907
803.492	3903
803.635	3907
803.777	3808
803.919	3896
804.061	4147
804.204	3941
804.346	3956
804.488	3888
804.63	4010
804.773	3960
804.915	3994
805.057	4128
805.199	3994
805.341	4101
805.483	4067
805.626	4143
805.768	4112
805.91	4234
806.052	4196
806.194	4169
806.336	4352
806.478	4200
806.62	4169
806.762	4192
806.904	4246
807.046	4314
807.188	4207
807.33	4192
807.472	4227
807.614	4223
807.756	4227
807.898	4188
808.04	4204
808.182	4268
808.324	4306
808.465	4360
808.607	4474
808.749	4432
808.891	4428
809.033	4500
809.174	4375
809.316	4287
809.458	4246
809.6	4185
809.741	4135
809.883	4154
810.025	4166
810.166	4219
810.308	4272
810.45	4219
810.591	4265
810.733	4299
810.875	4493
811.016	4816
811.158	5109
811.299	5239
811.441	5242
811.582	5022
811.724	4698
811.865	4466
812.007	4489
812.148	4440
812.29	4432
812.431	4428
812.573	4394
812.714	4363
812.855	4455
812.997	4367
813.138	4478
813.279	4432
813.421	4440
813.562	4447
813.703	4348
813.845	4352
813.986	4249
814.127	4257
814.268	4246
814.41	4265
814.551	4253
814.692	4352
814.833	4242
814.974	4306
815.115	4383
815.256	4280
815.397	4291
815.539	4257
815.68	4192
815.821	4207
815.962	4341
816.103	4257
816.244	4211
816.385	4249
816.526	4276
816.666	4234
816.807	4128
816.948	4150
817.089	4181
817.23	4101
817.371	4048
817.512	4051
817.653	4086
817.793	4040
817.934	4013
818.075	4112
818.216	4044
818.356	4071
818.497	4010
818.638	3930
818.778	3907
818.919	3884
819.06	3911
819.2	3949
819.341	3861
819.481	3827
819.622	3884
819.762	4010
819.903	3953
820.043	3873
820.184	3823
820.324	3827
820.465	3873
820.605	3831
820.746	3865
820.886	3797
821.026	3968
821.167	3941
821.307	3968
821.447	3972
821.588	3937
821.728	3956
821.868	3911
822.008	3892
822.149	3953
822.289	3945
822.429	3793
822.569	3778
822.709	3804
822.849	3682
822.99	3709
823.13	3747
823.27	3759
823.41	3698
823.55	3690
823.69	3717
823.83	3728
823.97	3644
824.11	3595
824.25	3572
824.389	3629
824.529	3671
824.669	3644
824.809	3705
824.949	3751
825.089	3736
825.228	3686
825.368	3572
825.508	3576
825.648	3564
825.787	3614
825.927	3660
826.067	3599
826.206	3705
826.346	3766
826.485	3823
826.625	3899
826.765	3922
826.904	3800
827.044	3629
827.183	3530
827.323	3450
827.462	3481
827.601	3462
827.741	3416
827.88	3428
828.02	3389
828.159	3409
828.298	3485
828.437	3500
828.577	3469
828.716	3599
828.855	3462
828.994	3386
829.134	3351
829.273	3420
829.412	3355
829.551	3317
829.69	3367
829.829	3439
829.968	3492
830.107	3454
830.246	3443
830.385	3329
830.524	3363
830.663	3294
830.802	3283
830.941	3199
831.08	3184
831.219	3253
831.357	3260
831.496	3405
831.635	3226
831.774	3165
831.913	3161
832.051	3180
832.19	3142
832.329	3214
832.467	3142
832.606	3081
832.744	3173
832.883	3169
833.022	3195
833.16	3279
833.299	3321
833.437	3367
833.576	3363
833.714	3420
833.852	3443
833.991	3428
834.129	3469
834.267	3416
834.406	3389
834.544	3416
834.682	3450
834.821	3397
834.959	3580
835.097	3416
835.235	3523
835.373	3458
835.511	3500
835.65	3454
835.788	3504
835.926	3401
836.064	3374
836.202	3424
836.34	3595
836.478	3591
836.615	3530
836.753	3603
836.891	3648
837.029	3580
837.167	3568
837.305	3576
837.443	3504
837.58	3458
837.718	3606
837.856	3542
837.993	3538
838.131	3679
838.269	3557
838.406	3591
838.544	3564
838.681	3466
838.819	3424
838.956	3389
839.094	3363
839.231	3458
839.369	3507
839.506	3705
839.643	3648
839.781	3485
839.918	3488
840.055	3534
840.193	3488
840.33	3500
840.467	3564
840.604	3595
840.742	3816
840.879	3538
841.016	3572
841.153	3625
841.29	3766
841.427	3709
841.564	3713
841.701	3728
841.838	3705
841.975	3675
842.112	3686
842.249	3652
842.385	3610
842.522	3854
842.659	3694
842.796	3694
842.933	3701
843.069	3701
843.206	3705
843.343	3823
843.479	3755
843.616	3819
843.752	3629
843.889	3660
844.025	3835
844.162	3713
844.298	3827
844.435	3789
844.571	3785
844.708	3888
844.844	4010
844.98	4032
845.117	4010
845.253	3915
845.389	3907
845.525	3934
845.661	3956
845.798	3934
845.934	3994
846.07	3968
846.206	4044
846.342	4078
846.478	4059
846.614	3968
846.75	3934
846.886	3956
847.022	4063
847.158	3987
847.294	3979
847.429	4032
847.565	4006
847.701	4253
847.837	3861
847.972	3888
848.108	3979
848.244	3956
848.379	3838
848.515	3808
848.65	3842
848.786	3842
848.921	3884
849.057	3937
849.192	3922
849.328	3892
849.463	3926
849.598	3865
849.734	3865
849.869	3797
850.004	3781
850.14	3778
850.275	3800
850.41	3759
850.545	3720
850.68	3797
850.815	3778
850.95	3785
851.085	3911
851.22	3861
851.355	3804
851.49	3797
851.625	3778
851.76	3778
851.895	3732
852.03	3709
852.165	3823
852.299	3838
852.434	3876
852.569	3903
852.703	3876
852.838	3968
852.973	4025
853.107	3994
853.242	3918
853.376	3823
853.511	3816
853.645	3850
853.78	4002
853.914	3884
854.048	3892
854.183	3869
854.317	3987
854.451	4082
854.585	3953
854.72	3953
854.854	4082
854.988	3945
855.122	3964
855.256	3941
855.39	4025
855.524	4067
855.658	4025
855.792	4101
855.926	4131
856.06	4188
856.194	4238
856.327	4112
856.461	4105
856.595	4162
856.729	4147
856.862	4238
856.996	4253
857.13	4253
857.263	4337
857.397	4398
857.53	4306
857.664	4356
857.797	4367
857.931	4413
858.064	4363
858.197	4440
858.331	4398
858.464	4398
858.597	4363
858.731	4424
858.864	4447
858.997	4409
859.13	4455
859.263	4474
859.396	4580
859.529	4519
859.662	4531
859.795	4459
859.928	4565
860.061	4698
860.194	4740
860.327	4683
860.46	4641
860.592	4759
860.725	4748
860.858	4740
860.99	4702
861.123	4683
861.256	4672
861.388	4717
861.521	5421
861.653	4733
861.786	4714
861.918	4736
862.05	4831
862.183	4854
862.315	4892
862.447	4904
862.58	4866
862.712	4740
862.844	4748
862.976	4873
863.108	4858
863.24	5246
863.372	4858
863.504	4885
863.636	4911
863.768	4965
863.9	4927
864.032	4915
864.164	4965
864.296	5064
864.428	5079
864.559	5056
864.691	5140
864.823	5136
864.954	5136
865.086	5208
865.217	5143
865.349	5136
865.48	5151
865.612	5151
865.743	5311
865.875	5174
866.006	5212
866.137	5261
866.269	5246
866.4	5223
866.531	5242
866.662	5242
866.793	5280
866.924	5303
867.055	5315
867.186	5349
867.317	5322
867.448	5261
867.579	5406
867.71	5398
867.841	5376
867.972	5486
868.103	5455
868.233	5543
868.364	5524
868.495	5562
868.625	5661
868.756	5756
868.886	5688
869.017	5729
869.147	5828
869.278	5866
869.408	5828
869.539	5790
869.669	5927
869.799	5927
869.929	6030
870.06	6015
870.19	6216
870.32	6136
870.45	6232
870.58	6346
870.71	6414
870.84	6456
870.97	6410
871.1	6464
871.23	6608
871.36	6665
871.489	6631
871.619	6734
871.749	6844
871.879	6871
872.008	6943
872.138	6966
872.267	6966
872.397	6943
872.526	7057
872.656	7156
872.785	7244
872.915	7350
873.044	7422
873.173	7605
873.303	7693
873.432	7761
873.561	7890
873.69	7940
873.819	8054
873.948	8130
874.077	8290
874.206	8271
874.335	8495
874.464	8670
874.593	8834
874.722	8956
874.851	9188
874.979	9237
875.108	9336
875.237	9443
875.365	9519
875.494	9568
875.623	9876
875.751	9789
875.88	10013
876.008	10128
876.136	10253
876.265	10508
876.393	10641
876.521	10767
876.65	10812
876.778	10850
876.906	10881
877.034	10987
877.162	11121
877.29	11102
877.418	11322
877.546	11356
877.674	11387
877.802	11463
877.93	11505
878.058	11543
878.185	11551
878.313	11748
878.441	11661
878.568	11661
878.696	11718
878.824	11889
878.951	11916
879.079	11988
879.206	12057
879.333	12114
879.461	11992
879.588	11992
879.715	12125
879.842	12254
879.97	12076
880.097	11897
880.224	11961
880.351	11813
880.478	11889
880.605	11817
880.732	11821
880.859	12079
880.986	11802
881.112	11923
881.239	11760
881.366	11592
881.493	11630
881.619	11699
881.746	11600
881.872	11566
881.999	11539
882.125	11414
882.252	11596
882.378	11471
882.505	11539
882.631	11391
882.757	11277
882.883	11364
883.01	11250
883.136	11181
883.262	11045
883.388	11109
883.514	11189
883.64	11212
883.766	11124
883.892	11041
884.018	10957
884.143	11147
884.269	11140
884.395	10828
884.52	10778
884.646	10752
884.772	10656
884.897	10607
885.023	10634
885.148	10687
885.274	10771
885.399	10679
885.524	10630
885.65	10577
885.775	10512
885.9	10580
886.025	10535
886.15	10573
886.275	10462
886.4	10367
886.525	10367
886.65	10348
886.775	10341
886.9	10459
887.025	10523
887.149	10303
887.274	10181
887.399	10162
887.523	10181
887.648	10185
887.773	10116
887.897	10234
888.021	10276
888.146	10093
888.27	10196
888.395	10223
888.519	10181
888.643	10154
888.767	10147
888.891	10120
889.015	9979
889.139	10059
889.263	10002
889.387	10109
889.511	10101
889.635	10055
889.759	9960
889.883	10029
890.006	9926
890.13	10128
890.254	9979
890.377	9911
890.501	9838
890.624	9873
890.748	9930
890.871	9854
890.995	9781
891.118	9610
891.241	9766
891.364	9701
891.488	9789
891.611	9831
891.734	9755
891.857	9755
891.98	9682
892.103	9766
892.226	9736
892.349	9682
892.471	9629
892.594	9625
892.717	9663
892.839	9633
892.962	9599
893.085	9633
893.207	9614
893.33	9557
893.452	9526
893.575	9587
893.697	9492
893.819	9618
893.941	9644
894.064	9545
894.186	9454
894.308	9340
894.43	9428
894.552	9534
894.674	9435
894.796	9389
894.918	9435
895.04	9348
895.161	9401
895.283	9313
895.405	9230
895.526	9317
895.648	9253
895.769	9298
895.891	9226
896.012	9260
896.134	9184
896.255	9241
896.376	9036
896.498	9154
896.619	9184
896.74	9020
896.861	9123
896.982	9256
897.103	9298
897.224	9146
897.345	9051
897.466	8982
897.587	9036
897.708	9119
897.828	9017
897.949	8933
898.07	8868
898.19	8979
898.311	8975
898.431	8914
898.552	8933
898.672	8975
898.792	8956
898.913	8918
899.033	8762
899.153	8716
899.273	8644
899.393	8701
899.513	8800
899.633	8670
899.753	8746
899.873	8739
899.993	8830
900.113	8689
900.232	8773
900.352	8617
900.472	8644
900.591	8556
900.711	8587
900.83	8568
900.95	8686
901.069	8640
901.189	8606
901.308	8446
901.427	8419
901.546	8450
901.665	8492
901.784	8522
901.904	8362
902.023	8271
902.141	8221
902.26	8202
902.379	8244
902.498	8233
902.617	8187
902.735	8282
902.854	8256
902.973	8259
903.091	8138
903.21	8187
903.328	8119
903.446	8107
903.565	8115
903.683	8084
903.801	8077
903.919	8142
904.038	8115
904.156	8024
904.274	8115
904.392	8081
904.51	8024
904.627	8016
904.745	8123
904.863	8062
904.981	7909
905.098	7887
905.216	7841
905.334	7959
905.451	7902
905.569	7940
905.686	7909
905.803	7849
905.921	7784
906.038	7883
906.155	7811
906.272	7666
906.389	7693
906.506	7647
906.623	7674
906.74	7651
906.857	7586
906.974	7571
907.091	7647
907.208	7738
907.324	7613
907.441	7590
907.557	7453
907.674	7434
907.79	7411
907.907	7453
908.023	7495
908.139	7438
908.256	7403
908.372	7388
908.488	7373
908.604	7270
908.72	7206
908.836	7217
908.952	7270
909.068	7228
909.184	7297
909.3	7266
909.415	7259
909.531	7324
909.647	7103
909.762	7046
909.878	7072
909.993	7084
910.108	7091
910.224	7069
910.339	7103
910.454	6977
910.57	6993
910.685	6939
910.8	7190
910.915	7065
911.03	7057
911.145	6932
911.259	6909
911.374	6856
911.489	6818
911.604	6814
911.718	6760
911.833	6772
911.947	6646
912.062	6623
912.176	6696
912.291	6719
912.405	6715
912.519	6825
912.633	6814
912.748	6715
912.862	6745
912.976	6612
913.09	6506
913.204	6570
913.318	6563
913.431	6688
913.545	6665
913.659	6726
913.772	6608
913.886	6574
914	6563
914.113	6627
914.226	6654
914.34	6650
914.453	6517
914.566	6604
914.68	6509
914.793	6570
914.906	6467
915.019	6391
915.132	6388
915.245	6380
915.358	6426
915.47	6490
915.583	6483
915.696	6479
915.809	6551
915.921	6536
916.034	6448
916.146	6456
916.259	6399
916.371	6456
916.483	6418
916.595	6414
916.708	6452
916.82	6376
916.932	6361
917.044	6361
917.156	6361
917.268	6372
917.38	6338
917.491	6327
917.603	6372
917.715	6369
917.826	6429
917.938	6304
918.049	6270
918.161	6376
918.272	6437
918.384	6456
918.495	6334
918.606	6197
918.717	6190
918.828	6273
918.939	6270
919.05	6182
919.161	6216
919.272	6095
919.383	6175
919.494	6216
919.604	6490
919.715	6232
919.826	6182
919.936	6235
920.047	6350
920.157	6251
920.267	6433
920.378	6319
920.488	6292
920.598	6448
920.708	6536
920.818	6464
920.928	6475
921.038	6642
921.148	6597
921.258	6327
921.368	6300
921.477	6175
921.587	6190
921.697	6079
921.806	6209
921.916	6079
922.025	5927
922.134	5874
922.244	5844
922.353	5961
922.462	5889
922.571	5794
922.68	5722
922.789	5695
922.898	5707
923.007	5627
923.116	5665
923.224	5691
923.333	5676
923.442	5600
923.55	5570
923.659	5562
923.767	5661
923.876	5524
923.984	5566
924.092	5509
924.201	5589
924.309	5547
924.417	5524
924.525	5486
924.633	5436
924.741	6262
924.849	5376
924.956	5493
925.064	5349
925.172	5284
925.279	5288
925.387	5364
925.494	5318
925.602	5402
925.709	5410
925.816	5288
925.924	5330
926.031	5353
926.138	5273
926.245	5349
926.352	5227
926.459	5311
926.566	5334
926.673	5261
926.779	5132
926.886	5128
926.993	5018
927.099	4987
927.206	4949
927.312	4968
927.419	5014
927.525	4946
927.631	5018
927.737	4850
927.843	4835
927.95	4759
928.056	4820
928.162	4839
928.267	4805
928.373	5318
928.479	4873
928.585	4702
928.69	4797
928.796	4771
928.901	4672
929.007	4599
929.112	4694
929.218	4599
929.323	4615
929.428	4554
929.533	4649
929.638	4527
929.743	4546
929.848	4542
929.953	4493
930.058	4421
930.163	4329
930.267	4352
930.372	4428
930.477	4363
930.581	4459
930.685	4394
930.79	4246
930.894	4280
930.998	4249
931.103	4424
931.207	4166
931.311	4055
931.415	4032
931.519	3953
931.623	3934
