Data from glass_V78500241_1013.txt Node
Date: Wed Sep 01 19:21:31 CST 2021
User: usil
Spectrometer: V785-0024
Trigger mode: 0
Integration Time (sec): 4.000000E-1
Scans to average: 1
Nonlinearity correction enabled: false
Boxcar width: 0
Storing dark spectrum: false
XAxis mode: Wavelengths
Number of Pixels in Spectrum: 1024
>>>>>Begin Spectral Data<<<<<
801.071	3724
801.214	3759
801.356	3698
801.499	3793
801.641	3797
801.783	3759
801.926	3854
802.068	3789
802.211	3896
802.353	3892
802.496	3846
802.638	3869
802.78	3934
802.923	3945
803.065	3884
803.208	3869
803.35	3918
803.492	3922
803.635	3945
803.777	3774
803.919	3941
804.061	4169
804.204	3964
804.346	3956
804.488	3972
804.63	4051
804.773	3983
804.915	4002
805.057	4139
805.199	4029
805.341	4116
805.483	4150
805.626	4120
805.768	4074
805.91	4261
806.052	4246
806.194	4192
806.336	4379
806.478	4238
806.62	4219
806.762	4177
806.904	4219
807.046	4306
807.188	4219
807.33	4196
807.472	4265
807.614	4207
807.756	4234
807.898	4227
808.04	4246
808.182	4306
808.324	4310
808.465	4379
808.607	4462
808.749	4459
808.891	4474
809.033	4531
809.174	4371
809.316	4287
809.458	4253
809.6	4158
809.741	4192
809.883	4162
810.025	4207
810.166	4211
810.308	4185
810.45	4257
810.591	4242
810.733	4299
810.875	4493
811.016	4797
811.158	5121
811.299	5303
811.441	5280
811.582	5022
811.724	4771
811.865	4451
812.007	4516
812.148	4455
812.29	4405
812.431	4428
812.573	4394
812.714	4371
812.855	4402
812.997	4443
813.138	4478
813.279	4443
813.421	4402
813.562	4325
813.703	4356
813.845	4386
813.986	4238
814.127	4223
814.268	4249
814.41	4276
814.551	4299
814.692	4348
814.833	4295
814.974	4299
815.115	4360
815.256	4272
815.397	4246
815.539	4257
815.68	4200
815.821	4207
815.962	4318
816.103	4291
816.244	4215
816.385	4246
816.526	4306
816.666	4249
816.807	4150
816.948	4200
817.089	4234
817.23	4139
817.371	4074
817.512	4051
817.653	4093
817.793	4032
817.934	4074
818.075	4147
818.216	4036
818.356	4078
818.497	4017
818.638	3949
818.778	3960
818.919	3888
819.06	3861
819.2	3915
819.341	3892
819.481	3850
819.622	3896
819.762	4010
819.903	3979
820.043	3846
820.184	3854
820.324	3850
820.465	3888
820.605	3896
820.746	3888
820.886	3827
821.026	3941
821.167	3892
821.307	4013
821.447	3979
821.588	3975
821.728	3930
821.868	3968
822.008	3869
822.149	3960
822.289	3934
822.429	3774
822.569	3778
822.709	3800
822.849	3698
822.99	3751
823.13	3755
823.27	3819
823.41	3724
823.55	3759
823.69	3736
823.83	3743
823.97	3705
824.11	3614
824.25	3637
824.389	3660
824.529	3698
824.669	3663
824.809	3747
824.949	3762
825.089	3732
825.228	3667
825.368	3618
825.508	3568
825.648	3599
825.787	3618
825.927	3641
826.067	3656
826.206	3701
826.346	3762
826.485	3842
826.625	3846
826.765	3918
826.904	3876
827.044	3618
827.183	3523
827.323	3420
827.462	3549
827.601	3473
827.741	3428
827.88	3458
828.02	3389
828.159	3466
828.298	3511
828.437	3542
828.577	3492
828.716	3603
828.855	3507
828.994	3405
829.134	3378
829.273	3420
829.412	3313
829.551	3336
829.69	3351
829.829	3428
829.968	3504
830.107	3458
830.246	3477
830.385	3393
830.524	3351
830.663	3329
830.802	3306
830.941	3237
831.08	3230
831.219	3245
831.357	3253
831.496	3393
831.635	3256
831.774	3207
831.913	3211
832.051	3165
832.19	3203
832.329	3199
832.467	3142
832.606	3112
832.744	3180
832.883	3195
833.022	3188
833.16	3245
833.299	3317
833.437	3344
833.576	3405
833.714	3397
833.852	3443
833.991	3458
834.129	3507
834.267	3454
834.406	3401
834.544	3439
834.682	3447
834.821	3393
834.959	3614
835.097	3393
835.235	3564
835.373	3485
835.511	3534
835.65	3481
835.788	3526
835.926	3397
836.064	3409
836.202	3412
836.34	3587
836.478	3648
836.615	3587
836.753	3591
836.891	3618
837.029	3603
837.167	3637
837.305	3545
837.443	3580
837.58	3549
837.718	3641
837.856	3557
837.993	3545
838.131	3587
838.269	3595
838.406	3614
838.544	3580
838.681	3477
838.819	3443
838.956	3329
839.094	3412
839.231	3462
839.369	3534
839.506	3713
839.643	3652
839.781	3507
839.918	3473
840.055	3542
840.193	3557
840.33	3526
840.467	3561
840.604	3622
840.742	3819
840.879	3538
841.016	3564
841.153	3591
841.29	3751
841.427	3709
841.564	3709
841.701	3755
841.838	3709
841.975	3667
842.112	3698
842.249	3625
842.385	3644
842.522	3842
842.659	3682
842.796	3724
842.933	3682
843.069	3713
843.206	3671
843.343	3812
843.479	3793
843.616	3819
843.752	3667
843.889	3694
844.025	3884
844.162	3736
844.298	3812
844.435	3823
844.571	3785
844.708	3873
844.844	3956
844.98	4067
845.117	4032
845.253	3937
845.389	3915
845.525	3991
845.661	3972
845.798	3926
845.934	4006
846.07	3956
846.206	4097
846.342	4101
846.478	4078
846.614	3941
846.75	3911
846.886	3884
847.022	4063
847.158	3983
847.294	3991
847.429	4036
847.565	3975
847.701	4219
847.837	3888
847.972	3876
848.108	3998
848.244	3987
848.379	3857
848.515	3797
848.65	3831
848.786	3869
848.921	3861
849.057	3953
849.192	3930
849.328	3937
849.463	3922
849.598	3880
849.734	3880
849.869	3876
850.004	3823
850.14	3869
850.275	3793
850.41	3724
850.545	3755
850.68	3793
850.815	3812
850.95	3823
851.085	3968
851.22	3896
851.355	3827
851.49	3827
851.625	3816
851.76	3800
851.895	3774
852.03	3705
852.165	3785
852.299	3838
852.434	3876
852.569	3876
852.703	3869
852.838	3983
852.973	3956
853.107	4032
853.242	3926
853.376	3861
853.511	3755
853.645	3873
853.78	3960
853.914	3926
854.048	3915
854.183	3838
854.317	3960
854.451	4036
854.585	3968
854.72	3922
854.854	4002
854.988	3937
855.122	3987
855.256	3888
855.39	4032
855.524	4158
855.658	4120
855.792	4154
855.926	4169
856.06	4162
856.194	4207
856.327	4204
856.461	4109
856.595	4143
856.729	4188
856.862	4314
856.996	4200
857.13	4322
857.263	4325
857.397	4386
857.53	4299
857.664	4379
857.797	4424
857.931	4447
858.064	4390
858.197	4470
858.331	4409
858.464	4383
858.597	4356
858.731	4436
858.864	4459
858.997	4428
859.13	4531
859.263	4558
859.396	4577
859.529	4527
859.662	4531
859.795	4485
859.928	4599
860.061	4687
860.194	4736
860.327	4641
860.46	4683
860.592	4721
860.725	4782
860.858	4771
860.99	4687
861.123	4679
861.256	4672
861.388	4805
861.521	5505
861.653	4717
861.786	4748
861.918	4763
862.05	4809
862.183	4797
862.315	4900
862.447	4980
862.58	4858
862.712	4805
862.844	4816
862.976	4862
863.108	4908
863.24	5254
863.372	4862
863.504	4881
863.636	4923
863.768	4968
863.9	4972
864.032	4949
864.164	4968
864.296	5037
864.428	5143
864.559	5132
864.691	5083
864.823	5193
864.954	5170
865.086	5166
865.217	5185
865.349	5079
865.48	5162
865.612	5181
865.743	5322
865.875	5181
866.006	5220
866.137	5292
866.269	5208
866.4	5250
866.531	5261
866.662	5227
866.793	5258
866.924	5254
867.055	5326
867.186	5391
867.317	5357
867.448	5334
867.579	5357
867.71	5345
867.841	5345
867.972	5429
868.103	5436
868.233	5467
868.364	5532
868.495	5539
868.625	5638
868.756	5859
868.886	5668
869.017	5722
869.147	5863
869.278	5855
869.408	5840
869.539	5821
869.669	5916
869.799	5942
869.929	5916
870.06	6060
870.19	6213
870.32	6239
870.45	6213
870.58	6372
870.71	6471
870.84	6452
870.97	6334
871.1	6445
871.23	6658
871.36	6597
871.489	6707
871.619	6730
871.749	6757
871.879	6894
872.008	6970
872.138	6993
872.267	7103
872.397	7000
872.526	7065
872.656	7095
872.785	7141
872.915	7434
873.044	7544
873.173	7567
873.303	7696
873.432	7807
873.561	7890
873.69	7887
873.819	8005
873.948	8145
874.077	8229
874.206	8320
874.335	8503
874.464	8613
874.593	8838
874.722	8937
874.851	9081
874.979	9157
875.108	9435
875.237	9450
875.365	9481
875.494	9641
875.623	9876
875.751	9865
875.88	9975
876.008	10177
876.136	10306
876.265	10451
876.393	10645
876.521	10672
876.65	10805
876.778	10908
876.906	10930
877.034	10991
877.162	11147
877.29	11151
877.418	11265
877.546	11425
877.674	11379
877.802	11566
877.93	11554
878.058	11528
878.185	11562
878.313	11703
878.441	11771
878.568	11653
878.696	11824
878.824	11851
878.951	11992
879.079	12057
879.206	12152
879.333	12049
879.461	11916
879.588	12098
879.715	12026
879.842	12273
879.97	12171
880.097	11813
880.224	11866
880.351	11946
880.478	11912
880.605	11904
880.732	11824
880.859	11977
880.986	11824
881.112	11897
881.239	11760
881.366	11646
881.493	11611
881.619	11554
881.746	11554
881.872	11516
881.999	11539
882.125	11509
882.252	11573
882.378	11452
882.505	11539
882.631	11410
882.757	11341
882.883	11326
883.01	11242
883.136	11170
883.262	11067
883.388	11045
883.514	11284
883.64	11166
883.766	11170
883.892	10965
884.018	11037
884.143	11105
884.269	11132
884.395	10828
884.52	10790
884.646	10793
884.772	10687
884.897	10645
885.023	10679
885.148	10812
885.274	10797
885.399	10748
885.524	10675
885.65	10615
885.775	10561
885.9	10580
886.025	10599
886.15	10569
886.275	10462
886.4	10386
886.525	10379
886.65	10413
886.775	10379
886.9	10459
887.025	10527
887.149	10344
887.274	10257
887.399	10177
887.523	10169
887.648	10086
887.773	10200
887.897	10280
888.021	10299
888.146	10135
888.27	10223
888.395	10234
888.519	10215
888.643	10169
888.767	10238
888.891	10063
889.015	10006
889.139	9994
889.263	9949
889.387	10021
889.511	10097
889.635	10078
889.759	9998
889.883	9972
890.006	9915
890.13	10090
890.254	9915
890.377	9972
890.501	9846
890.624	9857
890.748	9888
890.871	9812
890.995	9770
891.118	9747
891.241	9816
891.364	9682
891.488	9835
891.611	9660
891.734	9709
891.857	9705
891.98	9755
892.103	9740
892.226	9724
892.349	9690
892.471	9504
892.594	9561
892.717	9667
892.839	9614
892.962	9580
893.085	9690
893.207	9633
893.33	9504
893.452	9507
893.575	9629
893.697	9485
893.819	9568
893.941	9606
894.064	9633
894.186	9435
894.308	9431
894.43	9557
894.552	9587
894.674	9568
894.796	9367
894.918	9359
895.04	9359
895.161	9351
895.283	9336
895.405	9256
895.526	9253
895.648	9214
895.769	9256
895.891	9279
896.012	9332
896.134	9230
896.255	9230
896.376	9142
896.498	9180
896.619	9184
896.74	9081
896.861	9138
896.982	9222
897.103	9348
897.224	9226
897.345	9036
897.466	9009
897.587	9032
897.708	9146
897.828	9001
897.949	8883
898.07	8887
898.19	8880
898.311	9017
898.431	8960
898.552	9028
898.672	9005
898.792	8967
898.913	8921
899.033	8849
899.153	8724
899.273	8708
899.393	8727
899.513	8735
899.633	8697
899.753	8750
899.873	8735
899.993	8720
900.113	8731
900.232	8705
900.352	8629
900.472	8686
900.591	8613
900.711	8678
900.83	8549
900.95	8716
901.069	8697
901.189	8499
901.308	8511
901.427	8423
901.546	8389
901.665	8450
901.784	8571
901.904	8377
902.023	8267
902.141	8214
902.26	8263
902.379	8313
902.498	8233
902.617	8221
902.735	8343
902.854	8256
902.973	8244
903.091	8161
903.21	8123
903.328	8191
903.446	8161
903.565	8111
903.683	8180
903.801	8126
903.919	8187
904.038	8161
904.156	8100
904.274	8157
904.392	8016
904.51	8092
904.627	8084
904.745	8081
904.863	8126
904.981	7959
905.098	7906
905.216	7875
905.334	7967
905.451	7898
905.569	7860
905.686	7917
905.803	7978
905.921	7742
906.038	7849
906.155	7807
906.272	7738
906.389	7738
906.506	7708
906.623	7616
906.74	7609
906.857	7578
906.974	7552
907.091	7681
907.208	7765
907.324	7628
907.441	7556
907.557	7525
907.674	7453
907.79	7407
907.907	7403
908.023	7460
908.139	7438
908.256	7343
908.372	7388
908.488	7381
908.604	7289
908.72	7263
908.836	7255
908.952	7263
909.068	7285
909.184	7362
909.3	7187
909.415	7354
909.531	7316
909.647	7091
909.762	7122
909.878	7126
909.993	7133
910.108	7149
910.224	7061
910.339	7152
910.454	7034
910.57	6993
910.685	6932
910.8	7209
910.915	7122
911.03	7084
911.145	6901
911.259	6863
911.374	6928
911.489	6852
911.604	6795
911.718	6715
911.833	6719
911.947	6700
912.062	6585
912.176	6726
912.291	6684
912.405	6707
912.519	6802
912.633	6875
912.748	6700
912.862	6745
912.976	6692
913.09	6540
913.204	6574
913.318	6608
913.431	6715
913.545	6669
913.659	6711
913.772	6608
913.886	6540
914	6593
914.113	6639
914.226	6593
914.34	6566
914.453	6494
914.566	6646
914.68	6506
914.793	6612
914.906	6418
915.019	6475
915.132	6391
915.245	6391
915.358	6460
915.47	6471
915.583	6464
915.696	6536
915.809	6528
915.921	6551
916.034	6414
916.146	6437
916.259	6452
916.371	6452
916.483	6498
916.595	6410
916.708	6467
916.82	6395
916.932	6399
917.044	6376
917.156	6448
917.268	6304
917.38	6357
917.491	6292
917.603	6357
917.715	6380
917.826	6475
917.938	6338
918.049	6243
918.161	6361
918.272	6376
918.384	6433
918.495	6353
918.606	6224
918.717	6308
918.828	6285
918.939	6311
919.05	6228
919.161	6300
919.272	6125
919.383	6163
919.494	6308
919.604	6403
919.715	6346
919.826	6228
919.936	6289
920.047	6296
920.157	6342
920.267	6483
920.378	6315
920.488	6304
920.598	6467
920.708	6582
920.818	6536
920.928	6513
921.038	6597
921.148	6620
921.258	6361
921.368	6258
921.477	6190
921.587	6247
921.697	6152
921.806	6163
921.916	6110
922.025	5939
922.134	5939
922.244	5904
922.353	5996
922.462	5851
922.571	5779
922.68	5722
922.789	5703
922.898	5714
923.007	5661
923.116	5726
923.224	5615
923.333	5718
923.442	5668
923.55	5585
923.659	5638
923.767	5615
923.876	5535
923.984	5627
924.092	5528
924.201	5592
924.309	5585
924.417	5528
924.525	5532
924.633	5520
924.741	6270
924.849	5349
924.956	5497
925.064	5353
925.172	5303
925.279	5299
925.387	5406
925.494	5322
925.602	5467
925.709	5421
925.816	5265
925.924	5303
926.031	5357
926.138	5322
926.245	5280
926.352	5246
926.459	5315
926.566	5326
926.673	5235
926.779	5155
926.886	5147
926.993	5052
927.099	5064
927.206	4984
927.312	4934
927.419	5041
927.525	5033
927.631	5006
927.737	4915
927.843	4820
927.95	4805
928.056	4828
928.162	4839
928.267	4820
928.373	5311
928.479	4862
928.585	4729
928.69	4763
928.796	4763
928.901	4656
929.007	4577
929.112	4687
929.218	4653
929.323	4615
929.428	4573
929.533	4683
929.638	4531
929.743	4569
929.848	4577
929.953	4523
930.058	4474
930.163	4344
930.267	4337
930.372	4421
930.477	4299
930.581	4485
930.685	4402
930.79	4276
930.894	4299
930.998	4246
931.103	4379
931.207	4162
931.311	4063
931.415	4071
931.519	3934
931.623	3960
