Data from glass_V78500241_2546.txt Node
Date: Wed Sep 01 19:32:09 CST 2021
User: usil
Spectrometer: V785-0024
Trigger mode: 0
Integration Time (sec): 4.000000E-1
Scans to average: 1
Nonlinearity correction enabled: false
Boxcar width: 0
Storing dark spectrum: false
XAxis mode: Wavelengths
Number of Pixels in Spectrum: 1024
>>>>>Begin Spectral Data<<<<<
801.071	3694
801.214	3701
801.356	3690
801.499	3732
801.641	3698
801.783	3759
801.926	3842
802.068	3846
802.211	3842
802.353	3880
802.496	3835
802.638	3884
802.78	3884
802.923	3945
803.065	3869
803.208	3812
803.35	3884
803.492	3911
803.635	3911
803.777	3751
803.919	3918
804.061	4192
804.204	3945
804.346	3953
804.488	3915
804.63	3991
804.773	3994
804.915	3998
805.057	4143
805.199	4036
805.341	4093
805.483	4105
805.626	4135
805.768	4124
805.91	4238
806.052	4207
806.194	4185
806.336	4360
806.478	4207
806.62	4188
806.762	4173
806.904	4253
807.046	4329
807.188	4246
807.33	4192
807.472	4234
807.614	4188
807.756	4223
807.898	4185
808.04	4234
808.182	4261
808.324	4318
808.465	4363
808.607	4432
808.749	4459
808.891	4451
809.033	4493
809.174	4386
809.316	4223
809.458	4215
809.6	4128
809.741	4120
809.883	4143
810.025	4196
810.166	4207
810.308	4223
810.45	4196
810.591	4223
810.733	4268
810.875	4459
811.016	4782
811.158	5090
811.299	5242
811.441	5326
811.582	5079
811.724	4691
811.865	4440
812.007	4451
812.148	4447
812.29	4394
812.431	4413
812.573	4390
812.714	4371
812.855	4413
812.997	4367
813.138	4443
813.279	4348
813.421	4371
813.562	4409
813.703	4318
813.845	4295
813.986	4242
814.127	4185
814.268	4246
814.41	4253
814.551	4249
814.692	4337
814.833	4280
814.974	4329
815.115	4333
815.256	4238
815.397	4227
815.539	4211
815.68	4188
815.821	4204
815.962	4325
816.103	4272
816.244	4230
816.385	4207
816.526	4284
816.666	4219
816.807	4051
816.948	4204
817.089	4162
817.23	4090
817.371	4029
817.512	4067
817.653	4021
817.793	4025
817.934	4025
818.075	4105
818.216	4078
818.356	4059
818.497	3964
818.638	3888
818.778	3930
818.919	3907
819.06	3873
819.2	3888
819.341	3838
819.481	3865
819.622	3903
819.762	4021
819.903	3941
820.043	3865
820.184	3835
820.324	3812
820.465	3915
820.605	3854
820.746	3842
820.886	3789
821.026	3956
821.167	3846
821.307	3991
821.447	3991
821.588	3960
821.728	3907
821.868	3937
822.008	3842
822.149	3880
822.289	3911
822.429	3732
822.569	3778
822.709	3816
822.849	3682
822.99	3663
823.13	3740
823.27	3762
823.41	3732
823.55	3740
823.69	3724
823.83	3736
823.97	3637
824.11	3606
824.25	3584
824.389	3606
824.529	3663
824.669	3648
824.809	3690
824.949	3732
825.089	3682
825.228	3671
825.368	3534
825.508	3591
825.648	3564
825.787	3595
825.927	3625
826.067	3603
826.206	3644
826.346	3774
826.485	3842
826.625	3876
826.765	3930
826.904	3808
827.044	3545
827.183	3519
827.323	3428
827.462	3481
827.601	3431
827.741	3401
827.88	3424
828.02	3367
828.159	3412
828.298	3431
828.437	3530
828.577	3443
828.716	3542
828.855	3454
828.994	3386
829.134	3355
829.273	3367
829.412	3370
829.551	3310
829.69	3348
829.829	3428
829.968	3466
830.107	3420
830.246	3409
830.385	3355
830.524	3367
830.663	3294
830.802	3226
830.941	3199
831.08	3207
831.219	3237
831.357	3272
831.496	3378
831.635	3218
831.774	3169
831.913	3222
832.051	3161
832.19	3127
832.329	3230
832.467	3104
832.606	3089
832.744	3161
832.883	3192
833.022	3173
833.16	3260
833.299	3279
833.437	3325
833.576	3321
833.714	3359
833.852	3447
833.991	3416
834.129	3439
834.267	3485
834.406	3386
834.544	3450
834.682	3412
834.821	3401
834.959	3553
835.097	3397
835.235	3523
835.373	3477
835.511	3519
835.65	3481
835.788	3447
835.926	3389
836.064	3367
836.202	3389
836.34	3553
836.478	3580
836.615	3523
836.753	3530
836.891	3629
837.029	3603
837.167	3576
837.305	3603
837.443	3511
837.58	3557
837.718	3576
837.856	3523
837.993	3545
838.131	3584
838.269	3587
838.406	3553
838.544	3564
838.681	3439
838.819	3454
838.956	3336
839.094	3363
839.231	3439
839.369	3526
839.506	3717
839.643	3625
839.781	3492
839.918	3443
840.055	3526
840.193	3519
840.33	3526
840.467	3511
840.604	3629
840.742	3793
840.879	3538
841.016	3538
841.153	3591
841.29	3766
841.427	3679
841.564	3686
841.701	3740
841.838	3679
841.975	3679
842.112	3751
842.249	3576
842.385	3587
842.522	3831
842.659	3682
842.796	3724
842.933	3713
843.069	3675
843.206	3701
843.343	3827
843.479	3778
843.616	3812
843.752	3614
843.889	3686
844.025	3854
844.162	3713
844.298	3854
844.435	3743
844.571	3770
844.708	3899
844.844	4006
844.98	3991
845.117	3987
845.253	3915
845.389	3873
845.525	3987
845.661	3953
845.798	3892
845.934	4013
846.07	3907
846.206	4105
846.342	4101
846.478	4105
846.614	3968
846.75	3915
846.886	3873
847.022	4044
847.158	3972
847.294	4010
847.429	4010
847.565	4006
847.701	4200
847.837	3861
847.972	3911
848.108	3979
848.244	3960
848.379	3888
848.515	3797
848.65	3819
848.786	3827
848.921	3823
849.057	3926
849.192	3949
849.328	3888
849.463	3907
849.598	3869
849.734	3838
849.869	3838
850.004	3759
850.14	3781
850.275	3789
850.41	3728
850.545	3762
850.68	3759
850.815	3812
850.95	3808
851.085	3918
851.22	3854
851.355	3800
851.49	3793
851.625	3747
851.76	3755
851.895	3740
852.03	3755
852.165	3793
852.299	3804
852.434	3892
852.569	3861
852.703	3896
852.838	3911
852.973	3983
853.107	4032
853.242	3873
853.376	3850
853.511	3720
853.645	3857
853.78	3937
853.914	3888
854.048	3899
854.183	3884
854.317	3892
854.451	4074
854.585	3926
854.72	3972
854.854	4044
854.988	3880
855.122	3945
855.256	3899
855.39	4002
855.524	4040
855.658	4078
855.792	4067
855.926	4082
856.06	4162
856.194	4200
856.327	4109
856.461	4112
856.595	4147
856.729	4166
856.862	4299
856.996	4200
857.13	4322
857.263	4363
857.397	4322
857.53	4265
857.664	4303
857.797	4386
857.931	4394
858.064	4398
858.197	4428
858.331	4360
858.464	4386
858.597	4360
858.731	4440
858.864	4443
858.997	4459
859.13	4535
859.263	4531
859.396	4542
859.529	4527
859.662	4519
859.795	4516
859.928	4588
860.061	4611
860.194	4729
860.327	4645
860.46	4611
860.592	4733
860.725	4729
860.858	4786
860.99	4660
861.123	4645
861.256	4679
861.388	4782
861.521	5383
861.653	4683
861.786	4729
861.918	4694
862.05	4820
862.183	4793
862.315	4908
862.447	4934
862.58	4831
862.712	4793
862.844	4790
862.976	4862
863.108	4839
863.24	5155
863.372	4843
863.504	4854
863.636	4870
863.768	4942
863.9	4889
864.032	4923
864.164	4980
864.296	4980
864.428	5033
864.559	5094
864.691	5098
864.823	5098
864.954	5098
865.086	5128
865.217	5124
865.349	5056
865.48	5143
865.612	5113
865.743	5288
865.875	5189
866.006	5212
866.137	5246
866.269	5223
866.4	5265
866.531	5242
866.662	5246
866.793	5269
866.924	5265
867.055	5326
867.186	5277
867.317	5364
867.448	5315
867.579	5391
867.71	5379
867.841	5353
867.972	5486
868.103	5433
868.233	5417
868.364	5436
868.495	5509
868.625	5676
868.756	5745
868.886	5661
869.017	5691
869.147	5863
869.278	5859
869.408	5783
869.539	5840
869.669	5939
869.799	5893
869.929	5954
870.06	5965
870.19	6171
870.32	6194
870.45	6273
870.58	6361
870.71	6369
870.84	6467
870.97	6441
871.1	6422
871.23	6570
871.36	6688
871.489	6620
871.619	6696
871.749	6833
871.879	6856
872.008	6920
872.138	6905
872.267	6909
872.397	6951
872.526	7042
872.656	7038
872.785	7236
872.915	7324
873.044	7514
873.173	7468
873.303	7643
873.432	7715
873.561	7833
873.69	7849
873.819	7967
873.948	8191
874.077	8244
874.206	8305
874.335	8438
874.464	8655
874.593	8857
874.722	8883
874.851	9154
874.979	9188
875.108	9359
875.237	9389
875.365	9530
875.494	9610
875.623	9819
875.751	9873
875.88	10040
876.008	10154
876.136	10325
876.265	10462
876.393	10668
876.521	10767
876.65	10752
876.778	10847
876.906	10839
877.034	11041
877.162	11109
877.29	11136
877.418	11345
877.546	11326
877.674	11486
877.802	11516
877.93	11505
878.058	11516
878.185	11551
878.313	11634
878.441	11729
878.568	11688
878.696	11695
878.824	11809
878.951	11935
879.079	11988
879.206	12155
879.333	12026
879.461	11954
879.588	12182
879.715	12098
879.842	12159
879.97	12049
880.097	11874
880.224	11859
880.351	11977
880.478	11946
880.605	11851
880.732	11828
880.859	11984
880.986	11809
881.112	11866
881.239	11691
881.366	11672
881.493	11493
881.619	11600
881.746	11528
881.872	11516
881.999	11486
882.125	11463
882.252	11551
882.378	11520
882.505	11497
882.631	11372
882.757	11326
882.883	11265
883.01	11292
883.136	11242
883.262	11162
883.388	11079
883.514	11155
883.64	11140
883.766	11147
883.892	10965
884.018	10991
884.143	11060
884.269	11052
884.395	10786
884.52	10774
884.646	10767
884.772	10706
884.897	10637
885.023	10694
885.148	10645
885.274	10736
885.399	10615
885.524	10577
885.65	10656
885.775	10664
885.9	10535
886.025	10618
886.15	10554
886.275	10424
886.4	10379
886.525	10394
886.65	10398
886.775	10318
886.9	10508
887.025	10481
887.149	10284
887.274	10192
887.399	10143
887.523	10188
887.648	10116
887.773	10147
887.897	10322
888.021	10112
888.146	10158
888.27	10192
888.395	10215
888.519	10147
888.643	10128
888.767	10272
888.891	10017
889.015	10006
889.139	10097
889.263	9937
889.387	10051
889.511	10067
889.635	10120
889.759	9960
889.883	9941
890.006	9968
890.13	10128
890.254	9926
890.377	10006
890.501	9876
890.624	9873
890.748	9804
890.871	9747
890.995	9717
891.118	9682
891.241	9709
891.364	9732
891.488	9899
891.611	9755
891.734	9720
891.857	9774
891.98	9732
892.103	9736
892.226	9724
892.349	9652
892.471	9534
892.594	9614
892.717	9515
892.839	9515
892.962	9641
893.085	9682
893.207	9625
893.33	9500
893.452	9473
893.575	9675
893.697	9511
893.819	9595
893.941	9614
894.064	9587
894.186	9408
894.308	9416
894.43	9561
894.552	9618
894.674	9507
894.796	9435
894.918	9401
895.04	9397
895.161	9389
895.283	9367
895.405	9268
895.526	9207
895.648	9237
895.769	9256
895.891	9268
896.012	9264
896.134	9199
896.255	9169
896.376	9142
896.498	9157
896.619	9112
896.74	9058
896.861	9176
896.982	9268
897.103	9283
897.224	9165
897.345	9146
897.466	9001
897.587	8986
897.708	9066
897.828	8971
897.949	9001
898.07	8921
898.19	8929
898.311	9009
898.431	8899
898.552	8918
898.672	8975
898.792	8876
898.913	8864
899.033	8785
899.153	8735
899.273	8667
899.393	8644
899.513	8746
899.633	8769
899.753	8693
899.873	8659
899.993	8708
900.113	8689
900.232	8727
900.352	8682
900.472	8629
900.591	8556
900.711	8590
900.83	8575
900.95	8598
901.069	8697
901.189	8552
901.308	8339
901.427	8393
901.546	8454
901.665	8514
901.784	8495
901.904	8374
902.023	8282
902.141	8195
902.26	8187
902.379	8229
902.498	8237
902.617	8149
902.735	8271
902.854	8271
902.973	8267
903.091	8134
903.21	8081
903.328	8183
903.446	8119
903.565	8126
903.683	8027
903.801	8092
903.919	8111
904.038	8214
904.156	7986
904.274	8088
904.392	8046
904.51	8088
904.627	8077
904.745	8050
904.863	8054
904.981	7936
905.098	7860
905.216	7852
905.334	7890
905.451	7864
905.569	7837
905.686	7814
905.803	7955
905.921	7803
906.038	7833
906.155	7708
906.272	7772
906.389	7689
906.506	7632
906.623	7655
906.74	7609
906.857	7510
906.974	7605
907.091	7616
907.208	7693
907.324	7639
907.441	7563
907.557	7464
907.674	7472
907.79	7324
907.907	7445
908.023	7396
908.139	7403
908.256	7392
908.372	7381
908.488	7316
908.604	7297
908.72	7221
908.836	7320
908.952	7228
909.068	7213
909.184	7297
909.3	7251
909.415	7293
909.531	7308
909.647	7103
909.762	7137
909.878	7118
909.993	7088
910.108	7091
910.224	7110
910.339	7065
910.454	7015
910.57	6985
910.685	6928
910.8	7076
910.915	7110
911.03	7019
911.145	6909
911.259	6894
911.374	6890
911.489	6821
911.604	6776
911.718	6722
911.833	6700
911.947	6608
912.062	6582
912.176	6741
912.291	6681
912.405	6730
912.519	6798
912.633	6837
912.748	6688
912.862	6696
912.976	6681
913.09	6532
913.204	6601
913.318	6620
913.431	6669
913.545	6730
913.659	6749
913.772	6635
913.886	6551
914	6559
914.113	6589
914.226	6639
914.34	6578
914.453	6391
914.566	6563
914.68	6452
914.793	6513
914.906	6433
915.019	6308
915.132	6380
915.245	6407
915.358	6399
915.47	6403
915.583	6494
915.696	6448
915.809	6532
915.921	6544
916.034	6395
916.146	6361
916.259	6456
916.371	6471
916.483	6456
916.595	6376
916.708	6327
916.82	6414
916.932	6376
917.044	6403
917.156	6391
917.268	6300
917.38	6365
917.491	6289
917.603	6319
917.715	6410
917.826	6422
917.938	6365
918.049	6254
918.161	6285
918.272	6369
918.384	6384
918.495	6331
918.606	6258
918.717	6171
918.828	6232
918.939	6239
919.05	6194
919.161	6292
919.272	6121
919.383	6194
919.494	6338
919.604	6460
919.715	6266
919.826	6201
919.936	6228
920.047	6384
920.157	6273
920.267	6384
920.378	6285
920.488	6266
920.598	6426
920.708	6502
920.818	6437
920.928	6422
921.038	6612
921.148	6528
921.258	6331
921.368	6315
921.477	6228
921.587	6201
921.697	6076
921.806	6224
921.916	6076
922.025	5961
922.134	5870
922.244	5897
922.353	5939
922.462	5901
922.571	5748
922.68	5737
922.789	5722
922.898	5676
923.007	5627
923.116	5691
923.224	5646
923.333	5680
923.442	5600
923.55	5566
923.659	5577
923.767	5592
923.876	5535
923.984	5573
924.092	5497
924.201	5558
924.309	5535
924.417	5577
924.525	5448
924.633	5490
924.741	6251
924.849	5364
924.956	5459
925.064	5387
925.172	5345
925.279	5277
925.387	5383
925.494	5334
925.602	5391
925.709	5425
925.816	5303
925.924	5315
926.031	5372
926.138	5265
926.245	5296
926.352	5208
926.459	5269
926.566	5383
926.673	5128
926.779	5098
926.886	5109
926.993	5014
927.099	4961
927.206	4976
927.312	4968
927.419	5018
927.525	4972
927.631	4995
927.737	4839
927.843	4847
927.95	4767
928.056	4866
928.162	4778
928.267	4843
928.373	5261
928.479	4835
928.585	4630
928.69	4733
928.796	4831
928.901	4691
929.007	4558
929.112	4668
929.218	4603
929.323	4584
929.428	4527
929.533	4664
929.638	4569
929.743	4546
929.848	4531
929.953	4485
930.058	4356
930.163	4295
930.267	4344
930.372	4398
930.477	4291
930.581	4455
930.685	4322
930.79	4230
930.894	4280
930.998	4219
931.103	4428
931.207	4086
931.311	4059
931.415	4051
931.519	3880
931.623	3953
