Data from glass_V78500241_601.txt Node
Date: Wed Sep 01 19:18:39 CST 2021
User: usil
Spectrometer: V785-0024
Trigger mode: 0
Integration Time (sec): 4.000000E-1
Scans to average: 1
Nonlinearity correction enabled: false
Boxcar width: 0
Storing dark spectrum: false
XAxis mode: Wavelengths
Number of Pixels in Spectrum: 1024
>>>>>Begin Spectral Data<<<<<
801.071	3774
801.214	3804
801.356	3705
801.499	3789
801.641	3774
801.783	3778
801.926	3918
802.068	3793
802.211	3876
802.353	3903
802.496	3857
802.638	3896
802.78	3876
802.923	3937
803.065	3941
803.208	3884
803.35	3903
803.492	3949
803.635	3949
803.777	3846
803.919	3926
804.061	4147
804.204	3991
804.346	3930
804.488	3911
804.63	4067
804.773	3998
804.915	4078
805.057	4120
805.199	4002
805.341	4116
805.483	4143
805.626	4158
805.768	4090
805.91	4215
806.052	4257
806.194	4219
806.336	4379
806.478	4253
806.62	4215
806.762	4211
806.904	4280
807.046	4356
807.188	4238
807.33	4185
807.472	4291
807.614	4181
807.756	4310
807.898	4215
808.04	4257
808.182	4291
808.324	4344
808.465	4390
808.607	4413
808.749	4459
808.891	4466
809.033	4508
809.174	4383
809.316	4265
809.458	4257
809.6	4143
809.741	4150
809.883	4131
810.025	4223
810.166	4246
810.308	4253
810.45	4272
810.591	4268
810.733	4325
810.875	4519
811.016	4824
811.158	5174
811.299	5261
811.441	5273
811.582	5090
811.724	4687
811.865	4485
812.007	4455
812.148	4474
812.29	4398
812.431	4447
812.573	4440
812.714	4383
812.855	4398
812.997	4405
813.138	4497
813.279	4402
813.421	4432
813.562	4428
813.703	4325
813.845	4325
813.986	4299
814.127	4173
814.268	4299
814.41	4303
814.551	4268
814.692	4379
814.833	4314
814.974	4329
815.115	4371
815.256	4310
815.397	4230
815.539	4276
815.68	4192
815.821	4204
815.962	4367
816.103	4360
816.244	4253
816.385	4246
816.526	4303
816.666	4272
816.807	4097
816.948	4173
817.089	4196
817.23	4097
817.371	4101
817.512	4071
817.653	4101
817.793	4048
817.934	4025
818.075	4131
818.216	4040
818.356	4090
818.497	3991
818.638	3903
818.778	3930
818.919	3930
819.06	3857
819.2	3922
819.341	3869
819.481	3816
819.622	3911
819.762	4032
819.903	4002
820.043	3880
820.184	3823
820.324	3846
820.465	3899
820.605	3903
820.746	3896
820.886	3804
821.026	3926
821.167	3926
821.307	3968
821.447	4017
821.588	3975
821.728	3960
821.868	3979
822.008	3892
822.149	3953
822.289	3896
822.429	3789
822.569	3770
822.709	3816
822.849	3740
822.99	3713
823.13	3800
823.27	3804
823.41	3736
823.55	3728
823.69	3705
823.83	3774
823.97	3686
824.11	3595
824.25	3622
824.389	3641
824.529	3663
824.669	3637
824.809	3701
824.949	3759
825.089	3766
825.228	3694
825.368	3591
825.508	3576
825.648	3595
825.787	3618
825.927	3614
826.067	3622
826.206	3720
826.346	3797
826.485	3892
826.625	3892
826.765	3956
826.904	3865
827.044	3641
827.183	3557
827.323	3409
827.462	3507
827.601	3469
827.741	3420
827.88	3477
828.02	3355
828.159	3420
828.298	3477
828.437	3561
828.577	3534
828.716	3576
828.855	3504
828.994	3389
829.134	3447
829.273	3382
829.412	3389
829.551	3348
829.69	3329
829.829	3439
829.968	3523
830.107	3466
830.246	3420
830.385	3393
830.524	3370
830.663	3317
830.802	3272
830.941	3218
831.08	3199
831.219	3279
831.357	3275
831.496	3412
831.635	3241
831.774	3214
831.913	3207
832.051	3131
832.19	3138
832.329	3230
832.467	3131
832.606	3119
832.744	3173
832.883	3165
833.022	3188
833.16	3294
833.299	3302
833.437	3363
833.576	3382
833.714	3382
833.852	3458
833.991	3424
834.129	3488
834.267	3485
834.406	3420
834.544	3435
834.682	3447
834.821	3397
834.959	3606
835.097	3416
835.235	3553
835.373	3477
835.511	3549
835.65	3500
835.788	3469
835.926	3359
836.064	3435
836.202	3431
836.34	3610
836.478	3599
836.615	3534
836.753	3671
836.891	3656
837.029	3633
837.167	3591
837.305	3595
837.443	3538
837.58	3500
837.718	3644
837.856	3580
837.993	3549
838.131	3572
838.269	3587
838.406	3564
838.544	3584
838.681	3507
838.819	3458
838.956	3382
839.094	3405
839.231	3428
839.369	3561
839.506	3713
839.643	3618
839.781	3523
839.918	3485
840.055	3557
840.193	3553
840.33	3534
840.467	3542
840.604	3625
840.742	3793
840.879	3584
841.016	3610
841.153	3606
841.29	3766
841.427	3781
841.564	3732
841.701	3759
841.838	3690
841.975	3713
842.112	3747
842.249	3667
842.385	3705
842.522	3823
842.659	3720
842.796	3705
842.933	3755
843.069	3713
843.206	3778
843.343	3838
843.479	3793
843.616	3835
843.752	3671
843.889	3698
844.025	3865
844.162	3701
844.298	3869
844.435	3789
844.571	3789
844.708	3869
844.844	3964
844.98	4074
845.117	4013
845.253	3945
845.389	3915
845.525	3937
845.661	3979
845.798	3930
845.934	4044
846.07	3956
846.206	4055
846.342	4166
846.478	4071
846.614	3945
846.75	3915
846.886	3911
847.022	4040
847.158	3991
847.294	3998
847.429	4044
847.565	4017
847.701	4246
847.837	3873
847.972	3869
848.108	4013
848.244	3956
848.379	3876
848.515	3857
848.65	3819
848.786	3945
848.921	3930
849.057	3937
849.192	3930
849.328	3896
849.463	3930
849.598	3896
849.734	3850
849.869	3846
850.004	3846
850.14	3835
850.275	3793
850.41	3747
850.545	3774
850.68	3781
850.815	3793
850.95	3797
851.085	3949
851.22	3884
851.355	3838
851.49	3797
851.625	3816
851.76	3804
851.895	3789
852.03	3785
852.165	3854
852.299	3880
852.434	3930
852.569	3846
852.703	3899
852.838	3926
852.973	4021
853.107	4029
853.242	3911
853.376	3869
853.511	3797
853.645	3854
853.78	4021
853.914	3915
854.048	3892
854.183	3888
854.317	3968
854.451	4093
854.585	4002
854.72	3956
854.854	4017
854.988	3941
855.122	3987
855.256	3979
855.39	4040
855.524	4078
855.658	4055
855.792	4074
855.926	4147
856.06	4219
856.194	4207
856.327	4169
856.461	4147
856.595	4139
856.729	4215
856.862	4234
856.996	4188
857.13	4329
857.263	4341
857.397	4383
857.53	4295
857.664	4375
857.797	4421
857.931	4432
858.064	4405
858.197	4462
858.331	4405
858.464	4348
858.597	4371
858.731	4409
858.864	4470
858.997	4485
859.13	4508
859.263	4542
859.396	4596
859.529	4558
859.662	4531
859.795	4519
859.928	4615
860.061	4710
860.194	4736
860.327	4641
860.46	4710
860.592	4767
860.725	4771
860.858	4767
860.99	4691
861.123	4721
861.256	4714
861.388	4767
861.521	5376
861.653	4740
861.786	4694
861.918	4725
862.05	4831
862.183	4858
862.315	4908
862.447	4980
862.58	4896
862.712	4816
862.844	4820
862.976	4873
863.108	4927
863.24	5151
863.372	4835
863.504	4885
863.636	4957
863.768	4976
863.9	4923
864.032	4934
864.164	4938
864.296	5006
864.428	5124
864.559	5113
864.691	5124
864.823	5098
864.954	5136
865.086	5159
865.217	5109
865.349	5098
865.48	5151
865.612	5162
865.743	5303
865.875	5193
866.006	5181
866.137	5216
866.269	5231
866.4	5265
866.531	5258
866.662	5303
866.793	5231
866.924	5292
867.055	5372
867.186	5349
867.317	5330
867.448	5299
867.579	5402
867.71	5398
867.841	5429
867.972	5493
868.103	5474
868.233	5455
868.364	5528
868.495	5554
868.625	5752
868.756	5832
868.886	5680
869.017	5741
869.147	5813
869.278	5866
869.408	5844
869.539	5809
869.669	5958
869.799	5927
869.929	6003
870.06	6053
870.19	6277
870.32	6194
870.45	6258
870.58	6372
870.71	6426
870.84	6490
870.97	6452
871.1	6456
871.23	6639
871.36	6741
871.489	6719
871.619	6760
871.749	6863
871.879	6882
872.008	7080
872.138	6973
872.267	7031
872.397	7042
872.526	6954
872.656	7126
872.785	7187
872.915	7422
873.044	7506
873.173	7559
873.303	7742
873.432	7788
873.561	7830
873.69	7894
873.819	8039
873.948	8164
874.077	8237
874.206	8305
874.335	8476
874.464	8606
874.593	8834
874.722	8906
874.851	9154
874.979	9313
875.108	9378
875.237	9416
875.365	9534
875.494	9660
875.623	9827
875.751	9873
875.88	9960
876.008	10204
876.136	10249
876.265	10546
876.393	10767
876.521	10694
876.65	10786
876.778	10915
876.906	10854
877.034	10938
877.162	11060
877.29	11242
877.418	11402
877.546	11436
877.674	11528
877.802	11539
877.93	11467
878.058	11497
878.185	11581
878.313	11646
878.441	11752
878.568	11764
878.696	11802
878.824	11847
878.951	11840
879.079	12068
879.206	12079
879.333	12015
879.461	11984
879.588	12011
879.715	12121
879.842	12163
879.97	12003
880.097	11813
880.224	11942
880.351	11832
880.478	11916
880.605	11901
880.732	11847
880.859	12060
880.986	11832
881.112	11870
881.239	11695
881.366	11688
881.493	11596
881.619	11547
881.746	11539
881.872	11520
881.999	11608
882.125	11467
882.252	11547
882.378	11547
882.505	11554
882.631	11360
882.757	11277
882.883	11360
883.01	11284
883.136	11189
883.262	11121
883.388	11102
883.514	11178
883.64	11239
883.766	11117
883.892	10934
884.018	11033
884.143	11121
884.269	11121
884.395	10869
884.52	10763
884.646	10733
884.772	10729
884.897	10706
885.023	10653
885.148	10706
885.274	10790
885.399	10812
885.524	10706
885.65	10577
885.775	10535
885.9	10519
886.025	10626
886.15	10523
886.275	10478
886.4	10337
886.525	10440
886.65	10386
886.775	10356
886.9	10421
887.025	10535
887.149	10329
887.274	10238
887.399	10310
887.523	10112
887.648	10169
887.773	10105
887.897	10154
888.021	10253
888.146	10105
888.27	10192
888.395	10230
888.519	10219
888.643	10135
888.767	10227
888.891	10112
889.015	10006
889.139	10071
889.263	9987
889.387	10086
889.511	10131
889.635	10044
889.759	10025
889.883	10006
890.006	10048
890.13	10116
890.254	9972
890.377	10025
890.501	9823
890.624	9888
890.748	9941
890.871	9800
890.995	9774
891.118	9724
891.241	9793
891.364	9736
891.488	9785
891.611	9709
891.734	9747
891.857	9812
891.98	9686
892.103	9774
892.226	9766
892.349	9667
892.471	9538
892.594	9644
892.717	9603
892.839	9652
892.962	9660
893.085	9564
893.207	9614
893.33	9504
893.452	9538
893.575	9534
893.697	9473
893.819	9682
893.941	9606
894.064	9557
894.186	9454
894.308	9382
894.43	9477
894.552	9595
894.674	9473
894.796	9435
894.918	9450
895.04	9370
895.161	9389
895.283	9412
895.405	9188
895.526	9279
895.648	9298
895.769	9287
895.891	9275
896.012	9283
896.134	9291
896.255	9272
896.376	9199
896.498	9131
896.619	9154
896.74	9142
896.861	9169
896.982	9268
897.103	9332
897.224	9184
897.345	9009
897.466	9085
897.587	8986
897.708	9146
897.828	9066
897.949	8979
898.07	8902
898.19	8914
898.311	8975
898.431	8887
898.552	8921
898.672	9013
898.792	8937
898.913	8880
899.033	8880
899.153	8785
899.273	8644
899.393	8708
899.513	8785
899.633	8697
899.753	8716
899.873	8693
899.993	8663
900.113	8712
900.232	8769
900.352	8674
900.472	8644
900.591	8560
900.711	8598
900.83	8667
900.95	8613
901.069	8731
901.189	8587
901.308	8351
901.427	8347
901.546	8400
901.665	8511
901.784	8552
901.904	8419
902.023	8381
902.141	8248
902.26	8214
902.379	8301
902.498	8187
902.617	8214
902.735	8294
902.854	8313
902.973	8320
903.091	8126
903.21	8145
903.328	8187
903.446	8183
903.565	8039
903.683	8107
903.801	8024
903.919	8115
904.038	8092
904.156	7989
904.274	8043
904.392	8073
904.51	8092
904.627	8130
904.745	8092
904.863	8096
904.981	7967
905.098	7788
905.216	7883
905.334	7894
905.451	7917
905.569	7936
905.686	7967
905.803	7921
905.921	7765
906.038	7921
906.155	7792
906.272	7715
906.389	7761
906.506	7693
906.623	7575
906.74	7662
906.857	7548
906.974	7597
907.091	7693
907.208	7788
907.324	7647
907.441	7544
907.557	7441
907.674	7480
907.79	7396
907.907	7426
908.023	7460
908.139	7430
908.256	7403
908.372	7365
908.488	7346
908.604	7343
908.72	7289
908.836	7312
908.952	7293
909.068	7293
909.184	7365
909.3	7244
909.415	7263
909.531	7381
909.647	7084
909.762	7099
909.878	7088
909.993	7118
910.108	7160
910.224	7091
910.339	7126
910.454	6989
910.57	6993
910.685	6947
910.8	7213
910.915	7053
911.03	7038
911.145	6894
911.259	6890
911.374	6886
911.489	6871
911.604	6840
911.718	6688
911.833	6760
911.947	6673
912.062	6563
912.176	6684
912.291	6719
912.405	6722
912.519	6814
912.633	6859
912.748	6703
912.862	6669
912.976	6646
913.09	6555
913.204	6570
913.318	6601
913.431	6662
913.545	6772
913.659	6738
913.772	6642
913.886	6593
914	6597
914.113	6707
914.226	6646
914.34	6620
914.453	6555
914.566	6612
914.68	6471
914.793	6563
914.906	6391
915.019	6441
915.132	6407
915.245	6407
915.358	6395
915.47	6490
915.583	6437
915.696	6494
915.809	6517
915.921	6532
916.034	6460
916.146	6395
916.259	6395
916.371	6483
916.483	6475
916.595	6395
916.708	6433
916.82	6384
916.932	6353
917.044	6376
917.156	6486
917.268	6346
917.38	6422
917.491	6262
917.603	6315
917.715	6418
917.826	6479
917.938	6296
918.049	6251
918.161	6357
918.272	6418
918.384	6414
918.495	6376
918.606	6232
918.717	6224
918.828	6331
918.939	6315
919.05	6201
919.161	6201
919.272	6163
919.383	6194
919.494	6292
919.604	6429
919.715	6319
919.826	6251
919.936	6190
920.047	6372
920.157	6232
920.267	6456
920.378	6346
920.488	6323
920.598	6429
920.708	6597
920.818	6410
920.928	6483
921.038	6608
921.148	6578
921.258	6369
921.368	6334
921.477	6235
921.587	6190
921.697	6125
921.806	6152
921.916	6110
922.025	5946
922.134	5931
922.244	5874
922.353	5984
922.462	5851
922.571	5828
922.68	5741
922.789	5665
922.898	5684
923.007	5707
923.116	5703
923.224	5627
923.333	5611
923.442	5623
923.55	5581
923.659	5619
923.767	5627
923.876	5566
923.984	5608
924.092	5482
924.201	5551
924.309	5581
924.417	5573
924.525	5539
924.633	5547
924.741	6220
924.849	5410
924.956	5490
925.064	5357
925.172	5372
925.279	5326
925.387	5376
925.494	5414
925.602	5463
925.709	5376
925.816	5307
925.924	5330
926.031	5368
926.138	5311
926.245	5341
926.352	5250
926.459	5273
926.566	5357
926.673	5261
926.779	5155
926.886	5124
926.993	5083
927.099	5045
927.206	4980
927.312	5041
927.419	5010
927.525	4984
927.631	5014
927.737	4877
927.843	4862
927.95	4816
928.056	4831
928.162	4843
928.267	4896
928.373	5269
928.479	4831
928.585	4721
928.69	4729
928.796	4733
928.901	4710
929.007	4603
929.112	4698
929.218	4626
929.323	4588
929.428	4569
929.533	4694
929.638	4573
929.743	4580
929.848	4573
929.953	4493
930.058	4455
930.163	4386
930.267	4371
930.372	4459
930.477	4257
930.581	4478
930.685	4356
930.79	4261
930.894	4265
930.998	4238
931.103	4386
931.207	4169
931.311	4109
931.415	4086
931.519	3983
931.623	3994
