Data from glass_V78500241_187.txt Node
Date: Wed Sep 01 19:15:47 CST 2021
User: usil
Spectrometer: V785-0024
Trigger mode: 0
Integration Time (sec): 4.000000E-1
Scans to average: 1
Nonlinearity correction enabled: false
Boxcar width: 0
Storing dark spectrum: false
XAxis mode: Wavelengths
Number of Pixels in Spectrum: 1024
>>>>>Begin Spectral Data<<<<<
801.071	3743
801.214	3762
801.356	3785
801.499	3781
801.641	3778
801.783	3835
801.926	3861
802.068	3869
802.211	3865
802.353	3911
802.496	3842
802.638	3899
802.78	3918
802.923	3983
803.065	3869
803.208	3884
803.35	3888
803.492	3960
803.635	3907
803.777	3797
803.919	3896
804.061	4181
804.204	3987
804.346	3975
804.488	3960
804.63	3975
804.773	3941
804.915	4029
805.057	4169
805.199	4029
805.341	4093
805.483	4135
805.626	4154
805.768	4078
805.91	4234
806.052	4238
806.194	4211
806.336	4379
806.478	4211
806.62	4120
806.762	4223
806.904	4227
807.046	4314
807.188	4223
807.33	4169
807.472	4280
807.614	4230
807.756	4242
807.898	4230
808.04	4181
808.182	4303
808.324	4360
808.465	4405
808.607	4459
808.749	4447
808.891	4462
809.033	4481
809.174	4379
809.316	4253
809.458	4272
809.6	4150
809.741	4185
809.883	4192
810.025	4253
810.166	4253
810.308	4223
810.45	4310
810.591	4249
810.733	4265
810.875	4554
811.016	4820
811.158	5147
811.299	5280
811.441	5345
811.582	5075
811.724	4687
811.865	4489
812.007	4493
812.148	4466
812.29	4405
812.431	4402
812.573	4405
812.714	4379
812.855	4481
812.997	4512
813.138	4531
813.279	4436
813.421	4443
813.562	4424
813.703	4322
813.845	4360
813.986	4284
814.127	4211
814.268	4249
814.41	4314
814.551	4242
814.692	4337
814.833	4325
814.974	4318
815.115	4344
815.256	4272
815.397	4223
815.539	4230
815.68	4234
815.821	4227
815.962	4284
816.103	4295
816.244	4200
816.385	4242
816.526	4333
816.666	4242
816.807	4082
816.948	4192
817.089	4158
817.23	4135
817.371	4051
817.512	4017
817.653	4078
817.793	4059
817.934	4055
818.075	4109
818.216	4093
818.356	4128
818.497	4067
818.638	3934
818.778	3926
818.919	3945
819.06	3899
819.2	3911
819.341	3857
819.481	3846
819.622	3934
819.762	4006
819.903	3911
820.043	3854
820.184	3838
820.324	3850
820.465	3865
820.605	3869
820.746	3861
820.886	3827
821.026	3960
821.167	3930
821.307	4044
821.447	4006
821.588	4010
821.728	3934
821.868	3941
822.008	3888
822.149	3926
822.289	3896
822.429	3823
822.569	3774
822.709	3816
822.849	3686
822.99	3743
823.13	3740
823.27	3797
823.41	3682
823.55	3762
823.69	3755
823.83	3785
823.97	3675
824.11	3629
824.25	3625
824.389	3595
824.529	3652
824.669	3675
824.809	3759
824.949	3736
825.089	3740
825.228	3736
825.368	3629
825.508	3587
825.648	3576
825.787	3591
825.927	3644
826.067	3660
826.206	3644
826.346	3797
826.485	3835
826.625	3926
826.765	3953
826.904	3835
827.044	3637
827.183	3523
827.323	3443
827.462	3526
827.601	3428
827.741	3439
827.88	3477
828.02	3431
828.159	3435
828.298	3466
828.437	3523
828.577	3488
828.716	3633
828.855	3526
828.994	3386
829.134	3386
829.273	3435
829.412	3389
829.551	3332
829.69	3401
829.829	3431
829.968	3553
830.107	3435
830.246	3439
830.385	3389
830.524	3363
830.663	3283
830.802	3260
830.941	3214
831.08	3222
831.219	3310
831.357	3241
831.496	3416
831.635	3207
831.774	3203
831.913	3218
832.051	3131
832.19	3150
832.329	3188
832.467	3154
832.606	3070
832.744	3188
832.883	3195
833.022	3188
833.16	3253
833.299	3302
833.437	3374
833.576	3382
833.714	3447
833.852	3431
833.991	3435
834.129	3469
834.267	3420
834.406	3416
834.544	3435
834.682	3458
834.821	3431
834.959	3545
835.097	3431
835.235	3545
835.373	3481
835.511	3519
835.65	3488
835.788	3496
835.926	3378
836.064	3363
836.202	3443
836.34	3599
836.478	3557
836.615	3564
836.753	3648
836.891	3686
837.029	3660
837.167	3610
837.305	3545
837.443	3519
837.58	3519
837.718	3641
837.856	3591
837.993	3549
838.131	3618
838.269	3633
838.406	3557
838.544	3614
838.681	3519
838.819	3481
838.956	3389
839.094	3382
839.231	3443
839.369	3568
839.506	3709
839.643	3629
839.781	3523
839.918	3435
840.055	3542
840.193	3557
840.33	3561
840.467	3568
840.604	3618
840.742	3797
840.879	3557
841.016	3564
841.153	3606
841.29	3755
841.427	3747
841.564	3701
841.701	3747
841.838	3701
841.975	3705
842.112	3785
842.249	3701
842.385	3667
842.522	3819
842.659	3728
842.796	3671
842.933	3724
843.069	3709
843.206	3747
843.343	3808
843.479	3793
843.616	3842
843.752	3679
843.889	3682
844.025	3842
844.162	3747
844.298	3823
844.435	3804
844.571	3766
844.708	3873
844.844	4010
844.98	4063
845.117	4006
845.253	3941
845.389	3892
845.525	3941
845.661	3991
845.798	3941
845.934	4002
846.07	3975
846.206	4063
846.342	4124
846.478	4048
846.614	3979
846.75	3911
846.886	3907
847.022	4097
847.158	3968
847.294	4017
847.429	4044
847.565	3968
847.701	4261
847.837	3945
847.972	3880
848.108	4010
848.244	4017
848.379	3869
848.515	3816
848.65	3793
848.786	3892
848.921	3899
849.057	3945
849.192	3926
849.328	3892
849.463	3964
849.598	3903
849.734	3869
849.869	3857
850.004	3778
850.14	3823
850.275	3770
850.41	3747
850.545	3759
850.68	3770
850.815	3861
850.95	3827
851.085	3953
851.22	3884
851.355	3857
851.49	3838
851.625	3797
851.76	3808
851.895	3770
852.03	3736
852.165	3854
852.299	3831
852.434	3972
852.569	3861
852.703	3869
852.838	3892
852.973	4032
853.107	4025
853.242	3918
853.376	3857
853.511	3789
853.645	3842
853.78	3964
853.914	3934
854.048	3918
854.183	3884
854.317	3968
854.451	4097
854.585	3968
854.72	3930
854.854	4071
854.988	3960
855.122	3983
855.256	3934
855.39	4051
855.524	4124
855.658	4143
855.792	4112
855.926	4154
856.06	4173
856.194	4196
856.327	4173
856.461	4105
856.595	4150
856.729	4207
856.862	4287
856.996	4246
857.13	4352
857.263	4352
857.397	4367
857.53	4295
857.664	4386
857.797	4432
857.931	4428
858.064	4352
858.197	4466
858.331	4409
858.464	4405
858.597	4344
858.731	4462
858.864	4504
858.997	4451
859.13	4542
859.263	4558
859.396	4634
859.529	4554
859.662	4554
859.795	4519
859.928	4584
860.061	4675
860.194	4755
860.327	4656
860.46	4637
860.592	4725
860.725	4782
860.858	4801
860.99	4702
861.123	4744
861.256	4714
861.388	4759
861.521	5417
861.653	4710
861.786	4702
861.918	4774
862.05	4790
862.183	4892
862.315	4908
862.447	4927
862.58	4877
862.712	4828
862.844	4759
862.976	4892
863.108	4847
863.24	5311
863.372	4854
863.504	4900
863.636	4896
863.768	5033
863.9	4995
864.032	4938
864.164	4987
864.296	5067
864.428	5045
864.559	5181
864.691	5155
864.823	5136
864.954	5090
865.086	5117
865.217	5155
865.349	5140
865.48	5155
865.612	5208
865.743	5269
865.875	5174
866.006	5155
866.137	5189
866.269	5231
866.4	5239
866.531	5208
866.662	5250
866.793	5345
866.924	5311
867.055	5330
867.186	5364
867.317	5349
867.448	5334
867.579	5395
867.71	5406
867.841	5387
867.972	5467
868.103	5486
868.233	5493
868.364	5551
868.495	5524
868.625	5668
868.756	5817
868.886	5676
869.017	5813
869.147	5840
869.278	5870
869.408	5832
869.539	5840
869.669	5931
869.799	5935
869.929	5946
870.06	6019
870.19	6197
870.32	6213
870.45	6327
870.58	6308
870.71	6452
870.84	6460
870.97	6464
871.1	6433
871.23	6673
871.36	6745
871.489	6700
871.619	6749
871.749	6852
871.879	6867
872.008	6973
872.138	6977
872.267	7057
872.397	6989
872.526	7019
872.656	7072
872.785	7240
872.915	7373
873.044	7521
873.173	7556
873.303	7643
873.432	7788
873.561	7906
873.69	7932
873.819	8043
873.948	8161
874.077	8214
874.206	8347
874.335	8480
874.464	8659
874.593	8929
874.722	8971
874.851	9127
874.979	9226
875.108	9485
875.237	9428
875.365	9507
875.494	9660
875.623	9816
875.751	9827
875.88	9991
876.008	10177
876.136	10268
876.265	10569
876.393	10710
876.521	10675
876.65	10801
876.778	10877
876.906	10904
877.034	10919
877.162	11086
877.29	11155
877.418	11376
877.546	11349
877.674	11406
877.802	11478
877.93	11573
878.058	11581
878.185	11589
878.313	11688
878.441	11760
878.568	11680
878.696	11863
878.824	11870
878.951	11965
879.079	12049
879.206	12129
879.333	12045
879.461	12053
879.588	12083
879.715	12015
879.842	12262
879.97	12022
880.097	11878
880.224	11901
880.351	11874
880.478	11920
880.605	11752
880.732	11748
880.859	11980
880.986	11828
881.112	11889
881.239	11691
881.366	11703
881.493	11668
881.619	11501
881.746	11558
881.872	11505
881.999	11505
882.125	11459
882.252	11501
882.378	11482
882.505	11512
882.631	11414
882.757	11280
882.883	11376
883.01	11307
883.136	11261
883.262	11155
883.388	11090
883.514	11254
883.64	11197
883.766	11109
883.892	11041
884.018	10934
884.143	11098
884.269	11056
884.395	10828
884.52	10812
884.646	10786
884.772	10759
884.897	10710
885.023	10672
885.148	10645
885.274	10805
885.399	10793
885.524	10675
885.65	10481
885.775	10607
885.9	10645
886.025	10637
886.15	10500
886.275	10508
886.4	10337
886.525	10379
886.65	10394
886.775	10356
886.9	10447
887.025	10523
887.149	10413
887.274	10223
887.399	10234
887.523	10204
887.648	10238
887.773	10097
887.897	10249
888.021	10181
888.146	10097
888.27	10207
888.395	10261
888.519	10131
888.643	10207
888.767	10253
888.891	10067
889.015	10078
889.139	10036
889.263	10025
889.387	10090
889.511	10101
889.635	10017
889.759	9953
889.883	9968
890.006	9998
890.13	10154
890.254	9934
890.377	9934
890.501	9922
890.624	9918
890.748	9964
890.871	9793
890.995	9762
891.118	9728
891.241	9747
891.364	9789
891.488	9823
891.611	9671
891.734	9766
891.857	9854
891.98	9652
892.103	9819
892.226	9793
892.349	9587
892.471	9523
892.594	9576
892.717	9599
892.839	9614
892.962	9656
893.085	9682
893.207	9629
893.33	9538
893.452	9530
893.575	9576
893.697	9618
893.819	9618
893.941	9622
894.064	9622
894.186	9473
894.308	9424
894.43	9553
894.552	9606
894.674	9549
894.796	9435
894.918	9370
895.04	9310
895.161	9389
895.283	9344
895.405	9275
895.526	9241
895.648	9199
895.769	9253
895.891	9249
896.012	9344
896.134	9287
896.255	9184
896.376	9154
896.498	9176
896.619	9089
896.74	9017
896.861	9119
896.982	9233
897.103	9332
897.224	9154
897.345	9089
897.466	9032
897.587	9055
897.708	9089
897.828	9032
897.949	8864
898.07	8876
898.19	8906
898.311	9077
898.431	8933
898.552	8960
898.672	8975
898.792	8921
898.913	8925
899.033	8834
899.153	8743
899.273	8705
899.393	8693
899.513	8746
899.633	8785
899.753	8743
899.873	8788
899.993	8716
900.113	8739
900.232	8663
900.352	8678
900.472	8632
900.591	8587
900.711	8556
900.83	8583
900.95	8632
901.069	8766
901.189	8556
901.308	8476
901.427	8393
901.546	8434
901.665	8473
901.784	8480
901.904	8385
902.023	8389
902.141	8218
902.26	8183
902.379	8324
902.498	8263
902.617	8298
902.735	8279
902.854	8332
902.973	8282
903.091	8115
903.21	8123
903.328	8206
903.446	8096
903.565	8123
903.683	8161
903.801	8043
903.919	8183
904.038	8138
904.156	8031
904.274	8107
904.392	8016
904.51	8050
904.627	8103
904.745	8092
904.863	8119
904.981	7909
905.098	7864
905.216	7883
905.334	7894
905.451	7898
905.569	7940
905.686	7909
905.803	7917
905.921	7837
906.038	7902
906.155	7852
906.272	7753
906.389	7674
906.506	7628
906.623	7670
906.74	7628
906.857	7605
906.974	7590
907.091	7616
907.208	7719
907.324	7597
907.441	7620
907.557	7483
907.674	7502
907.79	7415
907.907	7407
908.023	7491
908.139	7453
908.256	7358
908.372	7327
908.488	7426
908.604	7270
908.72	7278
908.836	7293
908.952	7259
909.068	7282
909.184	7327
909.3	7168
909.415	7301
909.531	7282
909.647	7160
909.762	7133
909.878	7129
909.993	7118
910.108	7065
910.224	7126
910.339	7141
910.454	7034
910.57	6958
910.685	6939
910.8	7187
910.915	7133
911.03	7057
911.145	6939
911.259	6863
911.374	6859
911.489	6833
911.604	6772
911.718	6749
911.833	6760
911.947	6669
912.062	6631
912.176	6711
912.291	6772
912.405	6734
912.519	6878
912.633	6871
912.748	6738
912.862	6783
912.976	6623
913.09	6566
913.204	6642
913.318	6631
913.431	6696
913.545	6715
913.659	6665
913.772	6669
913.886	6585
914	6551
914.113	6650
914.226	6654
914.34	6616
914.453	6445
914.566	6665
914.68	6582
914.793	6582
914.906	6433
915.019	6410
915.132	6418
915.245	6441
915.358	6395
915.47	6502
915.583	6483
915.696	6452
915.809	6483
915.921	6585
916.034	6460
916.146	6509
916.259	6365
916.371	6433
916.483	6460
916.595	6399
916.708	6376
916.82	6391
916.932	6376
917.044	6475
917.156	6395
917.268	6292
917.38	6308
917.491	6334
917.603	6353
917.715	6479
917.826	6422
917.938	6357
918.049	6273
918.161	6315
918.272	6422
918.384	6479
918.495	6384
918.606	6273
918.717	6247
918.828	6277
918.939	6281
919.05	6251
919.161	6266
919.272	6102
919.383	6159
919.494	6311
919.604	6403
919.715	6235
919.826	6175
919.936	6308
920.047	6353
920.157	6296
920.267	6494
920.378	6422
920.488	6289
920.598	6418
920.708	6513
920.818	6426
920.928	6486
921.038	6662
921.148	6601
921.258	6350
921.368	6331
921.477	6216
921.587	6182
921.697	6152
921.806	6190
921.916	6064
922.025	5954
922.134	5923
922.244	5931
922.353	5958
922.462	5855
922.571	5802
922.68	5824
922.789	5703
922.898	5710
923.007	5657
923.116	5707
923.224	5684
923.333	5703
923.442	5676
923.55	5596
923.659	5638
923.767	5581
923.876	5566
923.984	5646
924.092	5535
924.201	5589
924.309	5532
924.417	5512
924.525	5501
924.633	5558
924.741	6034
924.849	5444
924.956	5482
925.064	5360
925.172	5239
925.279	5315
925.387	5368
925.494	5326
925.602	5425
925.709	5417
925.816	5261
925.924	5284
926.031	5337
926.138	5269
926.245	5330
926.352	5223
926.459	5311
926.566	5349
926.673	5227
926.779	5109
926.886	5105
926.993	5079
927.099	5018
927.206	5018
927.312	4984
927.419	5029
927.525	4984
927.631	4995
927.737	4927
927.843	4854
927.95	4752
928.056	4835
928.162	4866
928.267	4892
928.373	5277
928.479	4824
928.585	4702
928.69	4793
928.796	4763
928.901	4755
929.007	4626
929.112	4721
929.218	4626
929.323	4622
929.428	4577
929.533	4733
929.638	4565
929.743	4538
929.848	4538
929.953	4504
930.058	4474
930.163	4322
930.267	4371
930.372	4440
930.477	4291
930.581	4466
930.685	4352
930.79	4318
930.894	4318
930.998	4242
931.103	4409
931.207	4166
931.311	4112
931.415	4067
931.519	3979
931.623	3945
