Data from glass_V78500241_1660.txt Node
Date: Wed Sep 01 19:26:00 CST 2021
User: usil
Spectrometer: V785-0024
Trigger mode: 0
Integration Time (sec): 4.000000E-1
Scans to average: 1
Nonlinearity correction enabled: false
Boxcar width: 0
Storing dark spectrum: false
XAxis mode: Wavelengths
Number of Pixels in Spectrum: 1024
>>>>>Begin Spectral Data<<<<<
801.071	3717
801.214	3759
801.356	3682
801.499	3724
801.641	3720
801.783	3762
801.926	3888
802.068	3838
802.211	3846
802.353	3899
802.496	3884
802.638	3907
802.78	3899
802.923	3903
803.065	3865
803.208	3838
803.35	3831
803.492	3915
803.635	3899
803.777	3770
803.919	3880
804.061	4147
804.204	3979
804.346	3972
804.488	3926
804.63	4029
804.773	3972
804.915	4044
805.057	4139
805.199	4071
805.341	4105
805.483	4162
805.626	4139
805.768	4112
805.91	4200
806.052	4249
806.194	4196
806.336	4325
806.478	4162
806.62	4242
806.762	4219
806.904	4265
807.046	4337
807.188	4219
807.33	4150
807.472	4207
807.614	4196
807.756	4291
807.898	4223
808.04	4200
808.182	4299
808.324	4386
808.465	4363
808.607	4462
808.749	4455
808.891	4474
809.033	4485
809.174	4409
809.316	4276
809.458	4291
809.6	4143
809.741	4090
809.883	4128
810.025	4192
810.166	4181
810.308	4169
810.45	4242
810.591	4234
810.733	4246
810.875	4516
811.016	4759
811.158	5105
811.299	5284
811.441	5299
811.582	5045
811.724	4717
811.865	4455
812.007	4462
812.148	4428
812.29	4383
812.431	4379
812.573	4398
812.714	4375
812.855	4402
812.997	4405
813.138	4497
813.279	4436
813.421	4379
813.562	4413
813.703	4306
813.845	4314
813.986	4230
814.127	4253
814.268	4249
814.41	4337
814.551	4242
814.692	4352
814.833	4287
814.974	4284
815.115	4379
815.256	4261
815.397	4192
815.539	4280
815.68	4181
815.821	4185
815.962	4352
816.103	4276
816.244	4261
816.385	4238
816.526	4276
816.666	4185
816.807	4086
816.948	4150
817.089	4173
817.23	4131
817.371	4101
817.512	4090
817.653	4044
817.793	3983
817.934	4017
818.075	4109
818.216	4128
818.356	4101
818.497	3987
818.638	3918
818.778	3899
818.919	3873
819.06	3888
819.2	3937
819.341	3892
819.481	3835
819.622	3903
819.762	4048
819.903	3911
820.043	3907
820.184	3842
820.324	3835
820.465	3880
820.605	3880
820.746	3888
820.886	3835
821.026	3934
821.167	3922
821.307	3968
821.447	4006
821.588	3934
821.728	3983
821.868	3941
822.008	3896
822.149	3911
822.289	3873
822.429	3743
822.569	3713
822.709	3808
822.849	3663
822.99	3732
823.13	3762
823.27	3781
823.41	3736
823.55	3724
823.69	3709
823.83	3751
823.97	3660
824.11	3629
824.25	3572
824.389	3652
824.529	3667
824.669	3641
824.809	3713
824.949	3766
825.089	3740
825.228	3701
825.368	3584
825.508	3564
825.648	3576
825.787	3599
825.927	3671
826.067	3637
826.206	3675
826.346	3793
826.485	3808
826.625	3835
826.765	3922
826.904	3797
827.044	3618
827.183	3530
827.323	3428
827.462	3507
827.601	3443
827.741	3447
827.88	3443
828.02	3367
828.159	3477
828.298	3515
828.437	3496
828.577	3496
828.716	3637
828.855	3492
828.994	3416
829.134	3389
829.273	3386
829.412	3351
829.551	3302
829.69	3348
829.829	3435
829.968	3538
830.107	3431
830.246	3462
830.385	3386
830.524	3374
830.663	3291
830.802	3256
830.941	3211
831.08	3192
831.219	3230
831.357	3237
831.496	3416
831.635	3245
831.774	3230
831.913	3214
832.051	3154
832.19	3097
832.329	3154
832.467	3123
832.606	3161
832.744	3123
832.883	3188
833.022	3211
833.16	3256
833.299	3302
833.437	3313
833.576	3344
833.714	3447
833.852	3409
833.991	3466
834.129	3431
834.267	3431
834.406	3409
834.544	3450
834.682	3367
834.821	3405
834.959	3561
835.097	3424
835.235	3515
835.373	3500
835.511	3488
835.65	3523
835.788	3500
835.926	3397
836.064	3389
836.202	3397
836.34	3603
836.478	3599
836.615	3542
836.753	3580
836.891	3603
837.029	3629
837.167	3576
837.305	3538
837.443	3538
837.58	3515
837.718	3625
837.856	3561
837.993	3549
838.131	3618
838.269	3576
838.406	3580
838.544	3576
838.681	3492
838.819	3488
838.956	3389
839.094	3424
839.231	3428
839.369	3481
839.506	3724
839.643	3587
839.781	3526
839.918	3462
840.055	3564
840.193	3549
840.33	3530
840.467	3545
840.604	3576
840.742	3785
840.879	3526
841.016	3584
841.153	3614
841.29	3724
841.427	3686
841.564	3724
841.701	3762
841.838	3663
841.975	3671
842.112	3690
842.249	3652
842.385	3599
842.522	3812
842.659	3705
842.796	3671
842.933	3694
843.069	3740
843.206	3656
843.343	3793
843.479	3770
843.616	3808
843.752	3644
843.889	3644
844.025	3880
844.162	3675
844.298	3812
844.435	3808
844.571	3812
844.708	3857
844.844	3991
844.98	4021
845.117	4010
845.253	3869
845.389	3896
845.525	3949
845.661	4002
845.798	3934
845.934	4021
846.07	3945
846.206	4082
846.342	4116
846.478	4067
846.614	3983
846.75	3945
846.886	3899
847.022	4048
847.158	3991
847.294	4010
847.429	4025
847.565	4040
847.701	4246
847.837	3880
847.972	3865
848.108	3964
848.244	4002
848.379	3896
848.515	3819
848.65	3850
848.786	3865
848.921	3884
849.057	3918
849.192	3953
849.328	3880
849.463	3926
849.598	3907
849.734	3869
849.869	3819
850.004	3823
850.14	3827
850.275	3819
850.41	3713
850.545	3747
850.68	3778
850.815	3812
850.95	3800
851.085	3926
851.22	3861
851.355	3797
851.49	3812
851.625	3823
851.76	3812
851.895	3671
852.03	3732
852.165	3800
852.299	3854
852.434	3949
852.569	3880
852.703	3865
852.838	3903
852.973	3983
853.107	3934
853.242	3865
853.376	3827
853.511	3781
853.645	3831
853.78	4002
853.914	3896
854.048	3873
854.183	3899
854.317	3956
854.451	4086
854.585	3926
854.72	3911
854.854	4006
854.988	3926
855.122	3983
855.256	3892
855.39	4029
855.524	4093
855.658	4074
855.792	4105
855.926	4116
856.06	4173
856.194	4188
856.327	4147
856.461	4128
856.595	4105
856.729	4185
856.862	4246
856.996	4284
857.13	4337
857.263	4306
857.397	4356
857.53	4310
857.664	4299
857.797	4371
857.931	4428
858.064	4375
858.197	4497
858.331	4375
858.464	4337
858.597	4367
858.731	4455
858.864	4436
858.997	4462
859.13	4516
859.263	4538
859.396	4622
859.529	4542
859.662	4565
859.795	4516
859.928	4558
860.061	4656
860.194	4691
860.327	4664
860.46	4645
860.592	4725
860.725	4759
860.858	4748
860.99	4691
861.123	4679
861.256	4736
861.388	4778
861.521	5334
861.653	4744
861.786	4656
861.918	4752
862.05	4812
862.183	4801
862.315	4881
862.447	4908
862.58	4835
862.712	4774
862.844	4744
862.976	4870
863.108	4885
863.24	5212
863.372	4866
863.504	4877
863.636	4892
863.768	4995
863.9	4965
864.032	4881
864.164	4885
864.296	4999
864.428	5098
864.559	5090
864.691	5128
864.823	5086
864.954	5124
865.086	5166
865.217	5102
865.349	5124
865.48	5166
865.612	5185
865.743	5292
865.875	5197
866.006	5174
866.137	5181
866.269	5223
866.4	5231
866.531	5231
866.662	5189
866.793	5280
866.924	5330
867.055	5357
867.186	5311
867.317	5261
867.448	5326
867.579	5406
867.71	5376
867.841	5353
867.972	5436
868.103	5467
868.233	5463
868.364	5512
868.495	5528
868.625	5657
868.756	5767
868.886	5718
869.017	5707
869.147	5851
869.278	5813
869.408	5836
869.539	5779
869.669	5889
869.799	5908
869.929	6034
870.06	6038
870.19	6213
870.32	6216
870.45	6213
870.58	6346
870.71	6395
870.84	6467
870.97	6422
871.1	6429
871.23	6563
871.36	6722
871.489	6719
871.619	6730
871.749	6798
871.879	6875
872.008	7015
872.138	7050
872.267	7046
872.397	7004
872.526	7027
872.656	7061
872.785	7194
872.915	7400
873.044	7521
873.173	7582
873.303	7674
873.432	7753
873.561	7875
873.69	7936
873.819	8012
873.948	8176
874.077	8195
874.206	8366
874.335	8499
874.464	8579
874.593	8914
874.722	8937
874.851	9112
874.979	9211
875.108	9359
875.237	9458
875.365	9447
875.494	9652
875.623	9819
875.751	9823
875.88	9998
876.008	10150
876.136	10223
876.265	10561
876.393	10675
876.521	10649
876.65	10786
876.778	10873
876.906	10892
877.034	10953
877.162	11083
877.29	11132
877.418	11288
877.546	11402
877.674	11535
877.802	11467
877.93	11459
878.058	11520
878.185	11535
878.313	11676
878.441	11798
878.568	11657
878.696	11832
878.824	11817
878.951	11996
879.079	11992
879.206	12205
879.333	12121
879.461	11984
879.588	12064
879.715	12041
879.842	12254
879.97	12041
880.097	11866
880.224	11939
880.351	11931
880.478	11889
880.605	11912
880.732	11813
880.859	12060
880.986	11741
881.112	11897
881.239	11646
881.366	11676
881.493	11623
881.619	11646
881.746	11589
881.872	11474
881.999	11532
882.125	11505
882.252	11471
882.378	11611
882.505	11680
882.631	11402
882.757	11265
882.883	11280
883.01	11258
883.136	11105
883.262	11109
883.388	11189
883.514	11254
883.64	11242
883.766	11006
883.892	10965
884.018	10991
884.143	11121
884.269	11056
884.395	10850
884.52	10767
884.646	10755
884.772	10748
884.897	10649
885.023	10668
885.148	10683
885.274	10752
885.399	10721
885.524	10664
885.65	10664
885.775	10512
885.9	10573
886.025	10630
886.15	10500
886.275	10561
886.4	10322
886.525	10348
886.65	10382
886.775	10318
886.9	10443
887.025	10554
887.149	10356
887.274	10181
887.399	10253
887.523	10177
887.648	10143
887.773	10177
887.897	10223
888.021	10265
888.146	10143
888.27	10280
888.395	10230
888.519	10162
888.643	10147
888.767	10291
888.891	10055
889.015	10067
889.139	10051
889.263	9979
889.387	10074
889.511	10124
889.635	10086
889.759	9956
889.883	9994
890.006	9968
890.13	10048
890.254	9972
890.377	9998
890.501	9895
890.624	9842
890.748	9934
890.871	9789
890.995	9800
891.118	9679
891.241	9789
891.364	9789
891.488	9819
891.611	9705
891.734	9671
891.857	9759
891.98	9724
892.103	9709
892.226	9675
892.349	9679
892.471	9500
892.594	9618
892.717	9568
892.839	9591
892.962	9545
893.085	9694
893.207	9568
893.33	9515
893.452	9473
893.575	9564
893.697	9473
893.819	9618
893.941	9538
894.064	9614
894.186	9424
894.308	9412
894.43	9515
894.552	9557
894.674	9515
894.796	9389
894.918	9382
895.04	9382
895.161	9313
895.283	9370
895.405	9180
895.526	9245
895.648	9264
895.769	9283
895.891	9131
896.012	9291
896.134	9245
896.255	9192
896.376	9161
896.498	9157
896.619	9157
896.74	9036
896.861	9146
896.982	9218
897.103	9359
897.224	9184
897.345	9058
897.466	8906
897.587	8990
897.708	9192
897.828	9024
897.949	8906
898.07	8864
898.19	8929
898.311	9005
898.431	8902
898.552	8944
898.672	8910
898.792	8948
898.913	8918
899.033	8796
899.153	8708
899.273	8606
899.393	8708
899.513	8743
899.633	8693
899.753	8746
899.873	8629
899.993	8804
900.113	8724
900.232	8674
900.352	8667
900.472	8663
900.591	8530
900.711	8610
900.83	8610
900.95	8648
901.069	8682
901.189	8590
901.308	8415
901.427	8366
901.546	8473
901.665	8454
901.784	8560
901.904	8393
902.023	8336
902.141	8244
902.26	8199
902.379	8191
902.498	8202
902.617	8195
902.735	8298
902.854	8271
902.973	8279
903.091	8142
903.21	8142
903.328	8161
903.446	8142
903.565	8107
903.683	8115
903.801	8012
903.919	8130
904.038	8138
904.156	8062
904.274	8069
904.392	8031
904.51	8008
904.627	8027
904.745	8142
904.863	8088
904.981	7974
905.098	7887
905.216	7830
905.334	7890
905.451	8016
905.569	7898
905.686	7951
905.803	7807
905.921	7753
906.038	7871
906.155	7799
906.272	7693
906.389	7761
906.506	7613
906.623	7563
906.74	7597
906.857	7521
906.974	7620
907.091	7639
907.208	7677
907.324	7670
907.441	7575
907.557	7476
907.674	7460
907.79	7426
907.907	7438
908.023	7396
908.139	7411
908.256	7426
908.372	7365
908.488	7335
908.604	7282
908.72	7228
908.836	7259
908.952	7198
909.068	7289
909.184	7297
909.3	7236
909.415	7339
909.531	7274
909.647	7118
909.762	7152
909.878	7069
909.993	7171
910.108	7099
910.224	7141
910.339	7103
910.454	7050
910.57	7000
910.685	6916
910.8	7187
910.915	7053
911.03	7038
911.145	6935
911.259	6905
911.374	6939
911.489	6837
911.604	6833
911.718	6707
911.833	6757
911.947	6635
912.062	6612
912.176	6696
912.291	6703
912.405	6703
912.519	6863
912.633	6806
912.748	6711
912.862	6650
912.976	6620
913.09	6517
913.204	6604
913.318	6623
913.431	6616
913.545	6669
913.659	6726
913.772	6612
913.886	6555
914	6563
914.113	6654
914.226	6677
914.34	6631
914.453	6494
914.566	6646
914.68	6517
914.793	6551
914.906	6422
915.019	6380
915.132	6361
915.245	6460
915.358	6395
915.47	6437
915.583	6498
915.696	6422
915.809	6502
915.921	6521
916.034	6460
916.146	6384
916.259	6380
916.371	6483
916.483	6437
916.595	6414
916.708	6410
916.82	6357
916.932	6357
917.044	6418
917.156	6350
917.268	6338
917.38	6342
917.491	6380
917.603	6300
917.715	6407
917.826	6422
917.938	6315
918.049	6254
918.161	6300
918.272	6422
918.384	6471
918.495	6357
918.606	6289
918.717	6194
918.828	6258
918.939	6289
919.05	6239
919.161	6216
919.272	6129
919.383	6182
919.494	6289
919.604	6433
919.715	6304
919.826	6205
919.936	6216
920.047	6311
920.157	6292
920.267	6471
920.378	6353
920.488	6285
920.598	6456
920.708	6547
920.818	6433
920.928	6437
921.038	6642
921.148	6525
921.258	6361
921.368	6365
921.477	6251
921.587	6228
921.697	6068
921.806	6152
921.916	6026
922.025	5935
922.134	5908
922.244	5893
922.353	5946
922.462	5897
922.571	5802
922.68	5695
922.789	5672
922.898	5699
923.007	5665
923.116	5741
923.224	5699
923.333	5665
923.442	5611
923.55	5547
923.659	5570
923.767	5585
923.876	5539
923.984	5615
924.092	5509
924.201	5539
924.309	5585
924.417	5615
924.525	5459
924.633	5493
924.741	6205
924.849	5398
924.956	5516
925.064	5326
925.172	5292
925.279	5326
925.387	5322
925.494	5349
925.602	5410
925.709	5406
925.816	5273
925.924	5315
926.031	5330
926.138	5280
926.245	5353
926.352	5197
926.459	5318
926.566	5299
926.673	5189
926.779	5181
926.886	5140
926.993	5029
927.099	5018
927.206	4980
927.312	4987
927.419	5029
927.525	4942
927.631	4976
927.737	4873
927.843	4877
927.95	4854
928.056	4843
928.162	4858
928.267	4889
928.373	5387
928.479	4850
928.585	4660
928.69	4771
928.796	4767
928.901	4656
929.007	4660
929.112	4679
929.218	4626
929.323	4569
929.428	4596
929.533	4626
929.638	4493
929.743	4535
929.848	4558
929.953	4569
930.058	4424
930.163	4348
930.267	4344
930.372	4432
930.477	4287
930.581	4459
930.685	4363
930.79	4227
930.894	4287
930.998	4249
931.103	4341
931.207	4124
931.311	4105
931.415	4021
931.519	3892
931.623	3907
