Data from glass_V78500241_2170.txt Node
Date: Wed Sep 01 19:29:32 CST 2021
User: usil
Spectrometer: V785-0024
Trigger mode: 0
Integration Time (sec): 4.000000E-1
Scans to average: 1
Nonlinearity correction enabled: false
Boxcar width: 0
Storing dark spectrum: false
XAxis mode: Wavelengths
Number of Pixels in Spectrum: 1024
>>>>>Begin Spectral Data<<<<<
801.071	3717
801.214	3701
801.356	3724
801.499	3736
801.641	3709
801.783	3755
801.926	3869
802.068	3785
802.211	3846
802.353	3857
802.496	3823
802.638	3888
802.78	3896
802.923	3911
803.065	3915
803.208	3850
803.35	3865
803.492	3876
803.635	3907
803.777	3804
803.919	3884
804.061	4143
804.204	3945
804.346	3934
804.488	3953
804.63	3998
804.773	4002
804.915	3987
805.057	4109
805.199	4032
805.341	4093
805.483	4154
805.626	4131
805.768	4120
805.91	4230
806.052	4223
806.194	4234
806.336	4337
806.478	4227
806.62	4147
806.762	4204
806.904	4215
807.046	4356
807.188	4249
807.33	4192
807.472	4242
807.614	4158
807.756	4284
807.898	4147
808.04	4242
808.182	4253
808.324	4325
808.465	4371
808.607	4470
808.749	4459
808.891	4447
809.033	4424
809.174	4371
809.316	4249
809.458	4246
809.6	4166
809.741	4147
809.883	4154
810.025	4192
810.166	4257
810.308	4192
810.45	4204
810.591	4192
810.733	4314
810.875	4500
811.016	4812
811.158	5090
811.299	5273
811.441	5299
811.582	5098
811.724	4717
811.865	4424
812.007	4455
812.148	4447
812.29	4402
812.431	4428
812.573	4405
812.714	4356
812.855	4428
812.997	4447
813.138	4485
813.279	4402
813.421	4383
813.562	4352
813.703	4306
813.845	4333
813.986	4284
814.127	4223
814.268	4230
814.41	4284
814.551	4249
814.692	4291
814.833	4242
814.974	4310
815.115	4322
815.256	4215
815.397	4204
815.539	4287
815.68	4169
815.821	4207
815.962	4299
816.103	4295
816.244	4230
816.385	4253
816.526	4246
816.666	4188
816.807	4078
816.948	4185
817.089	4200
817.23	4105
817.371	4051
817.512	4029
817.653	4074
817.793	4006
817.934	4021
818.075	4101
818.216	4082
818.356	4063
818.497	3998
818.638	3934
818.778	3922
818.919	3880
819.06	3857
819.2	3876
819.341	3869
819.481	3823
819.622	3884
819.762	3956
819.903	3945
820.043	3869
820.184	3812
820.324	3804
820.465	3873
820.605	3823
820.746	3816
820.886	3770
821.026	3930
821.167	3899
821.307	3926
821.447	3937
821.588	3968
821.728	3941
821.868	3937
822.008	3854
822.149	3930
822.289	3926
822.429	3774
822.569	3717
822.709	3793
822.849	3682
822.99	3686
823.13	3701
823.27	3755
823.41	3705
823.55	3709
823.69	3728
823.83	3724
823.97	3720
824.11	3606
824.25	3606
824.389	3656
824.529	3667
824.669	3644
824.809	3648
824.949	3736
825.089	3728
825.228	3686
825.368	3591
825.508	3542
825.648	3572
825.787	3606
825.927	3637
826.067	3584
826.206	3629
826.346	3774
826.485	3835
826.625	3915
826.765	3922
826.904	3831
827.044	3564
827.183	3492
827.323	3466
827.462	3511
827.601	3405
827.741	3447
827.88	3469
828.02	3355
828.159	3454
828.298	3492
828.437	3534
828.577	3447
828.716	3610
828.855	3492
828.994	3351
829.134	3348
829.273	3378
829.412	3351
829.551	3329
829.69	3363
829.829	3416
829.968	3481
830.107	3450
830.246	3428
830.385	3348
830.524	3351
830.663	3325
830.802	3249
830.941	3184
831.08	3192
831.219	3226
831.357	3253
831.496	3359
831.635	3218
831.774	3184
831.913	3192
832.051	3131
832.19	3161
832.329	3192
832.467	3135
832.606	3138
832.744	3161
832.883	3173
833.022	3161
833.16	3241
833.299	3260
833.437	3332
833.576	3393
833.714	3367
833.852	3447
833.991	3488
834.129	3469
834.267	3435
834.406	3401
834.544	3439
834.682	3412
834.821	3393
834.959	3553
835.097	3431
835.235	3534
835.373	3481
835.511	3504
835.65	3469
835.788	3462
835.926	3386
836.064	3348
836.202	3363
836.34	3519
836.478	3595
836.615	3553
836.753	3564
836.891	3606
837.029	3629
837.167	3599
837.305	3492
837.443	3557
837.58	3492
837.718	3606
837.856	3564
837.993	3584
838.131	3553
838.269	3580
838.406	3580
838.544	3629
838.681	3477
838.819	3458
838.956	3336
839.094	3363
839.231	3450
839.369	3507
839.506	3736
839.643	3629
839.781	3488
839.918	3466
840.055	3496
840.193	3530
840.33	3549
840.467	3538
840.604	3591
840.742	3793
840.879	3538
841.016	3561
841.153	3576
841.29	3694
841.427	3717
841.564	3713
841.701	3701
841.838	3682
841.975	3652
842.112	3713
842.249	3629
842.385	3603
842.522	3846
842.659	3667
842.796	3625
842.933	3694
843.069	3675
843.206	3705
843.343	3789
843.479	3778
843.616	3823
843.752	3663
843.889	3679
844.025	3842
844.162	3755
844.298	3861
844.435	3751
844.571	3770
844.708	3960
844.844	3983
844.98	4006
845.117	3979
845.253	3915
845.389	3857
845.525	3968
845.661	3968
845.798	3930
845.934	3972
846.07	3926
846.206	4029
846.342	4093
846.478	4078
846.614	3930
846.75	3911
846.886	3876
847.022	4036
847.158	4006
847.294	3960
847.429	4055
847.565	3972
847.701	4227
847.837	3899
847.972	3880
848.108	4002
848.244	3975
848.379	3876
848.515	3797
848.65	3831
848.786	3827
848.921	3838
849.057	3956
849.192	3888
849.328	3888
849.463	3941
849.598	3861
849.734	3884
849.869	3823
850.004	3762
850.14	3808
850.275	3781
850.41	3736
850.545	3732
850.68	3732
850.815	3789
850.95	3785
851.085	3880
851.22	3888
851.355	3819
851.49	3781
851.625	3762
851.76	3831
851.895	3743
852.03	3747
852.165	3819
852.299	3831
852.434	3934
852.569	3880
852.703	3857
852.838	3854
852.973	4010
853.107	3960
853.242	3884
853.376	3854
853.511	3781
853.645	3857
853.78	3998
853.914	3915
854.048	3884
854.183	3857
854.317	3998
854.451	4063
854.585	3960
854.72	3922
854.854	4067
854.988	3949
855.122	3983
855.256	3918
855.39	4006
855.524	4154
855.658	4143
855.792	4082
855.926	4090
856.06	4147
856.194	4196
856.327	4105
856.461	4097
856.595	4143
856.729	4185
856.862	4295
856.996	4215
857.13	4284
857.263	4310
857.397	4329
857.53	4249
857.664	4325
857.797	4394
857.931	4413
858.064	4367
858.197	4436
858.331	4424
858.464	4398
858.597	4337
858.731	4447
858.864	4462
858.997	4440
859.13	4546
859.263	4550
859.396	4561
859.529	4538
859.662	4481
859.795	4508
859.928	4622
860.061	4664
860.194	4729
860.327	4622
860.46	4615
860.592	4759
860.725	4736
860.858	4801
860.99	4714
861.123	4622
861.256	4714
861.388	4767
861.521	5402
861.653	4755
861.786	4664
861.918	4736
862.05	4767
862.183	4824
862.315	4900
862.447	4957
862.58	4915
862.712	4816
862.844	4755
862.976	4858
863.108	4866
863.24	5132
863.372	4881
863.504	4904
863.636	4900
863.768	4984
863.9	4987
864.032	4862
864.164	4911
864.296	5006
864.428	5098
864.559	5132
864.691	5105
864.823	5067
864.954	5151
865.086	5083
865.217	5071
865.349	5117
865.48	5189
865.612	5239
865.743	5280
865.875	5162
866.006	5189
866.137	5235
866.269	5250
866.4	5193
866.531	5242
866.662	5185
866.793	5246
866.924	5204
867.055	5337
867.186	5360
867.317	5303
867.448	5315
867.579	5353
867.71	5337
867.841	5406
867.972	5474
868.103	5421
868.233	5463
868.364	5509
868.495	5528
868.625	5695
868.756	5836
868.886	5653
869.017	5756
869.147	5790
869.278	5832
869.408	5832
869.539	5844
869.669	5885
869.799	5965
869.929	5958
870.06	6045
870.19	6159
870.32	6220
870.45	6205
870.58	6338
870.71	6441
870.84	6399
870.97	6464
871.1	6372
871.23	6604
871.36	6566
871.489	6646
871.619	6776
871.749	6825
871.879	6875
872.008	6951
872.138	6924
872.267	7019
872.397	7019
872.526	7000
872.656	7114
872.785	7244
872.915	7396
873.044	7556
873.173	7544
873.303	7609
873.432	7765
873.561	7849
873.69	7936
873.819	8016
873.948	8199
874.077	8229
874.206	8366
874.335	8473
874.464	8659
874.593	8845
874.722	8895
874.851	9135
874.979	9279
875.108	9397
875.237	9504
875.365	9466
875.494	9584
875.623	9812
875.751	9797
875.88	9937
876.008	10147
876.136	10276
876.265	10478
876.393	10694
876.521	10611
876.65	10790
876.778	10835
876.906	10896
877.034	10987
877.162	11037
877.29	11174
877.418	11349
877.546	11349
877.674	11452
877.802	11444
877.93	11493
878.058	11467
878.185	11512
878.313	11718
878.441	11699
878.568	11653
878.696	11760
878.824	11817
878.951	11893
879.079	11931
879.206	12098
879.333	12015
879.461	11999
879.588	12068
879.715	12030
879.842	12273
879.97	12053
880.097	11893
880.224	11882
880.351	11859
880.478	11935
880.605	11813
880.732	11748
880.859	11946
880.986	11828
881.112	11863
881.239	11821
881.366	11718
881.493	11630
881.619	11486
881.746	11611
881.872	11501
881.999	11455
882.125	11482
882.252	11524
882.378	11528
882.505	11547
882.631	11341
882.757	11299
882.883	11261
883.01	11250
883.136	11178
883.262	11132
883.388	11045
883.514	11193
883.64	11159
883.766	11045
883.892	11006
884.018	10961
884.143	11113
884.269	11067
884.395	10820
884.52	10793
884.646	10790
884.772	10717
884.897	10641
885.023	10656
885.148	10771
885.274	10729
885.399	10714
885.524	10664
885.65	10584
885.775	10565
885.9	10508
886.025	10565
886.15	10516
886.275	10455
886.4	10405
886.525	10390
886.65	10428
886.775	10325
886.9	10424
887.025	10584
887.149	10329
887.274	10219
887.399	10154
887.523	10158
887.648	10105
887.773	10071
887.897	10192
888.021	10177
888.146	10116
888.27	10196
888.395	10185
888.519	10177
888.643	10177
888.767	10204
888.891	10188
889.015	10078
889.139	10006
889.263	9873
889.387	10048
889.511	10071
889.635	10006
889.759	9918
889.883	9956
890.006	9922
890.13	10173
890.254	10002
890.377	9975
890.501	9865
890.624	9857
890.748	9865
890.871	9743
890.995	9789
891.118	9774
891.241	9736
891.364	9720
891.488	9781
891.611	9732
891.734	9686
891.857	9751
891.98	9808
892.103	9743
892.226	9686
892.349	9637
892.471	9458
892.594	9637
892.717	9618
892.839	9587
892.962	9629
893.085	9641
893.207	9587
893.33	9435
893.452	9568
893.575	9591
893.697	9469
893.819	9591
893.941	9587
894.064	9538
894.186	9481
894.308	9382
894.43	9542
894.552	9622
894.674	9431
894.796	9332
894.918	9382
895.04	9348
895.161	9302
895.283	9363
895.405	9214
895.526	9249
895.648	9195
895.769	9211
895.891	9249
896.012	9230
896.134	9184
896.255	9142
896.376	9142
896.498	9138
896.619	9093
896.74	9058
896.861	9077
896.982	9272
897.103	9150
897.224	9161
897.345	9066
897.466	8994
897.587	9062
897.708	9081
897.828	9032
897.949	8982
898.07	8883
898.19	8906
898.311	8990
898.431	8899
898.552	8921
898.672	8986
898.792	8975
898.913	8944
899.033	8773
899.153	8724
899.273	8655
899.393	8686
899.513	8689
899.633	8705
899.753	8716
899.873	8781
899.993	8739
900.113	8693
900.232	8788
900.352	8716
900.472	8590
900.591	8545
900.711	8579
900.83	8575
900.95	8678
901.069	8705
901.189	8533
901.308	8473
901.427	8389
901.546	8450
901.665	8431
901.784	8530
901.904	8336
902.023	8419
902.141	8271
902.26	8145
902.379	8275
902.498	8282
902.617	8221
902.735	8343
902.854	8328
902.973	8275
903.091	8130
903.21	8157
903.328	8164
903.446	8103
903.565	8020
903.683	8092
903.801	8084
903.919	8149
904.038	8115
904.156	8035
904.274	8073
904.392	8046
904.51	8062
904.627	8050
904.745	8084
904.863	8111
904.981	7978
905.098	7826
905.216	7875
905.334	7909
905.451	7913
905.569	7849
905.686	7849
905.803	7868
905.921	7822
906.038	7887
906.155	7807
906.272	7681
906.389	7742
906.506	7616
906.623	7594
906.74	7632
906.857	7582
906.974	7578
907.091	7651
907.208	7651
907.324	7601
907.441	7552
907.557	7460
907.674	7392
907.79	7438
907.907	7449
908.023	7396
908.139	7407
908.256	7358
908.372	7396
908.488	7346
908.604	7247
908.72	7236
908.836	7297
908.952	7236
909.068	7221
909.184	7278
909.3	7266
909.415	7232
909.531	7297
909.647	7141
909.762	7084
909.878	7122
909.993	7114
910.108	7088
910.224	7072
910.339	7076
910.454	7019
910.57	6985
910.685	6886
910.8	7217
910.915	7065
911.03	7031
911.145	6871
911.259	6905
911.374	6852
911.489	6802
911.604	6821
911.718	6738
911.833	6719
911.947	6635
912.062	6620
912.176	6665
912.291	6715
912.405	6726
912.519	6825
912.633	6783
912.748	6741
912.862	6707
912.976	6559
913.09	6563
913.204	6570
913.318	6612
913.431	6646
913.545	6707
913.659	6700
913.772	6654
913.886	6540
914	6494
914.113	6658
914.226	6639
914.34	6601
914.453	6483
914.566	6574
914.68	6513
914.793	6555
914.906	6467
915.019	6380
915.132	6369
915.245	6414
915.358	6486
915.47	6441
915.583	6414
915.696	6486
915.809	6509
915.921	6544
916.034	6357
916.146	6407
916.259	6376
916.371	6426
916.483	6369
916.595	6414
916.708	6399
916.82	6407
916.932	6376
917.044	6380
917.156	6346
917.268	6350
917.38	6289
917.491	6334
917.603	6395
917.715	6369
917.826	6410
917.938	6304
918.049	6289
918.161	6338
918.272	6433
918.384	6433
918.495	6369
918.606	6258
918.717	6232
918.828	6258
918.939	6247
919.05	6209
919.161	6262
919.272	6167
919.383	6186
919.494	6323
919.604	6391
919.715	6258
919.826	6201
919.936	6232
920.047	6266
920.157	6304
920.267	6471
920.378	6319
920.488	6304
920.598	6460
920.708	6566
920.818	6498
920.928	6388
921.038	6593
921.148	6585
921.258	6338
921.368	6285
921.477	6194
921.587	6194
921.697	6064
921.806	6152
921.916	6083
922.025	5927
922.134	5950
922.244	5885
922.353	5980
922.462	5851
922.571	5775
922.68	5653
922.789	5703
922.898	5684
923.007	5615
923.116	5760
923.224	5676
923.333	5699
923.442	5551
923.55	5589
923.659	5554
923.767	5649
923.876	5566
923.984	5585
924.092	5528
924.201	5554
924.309	5547
924.417	5558
924.525	5497
924.633	5512
924.741	6296
924.849	5376
924.956	5471
925.064	5322
925.172	5315
925.279	5284
925.387	5330
925.494	5326
925.602	5406
925.709	5379
925.816	5280
925.924	5288
926.031	5292
926.138	5303
926.245	5353
926.352	5197
926.459	5284
926.566	5311
926.673	5201
926.779	5136
926.886	5094
926.993	5014
927.099	5014
927.206	4949
927.312	4991
927.419	4999
927.525	4965
927.631	4965
927.737	4889
927.843	4870
927.95	4778
928.056	4858
928.162	4850
928.267	4854
928.373	5330
928.479	4828
928.585	4634
928.69	4797
928.796	4774
928.901	4698
929.007	4573
929.112	4683
929.218	4641
929.323	4592
929.428	4558
929.533	4630
929.638	4489
929.743	4508
929.848	4531
929.953	4508
930.058	4436
930.163	4344
930.267	4367
930.372	4424
930.477	4276
930.581	4497
930.685	4344
930.79	4265
930.894	4280
930.998	4238
931.103	4394
931.207	4131
931.311	4090
931.415	4059
931.519	3892
931.623	3953
