Data from glass_V78500241_275.txt Node
Date: Wed Sep 01 19:16:24 CST 2021
User: usil
Spectrometer: V785-0024
Trigger mode: 0
Integration Time (sec): 4.000000E-1
Scans to average: 1
Nonlinearity correction enabled: false
Boxcar width: 0
Storing dark spectrum: false
XAxis mode: Wavelengths
Number of Pixels in Spectrum: 1024
>>>>>Begin Spectral Data<<<<<
801.071	3762
801.214	3785
801.356	3736
801.499	3774
801.641	3755
801.783	3819
801.926	3880
802.068	3873
802.211	3812
802.353	3953
802.496	3903
802.638	3903
802.78	3918
802.923	3899
803.065	3915
803.208	3857
803.35	3922
803.492	3911
803.635	3899
803.777	3827
803.919	3934
804.061	4162
804.204	3941
804.346	3975
804.488	3941
804.63	4044
804.773	3994
804.915	4074
805.057	4116
805.199	4067
805.341	4090
805.483	4173
805.626	4154
805.768	4162
805.91	4227
806.052	4230
806.194	4181
806.336	4390
806.478	4215
806.62	4215
806.762	4192
806.904	4276
807.046	4333
807.188	4219
807.33	4177
807.472	4268
807.614	4162
807.756	4287
807.898	4211
808.04	4230
808.182	4291
808.324	4333
808.465	4440
808.607	4455
808.749	4512
808.891	4440
809.033	4489
809.174	4398
809.316	4280
809.458	4227
809.6	4188
809.741	4185
809.883	4135
810.025	4223
810.166	4253
810.308	4227
810.45	4204
810.591	4249
810.733	4337
810.875	4569
811.016	4847
811.158	5136
811.299	5307
811.441	5269
811.582	5052
811.724	4721
811.865	4519
812.007	4432
812.148	4481
812.29	4402
812.431	4440
812.573	4379
812.714	4367
812.855	4481
812.997	4428
813.138	4497
813.279	4443
813.421	4413
813.562	4383
813.703	4295
813.845	4352
813.986	4268
814.127	4223
814.268	4268
814.41	4291
814.551	4322
814.692	4329
814.833	4253
814.974	4310
815.115	4352
815.256	4230
815.397	4242
815.539	4284
815.68	4227
815.821	4230
815.962	4344
816.103	4329
816.244	4223
816.385	4238
816.526	4268
816.666	4215
816.807	4131
816.948	4143
817.089	4211
817.23	4154
817.371	4086
817.512	4013
817.653	4074
817.793	4013
817.934	4074
818.075	4071
818.216	4086
818.356	4078
818.497	4032
818.638	3903
818.778	3968
818.919	3896
819.06	3896
819.2	3941
819.341	3850
819.481	3880
819.622	3911
819.762	4025
819.903	3934
820.043	3846
820.184	3827
820.324	3804
820.465	3880
820.605	3861
820.746	3876
820.886	3781
821.026	3956
821.167	3930
821.307	3991
821.447	4029
821.588	3979
821.728	3987
821.868	4006
822.008	3892
822.149	3945
822.289	3918
822.429	3816
822.569	3800
822.709	3789
822.849	3694
822.99	3698
823.13	3808
823.27	3747
823.41	3732
823.55	3778
823.69	3759
823.83	3732
823.97	3720
824.11	3648
824.25	3614
824.389	3663
824.529	3644
824.669	3641
824.809	3682
824.949	3781
825.089	3736
825.228	3717
825.368	3603
825.508	3511
825.648	3603
825.787	3576
825.927	3679
826.067	3633
826.206	3648
826.346	3797
826.485	3888
826.625	3873
826.765	3960
826.904	3861
827.044	3625
827.183	3526
827.323	3424
827.462	3496
827.601	3454
827.741	3450
827.88	3492
828.02	3420
828.159	3439
828.298	3515
828.437	3564
828.577	3477
828.716	3622
828.855	3496
828.994	3428
829.134	3389
829.273	3447
829.412	3340
829.551	3359
829.69	3386
829.829	3447
829.968	3561
830.107	3450
830.246	3473
830.385	3386
830.524	3397
830.663	3329
830.802	3264
830.941	3211
831.08	3237
831.219	3260
831.357	3268
831.496	3424
831.635	3237
831.774	3180
831.913	3260
832.051	3176
832.19	3176
832.329	3253
832.467	3150
832.606	3097
832.744	3207
832.883	3184
833.022	3146
833.16	3268
833.299	3313
833.437	3351
833.576	3397
833.714	3405
833.852	3420
833.991	3435
834.129	3466
834.267	3481
834.406	3420
834.544	3431
834.682	3424
834.821	3458
834.959	3599
835.097	3428
835.235	3572
835.373	3496
835.511	3511
835.65	3485
835.788	3523
835.926	3382
836.064	3439
836.202	3462
836.34	3603
836.478	3625
836.615	3553
836.753	3587
836.891	3633
837.029	3652
837.167	3606
837.305	3599
837.443	3561
837.58	3507
837.718	3618
837.856	3545
837.993	3504
838.131	3610
838.269	3595
838.406	3614
838.544	3568
838.681	3447
838.819	3443
838.956	3397
839.094	3431
839.231	3481
839.369	3526
839.506	3732
839.643	3660
839.781	3473
839.918	3481
840.055	3523
840.193	3549
840.33	3553
840.467	3587
840.604	3625
840.742	3831
840.879	3545
841.016	3576
841.153	3591
841.29	3774
841.427	3740
841.564	3743
841.701	3766
841.838	3701
841.975	3713
842.112	3709
842.249	3671
842.385	3663
842.522	3842
842.659	3724
842.796	3698
842.933	3720
843.069	3701
843.206	3759
843.343	3854
843.479	3793
843.616	3850
843.752	3701
843.889	3736
844.025	3857
844.162	3682
844.298	3873
844.435	3857
844.571	3770
844.708	3926
844.844	3994
844.98	4036
845.117	4002
845.253	3896
845.389	3842
845.525	3953
845.661	3983
845.798	3956
845.934	3998
846.07	3968
846.206	4093
846.342	4131
846.478	4086
846.614	3964
846.75	3930
846.886	3941
847.022	4105
847.158	3968
847.294	4021
847.429	4051
847.565	4013
847.701	4192
847.837	3934
847.972	3884
848.108	3991
848.244	4013
848.379	3869
848.515	3850
848.65	3861
848.786	3861
848.921	3857
849.057	3949
849.192	3979
849.328	3945
849.463	3926
849.598	3907
849.734	3861
849.869	3842
850.004	3827
850.14	3846
850.275	3797
850.41	3766
850.545	3789
850.68	3835
850.815	3812
850.95	3816
851.085	3960
851.22	3812
851.355	3838
851.49	3850
851.625	3759
851.76	3800
851.895	3713
852.03	3781
852.165	3785
852.299	3861
852.434	3934
852.569	3876
852.703	3876
852.838	3953
852.973	4036
853.107	3979
853.242	3903
853.376	3865
853.511	3778
853.645	3850
853.78	3998
853.914	3941
854.048	3899
854.183	3918
854.317	4002
854.451	4093
854.585	3960
854.72	3945
854.854	4017
854.988	3918
855.122	4002
855.256	3907
855.39	4078
855.524	4128
855.658	4097
855.792	4143
855.926	4158
856.06	4196
856.194	4215
856.327	4150
856.461	4112
856.595	4169
856.729	4200
856.862	4253
856.996	4272
857.13	4291
857.263	4318
857.397	4344
857.53	4314
857.664	4360
857.797	4451
857.931	4398
858.064	4405
858.197	4421
858.331	4386
858.464	4394
858.597	4390
858.731	4424
858.864	4443
858.997	4462
859.13	4546
859.263	4554
859.396	4573
859.529	4508
859.662	4573
859.795	4558
859.928	4618
860.061	4687
860.194	4717
860.327	4675
860.46	4664
860.592	4687
860.725	4801
860.858	4809
860.99	4759
861.123	4710
861.256	4733
861.388	4771
861.521	5334
861.653	4771
861.786	4714
861.918	4767
862.05	4850
862.183	4850
862.315	4892
862.447	4946
862.58	4900
862.712	4820
862.844	4767
862.976	4862
863.108	4915
863.24	5345
863.372	4866
863.504	4946
863.636	4949
863.768	5018
863.9	4953
864.032	4949
864.164	4946
864.296	5083
864.428	5094
864.559	5124
864.691	5136
864.823	5117
864.954	5098
865.086	5174
865.217	5166
865.349	5075
865.48	5132
865.612	5155
865.743	5299
865.875	5185
866.006	5193
866.137	5250
866.269	5273
866.4	5315
866.531	5223
866.662	5212
866.793	5269
866.924	5303
867.055	5376
867.186	5379
867.317	5337
867.448	5311
867.579	5372
867.71	5383
867.841	5452
867.972	5474
868.103	5501
868.233	5543
868.364	5524
868.495	5585
868.625	5653
868.756	5874
868.886	5695
869.017	5741
869.147	5882
869.278	5874
869.408	5847
869.539	5809
869.669	5897
869.799	5912
869.929	6007
870.06	5973
870.19	6190
870.32	6224
870.45	6273
870.58	6350
870.71	6471
870.84	6475
870.97	6456
871.1	6441
871.23	6570
871.36	6707
871.489	6662
871.619	6795
871.749	6852
871.879	6901
872.008	6966
872.138	6981
872.267	7057
872.397	7080
872.526	7031
872.656	7164
872.785	7175
872.915	7419
873.044	7537
873.173	7590
873.303	7704
873.432	7772
873.561	7936
873.69	7887
873.819	7978
873.948	8191
874.077	8267
874.206	8320
874.335	8412
874.464	8644
874.593	8891
874.722	8933
874.851	9169
874.979	9222
875.108	9374
875.237	9431
875.365	9492
875.494	9671
875.623	9838
875.751	9808
875.88	10067
876.008	10166
876.136	10386
876.265	10462
876.393	10679
876.521	10645
876.65	10831
876.778	10877
876.906	10873
877.034	10965
877.162	11086
877.29	11109
877.418	11250
877.546	11417
877.674	11444
877.802	11463
877.93	11596
878.058	11562
878.185	11619
878.313	11634
878.441	11714
878.568	11672
878.696	11756
878.824	11813
878.951	11931
879.079	12057
879.206	12098
879.333	12133
879.461	12026
879.588	12194
879.715	12125
879.842	12197
879.97	12022
880.097	11863
880.224	11901
880.351	11885
880.478	11916
880.605	11870
880.732	11935
880.859	11973
880.986	11790
881.112	11817
881.239	11798
881.366	11684
881.493	11623
881.619	11596
881.746	11570
881.872	11581
881.999	11501
882.125	11501
882.252	11524
882.378	11486
882.505	11608
882.631	11395
882.757	11258
882.883	11311
883.01	11269
883.136	11216
883.262	11124
883.388	11151
883.514	11212
883.64	11121
883.766	11117
883.892	11045
884.018	10987
884.143	11075
884.269	11098
884.395	10831
884.52	10763
884.646	10873
884.772	10717
884.897	10683
885.023	10656
885.148	10729
885.274	10721
885.399	10691
885.524	10611
885.65	10527
885.775	10622
885.9	10592
886.025	10675
886.15	10542
886.275	10440
886.4	10382
886.525	10443
886.65	10432
886.775	10367
886.9	10478
887.025	10550
887.149	10356
887.274	10268
887.399	10192
887.523	10181
887.648	10158
887.773	10139
887.897	10257
888.021	10249
888.146	10166
888.27	10211
888.395	10249
888.519	10166
888.643	10181
888.767	10185
888.891	10093
889.015	10067
889.139	10109
889.263	9964
889.387	10074
889.511	10147
889.635	10135
889.759	9975
889.883	9937
890.006	9968
890.13	10158
890.254	9998
890.377	10010
890.501	9842
890.624	9857
890.748	9918
890.871	9781
890.995	9732
891.118	9671
891.241	9789
891.364	9812
891.488	9827
891.611	9747
891.734	9701
891.857	9812
891.98	9732
892.103	9747
892.226	9701
892.349	9686
892.471	9519
892.594	9557
892.717	9644
892.839	9580
892.962	9584
893.085	9679
893.207	9549
893.33	9526
893.452	9542
893.575	9591
893.697	9549
893.819	9595
893.941	9625
894.064	9576
894.186	9443
894.308	9462
894.43	9500
894.552	9538
894.674	9530
894.796	9348
894.918	9416
895.04	9378
895.161	9351
895.283	9287
895.405	9279
895.526	9291
895.648	9291
895.769	9249
895.891	9256
896.012	9283
896.134	9245
896.255	9184
896.376	9154
896.498	9184
896.619	9146
896.74	9017
896.861	9077
896.982	9245
897.103	9302
897.224	9165
897.345	9077
897.466	9032
897.587	9074
897.708	8994
897.828	9070
897.949	8975
898.07	8773
898.19	8948
898.311	9051
898.431	8880
898.552	8960
898.672	8918
898.792	8960
898.913	8929
899.033	8758
899.153	8727
899.273	8705
899.393	8743
899.513	8796
899.633	8788
899.753	8697
899.873	8636
899.993	8819
900.113	8648
900.232	8834
900.352	8590
900.472	8590
900.591	8568
900.711	8594
900.83	8629
900.95	8640
901.069	8712
901.189	8568
901.308	8419
901.427	8423
901.546	8442
901.665	8469
901.784	8545
901.904	8358
902.023	8393
902.141	8271
902.26	8233
902.379	8336
902.498	8172
902.617	8161
902.735	8309
902.854	8282
902.973	8248
903.091	8172
903.21	8176
903.328	8119
903.446	8195
903.565	8130
903.683	8073
903.801	8035
903.919	8123
904.038	8149
904.156	8043
904.274	8103
904.392	8081
904.51	8123
904.627	8077
904.745	8103
904.863	8111
904.981	7944
905.098	7913
905.216	7879
905.334	7913
905.451	7970
905.569	7898
905.686	7925
905.803	7906
905.921	7811
906.038	7913
906.155	7822
906.272	7704
906.389	7746
906.506	7696
906.623	7662
906.74	7651
906.857	7559
906.974	7571
907.091	7708
907.208	7708
907.324	7586
907.441	7597
907.557	7502
907.674	7419
907.79	7400
907.907	7430
908.023	7472
908.139	7403
908.256	7327
908.372	7369
908.488	7392
908.604	7301
908.72	7194
908.836	7270
908.952	7266
909.068	7282
909.184	7285
909.3	7297
909.415	7263
909.531	7305
909.647	7179
909.762	7145
909.878	7126
909.993	7137
910.108	7103
910.224	7038
910.339	7103
910.454	7072
910.57	6973
910.685	6981
910.8	7190
910.915	7088
911.03	7004
911.145	6894
911.259	6882
911.374	6928
911.489	6825
911.604	6707
911.718	6715
911.833	6738
911.947	6692
912.062	6566
912.176	6719
912.291	6726
912.405	6696
912.519	6867
912.633	6844
912.748	6768
912.862	6703
912.976	6665
913.09	6593
913.204	6631
913.318	6665
913.431	6665
913.545	6722
913.659	6703
913.772	6700
913.886	6623
914	6566
914.113	6658
914.226	6646
914.34	6547
914.453	6547
914.566	6620
914.68	6502
914.793	6521
914.906	6376
915.019	6464
915.132	6353
915.245	6391
915.358	6456
915.47	6486
915.583	6483
915.696	6445
915.809	6585
915.921	6574
916.034	6410
916.146	6422
916.259	6467
916.371	6479
916.483	6471
916.595	6361
916.708	6464
916.82	6403
916.932	6464
917.044	6361
917.156	6346
917.268	6342
917.38	6327
917.491	6372
917.603	6384
917.715	6399
917.826	6429
917.938	6311
918.049	6266
918.161	6380
918.272	6376
918.384	6429
918.495	6403
918.606	6304
918.717	6254
918.828	6296
918.939	6292
919.05	6235
919.161	6232
919.272	6114
919.383	6121
919.494	6334
919.604	6418
919.715	6285
919.826	6216
919.936	6281
920.047	6327
920.157	6334
920.267	6445
920.378	6353
920.488	6304
920.598	6475
920.708	6555
920.818	6525
920.928	6475
921.038	6601
921.148	6509
921.258	6334
921.368	6327
921.477	6201
921.587	6194
921.697	6041
921.806	6121
921.916	6079
922.025	5939
922.134	5954
922.244	5855
922.353	5931
922.462	5840
922.571	5821
922.68	5714
922.789	5703
922.898	5760
923.007	5710
923.116	5726
923.224	5680
923.333	5676
923.442	5649
923.55	5562
923.659	5566
923.767	5657
923.876	5505
923.984	5623
924.092	5554
924.201	5562
924.309	5600
924.417	5619
924.525	5516
924.633	5520
924.741	6315
924.849	5311
924.956	5459
925.064	5429
925.172	5315
925.279	5288
925.387	5360
925.494	5334
925.602	5425
925.709	5376
925.816	5311
925.924	5372
926.031	5360
926.138	5296
926.245	5353
926.352	5292
926.459	5307
926.566	5383
926.673	5273
926.779	5159
926.886	5136
926.993	5052
927.099	4980
927.206	4995
927.312	4957
927.419	5010
927.525	5071
927.631	4999
927.737	4877
927.843	4858
927.95	4786
928.056	4858
928.162	4843
928.267	4866
928.373	5288
928.479	4911
928.585	4679
928.69	4809
928.796	4812
928.901	4687
929.007	4611
929.112	4706
929.218	4645
929.323	4626
929.428	4622
929.533	4691
929.638	4504
929.743	4550
929.848	4519
929.953	4565
930.058	4440
930.163	4310
930.267	4314
930.372	4447
930.477	4291
930.581	4474
930.685	4402
930.79	4265
930.894	4284
930.998	4261
931.103	4405
931.207	4135
931.311	4101
931.415	4036
931.519	3915
931.623	3945
