Data from glass_V78500241_1756.txt Node
Date: Wed Sep 01 19:26:40 CST 2021
User: usil
Spectrometer: V785-0024
Trigger mode: 0
Integration Time (sec): 4.000000E-1
Scans to average: 1
Nonlinearity correction enabled: false
Boxcar width: 0
Storing dark spectrum: false
XAxis mode: Wavelengths
Number of Pixels in Spectrum: 1024
>>>>>Begin Spectral Data<<<<<
801.071	3724
801.214	3698
801.356	3690
801.499	3740
801.641	3717
801.783	3755
801.926	3861
802.068	3823
802.211	3884
802.353	3884
802.496	3831
802.638	3869
802.78	3934
802.923	3934
803.065	3884
803.208	3823
803.35	3823
803.492	3880
803.635	3907
803.777	3819
803.919	3899
804.061	4169
804.204	3949
804.346	3968
804.488	3907
804.63	4036
804.773	3979
804.915	4010
805.057	4128
805.199	4017
805.341	4051
805.483	4135
805.626	4097
805.768	4116
805.91	4204
806.052	4219
806.194	4181
806.336	4295
806.478	4223
806.62	4173
806.762	4204
806.904	4268
807.046	4325
807.188	4234
807.33	4154
807.472	4223
807.614	4204
807.756	4261
807.898	4215
808.04	4230
808.182	4272
808.324	4322
808.465	4363
808.607	4436
808.749	4478
808.891	4516
809.033	4523
809.174	4440
809.316	4211
809.458	4246
809.6	4169
809.741	4120
809.883	4131
810.025	4207
810.166	4242
810.308	4246
810.45	4257
810.591	4238
810.733	4322
810.875	4497
811.016	4828
811.158	5170
811.299	5353
811.441	5288
811.582	5147
811.724	4694
811.865	4459
812.007	4470
812.148	4447
812.29	4436
812.431	4470
812.573	4348
812.714	4318
812.855	4402
812.997	4394
813.138	4470
813.279	4447
813.421	4341
813.562	4386
813.703	4386
813.845	4314
813.986	4246
814.127	4242
814.268	4261
814.41	4318
814.551	4322
814.692	4318
814.833	4230
814.974	4310
815.115	4314
815.256	4265
815.397	4211
815.539	4287
815.68	4234
815.821	4249
815.962	4272
816.103	4268
816.244	4261
816.385	4223
816.526	4295
816.666	4150
816.807	4067
816.948	4166
817.089	4204
817.23	4078
817.371	4059
817.512	4048
817.653	4059
817.793	4029
817.934	3983
818.075	4158
818.216	4063
818.356	4074
818.497	3972
818.638	3934
818.778	3926
818.919	3899
819.06	3861
819.2	3930
819.341	3857
819.481	3850
819.622	3949
819.762	3991
819.903	3926
820.043	3884
820.184	3793
820.324	3785
820.465	3949
820.605	3873
820.746	3899
820.886	3816
821.026	3922
821.167	3915
821.307	3960
821.447	3956
821.588	3968
821.728	3953
821.868	3907
822.008	3838
822.149	3865
822.289	3903
822.429	3827
822.569	3759
822.709	3816
822.849	3698
822.99	3717
823.13	3743
823.27	3751
823.41	3720
823.55	3728
823.69	3728
823.83	3717
823.97	3679
824.11	3603
824.25	3576
824.389	3618
824.529	3701
824.669	3637
824.809	3728
824.949	3740
825.089	3701
825.228	3682
825.368	3591
825.508	3557
825.648	3534
825.787	3644
825.927	3625
826.067	3603
826.206	3656
826.346	3789
826.485	3808
826.625	3854
826.765	3934
826.904	3831
827.044	3644
827.183	3500
827.323	3469
827.462	3530
827.601	3454
827.741	3405
827.88	3473
828.02	3374
828.159	3431
828.298	3492
828.437	3538
828.577	3511
828.716	3656
828.855	3454
828.994	3401
829.134	3336
829.273	3431
829.412	3329
829.551	3325
829.69	3363
829.829	3420
829.968	3523
830.107	3397
830.246	3416
830.385	3355
830.524	3363
830.663	3348
830.802	3237
830.941	3188
831.08	3192
831.219	3264
831.357	3272
831.496	3393
831.635	3214
831.774	3199
831.913	3199
832.051	3131
832.19	3119
832.329	3203
832.467	3154
832.606	3093
832.744	3176
832.883	3161
833.022	3195
833.16	3272
833.299	3298
833.437	3344
833.576	3344
833.714	3405
833.852	3447
833.991	3431
834.129	3447
834.267	3454
834.406	3401
834.544	3401
834.682	3386
834.821	3397
834.959	3553
835.097	3401
835.235	3549
835.373	3469
835.511	3515
835.65	3454
835.788	3481
835.926	3359
836.064	3393
836.202	3428
836.34	3591
836.478	3587
836.615	3519
836.753	3603
836.891	3660
837.029	3610
837.167	3599
837.305	3572
837.443	3530
837.58	3485
837.718	3564
837.856	3530
837.993	3587
838.131	3542
838.269	3599
838.406	3576
838.544	3576
838.681	3439
838.819	3469
838.956	3348
839.094	3435
839.231	3511
839.369	3507
839.506	3732
839.643	3637
839.781	3526
839.918	3492
840.055	3545
840.193	3538
840.33	3492
840.467	3580
840.604	3625
840.742	3831
840.879	3553
841.016	3572
841.153	3644
841.29	3732
841.427	3743
841.564	3709
841.701	3724
841.838	3705
841.975	3652
842.112	3736
842.249	3625
842.385	3610
842.522	3793
842.659	3671
842.796	3701
842.933	3694
843.069	3679
843.206	3686
843.343	3827
843.479	3778
843.616	3781
843.752	3660
843.889	3717
844.025	3869
844.162	3762
844.298	3812
844.435	3831
844.571	3755
844.708	3857
844.844	4010
844.98	4040
845.117	4021
845.253	3918
845.389	3857
845.525	4048
845.661	3953
845.798	3930
845.934	4036
846.07	3953
846.206	4101
846.342	4101
846.478	4032
846.614	3937
846.75	3907
846.886	3915
847.022	4090
847.158	3979
847.294	4013
847.429	4017
847.565	3991
847.701	4238
847.837	3896
847.972	3846
848.108	3956
848.244	3964
848.379	3857
848.515	3838
848.65	3846
848.786	3846
848.921	3831
849.057	3934
849.192	3934
849.328	3926
849.463	3930
849.598	3903
849.734	3861
849.869	3831
850.004	3816
850.14	3850
850.275	3751
850.41	3717
850.545	3797
850.68	3774
850.815	3797
850.95	3823
851.085	3949
851.22	3899
851.355	3838
851.49	3709
851.625	3781
851.76	3808
851.895	3679
852.03	3740
852.165	3766
852.299	3892
852.434	3892
852.569	3842
852.703	3854
852.838	3934
852.973	4032
853.107	3991
853.242	3880
853.376	3808
853.511	3770
853.645	3800
853.78	3937
853.914	3911
854.048	3880
854.183	3915
854.317	3945
854.451	4131
854.585	3945
854.72	3953
854.854	4063
854.988	3918
855.122	3968
855.256	3922
855.39	4021
855.524	4116
855.658	4093
855.792	4078
855.926	4166
856.06	4181
856.194	4223
856.327	4143
856.461	4158
856.595	4169
856.729	4196
856.862	4276
856.996	4246
857.13	4280
857.263	4344
857.397	4367
857.53	4356
857.664	4337
857.797	4360
857.931	4436
858.064	4398
858.197	4447
858.331	4405
858.464	4390
858.597	4360
858.731	4466
858.864	4424
858.997	4523
859.13	4489
859.263	4504
859.396	4542
859.529	4516
859.662	4508
859.795	4565
859.928	4580
860.061	4714
860.194	4717
860.327	4694
860.46	4679
860.592	4717
860.725	4759
860.858	4729
860.99	4698
861.123	4664
861.256	4683
861.388	4759
861.521	5433
861.653	4782
861.786	4706
861.918	4733
862.05	4778
862.183	4866
862.315	4911
862.447	4938
862.58	4892
862.712	4793
862.844	4774
862.976	4919
863.108	4877
863.24	5204
863.372	4820
863.504	4942
863.636	4900
863.768	4991
863.9	4991
864.032	4915
864.164	4968
864.296	5052
864.428	5090
864.559	5124
864.691	5052
864.823	5124
864.954	5159
865.086	5159
865.217	5128
865.349	5121
865.48	5159
865.612	5197
865.743	5299
865.875	5208
866.006	5159
866.137	5265
866.269	5284
866.4	5242
866.531	5197
866.662	5254
866.793	5292
866.924	5307
867.055	5326
867.186	5337
867.317	5330
867.448	5296
867.579	5410
867.71	5414
867.841	5391
867.972	5433
868.103	5452
868.233	5478
868.364	5501
868.495	5509
868.625	5649
868.756	5783
868.886	5672
869.017	5722
869.147	5859
869.278	5897
869.408	5775
869.539	5813
869.669	5923
869.799	5897
869.929	5977
870.06	5980
870.19	6144
870.32	6171
870.45	6251
870.58	6365
870.71	6445
870.84	6471
870.97	6429
871.1	6475
871.23	6673
871.36	6642
871.489	6673
871.619	6726
871.749	6734
871.879	6894
872.008	7034
872.138	6920
872.267	6989
872.397	7057
872.526	7023
872.656	7061
872.785	7202
872.915	7396
873.044	7506
873.173	7658
873.303	7605
873.432	7818
873.561	7841
873.69	7940
873.819	7978
873.948	8142
874.077	8187
874.206	8336
874.335	8438
874.464	8621
874.593	8823
874.722	8887
874.851	9093
874.979	9192
875.108	9351
875.237	9450
875.365	9477
875.494	9580
875.623	9850
875.751	9797
875.88	10021
876.008	10204
876.136	10306
876.265	10523
876.393	10733
876.521	10733
876.65	10866
876.778	10862
876.906	10915
877.034	11029
877.162	11098
877.29	11159
877.418	11235
877.546	11284
877.674	11425
877.802	11421
877.93	11642
878.058	11554
878.185	11558
878.313	11684
878.441	11714
878.568	11764
878.696	11851
878.824	11851
878.951	11893
879.079	12015
879.206	12213
879.333	12038
879.461	11923
879.588	12121
879.715	12041
879.842	12262
879.97	12159
880.097	11923
880.224	11851
880.351	11843
880.478	11836
880.605	11942
880.732	11809
880.859	12110
880.986	11779
881.112	11882
881.239	11745
881.366	11665
881.493	11714
881.619	11429
881.746	11463
881.872	11615
881.999	11554
882.125	11577
882.252	11604
882.378	11577
882.505	11509
882.631	11474
882.757	11299
882.883	11334
883.01	11265
883.136	11151
883.262	11094
883.388	11105
883.514	11193
883.64	11117
883.766	11067
883.892	10965
884.018	10927
884.143	10976
884.269	11170
884.395	10831
884.52	10778
884.646	10744
884.772	10740
884.897	10672
885.023	10729
885.148	10714
885.274	10763
885.399	10702
885.524	10645
885.65	10592
885.775	10565
885.9	10538
886.025	10588
886.15	10508
886.275	10455
886.4	10375
886.525	10382
886.65	10329
886.775	10352
886.9	10428
887.025	10474
887.149	10329
887.274	10234
887.399	10223
887.523	10109
887.648	10116
887.773	10150
887.897	10234
888.021	10363
888.146	10207
888.27	10173
888.395	10196
888.519	10177
888.643	10154
888.767	10188
888.891	10025
889.015	10051
889.139	10071
889.263	10010
889.387	9983
889.511	10150
889.635	10124
889.759	9994
889.883	9987
890.006	9975
890.13	10090
890.254	9945
890.377	10025
890.501	9876
890.624	9899
890.748	9903
890.871	9747
890.995	9842
891.118	9705
891.241	9800
891.364	9701
891.488	9766
891.611	9720
891.734	9694
891.857	9717
891.98	9751
892.103	9762
892.226	9751
892.349	9690
892.471	9458
892.594	9542
892.717	9572
892.839	9603
892.962	9629
893.085	9652
893.207	9492
893.33	9530
893.452	9545
893.575	9610
893.697	9580
893.819	9606
893.941	9599
894.064	9584
894.186	9439
894.308	9504
894.43	9500
894.552	9553
894.674	9515
894.796	9420
894.918	9408
895.04	9332
895.161	9397
895.283	9363
895.405	9310
895.526	9275
895.648	9157
895.769	9264
895.891	9272
896.012	9245
896.134	9192
896.255	9165
896.376	9135
896.498	9119
896.619	9165
896.74	9074
896.861	9104
896.982	9294
897.103	9321
897.224	9192
897.345	9051
897.466	9028
897.587	9039
897.708	9032
897.828	9089
897.949	9020
898.07	8887
898.19	8906
898.311	8967
898.431	8887
898.552	8933
898.672	8960
898.792	8990
898.913	8872
899.033	8773
899.153	8716
899.273	8667
899.393	8766
899.513	8762
899.633	8693
899.753	8678
899.873	8659
899.993	8739
900.113	8724
900.232	8796
900.352	8663
900.472	8571
900.591	8514
900.711	8590
900.83	8537
900.95	8682
901.069	8689
901.189	8522
901.308	8385
901.427	8370
901.546	8370
901.665	8389
901.784	8503
901.904	8366
902.023	8309
902.141	8221
902.26	8233
902.379	8263
902.498	8218
902.617	8214
902.735	8362
902.854	8290
902.973	8320
903.091	8157
903.21	8138
903.328	8164
903.446	8092
903.565	8031
903.683	8081
903.801	8054
903.919	8149
904.038	8187
904.156	8054
904.274	8050
904.392	8050
904.51	8016
904.627	8027
904.745	8081
904.863	8077
904.981	7913
905.098	7868
905.216	7826
905.334	7852
905.451	7928
905.569	7902
905.686	7970
905.803	7932
905.921	7765
906.038	7917
906.155	7795
906.272	7723
906.389	7662
906.506	7628
906.623	7613
906.74	7578
906.857	7590
906.974	7636
907.091	7655
907.208	7769
907.324	7586
907.441	7567
907.557	7483
907.674	7441
907.79	7400
907.907	7388
908.023	7457
908.139	7487
908.256	7373
908.372	7327
908.488	7320
908.604	7327
908.72	7247
908.836	7308
908.952	7244
909.068	7263
909.184	7335
909.3	7282
909.415	7278
909.531	7232
909.647	7110
909.762	7126
909.878	7091
909.993	7202
910.108	7095
910.224	7069
910.339	7076
910.454	7110
910.57	6981
910.685	6939
910.8	7114
910.915	7046
911.03	6932
911.145	6951
911.259	6878
911.374	6859
911.489	6920
911.604	6779
911.718	6696
911.833	6749
911.947	6677
912.062	6639
912.176	6703
912.291	6707
912.405	6711
912.519	6856
912.633	6825
912.748	6703
912.862	6703
912.976	6627
913.09	6536
913.204	6585
913.318	6639
913.431	6654
913.545	6738
913.659	6688
913.772	6665
913.886	6601
914	6551
914.113	6585
914.226	6665
914.34	6616
914.453	6517
914.566	6620
914.68	6467
914.793	6498
914.906	6391
915.019	6391
915.132	6410
915.245	6365
915.358	6445
915.47	6380
915.583	6426
915.696	6502
915.809	6513
915.921	6517
916.034	6456
916.146	6327
916.259	6426
916.371	6521
916.483	6414
916.595	6410
916.708	6410
916.82	6407
916.932	6365
917.044	6448
917.156	6395
917.268	6327
917.38	6331
917.491	6270
917.603	6372
917.715	6376
917.826	6391
917.938	6331
918.049	6228
918.161	6315
918.272	6403
918.384	6460
918.495	6342
918.606	6266
918.717	6186
918.828	6285
918.939	6289
919.05	6209
919.161	6216
919.272	6175
919.383	6186
919.494	6281
919.604	6372
919.715	6277
919.826	6247
919.936	6205
920.047	6292
920.157	6239
920.267	6486
920.378	6365
920.488	6331
920.598	6456
920.708	6593
920.818	6460
920.928	6460
921.038	6597
921.148	6593
921.258	6388
921.368	6334
921.477	6182
921.587	6224
921.697	6064
921.806	6213
921.916	6095
922.025	5961
922.134	5904
922.244	5840
922.353	5973
922.462	5863
922.571	5821
922.68	5695
922.789	5661
922.898	5695
923.007	5619
923.116	5680
923.224	5608
923.333	5653
923.442	5638
923.55	5539
923.659	5596
923.767	5676
923.876	5566
923.984	5615
924.092	5512
924.201	5558
924.309	5558
924.417	5516
924.525	5505
924.633	5528
924.741	6315
924.849	5353
924.956	5490
925.064	5341
925.172	5341
925.279	5318
925.387	5326
925.494	5360
925.602	5463
925.709	5364
925.816	5265
925.924	5345
926.031	5341
926.138	5303
926.245	5372
926.352	5223
926.459	5277
926.566	5337
926.673	5242
926.779	5140
926.886	5140
926.993	5071
927.099	4984
927.206	4965
927.312	4908
927.419	4987
927.525	4946
927.631	4991
927.737	4938
927.843	4873
927.95	4763
928.056	4828
928.162	4843
928.267	4870
928.373	5334
928.479	4850
928.585	4717
928.69	4797
928.796	4820
928.901	4733
929.007	4580
929.112	4599
929.218	4645
929.323	4577
929.428	4584
929.533	4637
929.638	4527
929.743	4519
929.848	4565
929.953	4500
930.058	4424
930.163	4329
930.267	4329
930.372	4421
930.477	4280
930.581	4443
930.685	4371
930.79	4242
930.894	4303
930.998	4253
931.103	4405
931.207	4097
931.311	4067
931.415	4029
931.519	3953
931.623	3899
