Data from glass_V78500241_2149.txt Node
Date: Wed Sep 01 19:29:23 CST 2021
User: usil
Spectrometer: V785-0024
Trigger mode: 0
Integration Time (sec): 4.000000E-1
Scans to average: 1
Nonlinearity correction enabled: false
Boxcar width: 0
Storing dark spectrum: false
XAxis mode: Wavelengths
Number of Pixels in Spectrum: 1024
>>>>>Begin Spectral Data<<<<<
801.071	3770
801.214	3732
801.356	3667
801.499	3717
801.641	3759
801.783	3724
801.926	3842
802.068	3835
802.211	3831
802.353	3892
802.496	3827
802.638	3899
802.78	3903
802.923	3899
803.065	3831
803.208	3876
803.35	3850
803.492	3876
803.635	3876
803.777	3781
803.919	3876
804.061	4177
804.204	3918
804.346	3907
804.488	3880
804.63	4025
804.773	3930
804.915	3964
805.057	4162
805.199	4059
805.341	4101
805.483	4097
805.626	4131
805.768	4128
805.91	4169
806.052	4295
806.194	4227
806.336	4405
806.478	4192
806.62	4143
806.762	4185
806.904	4314
807.046	4337
807.188	4166
807.33	4150
807.472	4234
807.614	4173
807.756	4257
807.898	4280
808.04	4215
808.182	4322
808.324	4341
808.465	4329
808.607	4500
808.749	4481
808.891	4504
809.033	4478
809.174	4447
809.316	4272
809.458	4261
809.6	4188
809.741	4154
809.883	4131
810.025	4192
810.166	4185
810.308	4188
810.45	4242
810.591	4227
810.733	4238
810.875	4497
811.016	4824
811.158	5121
811.299	5261
811.441	5277
811.582	5067
811.724	4675
811.865	4440
812.007	4432
812.148	4367
812.29	4428
812.431	4405
812.573	4428
812.714	4386
812.855	4398
812.997	4451
813.138	4489
813.279	4405
813.421	4356
813.562	4421
813.703	4337
813.845	4325
813.986	4249
814.127	4181
814.268	4284
814.41	4284
814.551	4261
814.692	4295
814.833	4265
814.974	4284
815.115	4322
815.256	4238
815.397	4280
815.539	4276
815.68	4188
815.821	4230
815.962	4299
816.103	4287
816.244	4147
816.385	4219
816.526	4310
816.666	4181
816.807	4021
816.948	4154
817.089	4147
817.23	4177
817.371	4036
817.512	4036
817.653	4032
817.793	4017
817.934	4029
818.075	4051
818.216	4036
818.356	4078
818.497	4006
818.638	3903
818.778	3896
818.919	3903
819.06	3857
819.2	3911
819.341	3827
819.481	3838
819.622	3911
819.762	4025
819.903	3903
820.043	3842
820.184	3842
820.324	3831
820.465	3865
820.605	3835
820.746	3850
820.886	3800
821.026	3968
821.167	3915
821.307	3968
821.447	3949
821.588	3953
821.728	3953
821.868	3915
822.008	3831
822.149	3941
822.289	3876
822.429	3793
822.569	3762
822.709	3842
822.849	3701
822.99	3732
823.13	3762
823.27	3766
823.41	3690
823.55	3751
823.69	3709
823.83	3709
823.97	3675
824.11	3637
824.25	3591
824.389	3637
824.529	3690
824.669	3576
824.809	3690
824.949	3743
825.089	3740
825.228	3694
825.368	3591
825.508	3584
825.648	3580
825.787	3603
825.927	3606
826.067	3625
826.206	3648
826.346	3751
826.485	3838
826.625	3869
826.765	3953
826.904	3823
827.044	3568
827.183	3545
827.323	3473
827.462	3454
827.601	3435
827.741	3420
827.88	3439
828.02	3386
828.159	3450
828.298	3485
828.437	3523
828.577	3496
828.716	3652
828.855	3488
828.994	3389
829.134	3317
829.273	3382
829.412	3355
829.551	3359
829.69	3367
829.829	3447
829.968	3534
830.107	3439
830.246	3424
830.385	3397
830.524	3382
830.663	3283
830.802	3241
830.941	3245
831.08	3180
831.219	3279
831.357	3291
831.496	3401
831.635	3264
831.774	3176
831.913	3233
832.051	3119
832.19	3135
832.329	3184
832.467	3135
832.606	3074
832.744	3135
832.883	3176
833.022	3192
833.16	3233
833.299	3283
833.437	3317
833.576	3355
833.714	3416
833.852	3447
833.991	3431
834.129	3439
834.267	3424
834.406	3382
834.544	3458
834.682	3458
834.821	3416
834.959	3591
835.097	3416
835.235	3545
835.373	3507
835.511	3511
835.65	3481
835.788	3492
835.926	3405
836.064	3393
836.202	3359
836.34	3568
836.478	3618
836.615	3526
836.753	3572
836.891	3633
837.029	3614
837.167	3580
837.305	3538
837.443	3534
837.58	3488
837.718	3618
837.856	3561
837.993	3534
838.131	3584
838.269	3614
838.406	3584
838.544	3572
838.681	3462
838.819	3431
838.956	3370
839.094	3462
839.231	3462
839.369	3523
839.506	3728
839.643	3610
839.781	3507
839.918	3469
840.055	3511
840.193	3534
840.33	3507
840.467	3557
840.604	3614
840.742	3819
840.879	3545
841.016	3511
841.153	3557
841.29	3720
841.427	3675
841.564	3671
841.701	3705
841.838	3675
841.975	3667
842.112	3720
842.249	3648
842.385	3606
842.522	3819
842.659	3663
842.796	3679
842.933	3694
843.069	3660
843.206	3660
843.343	3838
843.479	3759
843.616	3838
843.752	3663
843.889	3671
844.025	3854
844.162	3679
844.298	3861
844.435	3770
844.571	3778
844.708	3880
844.844	4006
844.98	4032
845.117	3991
845.253	3934
845.389	3922
845.525	3945
845.661	3949
845.798	3949
845.934	4040
846.07	3972
846.206	4044
846.342	4078
846.478	4032
846.614	3949
846.75	3953
846.886	3850
847.022	4055
847.158	3937
847.294	3972
847.429	3987
847.565	4002
847.701	4223
847.837	3880
847.972	3861
848.108	4002
848.244	3991
848.379	3869
848.515	3804
848.65	3789
848.786	3823
848.921	3823
849.057	3941
849.192	3934
849.328	3907
849.463	3888
849.598	3854
849.734	3869
849.869	3831
850.004	3766
850.14	3808
850.275	3812
850.41	3755
850.545	3762
850.68	3774
850.815	3827
850.95	3785
851.085	3937
851.22	3876
851.355	3850
851.49	3774
851.625	3785
851.76	3789
851.895	3751
852.03	3732
852.165	3812
852.299	3835
852.434	3907
852.569	3846
852.703	3865
852.838	3903
852.973	4010
853.107	3991
853.242	3880
853.376	3850
853.511	3804
853.645	3823
853.78	3998
853.914	3884
854.048	3880
854.183	3850
854.317	3896
854.451	4017
854.585	3987
854.72	3949
854.854	4017
854.988	3892
855.122	4021
855.256	3937
855.39	4040
855.524	4082
855.658	4082
855.792	4093
855.926	4112
856.06	4185
856.194	4211
856.327	4093
856.461	4124
856.595	4131
856.729	4185
856.862	4276
856.996	4215
857.13	4329
857.263	4314
857.397	4329
857.53	4272
857.664	4363
857.797	4394
857.931	4394
858.064	4344
858.197	4451
858.331	4379
858.464	4383
858.597	4344
858.731	4432
858.864	4474
858.997	4470
859.13	4493
859.263	4523
859.396	4527
859.529	4535
859.662	4542
859.795	4512
859.928	4618
860.061	4687
860.194	4710
860.327	4565
860.46	4618
860.592	4694
860.725	4744
860.858	4714
860.99	4702
861.123	4729
861.256	4706
861.388	4771
861.521	5482
861.653	4782
861.786	4660
861.918	4675
862.05	4839
862.183	4820
862.315	4870
862.447	4915
862.58	4881
862.712	4831
862.844	4725
862.976	4892
863.108	4889
863.24	5204
863.372	4805
863.504	4915
863.636	4930
863.768	4942
863.9	4995
864.032	4923
864.164	4923
864.296	5045
864.428	5060
864.559	5151
864.691	5098
864.823	5140
864.954	5128
865.086	5105
865.217	5102
865.349	5071
865.48	5162
865.612	5189
865.743	5242
865.875	5220
866.006	5189
866.137	5284
866.269	5216
866.4	5288
866.531	5280
866.662	5250
866.793	5273
866.924	5254
867.055	5376
867.186	5318
867.317	5288
867.448	5299
867.579	5364
867.71	5410
867.841	5357
867.972	5436
868.103	5387
868.233	5436
868.364	5539
868.495	5562
868.625	5722
868.756	5798
868.886	5676
869.017	5756
869.147	5828
869.278	5783
869.408	5783
869.539	5836
869.669	5904
869.799	5916
869.929	5942
870.06	5980
870.19	6232
870.32	6163
870.45	6243
870.58	6369
870.71	6445
870.84	6410
870.97	6407
871.1	6369
871.23	6669
871.36	6639
871.489	6669
871.619	6734
871.749	6772
871.879	6837
872.008	6935
872.138	6947
872.267	7008
872.397	6886
872.526	7004
872.656	7076
872.785	7175
872.915	7362
873.044	7499
873.173	7529
873.303	7647
873.432	7693
873.561	7898
873.69	7978
873.819	8062
873.948	8134
874.077	8199
874.206	8336
874.335	8377
874.464	8598
874.593	8876
874.722	8971
874.851	9119
874.979	9188
875.108	9348
875.237	9462
875.365	9504
875.494	9584
875.623	9789
875.751	9808
875.88	9998
876.008	10105
876.136	10196
876.265	10504
876.393	10683
876.521	10771
876.65	10767
876.778	10824
876.906	10930
877.034	10831
877.162	11105
877.29	11181
877.418	11315
877.546	11387
877.674	11452
877.802	11486
877.93	11372
878.058	11501
878.185	11490
878.313	11627
878.441	11684
878.568	11684
878.696	11726
878.824	11828
878.951	11999
879.079	12022
879.206	12114
879.333	12022
879.461	11939
879.588	12022
879.715	12098
879.842	12209
879.97	12019
880.097	11908
880.224	11794
880.351	11866
880.478	11912
880.605	11904
880.732	11783
880.859	11977
880.986	11790
881.112	11794
881.239	11691
881.366	11710
881.493	11661
881.619	11539
881.746	11596
881.872	11539
881.999	11501
882.125	11455
882.252	11516
882.378	11516
882.505	11512
882.631	11322
882.757	11421
882.883	11387
883.01	11284
883.136	11239
883.262	11079
883.388	11022
883.514	11254
883.64	11220
883.766	11105
883.892	11003
884.018	10984
884.143	11136
884.269	11041
884.395	10786
884.52	10805
884.646	10816
884.772	10748
884.897	10622
885.023	10740
885.148	10736
885.274	10736
885.399	10660
885.524	10573
885.65	10565
885.775	10592
885.9	10497
886.025	10607
886.15	10508
886.275	10519
886.4	10409
886.525	10386
886.65	10379
886.775	10356
886.9	10409
887.025	10493
887.149	10337
887.274	10219
887.399	10268
887.523	10177
887.648	10124
887.773	10131
887.897	10211
888.021	10154
888.146	10116
888.27	10204
888.395	10185
888.519	10139
888.643	10223
888.767	10154
888.891	10090
889.015	10078
889.139	10097
889.263	9934
889.387	10025
889.511	10116
889.635	9983
889.759	9895
889.883	9945
890.006	9964
890.13	10067
890.254	9968
890.377	9918
890.501	9819
890.624	9869
890.748	9911
890.871	9785
890.995	9762
891.118	9622
891.241	9766
891.364	9747
891.488	9816
891.611	9774
891.734	9778
891.857	9766
891.98	9717
892.103	9804
892.226	9625
892.349	9713
892.471	9622
892.594	9618
892.717	9576
892.839	9534
892.962	9561
893.085	9564
893.207	9648
893.33	9481
893.452	9534
893.575	9599
893.697	9458
893.819	9587
893.941	9538
894.064	9549
894.186	9431
894.308	9355
894.43	9492
894.552	9553
894.674	9473
894.796	9313
894.918	9348
895.04	9283
895.161	9378
895.283	9291
895.405	9310
895.526	9237
895.648	9245
895.769	9199
895.891	9291
896.012	9329
896.134	9214
896.255	9188
896.376	9135
896.498	9146
896.619	9081
896.74	9039
896.861	9108
896.982	9214
897.103	9253
897.224	9154
897.345	9081
897.466	9009
897.587	9005
897.708	9066
897.828	9009
897.949	8880
898.07	8891
898.19	8861
898.311	8986
898.431	8880
898.552	8880
898.672	8921
898.792	8861
898.913	8853
899.033	8834
899.153	8735
899.273	8670
899.393	8705
899.513	8826
899.633	8731
899.753	8727
899.873	8613
899.993	8708
900.113	8659
900.232	8712
900.352	8667
900.472	8598
900.591	8541
900.711	8594
900.83	8526
900.95	8594
901.069	8731
901.189	8587
901.308	8438
901.427	8393
901.546	8446
901.665	8434
901.784	8499
901.904	8339
902.023	8313
902.141	8202
902.26	8233
902.379	8218
902.498	8202
902.617	8240
902.735	8317
902.854	8263
902.973	8237
903.091	8115
903.21	8157
903.328	8164
903.446	8096
903.565	8103
903.683	8111
903.801	8005
903.919	8027
904.038	8119
904.156	8020
904.274	8081
904.392	8050
904.51	7970
904.627	8054
904.745	8077
904.863	8084
904.981	7955
905.098	7860
905.216	7947
905.334	7845
905.451	7849
905.569	7871
905.686	7940
905.803	7898
905.921	7807
906.038	7871
906.155	7818
906.272	7632
906.389	7776
906.506	7643
906.623	7636
906.74	7605
906.857	7556
906.974	7537
907.091	7624
907.208	7727
907.324	7636
907.441	7613
907.557	7487
907.674	7384
907.79	7346
907.907	7324
908.023	7422
908.139	7430
908.256	7316
908.372	7324
908.488	7301
908.604	7225
908.72	7164
908.836	7266
908.952	7187
909.068	7263
909.184	7263
909.3	7259
909.415	7285
909.531	7221
909.647	7110
909.762	7133
909.878	7110
909.993	7183
910.108	7114
910.224	7080
910.339	7122
910.454	6981
910.57	7053
910.685	6970
910.8	7156
910.915	7126
911.03	7038
911.145	6882
911.259	6829
911.374	6852
911.489	6783
911.604	6783
911.718	6677
911.833	6738
911.947	6604
912.062	6597
912.176	6654
912.291	6684
912.405	6688
912.519	6821
912.633	6818
912.748	6726
912.862	6692
912.976	6566
913.09	6525
913.204	6597
913.318	6589
913.431	6582
913.545	6711
913.659	6722
913.772	6604
913.886	6582
914	6566
914.113	6578
914.226	6604
914.34	6509
914.453	6475
914.566	6585
914.68	6498
914.793	6513
914.906	6418
915.019	6384
915.132	6437
915.245	6479
915.358	6422
915.47	6456
915.583	6369
915.696	6399
915.809	6471
915.921	6525
916.034	6471
916.146	6429
916.259	6311
916.371	6437
916.483	6414
916.595	6467
916.708	6380
916.82	6448
916.932	6441
917.044	6399
917.156	6372
917.268	6319
917.38	6334
917.491	6228
917.603	6296
917.715	6403
917.826	6422
917.938	6361
918.049	6235
918.161	6372
918.272	6399
918.384	6410
918.495	6327
918.606	6292
918.717	6232
918.828	6270
918.939	6251
919.05	6239
919.161	6243
919.272	6110
919.383	6144
919.494	6235
919.604	6391
919.715	6319
919.826	6235
919.936	6213
920.047	6300
920.157	6247
920.267	6429
920.378	6251
920.488	6251
920.598	6452
920.708	6464
920.818	6418
920.928	6448
921.038	6570
921.148	6547
921.258	6350
921.368	6273
921.477	6243
921.587	6155
921.697	6148
921.806	6155
921.916	6106
922.025	5950
922.134	5870
922.244	5851
922.353	5939
922.462	5832
922.571	5802
922.68	5691
922.789	5661
922.898	5688
923.007	5608
923.116	5695
923.224	5684
923.333	5642
923.442	5600
923.55	5581
923.659	5592
923.767	5570
923.876	5543
923.984	5554
924.092	5551
924.201	5554
924.309	5573
924.417	5558
924.525	5486
924.633	5528
924.741	6289
924.849	5368
924.956	5452
925.064	5402
925.172	5337
925.279	5322
925.387	5315
925.494	5284
925.602	5444
925.709	5383
925.816	5284
925.924	5284
926.031	5311
926.138	5284
926.245	5315
926.352	5246
926.459	5280
926.566	5311
926.673	5147
926.779	5102
926.886	5140
926.993	5037
927.099	5029
927.206	4949
927.312	4965
927.419	5014
927.525	4953
927.631	5006
927.737	4896
927.843	4870
927.95	4763
928.056	4824
928.162	4881
928.267	4828
928.373	5345
928.479	4828
928.585	4691
928.69	4778
928.796	4725
928.901	4691
929.007	4611
929.112	4649
929.218	4561
929.323	4588
929.428	4588
929.533	4664
929.638	4497
929.743	4531
929.848	4546
929.953	4538
930.058	4466
930.163	4314
930.267	4314
930.372	4432
930.477	4276
930.581	4432
930.685	4367
930.79	4219
930.894	4295
930.998	4265
931.103	4360
931.207	4120
931.311	4101
931.415	4032
931.519	3937
931.623	3907
