Data from glass_V78500241_2721.txt Node
Date: Wed Sep 01 19:33:21 CST 2021
User: usil
Spectrometer: V785-0024
Trigger mode: 0
Integration Time (sec): 4.000000E-1
Scans to average: 1
Nonlinearity correction enabled: false
Boxcar width: 0
Storing dark spectrum: false
XAxis mode: Wavelengths
Number of Pixels in Spectrum: 1024
>>>>>Begin Spectral Data<<<<<
801.071	3724
801.214	3743
801.356	3705
801.499	3717
801.641	3720
801.783	3778
801.926	3850
802.068	3819
802.211	3812
802.353	3888
802.496	3789
802.638	3915
802.78	3854
802.923	3899
803.065	3892
803.208	3816
803.35	3861
803.492	3888
803.635	3873
803.777	3785
803.919	3918
804.061	4124
804.204	3926
804.346	3964
804.488	3930
804.63	4029
804.773	3968
804.915	3972
805.057	4147
805.199	4093
805.341	4071
805.483	4135
805.626	4135
805.768	4074
805.91	4200
806.052	4215
806.194	4158
806.336	4360
806.478	4200
806.62	4192
806.762	4207
806.904	4246
807.046	4322
807.188	4257
807.33	4162
807.472	4192
807.614	4181
807.756	4204
807.898	4249
808.04	4185
808.182	4261
808.324	4310
808.465	4405
808.607	4459
808.749	4421
808.891	4432
809.033	4470
809.174	4417
809.316	4253
809.458	4230
809.6	4173
809.741	4162
809.883	4154
810.025	4158
810.166	4207
810.308	4238
810.45	4253
810.591	4230
810.733	4284
810.875	4500
811.016	4828
811.158	5136
811.299	5273
811.441	5265
811.582	5056
811.724	4698
811.865	4443
812.007	4455
812.148	4440
812.29	4402
812.431	4386
812.573	4394
812.714	4318
812.855	4428
812.997	4390
813.138	4485
813.279	4386
813.421	4375
813.562	4352
813.703	4337
813.845	4295
813.986	4268
814.127	4215
814.268	4211
814.41	4276
814.551	4299
814.692	4306
814.833	4242
814.974	4303
815.115	4310
815.256	4257
815.397	4181
815.539	4303
815.68	4196
815.821	4211
815.962	4287
816.103	4230
816.244	4230
816.385	4188
816.526	4242
816.666	4177
816.807	4090
816.948	4162
817.089	4177
817.23	4093
817.371	4040
817.512	4059
817.653	4044
817.793	4044
817.934	4006
818.075	4059
818.216	4063
818.356	4036
818.497	3983
818.638	3918
818.778	3876
818.919	3899
819.06	3869
819.2	3888
819.341	3816
819.481	3789
819.622	3922
819.762	3968
819.903	3922
820.043	3884
820.184	3850
820.324	3804
820.465	3869
820.605	3854
820.746	3888
820.886	3778
821.026	3888
821.167	3899
821.307	3994
821.447	3956
821.588	3960
821.728	3956
821.868	3865
822.008	3907
822.149	3922
822.289	3911
822.429	3808
822.569	3766
822.709	3766
822.849	3755
822.99	3709
823.13	3766
823.27	3724
823.41	3724
823.55	3736
823.69	3713
823.83	3728
823.97	3648
824.11	3595
824.25	3599
824.389	3622
824.529	3641
824.669	3614
824.809	3686
824.949	3766
825.089	3713
825.228	3629
825.368	3595
825.508	3572
825.648	3549
825.787	3568
825.927	3614
826.067	3572
826.206	3675
826.346	3759
826.485	3831
826.625	3831
826.765	3941
826.904	3789
827.044	3591
827.183	3526
827.323	3424
827.462	3507
827.601	3447
827.741	3409
827.88	3454
828.02	3382
828.159	3409
828.298	3492
828.437	3534
828.577	3454
828.716	3587
828.855	3469
828.994	3420
829.134	3370
829.273	3382
829.412	3317
829.551	3344
829.69	3325
829.829	3439
829.968	3450
830.107	3409
830.246	3447
830.385	3359
830.524	3332
830.663	3291
830.802	3233
830.941	3207
831.08	3173
831.219	3237
831.357	3268
831.496	3382
831.635	3218
831.774	3146
831.913	3184
832.051	3119
832.19	3127
832.329	3192
832.467	3112
832.606	3081
832.744	3180
832.883	3188
833.022	3218
833.16	3260
833.299	3253
833.437	3321
833.576	3344
833.714	3389
833.852	3435
833.991	3420
834.129	3458
834.267	3409
834.406	3378
834.544	3374
834.682	3443
834.821	3340
834.959	3530
835.097	3393
835.235	3523
835.373	3477
835.511	3485
835.65	3443
835.788	3507
835.926	3374
836.064	3340
836.202	3412
836.34	3523
836.478	3622
836.615	3542
836.753	3580
836.891	3591
837.029	3595
837.167	3572
837.305	3557
837.443	3545
837.58	3481
837.718	3580
837.856	3568
837.993	3564
838.131	3553
838.269	3610
838.406	3576
838.544	3530
838.681	3435
838.819	3477
838.956	3317
839.094	3355
839.231	3416
839.369	3523
839.506	3709
839.643	3644
839.781	3492
839.918	3424
840.055	3515
840.193	3523
840.33	3485
840.467	3515
840.604	3622
840.742	3762
840.879	3488
841.016	3561
841.153	3599
841.29	3709
841.427	3690
841.564	3679
841.701	3686
841.838	3694
841.975	3652
842.112	3705
842.249	3652
842.385	3641
842.522	3827
842.659	3686
842.796	3637
842.933	3648
843.069	3679
843.206	3675
843.343	3774
843.479	3751
843.616	3800
843.752	3633
843.889	3690
844.025	3838
844.162	3690
844.298	3823
844.435	3755
844.571	3785
844.708	3884
844.844	3918
844.98	3953
845.117	3979
845.253	3915
845.389	3907
845.525	3983
845.661	3926
845.798	3903
845.934	3972
846.07	3918
846.206	4063
846.342	4086
846.478	4086
846.614	3922
846.75	3907
846.886	3876
847.022	4048
847.158	3972
847.294	4013
847.429	4044
847.565	3979
847.701	4242
847.837	3880
847.972	3800
848.108	3937
848.244	3960
848.379	3865
848.515	3770
848.65	3800
848.786	3808
848.921	3857
849.057	3876
849.192	3922
849.328	3850
849.463	3892
849.598	3876
849.734	3854
849.869	3797
850.004	3755
850.14	3789
850.275	3755
850.41	3709
850.545	3720
850.68	3785
850.815	3781
850.95	3778
851.085	3907
851.22	3876
851.355	3808
851.49	3785
851.625	3793
851.76	3770
851.895	3740
852.03	3713
852.165	3789
852.299	3857
852.434	3903
852.569	3880
852.703	3873
852.838	3937
852.973	3968
853.107	3998
853.242	3911
853.376	3831
853.511	3743
853.645	3831
853.78	3937
853.914	3831
854.048	3854
854.183	3827
854.317	3934
854.451	4059
854.585	3896
854.72	3964
854.854	4048
854.988	3941
855.122	4040
855.256	3930
855.39	3987
855.524	4101
855.658	4029
855.792	4116
855.926	4135
856.06	4143
856.194	4230
856.327	4101
856.461	4147
856.595	4128
856.729	4147
856.862	4246
856.996	4257
857.13	4303
857.263	4295
857.397	4344
857.53	4261
857.664	4306
857.797	4367
857.931	4398
858.064	4371
858.197	4451
858.331	4394
858.464	4386
858.597	4348
858.731	4436
858.864	4421
858.997	4443
859.13	4504
859.263	4535
859.396	4577
859.529	4489
859.662	4569
859.795	4504
859.928	4573
860.061	4725
860.194	4710
860.327	4649
860.46	4664
860.592	4736
860.725	4790
860.858	4717
860.99	4645
861.123	4668
861.256	4664
861.388	4736
861.521	5280
861.653	4714
861.786	4672
861.918	4733
862.05	4790
862.183	4797
862.315	4881
862.447	4923
862.58	4900
862.712	4778
862.844	4805
862.976	4854
863.108	4858
863.24	5216
863.372	4816
863.504	4892
863.636	4862
863.768	4946
863.9	4923
864.032	4949
864.164	4972
864.296	4999
864.428	5102
864.559	5109
864.691	5083
864.823	5121
864.954	5121
865.086	5117
865.217	5124
865.349	5102
865.48	5124
865.612	5277
865.743	5204
865.875	5185
866.006	5128
866.137	5239
866.269	5246
866.4	5208
866.531	5246
866.662	5216
866.793	5235
866.924	5284
867.055	5334
867.186	5311
867.317	5337
867.448	5280
867.579	5337
867.71	5364
867.841	5414
867.972	5417
868.103	5406
868.233	5455
868.364	5520
868.495	5535
868.625	5672
868.756	5748
868.886	5589
869.017	5748
869.147	5798
869.278	5828
869.408	5767
869.539	5855
869.669	5863
869.799	5931
869.929	5931
870.06	6011
870.19	6197
870.32	6194
870.45	6254
870.58	6300
870.71	6426
870.84	6429
870.97	6376
871.1	6410
871.23	6635
871.36	6654
871.489	6665
871.619	6715
871.749	6772
871.879	6875
872.008	7000
872.138	7000
872.267	7000
872.397	6954
872.526	6985
872.656	7099
872.785	7255
872.915	7403
873.044	7537
873.173	7544
873.303	7639
873.432	7765
873.561	7879
873.69	7963
873.819	8035
873.948	8187
874.077	8240
874.206	8301
874.335	8370
874.464	8648
874.593	8796
874.722	8933
874.851	9119
874.979	9214
875.108	9367
875.237	9443
875.365	9507
875.494	9545
875.623	9869
875.751	9854
875.88	10021
876.008	10074
876.136	10322
876.265	10493
876.393	10698
876.521	10691
876.65	10790
876.778	10816
876.906	10866
877.034	11006
877.162	11117
877.29	11159
877.418	11261
877.546	11345
877.674	11429
877.802	11425
877.93	11452
878.058	11524
878.185	11532
878.313	11714
878.441	11695
878.568	11642
878.696	11779
878.824	11847
878.951	11973
879.079	11977
879.206	12167
879.333	12026
879.461	11996
879.588	12003
879.715	12022
879.842	12224
879.97	12049
880.097	11927
880.224	11840
880.351	11885
880.478	11961
880.605	11893
880.732	11832
880.859	12015
880.986	11870
881.112	11771
881.239	11676
881.366	11691
881.493	11592
881.619	11627
881.746	11570
881.872	11554
881.999	11512
882.125	11433
882.252	11562
882.378	11501
882.505	11547
882.631	11444
882.757	11284
882.883	11296
883.01	11212
883.136	11170
883.262	11067
883.388	11155
883.514	11254
883.64	11094
883.766	11098
883.892	10965
884.018	10980
884.143	11090
884.269	11056
884.395	10847
884.52	10721
884.646	10752
884.772	10740
884.897	10596
885.023	10694
885.148	10653
885.274	10778
885.399	10755
885.524	10634
885.65	10615
885.775	10565
885.9	10497
886.025	10580
886.15	10523
886.275	10432
886.4	10371
886.525	10390
886.65	10428
886.775	10352
886.9	10432
887.025	10447
887.149	10325
887.274	10211
887.399	10230
887.523	10204
887.648	10124
887.773	10124
887.897	10196
888.021	10272
888.146	10090
888.27	10211
888.395	10204
888.519	10105
888.643	10188
888.767	10185
888.891	10093
889.015	10032
889.139	10093
889.263	9975
889.387	10078
889.511	10078
889.635	10017
889.759	9964
889.883	9964
890.006	10021
890.13	10128
890.254	9964
890.377	9945
890.501	9869
890.624	9892
890.748	9842
890.871	9778
890.995	9789
891.118	9724
891.241	9762
891.364	9705
891.488	9827
891.611	9698
891.734	9709
891.857	9736
891.98	9724
892.103	9759
892.226	9724
892.349	9682
892.471	9568
892.594	9606
892.717	9652
892.839	9599
892.962	9660
893.085	9656
893.207	9553
893.33	9530
893.452	9534
893.575	9538
893.697	9500
893.819	9641
893.941	9576
894.064	9584
894.186	9389
894.308	9477
894.43	9473
894.552	9587
894.674	9553
894.796	9367
894.918	9317
895.04	9355
895.161	9359
895.283	9408
895.405	9237
895.526	9211
895.648	9199
895.769	9233
895.891	9272
896.012	9237
896.134	9233
896.255	9165
896.376	9176
896.498	9154
896.619	9195
896.74	9009
896.861	9112
896.982	9226
897.103	9268
897.224	9116
897.345	9039
897.466	8971
897.587	9024
897.708	9089
897.828	9043
897.949	8967
898.07	8914
898.19	8952
898.311	9017
898.431	8857
898.552	8941
898.672	8906
898.792	8971
898.913	8906
899.033	8834
899.153	8804
899.273	8712
899.393	8594
899.513	8762
899.633	8678
899.753	8724
899.873	8689
899.993	8712
900.113	8716
900.232	8617
900.352	8636
900.472	8625
900.591	8541
900.711	8549
900.83	8541
900.95	8651
901.069	8686
901.189	8522
901.308	8412
901.427	8412
901.546	8385
901.665	8408
901.784	8473
901.904	8408
902.023	8389
902.141	8229
902.26	8176
902.379	8244
902.498	8187
902.617	8210
902.735	8240
902.854	8240
902.973	8267
903.091	8142
903.21	8031
903.328	8153
903.446	8084
903.565	8096
903.683	8073
903.801	7970
903.919	8088
904.038	8103
904.156	7982
904.274	8092
904.392	8020
904.51	7959
904.627	8035
904.745	8035
904.863	8039
904.981	7902
905.098	7818
905.216	7860
905.334	7830
905.451	7826
905.569	7890
905.686	7887
905.803	7909
905.921	7753
906.038	7849
906.155	7746
906.272	7723
906.389	7647
906.506	7613
906.623	7616
906.74	7590
906.857	7552
906.974	7502
907.091	7681
907.208	7670
907.324	7677
907.441	7483
907.557	7499
907.674	7468
907.79	7381
907.907	7384
908.023	7396
908.139	7419
908.256	7384
908.372	7343
908.488	7251
908.604	7285
908.72	7206
908.836	7206
908.952	7202
909.068	7240
909.184	7305
909.3	7232
909.415	7320
909.531	7251
909.647	7107
909.762	7050
909.878	7103
909.993	7122
910.108	7046
910.224	7023
910.339	7034
910.454	6973
910.57	6985
910.685	6935
910.8	7076
910.915	7103
911.03	7046
911.145	6913
911.259	6844
911.374	6871
911.489	6798
911.604	6741
911.718	6688
911.833	6665
911.947	6604
912.062	6608
912.176	6730
912.291	6700
912.405	6684
912.519	6863
912.633	6848
912.748	6715
912.862	6726
912.976	6544
913.09	6532
913.204	6623
913.318	6597
913.431	6646
913.545	6684
913.659	6700
913.772	6650
913.886	6498
914	6536
914.113	6570
914.226	6646
914.34	6559
914.453	6475
914.566	6570
914.68	6574
914.793	6506
914.906	6418
915.019	6426
915.132	6338
915.245	6460
915.358	6380
915.47	6422
915.583	6399
915.696	6460
915.809	6467
915.921	6547
916.034	6426
916.146	6407
916.259	6403
916.371	6494
916.483	6391
916.595	6292
916.708	6353
916.82	6372
916.932	6357
917.044	6327
917.156	6346
917.268	6266
917.38	6281
917.491	6319
917.603	6380
917.715	6365
917.826	6414
917.938	6323
918.049	6232
918.161	6304
918.272	6395
918.384	6361
918.495	6338
918.606	6209
918.717	6201
918.828	6235
918.939	6266
919.05	6247
919.161	6178
919.272	6148
919.383	6197
919.494	6224
919.604	6407
919.715	6323
919.826	6220
919.936	6235
920.047	6357
920.157	6235
920.267	6426
920.378	6369
920.488	6220
920.598	6426
920.708	6559
920.818	6479
920.928	6433
921.038	6551
921.148	6585
921.258	6334
921.368	6254
921.477	6155
921.587	6190
921.697	6076
921.806	6136
921.916	6041
922.025	5942
922.134	5885
922.244	5840
922.353	5916
922.462	5851
922.571	5783
922.68	5748
922.789	5695
922.898	5714
923.007	5589
923.116	5729
923.224	5619
923.333	5680
923.442	5608
923.55	5562
923.659	5551
923.767	5573
923.876	5490
923.984	5592
924.092	5486
924.201	5501
924.309	5493
924.417	5551
924.525	5535
924.633	5463
924.741	6243
924.849	5326
924.956	5474
925.064	5292
925.172	5284
925.279	5353
925.387	5364
925.494	5292
925.602	5391
925.709	5410
925.816	5239
925.924	5250
926.031	5315
926.138	5322
926.245	5258
926.352	5197
926.459	5261
926.566	5368
926.673	5204
926.779	5143
926.886	5117
926.993	5052
927.099	5006
927.206	4904
927.312	4942
927.419	4991
927.525	4965
927.631	4938
927.737	4904
927.843	4873
927.95	4744
928.056	4854
928.162	4790
928.267	4820
928.373	5349
928.479	4858
928.585	4698
928.69	4763
928.796	4733
928.901	4679
929.007	4615
929.112	4634
929.218	4637
929.323	4596
929.428	4554
929.533	4683
929.638	4512
929.743	4550
929.848	4561
929.953	4481
930.058	4451
930.163	4295
930.267	4329
930.372	4402
930.477	4280
930.581	4447
930.685	4318
930.79	4230
930.894	4284
930.998	4253
931.103	4383
931.207	4090
931.311	4086
931.415	4017
931.519	3888
931.623	3934
