Data from glass_V78500241_2598.txt Node
Date: Wed Sep 01 19:32:30 CST 2021
User: usil
Spectrometer: V785-0024
Trigger mode: 0
Integration Time (sec): 4.000000E-1
Scans to average: 1
Nonlinearity correction enabled: false
Boxcar width: 0
Storing dark spectrum: false
XAxis mode: Wavelengths
Number of Pixels in Spectrum: 1024
>>>>>Begin Spectral Data<<<<<
801.071	3717
801.214	3736
801.356	3728
801.499	3743
801.641	3709
801.783	3804
801.926	3869
802.068	3781
802.211	3838
802.353	3869
802.496	3793
802.638	3865
802.78	3926
802.923	3937
803.065	3915
803.208	3816
803.35	3873
803.492	3941
803.635	3873
803.777	3770
803.919	3899
804.061	4162
804.204	3972
804.346	3922
804.488	3915
804.63	3991
804.773	3983
804.915	4021
805.057	4143
805.199	4017
805.341	4090
805.483	4131
805.626	4143
805.768	4109
805.91	4188
806.052	4230
806.194	4196
806.336	4333
806.478	4169
806.62	4154
806.762	4154
806.904	4265
807.046	4333
807.188	4223
807.33	4097
807.472	4215
807.614	4200
807.756	4246
807.898	4207
808.04	4196
808.182	4287
808.324	4299
808.465	4329
808.607	4390
808.749	4440
808.891	4462
809.033	4440
809.174	4363
809.316	4265
809.458	4234
809.6	4162
809.741	4143
809.883	4139
810.025	4227
810.166	4192
810.308	4230
810.45	4257
810.591	4238
810.733	4291
810.875	4500
811.016	4847
811.158	5147
811.299	5273
811.441	5299
811.582	5022
811.724	4733
811.865	4481
812.007	4413
812.148	4440
812.29	4424
812.431	4440
812.573	4386
812.714	4367
812.855	4398
812.997	4432
813.138	4516
813.279	4375
813.421	4371
813.562	4386
813.703	4314
813.845	4386
813.986	4265
814.127	4234
814.268	4242
814.41	4268
814.551	4261
814.692	4341
814.833	4261
814.974	4295
815.115	4276
815.256	4234
815.397	4234
815.539	4173
815.68	4196
815.821	4223
815.962	4303
816.103	4287
816.244	4238
816.385	4215
816.526	4253
816.666	4234
816.807	4086
816.948	4158
817.089	4147
817.23	4097
817.371	4055
817.512	4021
817.653	4025
817.793	4021
817.934	4010
818.075	4059
818.216	4082
818.356	4059
818.497	4029
818.638	3869
818.778	3896
818.919	3899
819.06	3823
819.2	3934
819.341	3850
819.481	3808
819.622	3876
819.762	3987
819.903	3960
820.043	3823
820.184	3854
820.324	3831
820.465	3838
820.605	3838
820.746	3857
820.886	3789
821.026	3949
821.167	3876
821.307	3998
821.447	3987
821.588	3934
821.728	3915
821.868	3907
822.008	3876
822.149	3884
822.289	3884
822.429	3800
822.569	3778
822.709	3819
822.849	3694
822.99	3675
823.13	3724
823.27	3766
823.41	3713
823.55	3728
823.69	3713
823.83	3747
823.97	3694
824.11	3576
824.25	3591
824.389	3625
824.529	3667
824.669	3603
824.809	3736
824.949	3724
825.089	3720
825.228	3667
825.368	3534
825.508	3584
825.648	3580
825.787	3557
825.927	3599
826.067	3614
826.206	3667
826.346	3740
826.485	3808
826.625	3857
826.765	3994
826.904	3808
827.044	3576
827.183	3523
827.323	3405
827.462	3469
827.601	3428
827.741	3424
827.88	3473
828.02	3340
828.159	3443
828.298	3492
828.437	3523
828.577	3481
828.716	3553
828.855	3469
828.994	3363
829.134	3348
829.273	3397
829.412	3325
829.551	3340
829.69	3344
829.829	3409
829.968	3481
830.107	3428
830.246	3428
830.385	3389
830.524	3359
830.663	3313
830.802	3287
830.941	3173
831.08	3203
831.219	3264
831.357	3268
831.496	3393
831.635	3218
831.774	3188
831.913	3230
832.051	3161
832.19	3123
832.329	3233
832.467	3146
832.606	3123
832.744	3157
832.883	3135
833.022	3241
833.16	3241
833.299	3272
833.437	3340
833.576	3382
833.714	3382
833.852	3412
833.991	3458
834.129	3473
834.267	3409
834.406	3378
834.544	3439
834.682	3370
834.821	3374
834.959	3576
835.097	3412
835.235	3511
835.373	3481
835.511	3462
835.65	3454
835.788	3462
835.926	3359
836.064	3374
836.202	3386
836.34	3576
836.478	3603
836.615	3561
836.753	3576
836.891	3633
837.029	3591
837.167	3572
837.305	3545
837.443	3485
837.58	3515
837.718	3595
837.856	3534
837.993	3523
838.131	3561
838.269	3564
838.406	3572
838.544	3557
838.681	3447
838.819	3466
838.956	3363
839.094	3439
839.231	3477
839.369	3507
839.506	3705
839.643	3625
839.781	3523
839.918	3496
840.055	3526
840.193	3485
840.33	3481
840.467	3519
840.604	3633
840.742	3774
840.879	3481
841.016	3557
841.153	3595
841.29	3701
841.427	3720
841.564	3740
841.701	3747
841.838	3660
841.975	3663
842.112	3698
842.249	3637
842.385	3595
842.522	3823
842.659	3663
842.796	3625
842.933	3690
843.069	3701
843.206	3732
843.343	3797
843.479	3766
843.616	3800
843.752	3698
843.889	3679
844.025	3819
844.162	3713
844.298	3789
844.435	3762
844.571	3743
844.708	3880
844.844	3956
844.98	3983
845.117	3968
845.253	3876
845.389	3918
845.525	3972
845.661	3953
845.798	3964
845.934	3983
846.07	3953
846.206	4055
846.342	4105
846.478	4048
846.614	3956
846.75	3926
846.886	3857
847.022	3998
847.158	3998
847.294	3968
847.429	3998
847.565	4006
847.701	4230
847.837	3884
847.972	3854
848.108	3949
848.244	3937
848.379	3857
848.515	3816
848.65	3778
848.786	3850
848.921	3911
849.057	3934
849.192	3896
849.328	3907
849.463	3934
849.598	3850
849.734	3876
849.869	3831
850.004	3770
850.14	3785
850.275	3770
850.41	3724
850.545	3728
850.68	3755
850.815	3804
850.95	3785
851.085	3941
851.22	3819
851.355	3804
851.49	3762
851.625	3759
851.76	3789
851.895	3743
852.03	3679
852.165	3770
852.299	3842
852.434	3892
852.569	3896
852.703	3827
852.838	3915
852.973	3972
853.107	3991
853.242	3850
853.376	3812
853.511	3797
853.645	3816
853.78	3972
853.914	3865
854.048	3899
854.183	3846
854.317	3892
854.451	4071
854.585	3949
854.72	3915
854.854	4040
854.988	3926
855.122	4013
855.256	3915
855.39	3953
855.524	4139
855.658	4074
855.792	4105
855.926	4143
856.06	4181
856.194	4200
856.327	4158
856.461	4124
856.595	4101
856.729	4207
856.862	4230
856.996	4246
857.13	4276
857.263	4318
857.397	4299
857.53	4268
857.664	4409
857.797	4383
857.931	4443
858.064	4394
858.197	4474
858.331	4402
858.464	4421
858.597	4299
858.731	4413
858.864	4417
858.997	4440
859.13	4462
859.263	4577
859.396	4607
859.529	4500
859.662	4500
859.795	4519
859.928	4611
860.061	4721
860.194	4717
860.327	4649
860.46	4641
860.592	4714
860.725	4736
860.858	4767
860.99	4672
861.123	4691
861.256	4668
861.388	4771
861.521	5284
861.653	4675
861.786	4702
861.918	4725
862.05	4786
862.183	4835
862.315	4889
862.447	4942
862.58	4892
862.712	4782
862.844	4809
862.976	4854
863.108	4850
863.24	5162
863.372	4809
863.504	4866
863.636	4870
863.768	4968
863.9	4957
864.032	4915
864.164	4900
864.296	5045
864.428	5098
864.559	5045
864.691	5117
864.823	5128
864.954	5105
865.086	5117
865.217	5128
865.349	5090
865.48	5185
865.612	5151
865.743	5311
865.875	5193
866.006	5124
866.137	5197
866.269	5181
866.4	5254
866.531	5197
866.662	5246
866.793	5250
866.924	5326
867.055	5349
867.186	5360
867.317	5353
867.448	5360
867.579	5315
867.71	5334
867.841	5345
867.972	5452
868.103	5463
868.233	5505
868.364	5471
868.495	5539
868.625	5684
868.756	5767
868.886	5684
869.017	5737
869.147	5790
869.278	5863
869.408	5809
869.539	5836
869.669	5916
869.799	5931
869.929	5954
870.06	5999
870.19	6136
870.32	6155
870.45	6216
870.58	6285
870.71	6433
870.84	6486
870.97	6399
871.1	6407
871.23	6616
871.36	6707
871.489	6673
871.619	6741
871.749	6772
871.879	6825
872.008	6943
872.138	6894
872.267	6981
872.397	7023
872.526	7038
872.656	7110
872.785	7194
872.915	7365
873.044	7506
873.173	7556
873.303	7639
873.432	7746
873.561	7833
873.69	7898
873.819	8050
873.948	8145
874.077	8229
874.206	8267
874.335	8446
874.464	8583
874.593	8883
874.722	8883
874.851	9108
874.979	9222
875.108	9374
875.237	9458
875.365	9488
875.494	9580
875.623	9827
875.751	9857
875.88	9972
876.008	10090
876.136	10310
876.265	10512
876.393	10687
876.521	10660
876.65	10831
876.778	10801
876.906	10915
877.034	11083
877.162	11048
877.29	11231
877.418	11334
877.546	11296
877.674	11356
877.802	11379
877.93	11497
878.058	11532
878.185	11627
878.313	11695
878.441	11786
878.568	11657
878.696	11931
878.824	11882
878.951	12007
879.079	12060
879.206	12125
879.333	12072
879.461	11935
879.588	12076
879.715	11992
879.842	12186
879.97	11980
880.097	11889
880.224	11874
880.351	11916
880.478	11859
880.605	11878
880.732	11847
880.859	11870
880.986	11695
881.112	11851
881.239	11680
881.366	11699
881.493	11558
881.619	11573
881.746	11623
881.872	11566
881.999	11520
882.125	11444
882.252	11509
882.378	11467
882.505	11528
882.631	11379
882.757	11303
882.883	11337
883.01	11220
883.136	11197
883.262	11109
883.388	11159
883.514	11258
883.64	11208
883.766	11189
883.892	10976
884.018	10976
884.143	10968
884.269	11025
884.395	10752
884.52	10797
884.646	10812
884.772	10668
884.897	10668
885.023	10774
885.148	10634
885.274	10721
885.399	10729
885.524	10588
885.65	10519
885.775	10535
885.9	10573
886.025	10558
886.15	10565
886.275	10489
886.4	10333
886.525	10405
886.65	10421
886.775	10287
886.9	10459
887.025	10527
887.149	10356
887.274	10272
887.399	10219
887.523	10169
887.648	10109
887.773	10120
887.897	10219
888.021	10249
888.146	10025
888.27	10177
888.395	10219
888.519	10185
888.643	10219
888.767	10154
888.891	10090
889.015	9968
889.139	10109
889.263	9968
889.387	10059
889.511	10101
889.635	10002
889.759	9945
889.883	9949
890.006	9941
890.13	10067
890.254	9922
890.377	9968
890.501	9831
890.624	9888
890.748	9895
890.871	9804
890.995	9747
891.118	9648
891.241	9701
891.364	9827
891.488	9854
891.611	9800
891.734	9701
891.857	9762
891.98	9682
892.103	9789
892.226	9679
892.349	9713
892.471	9591
892.594	9591
892.717	9576
892.839	9610
892.962	9580
893.085	9637
893.207	9641
893.33	9553
893.452	9526
893.575	9610
893.697	9504
893.819	9641
893.941	9549
894.064	9542
894.186	9370
894.308	9439
894.43	9580
894.552	9599
894.674	9477
894.796	9302
894.918	9374
895.04	9294
895.161	9321
895.283	9443
895.405	9207
895.526	9302
895.648	9245
895.769	9237
895.891	9226
896.012	9249
896.134	9260
896.255	9195
896.376	9138
896.498	9154
896.619	9070
896.74	8971
896.861	9070
896.982	9241
897.103	9306
897.224	9116
897.345	9020
897.466	9039
897.587	8979
897.708	9112
897.828	9005
897.949	8994
898.07	8899
898.19	8906
898.311	8994
898.431	8845
898.552	8902
898.672	8921
898.792	8975
898.913	8826
899.033	8811
899.153	8731
899.273	8632
899.393	8720
899.513	8678
899.633	8686
899.753	8746
899.873	8739
899.993	8727
900.113	8731
900.232	8743
900.352	8594
900.472	8530
900.591	8511
900.711	8579
900.83	8507
900.95	8648
901.069	8701
901.189	8518
901.308	8537
901.427	8362
901.546	8427
901.665	8454
901.784	8450
901.904	8412
902.023	8309
902.141	8195
902.26	8233
902.379	8336
902.498	8191
902.617	8202
902.735	8294
902.854	8233
902.973	8237
903.091	8145
903.21	8134
903.328	8142
903.446	8084
903.565	8035
903.683	8115
903.801	8039
903.919	8084
904.038	8210
904.156	8031
904.274	8069
904.392	7967
904.51	8050
904.627	8001
904.745	8123
904.863	8065
904.981	7928
905.098	7894
905.216	7830
905.334	7887
905.451	7845
905.569	7811
905.686	7875
905.803	7925
905.921	7788
906.038	7826
906.155	7742
906.272	7685
906.389	7753
906.506	7586
906.623	7601
906.74	7582
906.857	7499
906.974	7502
907.091	7696
907.208	7662
907.324	7605
907.441	7460
907.557	7453
907.674	7434
907.79	7362
907.907	7411
908.023	7426
908.139	7422
908.256	7415
908.372	7384
908.488	7305
908.604	7213
908.72	7202
908.836	7247
908.952	7278
909.068	7240
909.184	7335
909.3	7274
909.415	7259
909.531	7301
909.647	7137
909.762	7141
909.878	6996
909.993	7099
910.108	7095
910.224	7091
910.339	7103
910.454	7072
910.57	7012
910.685	7019
910.8	7168
910.915	7129
911.03	7008
911.145	6886
911.259	6844
911.374	6916
911.489	6867
911.604	6795
911.718	6665
911.833	6738
911.947	6662
912.062	6597
912.176	6726
912.291	6639
912.405	6662
912.519	6749
912.633	6848
912.748	6753
912.862	6722
912.976	6574
913.09	6452
913.204	6582
913.318	6589
913.431	6654
913.545	6654
913.659	6650
913.772	6608
913.886	6475
914	6536
914.113	6612
914.226	6627
914.34	6635
914.453	6464
914.566	6559
914.68	6536
914.793	6498
914.906	6433
915.019	6395
915.132	6376
915.245	6372
915.358	6410
915.47	6429
915.583	6388
915.696	6418
915.809	6551
915.921	6563
916.034	6384
916.146	6403
916.259	6361
916.371	6471
916.483	6471
916.595	6426
916.708	6410
916.82	6350
916.932	6437
917.044	6399
917.156	6388
917.268	6289
917.38	6361
917.491	6342
917.603	6376
917.715	6357
917.826	6361
917.938	6300
918.049	6220
918.161	6319
918.272	6429
918.384	6369
918.495	6395
918.606	6243
918.717	6205
918.828	6232
918.939	6247
919.05	6163
919.161	6258
919.272	6133
919.383	6129
919.494	6262
919.604	6399
919.715	6235
919.826	6194
919.936	6239
920.047	6311
920.157	6258
920.267	6410
920.378	6323
920.488	6262
920.598	6456
920.708	6551
920.818	6407
920.928	6452
921.038	6532
921.148	6525
921.258	6300
921.368	6273
921.477	6167
921.587	6133
921.697	6102
921.806	6167
921.916	6057
922.025	5935
922.134	5923
922.244	5844
922.353	5923
922.462	5798
922.571	5756
922.68	5695
922.789	5688
922.898	5672
923.007	5653
923.116	5722
923.224	5611
923.333	5619
923.442	5592
923.55	5558
923.659	5596
923.767	5615
923.876	5490
923.984	5592
924.092	5474
924.201	5562
924.309	5509
924.417	5535
924.525	5520
924.633	5505
924.741	6327
924.849	5364
924.956	5486
925.064	5341
925.172	5315
925.279	5353
925.387	5326
925.494	5349
925.602	5463
925.709	5395
925.816	5269
925.924	5315
926.031	5429
926.138	5322
926.245	5311
926.352	5235
926.459	5311
926.566	5315
926.673	5235
926.779	5079
926.886	5094
926.993	5033
927.099	4987
927.206	4957
927.312	4976
927.419	4999
927.525	4942
927.631	4968
927.737	4843
927.843	4862
927.95	4774
928.056	4793
928.162	4809
928.267	4763
928.373	5261
928.479	4873
928.585	4660
928.69	4752
928.796	4767
928.901	4675
929.007	4618
929.112	4660
929.218	4573
929.323	4580
929.428	4523
929.533	4653
929.638	4516
929.743	4546
929.848	4569
929.953	4462
930.058	4474
930.163	4303
930.267	4337
930.372	4375
930.477	4303
930.581	4451
930.685	4390
930.79	4257
930.894	4303
930.998	4280
931.103	4383
931.207	4109
931.311	4093
931.415	4074
931.519	3907
931.623	3892
