Data from glass_V78500241_295.txt Node
Date: Wed Sep 01 19:16:32 CST 2021
User: usil
Spectrometer: V785-0024
Trigger mode: 0
Integration Time (sec): 4.000000E-1
Scans to average: 1
Nonlinearity correction enabled: false
Boxcar width: 0
Storing dark spectrum: false
XAxis mode: Wavelengths
Number of Pixels in Spectrum: 1024
>>>>>Begin Spectral Data<<<<<
801.071	3713
801.214	3751
801.356	3705
801.499	3751
801.641	3743
801.783	3804
801.926	3896
802.068	3857
802.211	3857
802.353	3888
802.496	3876
802.638	3884
802.78	3892
802.923	3979
803.065	3937
803.208	3857
803.35	3911
803.492	3903
803.635	3945
803.777	3785
803.919	3911
804.061	4173
804.204	3960
804.346	3983
804.488	3907
804.63	4078
804.773	3968
804.915	4040
805.057	4150
805.199	4097
805.341	4112
805.483	4124
805.626	4143
805.768	4128
805.91	4204
806.052	4280
806.194	4196
806.336	4360
806.478	4223
806.62	4196
806.762	4215
806.904	4299
807.046	4363
807.188	4192
807.33	4204
807.472	4234
807.614	4166
807.756	4257
807.898	4227
808.04	4242
808.182	4284
808.324	4337
808.465	4398
808.607	4485
808.749	4546
808.891	4447
809.033	4516
809.174	4402
809.316	4253
809.458	4253
809.6	4162
809.741	4181
809.883	4173
810.025	4188
810.166	4207
810.308	4268
810.45	4234
810.591	4196
810.733	4272
810.875	4565
811.016	4847
811.158	5181
811.299	5239
811.441	5357
811.582	5075
811.724	4774
811.865	4462
812.007	4512
812.148	4424
812.29	4424
812.431	4424
812.573	4386
812.714	4390
812.855	4451
812.997	4398
813.138	4527
813.279	4417
813.421	4394
813.562	4356
813.703	4310
813.845	4318
813.986	4257
814.127	4234
814.268	4284
814.41	4352
814.551	4287
814.692	4402
814.833	4253
814.974	4337
815.115	4367
815.256	4272
815.397	4284
815.539	4227
815.68	4204
815.821	4196
815.962	4303
816.103	4303
816.244	4238
816.385	4253
816.526	4306
816.666	4246
816.807	4090
816.948	4185
817.089	4253
817.23	4131
817.371	4071
817.512	4074
817.653	4063
817.793	4059
817.934	4021
818.075	4128
818.216	4090
818.356	4105
818.497	4002
818.638	3918
818.778	3956
818.919	3934
819.06	3873
819.2	3915
819.341	3911
819.481	3850
819.622	3930
819.762	4036
819.903	3972
820.043	3838
820.184	3846
820.324	3854
820.465	3899
820.605	3854
820.746	3880
820.886	3785
821.026	3937
821.167	3945
821.307	4021
821.447	4029
821.588	3953
821.728	3987
821.868	3964
822.008	3838
822.149	3949
822.289	3960
822.429	3774
822.569	3781
822.709	3854
822.849	3755
822.99	3724
823.13	3770
823.27	3781
823.41	3663
823.55	3793
823.69	3755
823.83	3755
823.97	3701
824.11	3641
824.25	3633
824.389	3652
824.529	3709
824.669	3584
824.809	3774
824.949	3743
825.089	3755
825.228	3724
825.368	3599
825.508	3549
825.648	3572
825.787	3614
825.927	3667
826.067	3606
826.206	3717
826.346	3812
826.485	3884
826.625	3892
826.765	3941
826.904	3816
827.044	3648
827.183	3530
827.323	3454
827.462	3485
827.601	3500
827.741	3439
827.88	3458
828.02	3359
828.159	3447
828.298	3454
828.437	3591
828.577	3519
828.716	3603
828.855	3519
828.994	3401
829.134	3370
829.273	3382
829.412	3355
829.551	3351
829.69	3351
829.829	3439
829.968	3488
830.107	3458
830.246	3500
830.385	3386
830.524	3386
830.663	3340
830.802	3268
830.941	3199
831.08	3214
831.219	3253
831.357	3256
831.496	3431
831.635	3253
831.774	3199
831.913	3207
832.051	3135
832.19	3180
832.329	3211
832.467	3123
832.606	3138
832.744	3157
832.883	3176
833.022	3211
833.16	3317
833.299	3291
833.437	3363
833.576	3351
833.714	3481
833.852	3492
833.991	3424
834.129	3507
834.267	3469
834.406	3435
834.544	3428
834.682	3428
834.821	3488
834.959	3595
835.097	3412
835.235	3515
835.373	3450
835.511	3488
835.65	3458
835.788	3477
835.926	3393
836.064	3424
836.202	3405
836.34	3591
836.478	3618
836.615	3526
836.753	3629
836.891	3663
837.029	3667
837.167	3564
837.305	3572
837.443	3545
837.58	3507
837.718	3599
837.856	3542
837.993	3561
838.131	3629
838.269	3614
838.406	3606
838.544	3595
838.681	3477
838.819	3420
838.956	3397
839.094	3424
839.231	3450
839.369	3538
839.506	3743
839.643	3629
839.781	3557
839.918	3492
840.055	3538
840.193	3523
840.33	3568
840.467	3561
840.604	3564
840.742	3808
840.879	3511
841.016	3587
841.153	3606
841.29	3785
841.427	3728
841.564	3717
841.701	3751
841.838	3694
841.975	3671
842.112	3751
842.249	3606
842.385	3644
842.522	3861
842.659	3724
842.796	3633
842.933	3751
843.069	3717
843.206	3747
843.343	3819
843.479	3819
843.616	3861
843.752	3717
843.889	3698
844.025	3892
844.162	3728
844.298	3846
844.435	3793
844.571	3797
844.708	3907
844.844	4010
844.98	4036
845.117	4013
845.253	3937
845.389	3926
845.525	3979
845.661	3979
845.798	3987
845.934	3998
846.07	3956
846.206	4048
846.342	4150
846.478	4097
846.614	3934
846.75	4017
846.886	3941
847.022	4067
847.158	3987
847.294	4029
847.429	4017
847.565	3994
847.701	4265
847.837	3915
847.972	3918
848.108	3979
848.244	3975
848.379	3831
848.515	3812
848.65	3842
848.786	3800
848.921	3884
849.057	3949
849.192	3945
849.328	3918
849.463	3934
849.598	3899
849.734	3953
849.869	3835
850.004	3789
850.14	3823
850.275	3789
850.41	3751
850.545	3778
850.68	3751
850.815	3781
850.95	3797
851.085	3937
851.22	3899
851.355	3816
851.49	3827
851.625	3831
851.76	3827
851.895	3770
852.03	3747
852.165	3835
852.299	3854
852.434	3884
852.569	3854
852.703	3892
852.838	3983
852.973	4029
853.107	4010
853.242	3892
853.376	3873
853.511	3774
853.645	3838
853.78	3979
853.914	3922
854.048	3907
854.183	3880
854.317	4002
854.451	4040
854.585	3975
854.72	3945
854.854	4044
854.988	3937
855.122	4059
855.256	3922
855.39	4055
855.524	4109
855.658	4112
855.792	4048
855.926	4143
856.06	4169
856.194	4253
856.327	4147
856.461	4120
856.595	4158
856.729	4200
856.862	4306
856.996	4314
857.13	4268
857.263	4348
857.397	4337
857.53	4310
857.664	4337
857.797	4447
857.931	4432
858.064	4394
858.197	4466
858.331	4417
858.464	4421
858.597	4348
858.731	4383
858.864	4474
858.997	4481
859.13	4523
859.263	4523
859.396	4641
859.529	4500
859.662	4500
859.795	4523
859.928	4573
860.061	4736
860.194	4793
860.327	4622
860.46	4645
860.592	4706
860.725	4778
860.858	4759
860.99	4725
861.123	4694
861.256	4729
861.388	4748
861.521	5303
861.653	4748
861.786	4771
861.918	4763
862.05	4771
862.183	4873
862.315	4915
862.447	4919
862.58	4877
862.712	4797
862.844	4759
862.976	4892
863.108	4889
863.24	5261
863.372	4824
863.504	4972
863.636	4915
863.768	5003
863.9	5010
864.032	4900
864.164	4987
864.296	5025
864.428	5083
864.559	5121
864.691	5124
864.823	5143
864.954	5136
865.086	5121
865.217	5189
865.349	5132
865.48	5151
865.612	5197
865.743	5345
865.875	5212
866.006	5174
866.137	5231
866.269	5254
866.4	5277
866.531	5261
866.662	5277
866.793	5204
866.924	5307
867.055	5284
867.186	5299
867.317	5349
867.448	5299
867.579	5406
867.71	5372
867.841	5383
867.972	5429
868.103	5463
868.233	5467
868.364	5497
868.495	5505
868.625	5676
868.756	5798
868.886	5680
869.017	5775
869.147	5912
869.278	5901
869.408	5866
869.539	5805
869.669	5939
869.799	5942
869.929	6041
870.06	6022
870.19	6163
870.32	6220
870.45	6247
870.58	6361
870.71	6490
870.84	6464
870.97	6433
871.1	6490
871.23	6658
871.36	6719
871.489	6692
871.619	6779
871.749	6791
871.879	6859
872.008	6947
872.138	6928
872.267	7038
872.397	7008
872.526	7053
872.656	7110
872.785	7247
872.915	7365
873.044	7556
873.173	7533
873.303	7647
873.432	7723
873.561	7883
873.69	7921
873.819	8031
873.948	8119
874.077	8267
874.206	8339
874.335	8450
874.464	8667
874.593	8933
874.722	9024
874.851	9184
874.979	9211
875.108	9321
875.237	9462
875.365	9488
875.494	9610
875.623	9865
875.751	9915
875.88	10006
876.008	10105
876.136	10265
876.265	10500
876.393	10752
876.521	10740
876.65	10824
876.778	10904
876.906	10976
877.034	11052
877.162	11064
877.29	11052
877.418	11360
877.546	11341
877.674	11372
877.802	11448
877.93	11543
878.058	11581
878.185	11577
878.313	11684
878.441	11779
878.568	11623
878.696	11889
878.824	11851
878.951	11931
879.079	12076
879.206	12163
879.333	12095
879.461	11977
879.588	12079
879.715	12121
879.842	12277
879.97	12072
880.097	11904
880.224	11805
880.351	11904
880.478	11866
880.605	11794
880.732	11832
880.859	11999
880.986	11916
881.112	11950
881.239	11748
881.366	11634
881.493	11604
881.619	11524
881.746	11554
881.872	11573
881.999	11524
882.125	11486
882.252	11543
882.378	11467
882.505	11600
882.631	11364
882.757	11280
882.883	11379
883.01	11292
883.136	11170
883.262	11132
883.388	11052
883.514	11189
883.64	11185
883.766	11098
883.892	10927
884.018	10923
884.143	11128
884.269	11105
884.395	10866
884.52	10763
884.646	10774
884.772	10687
884.897	10710
885.023	10714
885.148	10725
885.274	10786
885.399	10687
885.524	10679
885.65	10653
885.775	10637
885.9	10462
886.025	10687
886.15	10531
886.275	10531
886.4	10424
886.525	10386
886.65	10428
886.775	10348
886.9	10440
887.025	10565
887.149	10379
887.274	10215
887.399	10185
887.523	10112
887.648	10139
887.773	10112
887.897	10268
888.021	10196
888.146	10173
888.27	10230
888.395	10169
888.519	10219
888.643	10196
888.767	10139
888.891	10116
889.015	10044
889.139	10101
889.263	9964
889.387	10067
889.511	10082
889.635	10071
889.759	10055
889.883	10010
890.006	10051
890.13	10101
890.254	9953
890.377	9945
890.501	9907
890.624	9892
890.748	9854
890.871	9755
890.995	9816
891.118	9698
891.241	9819
891.364	9766
891.488	9888
891.611	9800
891.734	9785
891.857	9808
891.98	9766
892.103	9759
892.226	9717
892.349	9679
892.471	9515
892.594	9595
892.717	9568
892.839	9599
892.962	9660
893.085	9724
893.207	9599
893.33	9534
893.452	9584
893.575	9610
893.697	9561
893.819	9648
893.941	9633
894.064	9576
894.186	9435
894.308	9458
894.43	9511
894.552	9622
894.674	9485
894.796	9332
894.918	9428
895.04	9340
895.161	9420
895.283	9443
895.405	9226
895.526	9378
895.648	9264
895.769	9321
895.891	9332
896.012	9325
896.134	9233
896.255	9165
896.376	9116
896.498	9157
896.619	9127
896.74	9150
896.861	9123
896.982	9233
897.103	9237
897.224	9154
897.345	8998
897.466	8963
897.587	9070
897.708	9123
897.828	8971
897.949	8975
898.07	8902
898.19	8887
898.311	9009
898.431	8868
898.552	8929
898.672	8975
898.792	8956
898.913	8918
899.033	8781
899.153	8785
899.273	8644
899.393	8712
899.513	8769
899.633	8701
899.753	8750
899.873	8659
899.993	8819
900.113	8720
900.232	8686
900.352	8610
900.472	8602
900.591	8648
900.711	8514
900.83	8575
900.95	8731
901.069	8598
901.189	8587
901.308	8404
901.427	8450
901.546	8514
901.665	8499
901.784	8549
901.904	8461
902.023	8339
902.141	8279
902.26	8191
902.379	8320
902.498	8199
902.617	8233
902.735	8313
902.854	8275
902.973	8237
903.091	8096
903.21	8138
903.328	8157
903.446	8119
903.565	8058
903.683	8111
903.801	8065
903.919	8107
904.038	8180
904.156	8054
904.274	8111
904.392	7947
904.51	8092
904.627	8138
904.745	8103
904.863	8119
904.981	7959
905.098	7890
905.216	7830
905.334	7852
905.451	7887
905.569	7830
905.686	7978
905.803	7917
905.921	7814
906.038	7883
906.155	7719
906.272	7757
906.389	7769
906.506	7685
906.623	7620
906.74	7677
906.857	7575
906.974	7609
907.091	7655
907.208	7746
907.324	7719
907.441	7639
907.557	7518
907.674	7533
907.79	7487
907.907	7495
908.023	7441
908.139	7472
908.256	7373
908.372	7392
908.488	7350
908.604	7282
908.72	7225
908.836	7259
908.952	7316
909.068	7251
909.184	7327
909.3	7236
909.415	7388
909.531	7312
909.647	7118
909.762	7133
909.878	7065
909.993	7110
910.108	7107
910.224	7084
910.339	7088
910.454	7050
910.57	7034
910.685	6962
910.8	7145
910.915	7107
911.03	7034
911.145	6894
911.259	6905
911.374	6875
911.489	6825
911.604	6810
911.718	6760
911.833	6726
911.947	6627
912.062	6608
912.176	6665
912.291	6681
912.405	6753
912.519	6810
912.633	6833
912.748	6726
912.862	6734
912.976	6604
913.09	6513
913.204	6620
913.318	6612
913.431	6722
913.545	6692
913.659	6677
913.772	6684
913.886	6536
914	6517
914.113	6696
914.226	6673
914.34	6616
914.453	6460
914.566	6589
914.68	6536
914.793	6566
914.906	6441
915.019	6426
915.132	6422
915.245	6403
915.358	6467
915.47	6407
915.583	6437
915.696	6521
915.809	6536
915.921	6540
916.034	6418
916.146	6426
916.259	6399
916.371	6498
916.483	6448
916.595	6384
916.708	6418
916.82	6365
916.932	6391
917.044	6399
917.156	6441
917.268	6281
917.38	6350
917.491	6304
917.603	6327
917.715	6391
917.826	6426
917.938	6365
918.049	6197
918.161	6372
918.272	6479
918.384	6494
918.495	6365
918.606	6270
918.717	6194
918.828	6281
918.939	6380
919.05	6270
919.161	6232
919.272	6125
919.383	6152
919.494	6262
919.604	6418
919.715	6296
919.826	6232
919.936	6220
920.047	6353
920.157	6300
920.267	6460
920.378	6327
920.488	6254
920.598	6399
920.708	6574
920.818	6502
920.928	6475
921.038	6589
921.148	6589
921.258	6376
921.368	6281
921.477	6258
921.587	6205
921.697	6079
921.806	6213
921.916	6049
922.025	5969
922.134	6034
922.244	5931
922.353	5931
922.462	5893
922.571	5851
922.68	5741
922.789	5668
922.898	5684
923.007	5627
923.116	5707
923.224	5672
923.333	5672
923.442	5592
923.55	5646
923.659	5665
923.767	5600
923.876	5516
923.984	5642
924.092	5493
924.201	5566
924.309	5589
924.417	5570
924.525	5520
924.633	5493
924.741	6292
924.849	5429
924.956	5490
925.064	5395
925.172	5334
925.279	5254
925.387	5357
925.494	5326
925.602	5440
925.709	5391
925.816	5258
925.924	5318
926.031	5318
926.138	5334
926.245	5360
926.352	5231
926.459	5318
926.566	5284
926.673	5239
926.779	5193
926.886	5128
926.993	5041
927.099	5018
927.206	4953
927.312	4953
927.419	4991
927.525	5018
927.631	5033
927.737	4858
927.843	4889
927.95	4835
928.056	4881
928.162	4866
928.267	4862
928.373	5326
928.479	4850
928.585	4714
928.69	4790
928.796	4797
928.901	4752
929.007	4672
929.112	4717
929.218	4634
929.323	4580
929.428	4561
929.533	4679
929.638	4558
929.743	4523
929.848	4596
929.953	4519
930.058	4462
930.163	4341
930.267	4337
930.372	4440
930.477	4363
930.581	4459
930.685	4413
930.79	4219
930.894	4306
930.998	4287
931.103	4443
931.207	4185
931.311	4101
931.415	4059
931.519	3918
931.623	3964
