Data from glass_V78500241_152.txt Node
Date: Wed Sep 01 19:15:33 CST 2021
User: usil
Spectrometer: V785-0024
Trigger mode: 0
Integration Time (sec): 4.000000E-1
Scans to average: 1
Nonlinearity correction enabled: false
Boxcar width: 0
Storing dark spectrum: false
XAxis mode: Wavelengths
Number of Pixels in Spectrum: 1024
>>>>>Begin Spectral Data<<<<<
801.071	3713
801.214	3743
801.356	3743
801.499	3751
801.641	3770
801.783	3774
801.926	3899
802.068	3899
802.211	3827
802.353	3934
802.496	3819
802.638	3892
802.78	3880
802.923	3930
803.065	3896
803.208	3857
803.35	3892
803.492	3903
803.635	3896
803.777	3808
803.919	3926
804.061	4154
804.204	3975
804.346	3991
804.488	3964
804.63	4048
804.773	3998
804.915	4040
805.057	4135
805.199	4051
805.341	4116
805.483	4139
805.626	4147
805.768	4109
805.91	4200
806.052	4257
806.194	4227
806.336	4356
806.478	4204
806.62	4196
806.762	4238
806.904	4227
807.046	4322
807.188	4204
807.33	4215
807.472	4223
807.614	4219
807.756	4291
807.898	4249
808.04	4234
808.182	4268
808.324	4367
808.465	4390
808.607	4440
808.749	4497
808.891	4550
809.033	4546
809.174	4413
809.316	4253
809.458	4253
809.6	4147
809.741	4204
809.883	4139
810.025	4192
810.166	4227
810.308	4230
810.45	4249
810.591	4234
810.733	4341
810.875	4531
811.016	4862
811.158	5128
811.299	5288
811.441	5303
811.582	5079
811.724	4706
811.865	4478
812.007	4481
812.148	4474
812.29	4413
812.431	4447
812.573	4409
812.714	4394
812.855	4421
812.997	4390
813.138	4531
813.279	4413
813.421	4394
813.562	4405
813.703	4333
813.845	4367
813.986	4287
814.127	4223
814.268	4310
814.41	4299
814.551	4284
814.692	4363
814.833	4280
814.974	4337
815.115	4363
815.256	4299
815.397	4230
815.539	4291
815.68	4188
815.821	4310
815.962	4352
816.103	4310
816.244	4261
816.385	4215
816.526	4322
816.666	4173
816.807	4101
816.948	4177
817.089	4185
817.23	4120
817.371	4044
817.512	4044
817.653	4097
817.793	4048
817.934	4036
818.075	4097
818.216	4090
818.356	4071
818.497	4025
818.638	3907
818.778	3915
818.919	3854
819.06	3899
819.2	3949
819.341	3884
819.481	3876
819.622	3934
819.762	4032
819.903	3983
820.043	3869
820.184	3899
820.324	3873
820.465	3888
820.605	3880
820.746	3918
820.886	3812
821.026	3907
821.167	3903
821.307	4006
821.447	3975
821.588	3975
821.728	3911
821.868	3975
822.008	3854
822.149	3922
822.289	3964
822.429	3808
822.569	3751
822.709	3812
822.849	3759
822.99	3740
823.13	3755
823.27	3793
823.41	3713
823.55	3724
823.69	3736
823.83	3751
823.97	3694
824.11	3622
824.25	3591
824.389	3625
824.529	3690
824.669	3663
824.809	3732
824.949	3774
825.089	3736
825.228	3740
825.368	3584
825.508	3576
825.648	3618
825.787	3652
825.927	3698
826.067	3644
826.206	3652
826.346	3785
826.485	3865
826.625	3899
826.765	3960
826.904	3823
827.044	3652
827.183	3561
827.323	3466
827.462	3519
827.601	3439
827.741	3450
827.88	3477
828.02	3367
828.159	3428
828.298	3492
828.437	3561
828.577	3515
828.716	3595
828.855	3515
828.994	3393
829.134	3382
829.273	3386
829.412	3351
829.551	3374
829.69	3378
829.829	3435
829.968	3530
830.107	3409
830.246	3458
830.385	3382
830.524	3370
830.663	3329
830.802	3294
830.941	3214
831.08	3207
831.219	3272
831.357	3256
831.496	3435
831.635	3237
831.774	3188
831.913	3237
832.051	3138
832.19	3154
832.329	3245
832.467	3157
832.606	3097
832.744	3184
832.883	3176
833.022	3222
833.16	3260
833.299	3283
833.437	3359
833.576	3359
833.714	3428
833.852	3435
833.991	3458
834.129	3500
834.267	3477
834.406	3389
834.544	3439
834.682	3439
834.821	3401
834.959	3584
835.097	3454
835.235	3542
835.373	3515
835.511	3504
835.65	3488
835.788	3515
835.926	3397
836.064	3416
836.202	3409
836.34	3561
836.478	3625
836.615	3576
836.753	3652
836.891	3641
837.029	3644
837.167	3622
837.305	3534
837.443	3610
837.58	3523
837.718	3629
837.856	3584
837.993	3542
838.131	3584
838.269	3622
838.406	3584
838.544	3622
838.681	3477
838.819	3447
838.956	3393
839.094	3435
839.231	3477
839.369	3492
839.506	3732
839.643	3656
839.781	3492
839.918	3439
840.055	3523
840.193	3534
840.33	3595
840.467	3576
840.604	3610
840.742	3842
840.879	3576
841.016	3553
841.153	3576
841.29	3793
841.427	3781
841.564	3755
841.701	3781
841.838	3728
841.975	3743
842.112	3736
842.249	3667
842.385	3625
842.522	3880
842.659	3717
842.796	3705
842.933	3713
843.069	3736
843.206	3724
843.343	3857
843.479	3785
843.616	3823
843.752	3701
843.889	3701
844.025	3888
844.162	3679
844.298	3857
844.435	3835
844.571	3778
844.708	3899
844.844	4032
844.98	4029
845.117	4032
845.253	3922
845.389	3896
845.525	3975
845.661	4006
845.798	3949
845.934	4025
846.07	3953
846.206	4078
846.342	4150
846.478	4051
846.614	3975
846.75	3945
846.886	3922
847.022	4078
847.158	3960
847.294	3998
847.429	4036
847.565	3983
847.701	4272
847.837	3911
847.972	3854
848.108	3983
848.244	3975
848.379	3861
848.515	3865
848.65	3842
848.786	3850
848.921	3880
849.057	3930
849.192	3960
849.328	3945
849.463	3941
849.598	3918
849.734	3911
849.869	3816
850.004	3804
850.14	3842
850.275	3789
850.41	3709
850.545	3751
850.68	3823
850.815	3816
850.95	3800
851.085	3949
851.22	3880
851.355	3857
851.49	3789
851.625	3785
851.76	3812
851.895	3812
852.03	3755
852.165	3797
852.299	3797
852.434	3899
852.569	3854
852.703	3896
852.838	3991
852.973	4017
853.107	4025
853.242	3941
853.376	3861
853.511	3785
853.645	3869
853.78	3987
853.914	3945
854.048	3911
854.183	3857
854.317	3937
854.451	4040
854.585	3956
854.72	3968
854.854	4074
854.988	3930
855.122	4025
855.256	3888
855.39	4025
855.524	4135
855.658	4116
855.792	4131
855.926	4166
856.06	4196
856.194	4246
856.327	4200
856.461	4150
856.595	4192
856.729	4173
856.862	4295
856.996	4223
857.13	4295
857.263	4306
857.397	4352
857.53	4303
857.664	4375
857.797	4432
857.931	4413
858.064	4405
858.197	4508
858.331	4424
858.464	4383
858.597	4348
858.731	4466
858.864	4554
858.997	4413
859.13	4523
859.263	4554
859.396	4615
859.529	4550
859.662	4531
859.795	4558
859.928	4626
860.061	4733
860.194	4771
860.327	4664
860.46	4714
860.592	4744
860.725	4782
860.858	4801
860.99	4714
861.123	4717
861.256	4691
861.388	4790
861.521	5551
861.653	4748
861.786	4729
861.918	4759
862.05	4786
862.183	4889
862.315	4919
862.447	4908
862.58	4908
862.712	4839
862.844	4801
862.976	4892
863.108	4892
863.24	5261
863.372	4870
863.504	4915
863.636	4923
863.768	5022
863.9	4968
864.032	4953
864.164	4957
864.296	5010
864.428	5086
864.559	5102
864.691	5128
864.823	5109
864.954	5102
865.086	5170
865.217	5117
865.349	5166
865.48	5159
865.612	5269
865.743	5288
865.875	5227
866.006	5189
866.137	5246
866.269	5258
866.4	5239
866.531	5193
866.662	5315
866.793	5284
866.924	5296
867.055	5353
867.186	5341
867.317	5326
867.448	5292
867.579	5364
867.71	5395
867.841	5414
867.972	5448
868.103	5467
868.233	5505
868.364	5512
868.495	5604
868.625	5649
868.756	5775
868.886	5688
869.017	5760
869.147	5844
869.278	5870
869.408	5794
869.539	5809
869.669	5901
869.799	5973
869.929	6011
870.06	6034
870.19	6201
870.32	6235
870.45	6277
870.58	6357
870.71	6418
870.84	6475
870.97	6437
871.1	6509
871.23	6673
871.36	6677
871.489	6711
871.619	6745
871.749	6802
871.879	6901
872.008	7042
872.138	6943
872.267	7034
872.397	6985
872.526	7095
872.656	7057
872.785	7228
872.915	7369
873.044	7567
873.173	7571
873.303	7643
873.432	7719
873.561	7883
873.69	7925
873.819	8062
873.948	8172
874.077	8206
874.206	8370
874.335	8480
874.464	8705
874.593	8887
874.722	8933
874.851	9154
874.979	9233
875.108	9397
875.237	9389
875.365	9549
875.494	9660
875.623	9884
875.751	9808
875.88	9975
876.008	10116
876.136	10360
876.265	10546
876.393	10694
876.521	10717
876.65	10809
876.778	10869
876.906	10831
877.034	10995
877.162	11166
877.29	11162
877.418	11250
877.546	11341
877.674	11436
877.802	11520
877.93	11623
878.058	11509
878.185	11547
878.313	11649
878.441	11741
878.568	11657
878.696	11885
878.824	11847
878.951	11958
879.079	12015
879.206	12213
879.333	12026
879.461	11999
879.588	12057
879.715	12041
879.842	12167
879.97	12057
880.097	11870
880.224	11828
880.351	11999
880.478	11935
880.605	11908
880.732	11840
880.859	12022
880.986	11824
881.112	11821
881.239	11745
881.366	11695
881.493	11703
881.619	11615
881.746	11589
881.872	11653
881.999	11577
882.125	11535
882.252	11630
882.378	11486
882.505	11467
882.631	11379
882.757	11246
882.883	11360
883.01	11356
883.136	11239
883.262	11155
883.388	11025
883.514	11174
883.64	11166
883.766	11132
883.892	10980
884.018	10919
884.143	11060
884.269	11140
884.395	10873
884.52	10767
884.646	10782
884.772	10771
884.897	10660
885.023	10744
885.148	10683
885.274	10858
885.399	10763
885.524	10596
885.65	10653
885.775	10618
885.9	10550
886.025	10630
886.15	10550
886.275	10409
886.4	10421
886.525	10371
886.65	10402
886.775	10287
886.9	10485
887.025	10577
887.149	10363
887.274	10291
887.399	10219
887.523	10230
887.648	10120
887.773	10188
887.897	10265
888.021	10234
888.146	10143
888.27	10272
888.395	10234
888.519	10200
888.643	10219
888.767	10227
888.891	10029
889.015	10071
889.139	10086
889.263	9964
889.387	10074
889.511	10074
889.635	10105
889.759	9960
889.883	10059
890.006	10101
890.13	10105
890.254	9899
890.377	9975
890.501	9865
890.624	9892
890.748	9899
890.871	9747
890.995	9827
891.118	9686
891.241	9816
891.364	9789
891.488	9835
891.611	9698
891.734	9766
891.857	9747
891.98	9728
892.103	9785
892.226	9774
892.349	9774
892.471	9530
892.594	9614
892.717	9709
892.839	9663
892.962	9614
893.085	9709
893.207	9614
893.33	9408
893.452	9515
893.575	9603
893.697	9572
893.819	9633
893.941	9728
894.064	9580
894.186	9401
894.308	9454
894.43	9568
894.552	9545
894.674	9523
894.796	9294
894.918	9473
895.04	9329
895.161	9428
895.283	9374
895.405	9253
895.526	9256
895.648	9275
895.769	9230
895.891	9211
896.012	9272
896.134	9287
896.255	9173
896.376	9131
896.498	9150
896.619	9070
896.74	9108
896.861	9142
896.982	9233
897.103	9268
897.224	9192
897.345	9108
897.466	9001
897.587	9051
897.708	9150
897.828	9039
897.949	8952
898.07	8906
898.19	8906
898.311	9066
898.431	8914
898.552	8918
898.672	8960
898.792	9005
898.913	8975
899.033	8815
899.153	8823
899.273	8689
899.393	8720
899.513	8739
899.633	8724
899.753	8788
899.873	8727
899.993	8746
900.113	8727
900.232	8705
900.352	8712
900.472	8571
900.591	8526
900.711	8617
900.83	8564
900.95	8651
901.069	8746
901.189	8545
901.308	8446
901.427	8389
901.546	8412
901.665	8518
901.784	8499
901.904	8408
902.023	8385
902.141	8229
902.26	8221
902.379	8225
902.498	8199
902.617	8240
902.735	8320
902.854	8313
902.973	8256
903.091	8111
903.21	8142
903.328	8123
903.446	8100
903.565	8138
903.683	8062
903.801	8096
903.919	8180
904.038	8176
904.156	8043
904.274	8062
904.392	8077
904.51	8130
904.627	8084
904.745	8138
904.863	8077
904.981	7909
905.098	7906
905.216	7921
905.334	7887
905.451	7989
905.569	7887
905.686	7951
905.803	7917
905.921	7795
906.038	7932
906.155	7674
906.272	7704
906.389	7715
906.506	7693
906.623	7655
906.74	7609
906.857	7571
906.974	7559
907.091	7636
907.208	7700
907.324	7693
907.441	7571
907.557	7396
907.674	7468
907.79	7384
907.907	7403
908.023	7457
908.139	7426
908.256	7403
908.372	7377
908.488	7362
908.604	7270
908.72	7266
908.836	7289
908.952	7293
909.068	7225
909.184	7369
909.3	7266
909.415	7278
909.531	7308
909.647	7164
909.762	7183
909.878	7133
909.993	7149
910.108	7107
910.224	7088
910.339	7080
910.454	7019
910.57	7061
910.685	6973
910.8	7240
910.915	7122
911.03	7072
911.145	6928
911.259	6897
911.374	6886
911.489	6878
911.604	6798
911.718	6738
911.833	6760
911.947	6662
912.062	6650
912.176	6669
912.291	6700
912.405	6669
912.519	6798
912.633	6840
912.748	6833
912.862	6707
912.976	6620
913.09	6570
913.204	6589
913.318	6589
913.431	6734
913.545	6700
913.659	6711
913.772	6642
913.886	6601
914	6570
914.113	6540
914.226	6650
914.34	6620
914.453	6513
914.566	6616
914.68	6525
914.793	6547
914.906	6460
915.019	6475
915.132	6361
915.245	6422
915.358	6475
915.47	6426
915.583	6441
915.696	6490
915.809	6517
915.921	6555
916.034	6403
916.146	6437
916.259	6426
916.371	6498
916.483	6445
916.595	6403
916.708	6418
916.82	6388
916.932	6388
917.044	6350
917.156	6426
917.268	6342
917.38	6353
917.491	6338
917.603	6391
917.715	6464
917.826	6437
917.938	6311
918.049	6319
918.161	6395
918.272	6464
918.384	6460
918.495	6353
918.606	6281
918.717	6209
918.828	6285
918.939	6300
919.05	6251
919.161	6300
919.272	6076
919.383	6167
919.494	6319
919.604	6452
919.715	6334
919.826	6190
919.936	6300
920.047	6289
920.157	6331
920.267	6479
920.378	6384
920.488	6304
920.598	6448
920.708	6597
920.818	6448
920.928	6456
921.038	6585
921.148	6528
921.258	6452
921.368	6239
921.477	6220
921.587	6224
921.697	6076
921.806	6144
921.916	6129
922.025	5965
922.134	5954
922.244	5897
922.353	5935
922.462	5866
922.571	5824
922.68	5748
922.789	5707
922.898	5707
923.007	5627
923.116	5691
923.224	5634
923.333	5672
923.442	5619
923.55	5604
923.659	5573
923.767	5615
923.876	5638
923.984	5615
924.092	5528
924.201	5596
924.309	5543
924.417	5562
924.525	5512
924.633	5497
924.741	6205
924.849	5379
924.956	5486
925.064	5391
925.172	5292
925.279	5311
925.387	5387
925.494	5398
925.602	5414
925.709	5398
925.816	5311
925.924	5318
926.031	5330
926.138	5307
926.245	5368
926.352	5242
926.459	5280
926.566	5330
926.673	5254
926.779	5151
926.886	5132
926.993	5048
927.099	5048
927.206	4984
927.312	5010
927.419	5045
927.525	5018
927.631	4949
927.737	4873
927.843	4904
927.95	4812
928.056	4816
928.162	4835
928.267	4839
928.373	5398
928.479	4889
928.585	4649
928.69	4786
928.796	4771
928.901	4691
929.007	4599
929.112	4717
929.218	4691
929.323	4637
929.428	4645
929.533	4672
929.638	4550
929.743	4512
929.848	4569
929.953	4542
930.058	4481
930.163	4325
930.267	4394
930.372	4470
930.477	4299
930.581	4478
930.685	4360
930.79	4295
930.894	4295
930.998	4299
931.103	4390
931.207	4131
931.311	4090
931.415	4048
931.519	3915
931.623	3968
