Data from glass_V78500241_1366.txt Node
Date: Wed Sep 01 19:23:58 CST 2021
User: usil
Spectrometer: V785-0024
Trigger mode: 0
Integration Time (sec): 4.000000E-1
Scans to average: 1
Nonlinearity correction enabled: false
Boxcar width: 0
Storing dark spectrum: false
XAxis mode: Wavelengths
Number of Pixels in Spectrum: 1024
>>>>>Begin Spectral Data<<<<<
801.071	3770
801.214	3762
801.356	3747
801.499	3724
801.641	3774
801.783	3800
801.926	3899
802.068	3823
802.211	3876
802.353	3953
802.496	3857
802.638	3842
802.78	3899
802.923	3899
803.065	3903
803.208	3873
803.35	3899
803.492	3937
803.635	3873
803.777	3740
803.919	3888
804.061	4177
804.204	3953
804.346	3956
804.488	3903
804.63	4101
804.773	4006
804.915	3987
805.057	4154
805.199	4059
805.341	4078
805.483	4093
805.626	4109
805.768	4139
805.91	4211
806.052	4207
806.194	4211
806.336	4348
806.478	4185
806.62	4196
806.762	4211
806.904	4280
807.046	4341
807.188	4249
807.33	4162
807.472	4230
807.614	4139
807.756	4299
807.898	4242
808.04	4185
808.182	4257
808.324	4348
808.465	4379
808.607	4440
808.749	4478
808.891	4462
809.033	4512
809.174	4417
809.316	4306
809.458	4284
809.6	4192
809.741	4139
809.883	4162
810.025	4204
810.166	4230
810.308	4219
810.45	4276
810.591	4230
810.733	4280
810.875	4500
811.016	4862
811.158	5105
811.299	5269
811.441	5303
811.582	5037
811.724	4691
811.865	4451
812.007	4459
812.148	4402
812.29	4360
812.431	4402
812.573	4363
812.714	4405
812.855	4428
812.997	4417
813.138	4500
813.279	4447
813.421	4363
813.562	4394
813.703	4310
813.845	4337
813.986	4249
814.127	4211
814.268	4246
814.41	4314
814.551	4265
814.692	4306
814.833	4272
814.974	4314
815.115	4348
815.256	4276
815.397	4234
815.539	4322
815.68	4215
815.821	4211
815.962	4287
816.103	4261
816.244	4227
816.385	4238
816.526	4261
816.666	4169
816.807	4097
816.948	4204
817.089	4154
817.23	4101
817.371	4067
817.512	4063
817.653	4055
817.793	3975
817.934	4036
818.075	4082
818.216	4078
818.356	4128
818.497	3983
818.638	3934
818.778	3911
818.919	3911
819.06	3831
819.2	3907
819.341	3915
819.481	3854
819.622	3937
819.762	4010
819.903	3956
820.043	3861
820.184	3804
820.324	3800
820.465	3888
820.605	3857
820.746	3869
820.886	3804
821.026	3907
821.167	3956
821.307	3998
821.447	4013
821.588	3956
821.728	3911
821.868	3934
822.008	3888
822.149	3869
822.289	3953
822.429	3785
822.569	3823
822.709	3831
822.849	3694
822.99	3675
823.13	3793
823.27	3770
823.41	3720
823.55	3743
823.69	3717
823.83	3755
823.97	3709
824.11	3641
824.25	3591
824.389	3637
824.529	3667
824.669	3618
824.809	3705
824.949	3759
825.089	3736
825.228	3686
825.368	3587
825.508	3561
825.648	3610
825.787	3603
825.927	3644
826.067	3587
826.206	3656
826.346	3804
826.485	3838
826.625	3861
826.765	3956
826.904	3819
827.044	3660
827.183	3523
827.323	3466
827.462	3481
827.601	3412
827.741	3409
827.88	3450
828.02	3359
828.159	3424
828.298	3477
828.437	3561
828.577	3466
828.716	3652
828.855	3542
828.994	3378
829.134	3370
829.273	3405
829.412	3340
829.551	3374
829.69	3382
829.829	3431
829.968	3545
830.107	3378
830.246	3450
830.385	3420
830.524	3325
830.663	3294
830.802	3272
830.941	3199
831.08	3253
831.219	3294
831.357	3302
831.496	3382
831.635	3275
831.774	3218
831.913	3203
832.051	3146
832.19	3135
832.329	3184
832.467	3142
832.606	3097
832.744	3184
832.883	3195
833.022	3192
833.16	3275
833.299	3317
833.437	3370
833.576	3378
833.714	3401
833.852	3439
833.991	3443
834.129	3454
834.267	3405
834.406	3393
834.544	3420
834.682	3450
834.821	3416
834.959	3572
835.097	3420
835.235	3564
835.373	3507
835.511	3500
835.65	3447
835.788	3443
835.926	3424
836.064	3428
836.202	3447
836.34	3591
836.478	3618
836.615	3584
836.753	3595
836.891	3675
837.029	3606
837.167	3610
837.305	3576
837.443	3530
837.58	3511
837.718	3618
837.856	3580
837.993	3591
838.131	3591
838.269	3603
838.406	3610
838.544	3610
838.681	3477
838.819	3469
838.956	3374
839.094	3431
839.231	3450
839.369	3507
839.506	3728
839.643	3603
839.781	3504
839.918	3488
840.055	3488
840.193	3511
840.33	3561
840.467	3545
840.604	3572
840.742	3819
840.879	3572
841.016	3603
841.153	3614
841.29	3709
841.427	3713
841.564	3743
841.701	3743
841.838	3698
841.975	3679
842.112	3667
842.249	3644
842.385	3606
842.522	3823
842.659	3686
842.796	3690
842.933	3713
843.069	3720
843.206	3679
843.343	3816
843.479	3781
843.616	3804
843.752	3679
843.889	3701
844.025	3884
844.162	3698
844.298	3816
844.435	3804
844.571	3789
844.708	3930
844.844	3960
844.98	4025
845.117	4048
845.253	3968
845.389	3884
845.525	3937
845.661	3934
845.798	3979
845.934	3991
846.07	3972
846.206	4078
846.342	4101
846.478	4059
846.614	3979
846.75	3964
846.886	3907
847.022	4055
847.158	3968
847.294	4051
847.429	4013
847.565	4006
847.701	4227
847.837	3907
847.972	3884
848.108	3994
848.244	4010
848.379	3861
848.515	3835
848.65	3831
848.786	3873
848.921	3823
849.057	3915
849.192	3926
849.328	3892
849.463	3907
849.598	3873
849.734	3831
849.869	3838
850.004	3835
850.14	3785
850.275	3785
850.41	3728
850.545	3759
850.68	3804
850.815	3785
850.95	3770
851.085	3949
851.22	3861
851.355	3797
851.49	3770
851.625	3808
851.76	3808
851.895	3717
852.03	3682
852.165	3819
852.299	3899
852.434	3899
852.569	3861
852.703	3857
852.838	3949
852.973	3975
853.107	4025
853.242	3896
853.376	3850
853.511	3778
853.645	3819
853.78	3979
853.914	3922
854.048	3941
854.183	3884
854.317	3968
854.451	4071
854.585	3960
854.72	3945
854.854	4082
854.988	3930
855.122	4002
855.256	3911
855.39	4010
855.524	4097
855.658	4074
855.792	4059
855.926	4150
856.06	4238
856.194	4238
856.327	4173
856.461	4143
856.595	4158
856.729	4185
856.862	4291
856.996	4246
857.13	4310
857.263	4272
857.397	4356
857.53	4314
857.664	4363
857.797	4363
857.931	4421
858.064	4398
858.197	4436
858.331	4390
858.464	4329
858.597	4375
858.731	4413
858.864	4462
858.997	4500
859.13	4516
859.263	4493
859.396	4599
859.529	4550
859.662	4493
859.795	4504
859.928	4592
860.061	4687
860.194	4740
860.327	4630
860.46	4641
860.592	4748
860.725	4801
860.858	4774
860.99	4717
861.123	4683
861.256	4664
861.388	4736
861.521	5444
861.653	4687
861.786	4714
861.918	4752
862.05	4820
862.183	4839
862.315	4904
862.447	4934
862.58	4858
862.712	4809
862.844	4744
862.976	4915
863.108	4892
863.24	5197
863.372	4835
863.504	4919
863.636	4972
863.768	4934
863.9	4976
864.032	4911
864.164	5006
864.296	5003
864.428	5064
864.559	5079
864.691	5143
864.823	5109
864.954	5094
865.086	5136
865.217	5121
865.349	5067
865.48	5147
865.612	5147
865.743	5296
865.875	5197
866.006	5185
866.137	5189
866.269	5220
866.4	5242
866.531	5239
866.662	5235
866.793	5303
866.924	5265
867.055	5376
867.186	5261
867.317	5357
867.448	5292
867.579	5395
867.71	5387
867.841	5357
867.972	5429
868.103	5482
868.233	5497
868.364	5543
868.495	5558
868.625	5695
868.756	5798
868.886	5691
869.017	5710
869.147	5824
869.278	5920
869.408	5817
869.539	5851
869.669	5904
869.799	5874
869.929	5977
870.06	6057
870.19	6117
870.32	6175
870.45	6327
870.58	6380
870.71	6403
870.84	6475
870.97	6384
871.1	6399
871.23	6627
871.36	6677
871.489	6669
871.619	6684
871.749	6795
871.879	6935
872.008	6947
872.138	6993
872.267	6985
872.397	6996
872.526	7095
872.656	7088
872.785	7244
872.915	7350
873.044	7544
873.173	7594
873.303	7677
873.432	7731
873.561	7913
873.69	7932
873.819	8050
873.948	8172
874.077	8218
874.206	8309
874.335	8461
874.464	8686
874.593	8883
874.722	8826
874.851	9142
874.979	9203
875.108	9397
875.237	9473
875.365	9500
875.494	9732
875.623	9816
875.751	9816
875.88	10051
876.008	10223
876.136	10246
876.265	10504
876.393	10691
876.521	10729
876.65	10797
876.778	10812
876.906	10987
877.034	10965
877.162	11132
877.29	11147
877.418	11303
877.546	11360
877.674	11444
877.802	11486
877.93	11539
878.058	11551
878.185	11554
878.313	11668
878.441	11672
878.568	11630
878.696	11771
878.824	11851
878.951	11984
879.079	12102
879.206	12095
879.333	12136
879.461	11992
879.588	12072
879.715	12030
879.842	12228
879.97	12011
880.097	11939
880.224	11824
880.351	11912
880.478	11878
880.605	11882
880.732	11859
880.859	12003
880.986	11851
881.112	11764
881.239	11710
881.366	11634
881.493	11630
881.619	11539
881.746	11566
881.872	11501
881.999	11516
882.125	11467
882.252	11589
882.378	11421
882.505	11535
882.631	11417
882.757	11296
882.883	11261
883.01	11227
883.136	11223
883.262	11060
883.388	11166
883.514	11201
883.64	11181
883.766	11094
883.892	11014
884.018	11014
884.143	11052
884.269	11162
884.395	10889
884.52	10767
884.646	10721
884.772	10755
884.897	10679
885.023	10679
885.148	10729
885.274	10755
885.399	10630
885.524	10634
885.65	10523
885.775	10569
885.9	10538
886.025	10641
886.15	10599
886.275	10531
886.4	10371
886.525	10382
886.65	10318
886.775	10413
886.9	10550
887.025	10527
887.149	10405
887.274	10242
887.399	10272
887.523	10211
887.648	10219
887.773	10063
887.897	10253
888.021	10257
888.146	10116
888.27	10276
888.395	10223
888.519	10211
888.643	10063
888.767	10196
888.891	10074
889.015	10051
889.139	10112
889.263	9934
889.387	10032
889.511	10139
889.635	10090
889.759	9911
889.883	9991
890.006	9960
890.13	10166
890.254	9994
890.377	10013
890.501	9934
890.624	9915
890.748	9915
890.871	9804
890.995	9732
891.118	9770
891.241	9781
891.364	9797
891.488	9831
891.611	9740
891.734	9732
891.857	9835
891.98	9667
892.103	9819
892.226	9644
892.349	9606
892.471	9473
892.594	9637
892.717	9633
892.839	9584
892.962	9610
893.085	9610
893.207	9606
893.33	9526
893.452	9458
893.575	9618
893.697	9530
893.819	9641
893.941	9606
894.064	9564
894.186	9393
894.308	9412
894.43	9504
894.552	9618
894.674	9538
894.796	9408
894.918	9428
895.04	9329
895.161	9348
895.283	9367
895.405	9226
895.526	9241
895.648	9275
895.769	9233
895.891	9294
896.012	9279
896.134	9192
896.255	9165
896.376	9085
896.498	9070
896.619	9104
896.74	9104
896.861	9077
896.982	9275
897.103	9370
897.224	9112
897.345	9020
897.466	9039
897.587	9055
897.708	9085
897.828	9066
897.949	9043
898.07	8956
898.19	8902
898.311	9066
898.431	8861
898.552	8921
898.672	9024
898.792	8933
898.913	8876
899.033	8769
899.153	8712
899.273	8644
899.393	8720
899.513	8769
899.633	8758
899.753	8785
899.873	8697
899.993	8788
900.113	8701
900.232	8663
900.352	8651
900.472	8659
900.591	8526
900.711	8545
900.83	8530
900.95	8636
901.069	8697
901.189	8648
901.308	8415
901.427	8355
901.546	8427
901.665	8492
901.784	8461
901.904	8389
902.023	8332
902.141	8233
902.26	8130
902.379	8294
902.498	8206
902.617	8221
902.735	8298
902.854	8320
902.973	8233
903.091	8134
903.21	8077
903.328	8164
903.446	8145
903.565	8107
903.683	8149
903.801	8035
903.919	8164
904.038	8100
904.156	8084
904.274	8092
904.392	8027
904.51	8012
904.627	8012
904.745	8103
904.863	8134
904.981	7898
905.098	7879
905.216	7925
905.334	7928
905.451	7894
905.569	7826
905.686	7898
905.803	7894
905.921	7734
906.038	7879
906.155	7769
906.272	7727
906.389	7776
906.506	7628
906.623	7647
906.74	7616
906.857	7582
906.974	7575
907.091	7674
907.208	7708
907.324	7639
907.441	7613
907.557	7457
907.674	7457
907.79	7396
907.907	7400
908.023	7472
908.139	7419
908.256	7384
908.372	7358
908.488	7400
908.604	7247
908.72	7190
908.836	7259
908.952	7266
909.068	7202
909.184	7297
909.3	7270
909.415	7293
909.531	7266
909.647	7133
909.762	7110
909.878	6973
909.993	7152
910.108	7076
910.224	7034
910.339	7164
910.454	7027
910.57	6958
910.685	6924
910.8	7198
910.915	7099
911.03	7023
911.145	6939
911.259	6859
911.374	6909
911.489	6844
911.604	6840
911.718	6802
911.833	6741
911.947	6707
912.062	6620
912.176	6677
912.291	6768
912.405	6722
912.519	6886
912.633	6806
912.748	6726
912.862	6741
912.976	6593
913.09	6525
913.204	6623
913.318	6654
913.431	6757
913.545	6646
913.659	6703
913.772	6688
913.886	6597
914	6578
914.113	6662
914.226	6681
914.34	6612
914.453	6490
914.566	6646
914.68	6536
914.793	6540
914.906	6369
915.019	6369
915.132	6353
915.245	6414
915.358	6418
915.47	6426
915.583	6502
915.696	6426
915.809	6540
915.921	6544
916.034	6380
916.146	6399
916.259	6384
916.371	6456
916.483	6403
916.595	6437
916.708	6376
916.82	6388
916.932	6407
917.044	6429
917.156	6342
917.268	6338
917.38	6399
917.491	6350
917.603	6403
917.715	6361
917.826	6433
917.938	6315
918.049	6289
918.161	6380
918.272	6437
918.384	6479
918.495	6350
918.606	6315
918.717	6197
918.828	6277
918.939	6266
919.05	6220
919.161	6266
919.272	6114
919.383	6125
919.494	6342
919.604	6426
919.715	6273
919.826	6228
919.936	6266
920.047	6391
920.157	6296
920.267	6479
920.378	6300
920.488	6247
920.598	6399
920.708	6631
920.818	6483
920.928	6494
921.038	6623
921.148	6623
921.258	6346
921.368	6331
921.477	6220
921.587	6133
921.697	6125
921.806	6194
921.916	6060
922.025	5980
922.134	5889
922.244	5874
922.353	5908
922.462	5859
922.571	5741
922.68	5771
922.789	5630
922.898	5684
923.007	5642
923.116	5718
923.224	5672
923.333	5691
923.442	5570
923.55	5577
923.659	5554
923.767	5684
923.876	5581
923.984	5604
924.092	5482
924.201	5585
924.309	5543
924.417	5585
924.525	5448
924.633	5551
924.741	6232
924.849	5425
924.956	5501
925.064	5353
925.172	5261
925.279	5376
925.387	5311
925.494	5376
925.602	5425
925.709	5383
925.816	5273
925.924	5303
926.031	5372
926.138	5299
926.245	5334
926.352	5227
926.459	5330
926.566	5349
926.673	5204
926.779	5124
926.886	5094
926.993	5022
927.099	4980
927.206	4999
927.312	4934
927.419	5025
927.525	4923
927.631	4953
927.737	4877
927.843	4839
927.95	4809
928.056	4824
928.162	4816
928.267	4873
928.373	5318
928.479	4854
928.585	4714
928.69	4809
928.796	4752
928.901	4675
929.007	4618
929.112	4672
929.218	4641
929.323	4615
929.428	4550
929.533	4645
929.638	4535
929.743	4535
929.848	4565
929.953	4538
930.058	4493
930.163	4325
930.267	4322
930.372	4455
930.477	4291
930.581	4451
930.685	4325
930.79	4306
930.894	4276
930.998	4265
931.103	4375
931.207	4109
931.311	4090
931.415	4055
931.519	3903
931.623	3934
