Data from glass_V78500241_1002.txt Node
Date: Wed Sep 01 19:21:26 CST 2021
User: usil
Spectrometer: V785-0024
Trigger mode: 0
Integration Time (sec): 4.000000E-1
Scans to average: 1
Nonlinearity correction enabled: false
Boxcar width: 0
Storing dark spectrum: false
XAxis mode: Wavelengths
Number of Pixels in Spectrum: 1024
>>>>>Begin Spectral Data<<<<<
801.071	3751
801.214	3728
801.356	3701
801.499	3774
801.641	3698
801.783	3785
801.926	3865
802.068	3823
802.211	3911
802.353	3865
802.496	3846
802.638	3873
802.78	3903
802.923	3945
803.065	3941
803.208	3857
803.35	3899
803.492	3926
803.635	3911
803.777	3823
803.919	3880
804.061	4166
804.204	3945
804.346	3987
804.488	3987
804.63	4055
804.773	3972
804.915	4029
805.057	4116
805.199	4051
805.341	4059
805.483	4169
805.626	4158
805.768	4131
805.91	4246
806.052	4272
806.194	4207
806.336	4352
806.478	4207
806.62	4177
806.762	4227
806.904	4303
807.046	4333
807.188	4223
807.33	4200
807.472	4280
807.614	4181
807.756	4284
807.898	4303
808.04	4215
808.182	4299
808.324	4329
808.465	4344
808.607	4508
808.749	4481
808.891	4462
809.033	4504
809.174	4390
809.316	4299
809.458	4268
809.6	4185
809.741	4169
809.883	4143
810.025	4211
810.166	4219
810.308	4227
810.45	4230
810.591	4192
810.733	4291
810.875	4527
811.016	4854
811.158	5147
811.299	5261
811.441	5296
811.582	5056
811.724	4702
811.865	4478
812.007	4485
812.148	4421
812.29	4436
812.431	4390
812.573	4371
812.714	4360
812.855	4417
812.997	4424
813.138	4523
813.279	4421
813.421	4363
813.562	4409
813.703	4284
813.845	4318
813.986	4261
814.127	4196
814.268	4276
814.41	4272
814.551	4295
814.692	4329
814.833	4299
814.974	4299
815.115	4375
815.256	4238
815.397	4268
815.539	4253
815.68	4242
815.821	4204
815.962	4272
816.103	4299
816.244	4249
816.385	4265
816.526	4314
816.666	4196
816.807	4109
816.948	4219
817.089	4234
817.23	4116
817.371	4078
817.512	4063
817.653	4082
817.793	4074
817.934	4059
818.075	4147
818.216	4059
818.356	4051
818.497	3987
818.638	3949
818.778	3915
818.919	3903
819.06	3869
819.2	3937
819.341	3892
819.481	3823
819.622	3945
819.762	3994
819.903	3968
820.043	3861
820.184	3850
820.324	3861
820.465	3854
820.605	3899
820.746	3911
820.886	3816
821.026	3934
821.167	3915
821.307	4002
821.447	3987
821.588	3998
821.728	3960
821.868	3926
822.008	3888
822.149	3922
822.289	3911
822.429	3778
822.569	3751
822.709	3762
822.849	3720
822.99	3694
823.13	3789
823.27	3762
823.41	3705
823.55	3770
823.69	3724
823.83	3785
823.97	3694
824.11	3591
824.25	3622
824.389	3663
824.529	3644
824.669	3652
824.809	3755
824.949	3793
825.089	3751
825.228	3724
825.368	3622
825.508	3568
825.648	3580
825.787	3648
825.927	3637
826.067	3599
826.206	3671
826.346	3804
826.485	3846
826.625	3838
826.765	3918
826.904	3838
827.044	3603
827.183	3534
827.323	3443
827.462	3477
827.601	3458
827.741	3435
827.88	3500
828.02	3351
828.159	3435
828.298	3469
828.437	3576
828.577	3488
828.716	3610
828.855	3519
828.994	3420
829.134	3389
829.273	3363
829.412	3321
829.551	3348
829.69	3351
829.829	3443
829.968	3488
830.107	3435
830.246	3431
830.385	3351
830.524	3340
830.663	3336
830.802	3294
830.941	3203
831.08	3161
831.219	3302
831.357	3249
831.496	3405
831.635	3260
831.774	3203
831.913	3180
832.051	3123
832.19	3192
832.329	3214
832.467	3119
832.606	3104
832.744	3203
832.883	3188
833.022	3184
833.16	3256
833.299	3291
833.437	3351
833.576	3374
833.714	3374
833.852	3443
833.991	3424
834.129	3462
834.267	3431
834.406	3412
834.544	3492
834.682	3409
834.821	3401
834.959	3591
835.097	3424
835.235	3564
835.373	3466
835.511	3511
835.65	3469
835.788	3504
835.926	3405
836.064	3386
836.202	3401
836.34	3603
836.478	3622
836.615	3576
836.753	3595
836.891	3648
837.029	3652
837.167	3584
837.305	3515
837.443	3515
837.58	3504
837.718	3584
837.856	3561
837.993	3519
838.131	3603
838.269	3587
838.406	3622
838.544	3610
838.681	3507
838.819	3450
838.956	3359
839.094	3424
839.231	3443
839.369	3549
839.506	3789
839.643	3603
839.781	3530
839.918	3462
840.055	3542
840.193	3542
840.33	3553
840.467	3599
840.604	3644
840.742	3800
840.879	3545
841.016	3553
841.153	3576
841.29	3759
841.427	3732
841.564	3709
841.701	3736
841.838	3732
841.975	3709
842.112	3724
842.249	3667
842.385	3652
842.522	3835
842.659	3694
842.796	3625
842.933	3766
843.069	3743
843.206	3709
843.343	3827
843.479	3808
843.616	3835
843.752	3698
843.889	3686
844.025	3880
844.162	3709
844.298	3835
844.435	3789
844.571	3823
844.708	3903
844.844	3975
844.98	4059
845.117	4021
845.253	3949
845.389	3896
845.525	3964
845.661	3937
845.798	3918
845.934	4010
846.07	3991
846.206	4059
846.342	4131
846.478	4090
846.614	3979
846.75	3945
846.886	3941
847.022	4044
847.158	3991
847.294	4006
847.429	3998
847.565	4002
847.701	4261
847.837	3918
847.972	3884
848.108	3968
848.244	3945
848.379	3888
848.515	3869
848.65	3804
848.786	3869
848.921	3869
849.057	3930
849.192	3930
849.328	3892
849.463	3949
849.598	3907
849.734	3861
849.869	3816
850.004	3785
850.14	3869
850.275	3789
850.41	3774
850.545	3774
850.68	3804
850.815	3842
850.95	3789
851.085	4006
851.22	3842
851.355	3850
851.49	3781
851.625	3827
851.76	3842
851.895	3793
852.03	3732
852.165	3808
852.299	3869
852.434	3915
852.569	3861
852.703	3857
852.838	3949
852.973	4032
853.107	4036
853.242	3854
853.376	3869
853.511	3762
853.645	3816
853.78	3998
853.914	3934
854.048	3873
854.183	3876
854.317	3979
854.451	4051
854.585	3949
854.72	3975
854.854	4036
854.988	3930
855.122	4032
855.256	3941
855.39	4036
855.524	4154
855.658	4097
855.792	4097
855.926	4162
856.06	4204
856.194	4192
856.327	4154
856.461	4181
856.595	4200
856.729	4219
856.862	4314
856.996	4303
857.13	4291
857.263	4318
857.397	4409
857.53	4287
857.664	4348
857.797	4383
857.931	4394
858.064	4451
858.197	4493
858.331	4379
858.464	4409
858.597	4329
858.731	4443
858.864	4440
858.997	4493
859.13	4508
859.263	4546
859.396	4565
859.529	4527
859.662	4531
859.795	4580
859.928	4622
860.061	4725
860.194	4752
860.327	4645
860.46	4675
860.592	4721
860.725	4763
860.858	4763
860.99	4714
861.123	4729
861.256	4733
861.388	4812
861.521	5509
861.653	4778
861.786	4687
861.918	4744
862.05	4729
862.183	4843
862.315	4896
862.447	4946
862.58	4915
862.712	4835
862.844	4790
862.976	4911
863.108	4908
863.24	5296
863.372	4835
863.504	4900
863.636	4930
863.768	4965
863.9	4942
864.032	4938
864.164	4972
864.296	4995
864.428	5102
864.559	5128
864.691	5083
864.823	5162
864.954	5132
865.086	5124
865.217	5128
865.349	5102
865.48	5136
865.612	5193
865.743	5326
865.875	5208
866.006	5174
866.137	5220
866.269	5231
866.4	5265
866.531	5269
866.662	5212
866.793	5250
866.924	5303
867.055	5322
867.186	5364
867.317	5326
867.448	5326
867.579	5402
867.71	5372
867.841	5387
867.972	5493
868.103	5497
868.233	5452
868.364	5554
868.495	5558
868.625	5684
868.756	5798
868.886	5729
869.017	5775
869.147	5851
869.278	5927
869.408	5844
869.539	5840
869.669	5923
869.799	5950
869.929	6030
870.06	6098
870.19	6197
870.32	6201
870.45	6281
870.58	6399
870.71	6448
870.84	6506
870.97	6445
871.1	6475
871.23	6623
871.36	6738
871.489	6658
871.619	6745
871.749	6821
871.879	6916
872.008	7015
872.138	6947
872.267	7031
872.397	7034
872.526	7019
872.656	7149
872.785	7228
872.915	7346
873.044	7563
873.173	7597
873.303	7636
873.432	7761
873.561	7898
873.69	7944
873.819	7982
873.948	8142
874.077	8233
874.206	8358
874.335	8507
874.464	8663
874.593	8876
874.722	8895
874.851	9165
874.979	9230
875.108	9382
875.237	9378
875.365	9473
875.494	9656
875.623	9876
875.751	9781
875.88	10044
876.008	10116
876.136	10314
876.265	10561
876.393	10717
876.521	10710
876.65	10854
876.778	10904
876.906	10942
877.034	11067
877.162	10987
877.29	11189
877.418	11311
877.546	11341
877.674	11398
877.802	11497
877.93	11585
878.058	11566
878.185	11520
878.313	11665
878.441	11691
878.568	11668
878.696	11794
878.824	11897
878.951	11847
879.079	12053
879.206	12076
879.333	11973
879.461	12087
879.588	12114
879.715	12068
879.842	12178
879.97	12053
880.097	11790
880.224	11866
880.351	11878
880.478	11863
880.605	11843
880.732	11923
880.859	11996
880.986	11821
881.112	11851
881.239	11726
881.366	11722
881.493	11646
881.619	11570
881.746	11573
881.872	11509
881.999	11486
882.125	11528
882.252	11539
882.378	11604
882.505	11608
882.631	11421
882.757	11318
882.883	11356
883.01	11174
883.136	11208
883.262	11193
883.388	11033
883.514	11197
883.64	11201
883.766	11201
883.892	10980
884.018	11010
884.143	11098
884.269	11071
884.395	10847
884.52	10755
884.646	10831
884.772	10725
884.897	10630
885.023	10721
885.148	10778
885.274	10828
885.399	10656
885.524	10645
885.65	10630
885.775	10618
885.9	10599
886.025	10603
886.15	10554
886.275	10481
886.4	10341
886.525	10394
886.65	10447
886.775	10348
886.9	10451
887.025	10489
887.149	10417
887.274	10344
887.399	10253
887.523	10219
887.648	10207
887.773	10177
887.897	10261
888.021	10276
888.146	10082
888.27	10192
888.395	10211
888.519	10249
888.643	10173
888.767	10200
888.891	10090
889.015	10044
889.139	10063
889.263	10036
889.387	10059
889.511	10071
889.635	10105
889.759	9991
889.883	9945
890.006	9975
890.13	10124
890.254	9960
890.377	9975
890.501	9903
890.624	9895
890.748	9911
890.871	9808
890.995	9785
891.118	9724
891.241	9797
891.364	9816
891.488	9827
891.611	9694
891.734	9759
891.857	9717
891.98	9766
892.103	9793
892.226	9770
892.349	9633
892.471	9507
892.594	9545
892.717	9557
892.839	9622
892.962	9614
893.085	9705
893.207	9545
893.33	9576
893.452	9568
893.575	9614
893.697	9538
893.819	9606
893.941	9622
894.064	9614
894.186	9534
894.308	9359
894.43	9511
894.552	9599
894.674	9545
894.796	9397
894.918	9428
895.04	9317
895.161	9283
895.283	9363
895.405	9306
895.526	9241
895.648	9264
895.769	9291
895.891	9302
896.012	9249
896.134	9249
896.255	9230
896.376	9245
896.498	9070
896.619	9180
896.74	9032
896.861	9039
896.982	9233
897.103	9336
897.224	9165
897.345	9062
897.466	8979
897.587	9077
897.708	9169
897.828	8994
897.949	9028
898.07	8853
898.19	8918
898.311	8971
898.431	8883
898.552	8929
898.672	8944
898.792	8925
898.913	8933
899.033	8750
899.153	8754
899.273	8686
899.393	8621
899.513	8796
899.633	8750
899.753	8811
899.873	8670
899.993	8701
900.113	8735
900.232	8754
900.352	8705
900.472	8701
900.591	8549
900.711	8583
900.83	8564
900.95	8648
901.069	8667
901.189	8625
901.308	8465
901.427	8400
901.546	8446
901.665	8442
901.784	8522
901.904	8396
902.023	8336
902.141	8233
902.26	8202
902.379	8290
902.498	8206
902.617	8294
902.735	8252
902.854	8298
902.973	8248
903.091	8126
903.21	8168
903.328	8168
903.446	8191
903.565	8115
903.683	8119
903.801	8039
903.919	8119
904.038	8111
904.156	8008
904.274	8084
904.392	8077
904.51	7959
904.627	8062
904.745	8031
904.863	8142
904.981	7940
905.098	7887
905.216	7887
905.334	7883
905.451	7928
905.569	7769
905.686	7902
905.803	7909
905.921	7784
906.038	7894
906.155	7772
906.272	7719
906.389	7715
906.506	7624
906.623	7632
906.74	7597
906.857	7597
906.974	7601
907.091	7689
907.208	7742
907.324	7620
907.441	7597
907.557	7434
907.674	7411
907.79	7396
907.907	7441
908.023	7426
908.139	7419
908.256	7434
908.372	7426
908.488	7358
908.604	7282
908.72	7225
908.836	7282
908.952	7198
909.068	7285
909.184	7316
909.3	7263
909.415	7308
909.531	7305
909.647	7126
909.762	7126
909.878	7069
909.993	7107
910.108	7103
910.224	7012
910.339	7114
910.454	7050
910.57	7069
910.685	6909
910.8	7183
910.915	7133
911.03	7038
911.145	7008
911.259	6886
911.374	6932
911.489	6795
911.604	6783
911.718	6707
911.833	6700
911.947	6662
912.062	6563
912.176	6726
912.291	6707
912.405	6730
912.519	6829
912.633	6856
912.748	6730
912.862	6726
912.976	6570
913.09	6547
913.204	6593
913.318	6616
913.431	6753
913.545	6726
913.659	6707
913.772	6658
913.886	6555
914	6544
914.113	6673
914.226	6650
914.34	6585
914.453	6502
914.566	6620
914.68	6517
914.793	6494
914.906	6418
915.019	6437
915.132	6365
915.245	6418
915.358	6471
915.47	6544
915.583	6441
915.696	6464
915.809	6566
915.921	6517
916.034	6407
916.146	6369
916.259	6388
916.371	6464
916.483	6498
916.595	6422
916.708	6471
916.82	6338
916.932	6426
917.044	6391
917.156	6467
917.268	6361
917.38	6323
917.491	6334
917.603	6319
917.715	6372
917.826	6407
917.938	6334
918.049	6239
918.161	6334
918.272	6384
918.384	6414
918.495	6353
918.606	6319
918.717	6292
918.828	6258
918.939	6262
919.05	6213
919.161	6289
919.272	6163
919.383	6152
919.494	6342
919.604	6448
919.715	6273
919.826	6239
919.936	6232
920.047	6369
920.157	6258
920.267	6418
920.378	6376
920.488	6376
920.598	6490
920.708	6631
920.818	6517
920.928	6502
921.038	6589
921.148	6585
921.258	6361
921.368	6342
921.477	6201
921.587	6178
921.697	6087
921.806	6186
921.916	6079
922.025	5999
922.134	5920
922.244	5885
922.353	5931
922.462	5836
922.571	5764
922.68	5729
922.789	5668
922.898	5699
923.007	5627
923.116	5703
923.224	5703
923.333	5642
923.442	5630
923.55	5558
923.659	5596
923.767	5653
923.876	5543
923.984	5577
924.092	5524
924.201	5547
924.309	5558
924.417	5566
924.525	5505
924.633	5532
924.741	6224
924.849	5391
924.956	5486
925.064	5402
925.172	5368
925.279	5330
925.387	5345
925.494	5349
925.602	5440
925.709	5417
925.816	5239
925.924	5261
926.031	5345
926.138	5311
926.245	5337
926.352	5239
926.459	5322
926.566	5311
926.673	5250
926.779	5128
926.886	5105
926.993	5086
927.099	5060
927.206	5010
927.312	4976
927.419	5025
927.525	4927
927.631	5014
927.737	4900
927.843	4961
927.95	4748
928.056	4805
928.162	4824
928.267	4862
928.373	5341
928.479	4881
928.585	4710
928.69	4816
928.796	4790
928.901	4687
929.007	4615
929.112	4672
929.218	4687
929.323	4603
929.428	4577
929.533	4649
929.638	4523
929.743	4493
929.848	4542
929.953	4565
930.058	4462
930.163	4325
930.267	4318
930.372	4451
930.477	4352
930.581	4489
930.685	4371
930.79	4268
930.894	4284
930.998	4299
931.103	4405
931.207	4131
931.311	4063
931.415	4055
931.519	3968
931.623	3937
