Data from glass_V78500241_320.txt Node
Date: Wed Sep 01 19:16:43 CST 2021
User: usil
Spectrometer: V785-0024
Trigger mode: 0
Integration Time (sec): 4.000000E-1
Scans to average: 1
Nonlinearity correction enabled: false
Boxcar width: 0
Storing dark spectrum: false
XAxis mode: Wavelengths
Number of Pixels in Spectrum: 1024
>>>>>Begin Spectral Data<<<<<
801.071	3762
801.214	3747
801.356	3720
801.499	3793
801.641	3736
801.783	3762
801.926	3823
802.068	3835
802.211	3861
802.353	3880
802.496	3831
802.638	3869
802.78	3934
802.923	3956
803.065	3945
803.208	3842
803.35	3892
803.492	3876
803.635	3937
803.777	3819
803.919	3873
804.061	4177
804.204	3991
804.346	3972
804.488	3934
804.63	4093
804.773	3953
804.915	4036
805.057	4128
805.199	4093
805.341	4093
805.483	4158
805.626	4147
805.768	4116
805.91	4196
806.052	4280
806.194	4238
806.336	4322
806.478	4223
806.62	4185
806.762	4234
806.904	4314
807.046	4367
807.188	4230
807.33	4219
807.472	4249
807.614	4207
807.756	4276
807.898	4223
808.04	4261
808.182	4322
808.324	4329
808.465	4432
808.607	4447
808.749	4443
808.891	4519
809.033	4485
809.174	4409
809.316	4303
809.458	4295
809.6	4196
809.741	4162
809.883	4059
810.025	4200
810.166	4234
810.308	4181
810.45	4249
810.591	4238
810.733	4356
810.875	4577
811.016	4786
811.158	5140
811.299	5311
811.441	5261
811.582	5102
811.724	4721
811.865	4523
812.007	4512
812.148	4455
812.29	4462
812.431	4424
812.573	4405
812.714	4371
812.855	4402
812.997	4386
813.138	4485
813.279	4417
813.421	4398
813.562	4390
813.703	4360
813.845	4367
813.986	4268
814.127	4200
814.268	4253
814.41	4265
814.551	4253
814.692	4360
814.833	4227
814.974	4329
815.115	4348
815.256	4227
815.397	4261
815.539	4287
815.68	4227
815.821	4253
815.962	4314
816.103	4325
816.244	4257
816.385	4219
816.526	4306
816.666	4227
816.807	4090
816.948	4211
817.089	4223
817.23	4158
817.371	4071
817.512	4036
817.653	4112
817.793	4055
817.934	4090
818.075	4086
818.216	4074
818.356	4135
818.497	3975
818.638	3922
818.778	3907
818.919	3903
819.06	3865
819.2	3949
819.341	3842
819.481	3850
819.622	3922
819.762	3998
819.903	3953
820.043	3907
820.184	3876
820.324	3835
820.465	3926
820.605	3880
820.746	3888
820.886	3823
821.026	3953
821.167	3930
821.307	3991
821.447	3998
821.588	3964
821.728	3968
821.868	3949
822.008	3873
822.149	3899
822.289	3918
822.429	3789
822.569	3808
822.709	3797
822.849	3679
822.99	3701
823.13	3755
823.27	3740
823.41	3713
823.55	3717
823.69	3732
823.83	3766
823.97	3698
824.11	3648
824.25	3618
824.389	3671
824.529	3671
824.669	3652
824.809	3720
824.949	3781
825.089	3732
825.228	3701
825.368	3610
825.508	3576
825.648	3564
825.787	3686
825.927	3656
826.067	3648
826.206	3709
826.346	3751
826.485	3800
826.625	3876
826.765	3968
826.904	3842
827.044	3629
827.183	3519
827.323	3477
827.462	3511
827.601	3431
827.741	3439
827.88	3477
828.02	3389
828.159	3447
828.298	3492
828.437	3523
828.577	3458
828.716	3584
828.855	3454
828.994	3412
829.134	3424
829.273	3397
829.412	3382
829.551	3378
829.69	3389
829.829	3431
829.968	3526
830.107	3473
830.246	3473
830.385	3424
830.524	3401
830.663	3287
830.802	3283
830.941	3214
831.08	3173
831.219	3279
831.357	3283
831.496	3393
831.635	3218
831.774	3195
831.913	3203
832.051	3142
832.19	3138
832.329	3218
832.467	3180
832.606	3138
832.744	3184
832.883	3154
833.022	3214
833.16	3298
833.299	3294
833.437	3329
833.576	3416
833.714	3378
833.852	3431
833.991	3431
834.129	3447
834.267	3443
834.406	3412
834.544	3409
834.682	3443
834.821	3428
834.959	3610
835.097	3435
835.235	3561
835.373	3439
835.511	3477
835.65	3488
835.788	3511
835.926	3370
836.064	3409
836.202	3416
836.34	3622
836.478	3614
836.615	3625
836.753	3622
836.891	3648
837.029	3610
837.167	3595
837.305	3572
837.443	3549
837.58	3515
837.718	3629
837.856	3553
837.993	3564
838.131	3610
838.269	3580
838.406	3614
838.544	3557
838.681	3450
838.819	3454
838.956	3401
839.094	3431
839.231	3431
839.369	3526
839.506	3717
839.643	3652
839.781	3542
839.918	3435
840.055	3492
840.193	3534
840.33	3561
840.467	3603
840.604	3564
840.742	3819
840.879	3576
841.016	3545
841.153	3568
841.29	3781
841.427	3728
841.564	3743
841.701	3766
841.838	3679
841.975	3709
842.112	3709
842.249	3682
842.385	3614
842.522	3793
842.659	3675
842.796	3717
842.933	3705
843.069	3720
843.206	3736
843.343	3846
843.479	3778
843.616	3819
843.752	3701
843.889	3660
844.025	3846
844.162	3747
844.298	3857
844.435	3808
844.571	3797
844.708	3934
844.844	3987
844.98	4017
845.117	3998
845.253	3964
845.389	3930
845.525	3960
845.661	3983
845.798	3968
845.934	4021
846.07	3975
846.206	4040
846.342	4147
846.478	4048
846.614	3960
846.75	3937
846.886	3934
847.022	4029
847.158	4010
847.294	4013
847.429	4025
847.565	4010
847.701	4215
847.837	3911
847.972	3831
848.108	3983
848.244	3979
848.379	3873
848.515	3804
848.65	3808
848.786	3903
848.921	3873
849.057	3903
849.192	3983
849.328	3934
849.463	3937
849.598	3964
849.734	3880
849.869	3827
850.004	3774
850.14	3835
850.275	3793
850.41	3774
850.545	3774
850.68	3808
850.815	3846
850.95	3800
851.085	3979
851.22	3892
851.355	3850
851.49	3835
851.625	3804
851.76	3816
851.895	3720
852.03	3751
852.165	3789
852.299	3861
852.434	3937
852.569	3888
852.703	3896
852.838	3911
852.973	4002
853.107	4002
853.242	3915
853.376	3861
853.511	3774
853.645	3876
853.78	3960
853.914	3888
854.048	3903
854.183	3880
854.317	3956
854.451	4063
854.585	3941
854.72	3956
854.854	4067
854.988	3941
855.122	4036
855.256	3918
855.39	4036
855.524	4120
855.658	4086
855.792	4093
855.926	4143
856.06	4196
856.194	4196
856.327	4188
856.461	4158
856.595	4154
856.729	4185
856.862	4280
856.996	4242
857.13	4356
857.263	4333
857.397	4367
857.53	4287
857.664	4405
857.797	4428
857.931	4451
858.064	4394
858.197	4462
858.331	4436
858.464	4398
858.597	4363
858.731	4440
858.864	4466
858.997	4489
859.13	4542
859.263	4592
859.396	4656
859.529	4603
859.662	4565
859.795	4554
859.928	4596
860.061	4706
860.194	4717
860.327	4672
860.46	4649
860.592	4752
860.725	4759
860.858	4786
860.99	4656
861.123	4641
861.256	4691
861.388	4771
861.521	5299
861.653	4793
861.786	4702
861.918	4774
862.05	4782
862.183	4873
862.315	4873
862.447	4930
862.58	4881
862.712	4801
862.844	4759
862.976	4862
863.108	4858
863.24	5273
863.372	4782
863.504	4961
863.636	4911
863.768	4999
863.9	4968
864.032	4965
864.164	4946
864.296	5025
864.428	5117
864.559	5121
864.691	5159
864.823	5124
864.954	5083
865.086	5178
865.217	5159
865.349	5090
865.48	5155
865.612	5155
865.743	5322
865.875	5201
866.006	5250
866.137	5303
866.269	5246
866.4	5201
866.531	5258
866.662	5250
866.793	5334
866.924	5261
867.055	5311
867.186	5322
867.317	5360
867.448	5322
867.579	5337
867.71	5376
867.841	5334
867.972	5452
868.103	5512
868.233	5486
868.364	5528
868.495	5532
868.625	5710
868.756	5775
868.886	5668
869.017	5741
869.147	5870
869.278	5923
869.408	5851
869.539	5863
869.669	5969
869.799	5908
869.929	5988
870.06	6060
870.19	6194
870.32	6205
870.45	6311
870.58	6403
870.71	6452
870.84	6433
870.97	6414
871.1	6441
871.23	6639
871.36	6669
871.489	6631
871.619	6802
871.749	6840
871.879	6901
872.008	7012
872.138	6996
872.267	7072
872.397	7031
872.526	7042
872.656	7149
872.785	7228
872.915	7460
873.044	7556
873.173	7609
873.303	7639
873.432	7776
873.561	7917
873.69	7951
873.819	8039
873.948	8199
874.077	8221
874.206	8313
874.335	8484
874.464	8674
874.593	8868
874.722	8929
874.851	9138
874.979	9321
875.108	9340
875.237	9492
875.365	9564
875.494	9648
875.623	9865
875.751	9854
875.88	10021
876.008	10147
876.136	10325
876.265	10493
876.393	10740
876.521	10717
876.65	10797
876.778	10908
876.906	11003
877.034	10934
877.162	11178
877.29	11185
877.418	11341
877.546	11395
877.674	11490
877.802	11547
877.93	11512
878.058	11558
878.185	11528
878.313	11581
878.441	11748
878.568	11642
878.696	11882
878.824	11805
878.951	11901
879.079	12038
879.206	12121
879.333	12068
879.461	12041
879.588	12106
879.715	12072
879.842	12186
879.97	12121
880.097	11965
880.224	11901
880.351	11783
880.478	11878
880.605	11885
880.732	11855
880.859	12003
880.986	11783
881.112	11973
881.239	11718
881.366	11729
881.493	11646
881.619	11539
881.746	11535
881.872	11627
881.999	11497
882.125	11528
882.252	11535
882.378	11509
882.505	11532
882.631	11303
882.757	11330
882.883	11288
883.01	11239
883.136	11155
883.262	11121
883.388	11056
883.514	11231
883.64	11197
883.766	11128
883.892	11014
884.018	11003
884.143	11094
884.269	11098
884.395	10843
884.52	10721
884.646	10774
884.772	10691
884.897	10672
885.023	10694
885.148	10645
885.274	10862
885.399	10634
885.524	10641
885.65	10577
885.775	10516
885.9	10584
886.025	10561
886.15	10580
886.275	10508
886.4	10424
886.525	10432
886.65	10466
886.775	10360
886.9	10440
887.025	10630
887.149	10352
887.274	10249
887.399	10200
887.523	10230
887.648	10166
887.773	10120
887.897	10268
888.021	10219
888.146	10063
888.27	10268
888.395	10154
888.519	10196
888.643	10158
888.767	10234
888.891	10109
889.015	10090
889.139	10086
889.263	10006
889.387	9987
889.511	10112
889.635	10128
889.759	9934
889.883	10036
890.006	10010
890.13	10105
890.254	9922
890.377	9960
890.501	9842
890.624	9854
890.748	9876
890.871	9827
890.995	9720
891.118	9728
891.241	9675
891.364	9785
891.488	9819
891.611	9736
891.734	9785
891.857	9778
891.98	9686
892.103	9800
892.226	9698
892.349	9713
892.471	9511
892.594	9587
892.717	9572
892.839	9641
892.962	9564
893.085	9603
893.207	9633
893.33	9534
893.452	9561
893.575	9599
893.697	9523
893.819	9652
893.941	9603
894.064	9599
894.186	9462
894.308	9462
894.43	9538
894.552	9622
894.674	9519
894.796	9462
894.918	9466
895.04	9408
895.161	9325
895.283	9325
895.405	9264
895.526	9298
895.648	9237
895.769	9321
895.891	9317
896.012	9336
896.134	9260
896.255	9199
896.376	9188
896.498	9195
896.619	9085
896.74	9097
896.861	9135
896.982	9226
897.103	9317
897.224	9123
897.345	9024
897.466	9051
897.587	9070
897.708	9150
897.828	9001
897.949	8918
898.07	8883
898.19	8834
898.311	9081
898.431	8872
898.552	8895
898.672	9047
898.792	8979
898.913	8914
899.033	8845
899.153	8724
899.273	8720
899.393	8667
899.513	8796
899.633	8701
899.753	8804
899.873	8712
899.993	8682
900.113	8735
900.232	8682
900.352	8674
900.472	8602
900.591	8552
900.711	8590
900.83	8625
900.95	8682
901.069	8716
901.189	8549
901.308	8434
901.427	8355
901.546	8400
901.665	8450
901.784	8518
901.904	8404
902.023	8286
902.141	8225
902.26	8210
902.379	8240
902.498	8195
902.617	8256
902.735	8355
902.854	8267
902.973	8259
903.091	8191
903.21	8183
903.328	8225
903.446	8092
903.565	8092
903.683	8107
903.801	8092
903.919	8092
904.038	8172
904.156	8043
904.274	8111
904.392	8088
904.51	8081
904.627	8065
904.745	8138
904.863	8134
904.981	8008
905.098	7868
905.216	7890
905.334	7909
905.451	7917
905.569	7871
905.686	7982
905.803	7906
905.921	7788
906.038	7807
906.155	7792
906.272	7689
906.389	7674
906.506	7655
906.623	7613
906.74	7636
906.857	7552
906.974	7552
907.091	7643
907.208	7704
907.324	7658
907.441	7605
907.557	7388
907.674	7434
907.79	7365
907.907	7369
908.023	7468
908.139	7407
908.256	7438
908.372	7407
908.488	7350
908.604	7320
908.72	7312
908.836	7225
908.952	7255
909.068	7331
909.184	7297
909.3	7236
909.415	7320
909.531	7285
909.647	7126
909.762	7099
909.878	7099
909.993	7091
910.108	7118
910.224	7141
910.339	7107
910.454	7088
910.57	6970
910.685	6993
910.8	7206
910.915	7152
911.03	7065
911.145	6890
911.259	6875
911.374	6970
911.489	6886
911.604	6821
911.718	6715
911.833	6764
911.947	6608
912.062	6616
912.176	6719
912.291	6730
912.405	6707
912.519	6840
912.633	6848
912.748	6738
912.862	6658
912.976	6635
913.09	6574
913.204	6593
913.318	6623
913.431	6627
913.545	6677
913.659	6715
913.772	6589
913.886	6566
914	6551
914.113	6635
914.226	6616
914.34	6684
914.453	6597
914.566	6620
914.68	6563
914.793	6559
914.906	6445
915.019	6384
915.132	6433
915.245	6437
915.358	6403
915.47	6479
915.583	6464
915.696	6494
915.809	6582
915.921	6593
916.034	6399
916.146	6418
916.259	6422
916.371	6509
916.483	6448
916.595	6391
916.708	6433
916.82	6403
916.932	6350
917.044	6418
917.156	6410
917.268	6323
917.38	6350
917.491	6323
917.603	6327
917.715	6441
917.826	6441
917.938	6338
918.049	6262
918.161	6365
918.272	6384
918.384	6422
918.495	6350
918.606	6251
918.717	6251
918.828	6323
918.939	6285
919.05	6247
919.161	6292
919.272	6155
919.383	6178
919.494	6346
919.604	6498
919.715	6300
919.826	6220
919.936	6277
920.047	6372
920.157	6228
920.267	6448
920.378	6323
920.488	6273
920.598	6437
920.708	6566
920.818	6467
920.928	6486
921.038	6608
921.148	6597
921.258	6388
921.368	6331
921.477	6213
921.587	6197
921.697	6095
921.806	6186
921.916	6068
922.025	5950
922.134	5920
922.244	5882
922.353	5950
922.462	5859
922.571	5866
922.68	5741
922.789	5703
922.898	5665
923.007	5649
923.116	5760
923.224	5665
923.333	5703
923.442	5600
923.55	5581
923.659	5630
923.767	5611
923.876	5490
923.984	5592
924.092	5562
924.201	5543
924.309	5543
924.417	5509
924.525	5532
924.633	5509
924.741	6304
924.849	5383
924.956	5501
925.064	5372
925.172	5357
925.279	5284
925.387	5440
925.494	5330
925.602	5455
925.709	5387
925.816	5334
925.924	5303
926.031	5379
926.138	5330
926.245	5360
926.352	5273
926.459	5299
926.566	5368
926.673	5239
926.779	5178
926.886	5136
926.993	5056
927.099	5037
927.206	5018
927.312	4995
927.419	5052
927.525	4968
927.631	5010
927.737	4919
927.843	4854
927.95	4771
928.056	4831
928.162	4862
928.267	4858
928.373	5273
928.479	4835
928.585	4736
928.69	4774
928.796	4736
928.901	4717
929.007	4592
929.112	4649
929.218	4660
929.323	4649
929.428	4577
929.533	4721
929.638	4550
929.743	4550
929.848	4538
929.953	4516
930.058	4432
930.163	4333
930.267	4314
930.372	4424
930.477	4348
930.581	4481
930.685	4417
930.79	4268
930.894	4287
930.998	4299
931.103	4398
931.207	4177
931.311	4086
931.415	4059
931.519	3918
931.623	3964
