Data from glass_V78500241_2197.txt Node
Date: Wed Sep 01 19:29:43 CST 2021
User: usil
Spectrometer: V785-0024
Trigger mode: 0
Integration Time (sec): 4.000000E-1
Scans to average: 1
Nonlinearity correction enabled: false
Boxcar width: 0
Storing dark spectrum: false
XAxis mode: Wavelengths
Number of Pixels in Spectrum: 1024
>>>>>Begin Spectral Data<<<<<
801.071	3751
801.214	3759
801.356	3720
801.499	3743
801.641	3759
801.783	3766
801.926	3876
802.068	3808
802.211	3850
802.353	3907
802.496	3800
802.638	3896
802.78	3892
802.923	3899
803.065	3896
803.208	3816
803.35	3831
803.492	3884
803.635	3907
803.777	3846
803.919	3896
804.061	4128
804.204	3972
804.346	3964
804.488	3953
804.63	4021
804.773	3972
804.915	4040
805.057	4139
805.199	4074
805.341	4116
805.483	4112
805.626	4135
805.768	4143
805.91	4204
806.052	4211
806.194	4147
806.336	4360
806.478	4173
806.62	4093
806.762	4185
806.904	4234
807.046	4352
807.188	4158
807.33	4147
807.472	4204
807.614	4147
807.756	4276
807.898	4227
808.04	4169
808.182	4253
808.324	4261
808.465	4363
808.607	4447
808.749	4432
808.891	4466
809.033	4466
809.174	4360
809.316	4261
809.458	4265
809.6	4166
809.741	4112
809.883	4150
810.025	4181
810.166	4150
810.308	4204
810.45	4227
810.591	4207
810.733	4234
810.875	4527
811.016	4797
811.158	5098
811.299	5292
811.441	5284
811.582	5041
811.724	4687
811.865	4519
812.007	4421
812.148	4432
812.29	4405
812.431	4451
812.573	4356
812.714	4352
812.855	4443
812.997	4394
813.138	4428
813.279	4421
813.421	4325
813.562	4398
813.703	4299
813.845	4337
813.986	4238
814.127	4227
814.268	4257
814.41	4299
814.551	4246
814.692	4322
814.833	4234
814.974	4291
815.115	4314
815.256	4253
815.397	4230
815.539	4242
815.68	4188
815.821	4219
815.962	4299
816.103	4276
816.244	4227
816.385	4227
816.526	4306
816.666	4181
816.807	4063
816.948	4135
817.089	4147
817.23	4093
817.371	4025
817.512	4029
817.653	4044
817.793	4017
817.934	4017
818.075	4063
818.216	4097
818.356	4029
818.497	4006
818.638	3918
818.778	3918
818.919	3861
819.06	3819
819.2	3869
819.341	3831
819.481	3865
819.622	3930
819.762	4029
819.903	3968
820.043	3873
820.184	3797
820.324	3827
820.465	3884
820.605	3873
820.746	3857
820.886	3854
821.026	3899
821.167	3907
821.307	3968
821.447	3991
821.588	3968
821.728	3953
821.868	3975
822.008	3880
822.149	3945
822.289	3926
822.429	3800
822.569	3740
822.709	3781
822.849	3694
822.99	3705
823.13	3736
823.27	3770
823.41	3728
823.55	3732
823.69	3690
823.83	3785
823.97	3644
824.11	3599
824.25	3591
824.389	3633
824.529	3656
824.669	3603
824.809	3667
824.949	3762
825.089	3724
825.228	3667
825.368	3576
825.508	3557
825.648	3595
825.787	3584
825.927	3648
826.067	3633
826.206	3660
826.346	3720
826.485	3819
826.625	3865
826.765	3926
826.904	3850
827.044	3606
827.183	3542
827.323	3428
827.462	3473
827.601	3435
827.741	3405
827.88	3454
828.02	3359
828.159	3443
828.298	3481
828.437	3473
828.577	3492
828.716	3599
828.855	3443
828.994	3367
829.134	3374
829.273	3389
829.412	3317
829.551	3359
829.69	3325
829.829	3439
829.968	3485
830.107	3435
830.246	3443
830.385	3378
830.524	3272
830.663	3302
830.802	3253
830.941	3199
831.08	3214
831.219	3264
831.357	3241
831.496	3412
831.635	3264
831.774	3184
831.913	3173
832.051	3150
832.19	3135
832.329	3214
832.467	3138
832.606	3104
832.744	3176
832.883	3165
833.022	3176
833.16	3245
833.299	3279
833.437	3329
833.576	3351
833.714	3378
833.852	3435
833.991	3458
834.129	3485
834.267	3424
834.406	3359
834.544	3386
834.682	3466
834.821	3393
834.959	3572
835.097	3397
835.235	3515
835.373	3485
835.511	3477
835.65	3450
835.788	3526
835.926	3393
836.064	3386
836.202	3424
836.34	3534
836.478	3568
836.615	3519
836.753	3587
836.891	3614
837.029	3618
837.167	3576
837.305	3538
837.443	3526
837.58	3523
837.718	3568
837.856	3511
837.993	3557
838.131	3603
838.269	3526
838.406	3561
838.544	3545
838.681	3469
838.819	3416
838.956	3370
839.094	3405
839.231	3443
839.369	3504
839.506	3720
839.643	3610
839.781	3500
839.918	3447
840.055	3542
840.193	3542
840.33	3500
840.467	3557
840.604	3606
840.742	3789
840.879	3523
841.016	3549
841.153	3580
841.29	3751
841.427	3698
841.564	3709
841.701	3732
841.838	3701
841.975	3728
842.112	3694
842.249	3610
842.385	3656
842.522	3781
842.659	3682
842.796	3663
842.933	3713
843.069	3660
843.206	3637
843.343	3793
843.479	3736
843.616	3846
843.752	3614
843.889	3652
844.025	3831
844.162	3728
844.298	3827
844.435	3778
844.571	3808
844.708	3907
844.844	3994
844.98	4040
845.117	3994
845.253	3922
845.389	3899
845.525	3975
845.661	3960
845.798	3911
845.934	3983
846.07	3964
846.206	4071
846.342	4090
846.478	4021
846.614	3934
846.75	3972
846.886	3892
847.022	3994
847.158	3964
847.294	4051
847.429	3994
847.565	4006
847.701	4238
847.837	3846
847.972	3850
848.108	3979
848.244	3937
848.379	3861
848.515	3835
848.65	3789
848.786	3804
848.921	3861
849.057	3922
849.192	3934
849.328	3880
849.463	3975
849.598	3903
849.734	3842
849.869	3861
850.004	3770
850.14	3823
850.275	3793
850.41	3740
850.545	3766
850.68	3755
850.815	3785
850.95	3789
851.085	3945
851.22	3865
851.355	3808
851.49	3781
851.625	3838
851.76	3781
851.895	3762
852.03	3755
852.165	3778
852.299	3892
852.434	3857
852.569	3861
852.703	3838
852.838	3892
852.973	3979
853.107	4006
853.242	3896
853.376	3831
853.511	3717
853.645	3857
853.78	3987
853.914	3896
854.048	3865
854.183	3854
854.317	3972
854.451	4048
854.585	3930
854.72	3915
854.854	4055
854.988	3930
855.122	4010
855.256	3937
855.39	4032
855.524	4051
855.658	4116
855.792	4082
855.926	4158
856.06	4150
856.194	4192
856.327	4131
856.461	4120
856.595	4128
856.729	4173
856.862	4268
856.996	4249
857.13	4306
857.263	4329
857.397	4318
857.53	4261
857.664	4325
857.797	4352
857.931	4462
858.064	4443
858.197	4470
858.331	4390
858.464	4402
858.597	4295
858.731	4443
858.864	4417
858.997	4436
859.13	4500
859.263	4500
859.396	4565
859.529	4508
859.662	4584
859.795	4542
859.928	4580
860.061	4782
860.194	4736
860.327	4668
860.46	4626
860.592	4729
860.725	4809
860.858	4733
860.99	4710
861.123	4683
861.256	4698
861.388	4767
861.521	5360
861.653	4744
861.786	4691
861.918	4759
862.05	4782
862.183	4885
862.315	4873
862.447	4900
862.58	4873
862.712	4782
862.844	4774
862.976	4793
863.108	4877
863.24	5166
863.372	4824
863.504	4892
863.636	4904
863.768	4942
863.9	4987
864.032	4942
864.164	4961
864.296	5029
864.428	5090
864.559	5102
864.691	5143
864.823	5140
864.954	5090
865.086	5140
865.217	5136
865.349	5079
865.48	5155
865.612	5181
865.743	5242
865.875	5185
866.006	5216
866.137	5212
866.269	5292
866.4	5231
866.531	5235
866.662	5223
866.793	5296
866.924	5246
867.055	5307
867.186	5292
867.317	5296
867.448	5315
867.579	5402
867.71	5315
867.841	5360
867.972	5471
868.103	5444
868.233	5501
868.364	5558
868.495	5501
868.625	5646
868.756	5790
868.886	5634
869.017	5729
869.147	5828
869.278	5889
869.408	5809
869.539	5779
869.669	5946
869.799	5950
869.929	5973
870.06	6015
870.19	6201
870.32	6136
870.45	6292
870.58	6372
870.71	6384
870.84	6479
870.97	6399
871.1	6429
871.23	6620
871.36	6669
871.489	6631
871.619	6757
871.749	6825
871.879	6894
872.008	6947
872.138	6985
872.267	7008
872.397	7031
872.526	7061
872.656	7118
872.785	7293
872.915	7396
873.044	7521
873.173	7636
873.303	7586
873.432	7780
873.561	7822
873.69	7898
873.819	8024
873.948	8164
874.077	8187
874.206	8317
874.335	8473
874.464	8522
874.593	8804
874.722	8849
874.851	9070
874.979	9275
875.108	9363
875.237	9393
875.365	9519
875.494	9663
875.623	9827
875.751	9774
875.88	9994
876.008	10082
876.136	10280
876.265	10512
876.393	10664
876.521	10672
876.65	10816
876.778	10904
876.906	10850
877.034	10961
877.162	11117
877.29	11162
877.418	11337
877.546	11345
877.674	11391
877.802	11532
877.93	11532
878.058	11596
878.185	11566
878.313	11649
878.441	11646
878.568	11718
878.696	11859
878.824	11832
878.951	11969
879.079	12041
879.206	12190
879.333	12167
879.461	11988
879.588	12030
879.715	12045
879.842	12209
879.97	12110
880.097	11882
880.224	11973
880.351	11836
880.478	11866
880.605	11882
880.732	11748
880.859	12038
880.986	11859
881.112	11847
881.239	11695
881.366	11585
881.493	11615
881.619	11589
881.746	11505
881.872	11520
881.999	11490
882.125	11505
882.252	11516
882.378	11429
882.505	11615
882.631	11318
882.757	11337
882.883	11406
883.01	11334
883.136	11246
883.262	11090
883.388	11124
883.514	11155
883.64	11174
883.766	11056
883.892	10984
884.018	11022
884.143	11052
884.269	11102
884.395	10828
884.52	10755
884.646	10740
884.772	10725
884.897	10687
885.023	10702
885.148	10679
885.274	10717
885.399	10664
885.524	10634
885.65	10531
885.775	10607
885.9	10470
886.025	10592
886.15	10554
886.275	10546
886.4	10443
886.525	10379
886.65	10356
886.775	10382
886.9	10478
887.025	10554
887.149	10314
887.274	10287
887.399	10185
887.523	10128
887.648	10135
887.773	10090
887.897	10169
888.021	10227
888.146	10101
888.27	10215
888.395	10200
888.519	10158
888.643	10150
888.767	10173
888.891	10105
889.015	10013
889.139	10006
889.263	9956
889.387	10078
889.511	10097
889.635	10082
889.759	9987
889.883	10048
890.006	9945
890.13	10112
890.254	9937
890.377	9994
890.501	9899
890.624	9899
890.748	9895
890.871	9816
890.995	9778
891.118	9663
891.241	9755
891.364	9690
891.488	9808
891.611	9774
891.734	9789
891.857	9690
891.98	9762
892.103	9740
892.226	9724
892.349	9690
892.471	9549
892.594	9538
892.717	9587
892.839	9606
892.962	9629
893.085	9694
893.207	9587
893.33	9485
893.452	9625
893.575	9496
893.697	9557
893.819	9576
893.941	9568
894.064	9587
894.186	9454
894.308	9424
894.43	9473
894.552	9610
894.674	9530
894.796	9340
894.918	9405
895.04	9313
895.161	9367
895.283	9291
895.405	9195
895.526	9237
895.648	9245
895.769	9207
895.891	9294
896.012	9253
896.134	9188
896.255	9188
896.376	9157
896.498	9123
896.619	9127
896.74	9150
896.861	9108
896.982	9275
897.103	9306
897.224	9157
897.345	9017
897.466	9024
897.587	9028
897.708	9024
897.828	9013
897.949	8902
898.07	8811
898.19	8918
898.311	9001
898.431	8937
898.552	8880
898.672	8921
898.792	8914
898.913	8952
899.033	8777
899.153	8743
899.273	8648
899.393	8708
899.513	8750
899.633	8705
899.753	8746
899.873	8659
899.993	8712
900.113	8697
900.232	8708
900.352	8583
900.472	8564
900.591	8590
900.711	8629
900.83	8556
900.95	8705
901.069	8750
901.189	8560
901.308	8396
901.427	8381
901.546	8427
901.665	8469
901.784	8545
901.904	8473
902.023	8336
902.141	8214
902.26	8233
902.379	8275
902.498	8199
902.617	8172
902.735	8317
902.854	8252
902.973	8279
903.091	8168
903.21	8096
903.328	8191
903.446	8126
903.565	8065
903.683	8054
903.801	8073
903.919	8130
904.038	8134
904.156	8024
904.274	8054
904.392	7974
904.51	8054
904.627	8077
904.745	8096
904.863	8142
904.981	7913
905.098	7856
905.216	7856
905.334	7890
905.451	7906
905.569	7894
905.686	7936
905.803	7928
905.921	7784
906.038	7879
906.155	7761
906.272	7674
906.389	7788
906.506	7658
906.623	7636
906.74	7597
906.857	7521
906.974	7575
907.091	7655
907.208	7715
907.324	7662
907.441	7544
907.557	7464
907.674	7441
907.79	7392
907.907	7434
908.023	7377
908.139	7407
908.256	7324
908.372	7327
908.488	7384
908.604	7263
908.72	7263
908.836	7278
908.952	7225
909.068	7320
909.184	7354
909.3	7228
909.415	7301
909.531	7308
909.647	7110
909.762	7057
909.878	7050
909.993	7065
910.108	7152
910.224	7034
910.339	7061
910.454	7053
910.57	6996
910.685	6973
910.8	7152
910.915	7145
911.03	7000
911.145	6901
911.259	6875
911.374	6928
911.489	6818
911.604	6806
911.718	6719
911.833	6681
911.947	6662
912.062	6620
912.176	6711
912.291	6738
912.405	6662
912.519	6741
912.633	6806
912.748	6692
912.862	6684
912.976	6681
913.09	6528
913.204	6612
913.318	6604
913.431	6620
913.545	6662
913.659	6700
913.772	6639
913.886	6532
914	6509
914.113	6532
914.226	6635
914.34	6551
914.453	6544
914.566	6563
914.68	6540
914.793	6528
914.906	6437
915.019	6384
915.132	6285
915.245	6429
915.358	6429
915.47	6475
915.583	6410
915.696	6494
915.809	6486
915.921	6509
916.034	6437
916.146	6395
916.259	6403
916.371	6441
916.483	6445
916.595	6414
916.708	6448
916.82	6361
916.932	6353
917.044	6342
917.156	6369
917.268	6281
917.38	6342
917.491	6266
917.603	6357
917.715	6369
917.826	6391
917.938	6308
918.049	6270
918.161	6327
918.272	6445
918.384	6441
918.495	6331
918.606	6251
918.717	6270
918.828	6350
918.939	6254
919.05	6209
919.161	6262
919.272	6155
919.383	6125
919.494	6304
919.604	6399
919.715	6277
919.826	6209
919.936	6209
920.047	6296
920.157	6243
920.267	6490
920.378	6350
920.488	6296
920.598	6399
920.708	6555
920.818	6460
920.928	6433
921.038	6570
921.148	6563
921.258	6395
921.368	6315
921.477	6228
921.587	6159
921.697	6068
921.806	6125
921.916	6064
922.025	5935
922.134	5893
922.244	5824
922.353	6007
922.462	5840
922.571	5764
922.68	5630
922.789	5661
922.898	5657
923.007	5577
923.116	5703
923.224	5653
923.333	5649
923.442	5585
923.55	5600
923.659	5562
923.767	5619
923.876	5493
923.984	5600
924.092	5516
924.201	5509
924.309	5573
924.417	5539
924.525	5490
924.633	5520
924.741	6258
924.849	5322
924.956	5497
925.064	5299
925.172	5315
925.279	5296
925.387	5315
925.494	5334
925.602	5402
925.709	5349
925.816	5242
925.924	5341
926.031	5376
926.138	5288
926.245	5349
926.352	5261
926.459	5322
926.566	5353
926.673	5242
926.779	5151
926.886	5121
926.993	5037
927.099	5010
927.206	4946
927.312	4919
927.419	5033
927.525	4980
927.631	5003
927.737	4919
927.843	4873
927.95	4740
928.056	4816
928.162	4782
928.267	4850
928.373	5318
928.479	4824
928.585	4660
928.69	4748
928.796	4778
928.901	4736
929.007	4573
929.112	4645
929.218	4584
929.323	4615
929.428	4535
929.533	4672
929.638	4519
929.743	4493
929.848	4577
929.953	4485
930.058	4436
930.163	4344
930.267	4310
930.372	4436
930.477	4265
930.581	4455
930.685	4341
930.79	4223
930.894	4276
930.998	4261
931.103	4417
931.207	4131
931.311	4116
931.415	4032
931.519	3930
931.623	3907
