Data from glass_V78500241_2127.txt Node
Date: Wed Sep 01 19:29:14 CST 2021
User: usil
Spectrometer: V785-0024
Trigger mode: 0
Integration Time (sec): 4.000000E-1
Scans to average: 1
Nonlinearity correction enabled: false
Boxcar width: 0
Storing dark spectrum: false
XAxis mode: Wavelengths
Number of Pixels in Spectrum: 1024
>>>>>Begin Spectral Data<<<<<
801.071	3751
801.214	3732
801.356	3686
801.499	3766
801.641	3682
801.783	3762
801.926	3819
802.068	3819
802.211	3842
802.353	3865
802.496	3827
802.638	3873
802.78	3869
802.923	3937
803.065	3857
803.208	3854
803.35	3857
803.492	3896
803.635	3911
803.777	3793
803.919	3869
804.061	4101
804.204	3987
804.346	3937
804.488	3915
804.63	4025
804.773	3964
804.915	4002
805.057	4128
805.199	4040
805.341	4116
805.483	4128
805.626	4139
805.768	4131
805.91	4200
806.052	4242
806.194	4211
806.336	4329
806.478	4230
806.62	4173
806.762	4158
806.904	4219
807.046	4367
807.188	4253
807.33	4188
807.472	4219
807.614	4162
807.756	4249
807.898	4249
808.04	4219
808.182	4306
808.324	4306
808.465	4379
808.607	4413
808.749	4478
808.891	4481
809.033	4470
809.174	4341
809.316	4284
809.458	4219
809.6	4150
809.741	4143
809.883	4166
810.025	4204
810.166	4188
810.308	4238
810.45	4265
810.591	4246
810.733	4314
810.875	4470
811.016	4839
811.158	5105
811.299	5239
811.441	5277
811.582	5052
811.724	4687
811.865	4459
812.007	4459
812.148	4447
812.29	4440
812.431	4440
812.573	4417
812.714	4379
812.855	4424
812.997	4402
813.138	4493
813.279	4424
813.421	4383
813.562	4390
813.703	4348
813.845	4291
813.986	4246
814.127	4246
814.268	4253
814.41	4257
814.551	4268
814.692	4375
814.833	4280
814.974	4276
815.115	4318
815.256	4257
815.397	4242
815.539	4249
815.68	4196
815.821	4234
815.962	4310
816.103	4284
816.244	4211
816.385	4249
816.526	4261
816.666	4200
816.807	4082
816.948	4181
817.089	4154
817.23	4078
817.371	4086
817.512	4036
817.653	4051
817.793	4025
817.934	4059
818.075	4086
818.216	4154
818.356	4032
818.497	3918
818.638	3915
818.778	3915
818.919	3922
819.06	3861
819.2	3873
819.341	3892
819.481	3827
819.622	3876
819.762	4017
819.903	3899
820.043	3835
820.184	3869
820.324	3831
820.465	3896
820.605	3816
820.746	3823
820.886	3774
821.026	3930
821.167	3922
821.307	3960
821.447	3960
821.588	3987
821.728	3994
821.868	3937
822.008	3861
822.149	3926
822.289	3911
822.429	3793
822.569	3797
822.709	3766
822.849	3713
822.99	3720
823.13	3755
823.27	3751
823.41	3728
823.55	3713
823.69	3732
823.83	3740
823.97	3663
824.11	3667
824.25	3584
824.389	3641
824.529	3682
824.669	3641
824.809	3686
824.949	3698
825.089	3732
825.228	3679
825.368	3523
825.508	3561
825.648	3584
825.787	3564
825.927	3660
826.067	3606
826.206	3648
826.346	3800
826.485	3835
826.625	3865
826.765	3896
826.904	3827
827.044	3587
827.183	3538
827.323	3454
827.462	3462
827.601	3458
827.741	3428
827.88	3450
828.02	3370
828.159	3416
828.298	3439
828.437	3526
828.577	3458
828.716	3561
828.855	3496
828.994	3355
829.134	3382
829.273	3409
829.412	3302
829.551	3325
829.69	3344
829.829	3454
829.968	3496
830.107	3420
830.246	3488
830.385	3382
830.524	3351
830.663	3256
830.802	3272
830.941	3199
831.08	3180
831.219	3230
831.357	3233
831.496	3397
831.635	3260
831.774	3165
831.913	3199
832.051	3104
832.19	3150
832.329	3218
832.467	3127
832.606	3112
832.744	3180
832.883	3169
833.022	3203
833.16	3256
833.299	3340
833.437	3310
833.576	3378
833.714	3431
833.852	3431
833.991	3443
834.129	3466
834.267	3424
834.406	3386
834.544	3393
834.682	3416
834.821	3386
834.959	3542
835.097	3447
835.235	3515
835.373	3473
835.511	3500
835.65	3458
835.788	3496
835.926	3363
836.064	3378
836.202	3370
836.34	3587
836.478	3580
836.615	3542
836.753	3595
836.891	3610
837.029	3625
837.167	3599
837.305	3542
837.443	3568
837.58	3504
837.718	3568
837.856	3557
837.993	3568
838.131	3584
838.269	3542
838.406	3584
838.544	3633
838.681	3462
838.819	3431
838.956	3355
839.094	3367
839.231	3431
839.369	3500
839.506	3713
839.643	3618
839.781	3500
839.918	3405
840.055	3538
840.193	3530
840.33	3500
840.467	3584
840.604	3618
840.742	3781
840.879	3545
841.016	3610
841.153	3610
841.29	3709
841.427	3701
841.564	3679
841.701	3690
841.838	3686
841.975	3694
842.112	3713
842.249	3603
842.385	3652
842.522	3793
842.659	3690
842.796	3656
842.933	3705
843.069	3690
843.206	3713
843.343	3808
843.479	3717
843.616	3797
843.752	3660
843.889	3682
844.025	3869
844.162	3740
844.298	3850
844.435	3774
844.571	3759
844.708	3880
844.844	3987
844.98	4002
845.117	3994
845.253	3915
845.389	3903
845.525	3911
845.661	3953
845.798	3930
845.934	3994
846.07	3956
846.206	4040
846.342	4093
846.478	4051
846.614	3968
846.75	3915
846.886	3873
847.022	4013
847.158	3941
847.294	3987
847.429	4013
847.565	3987
847.701	4249
847.837	3880
847.972	3930
848.108	3975
848.244	3983
848.379	3850
848.515	3846
848.65	3800
848.786	3816
848.921	3873
849.057	3934
849.192	3911
849.328	3949
849.463	3903
849.598	3880
849.734	3823
849.869	3823
850.004	3793
850.14	3793
850.275	3774
850.41	3747
850.545	3740
850.68	3751
850.815	3789
850.95	3778
851.085	3949
851.22	3831
851.355	3854
851.49	3800
851.625	3789
851.76	3816
851.895	3740
852.03	3720
852.165	3804
852.299	3884
852.434	3876
852.569	3869
852.703	3899
852.838	3934
852.973	3998
853.107	3991
853.242	3869
853.376	3857
853.511	3789
853.645	3861
853.78	3964
853.914	3892
854.048	3915
854.183	3846
854.317	3922
854.451	4044
854.585	3983
854.72	3956
854.854	4002
854.988	3892
855.122	3983
855.256	3918
855.39	4002
855.524	4090
855.658	4093
855.792	4112
855.926	4124
856.06	4147
856.194	4188
856.327	4150
856.461	4128
856.595	4154
856.729	4143
856.862	4284
856.996	4284
857.13	4276
857.263	4303
857.397	4356
857.53	4284
857.664	4352
857.797	4363
857.931	4409
858.064	4348
858.197	4443
858.331	4398
858.464	4371
858.597	4325
858.731	4409
858.864	4436
858.997	4440
859.13	4546
859.263	4531
859.396	4577
859.529	4512
859.662	4523
859.795	4542
859.928	4573
860.061	4714
860.194	4729
860.327	4664
860.46	4603
860.592	4725
860.725	4801
860.858	4748
860.99	4660
861.123	4702
861.256	4649
861.388	4797
861.521	5543
861.653	4733
861.786	4672
861.918	4755
862.05	4790
862.183	4870
862.315	4877
862.447	4953
862.58	4896
862.712	4793
862.844	4797
862.976	4870
863.108	4885
863.24	5155
863.372	4828
863.504	4877
863.636	4923
863.768	4946
863.9	4968
864.032	4904
864.164	4900
864.296	5045
864.428	5064
864.559	5083
864.691	5094
864.823	5071
864.954	5086
865.086	5166
865.217	5132
865.349	5098
865.48	5185
865.612	5170
865.743	5299
865.875	5174
866.006	5166
866.137	5208
866.269	5216
866.4	5265
866.531	5212
866.662	5223
866.793	5265
866.924	5258
867.055	5368
867.186	5349
867.317	5322
867.448	5337
867.579	5372
867.71	5406
867.841	5414
867.972	5444
868.103	5429
868.233	5452
868.364	5474
868.495	5512
868.625	5638
868.756	5783
868.886	5672
869.017	5733
869.147	5805
869.278	5851
869.408	5824
869.539	5878
869.669	5851
869.799	5897
869.929	5935
870.06	6038
870.19	6175
870.32	6182
870.45	6239
870.58	6369
870.71	6414
870.84	6452
870.97	6448
871.1	6384
871.23	6669
871.36	6673
871.489	6635
871.619	6783
871.749	6814
871.879	6821
872.008	7031
872.138	6905
872.267	6966
872.397	7000
872.526	7046
872.656	7072
872.785	7259
872.915	7365
873.044	7502
873.173	7514
873.303	7666
873.432	7780
873.561	7868
873.69	7906
873.819	7989
873.948	8149
874.077	8221
874.206	8347
874.335	8408
874.464	8724
874.593	8876
874.722	8883
874.851	9161
874.979	9226
875.108	9332
875.237	9393
875.365	9481
875.494	9648
875.623	9740
875.751	9869
875.88	9956
876.008	10173
876.136	10280
876.265	10615
876.393	10615
876.521	10721
876.65	10733
876.778	10900
876.906	10972
877.034	10900
877.162	11060
877.29	11094
877.418	11284
877.546	11315
877.674	11452
877.802	11444
877.93	11532
878.058	11581
878.185	11592
878.313	11520
878.441	11718
878.568	11649
878.696	11790
878.824	11863
878.951	11923
879.079	12038
879.206	12197
879.333	12049
879.461	11882
879.588	12175
879.715	12102
879.842	12213
879.97	12049
880.097	11832
880.224	11832
880.351	11901
880.478	11897
880.605	11836
880.732	11771
880.859	11901
880.986	11824
881.112	11870
881.239	11779
881.366	11649
881.493	11623
881.619	11642
881.746	11562
881.872	11577
881.999	11532
882.125	11391
882.252	11551
882.378	11493
882.505	11509
882.631	11303
882.757	11334
882.883	11364
883.01	11250
883.136	11178
883.262	11162
883.388	11155
883.514	11189
883.64	11155
883.766	11105
883.892	11041
884.018	11010
884.143	11060
884.269	11075
884.395	10854
884.52	10752
884.646	10801
884.772	10771
884.897	10588
885.023	10687
885.148	10797
885.274	10687
885.399	10729
885.524	10618
885.65	10542
885.775	10542
885.9	10580
886.025	10577
886.15	10527
886.275	10443
886.4	10402
886.525	10272
886.65	10413
886.775	10322
886.9	10421
887.025	10462
887.149	10329
887.274	10276
887.399	10128
887.523	10230
887.648	10143
887.773	10086
887.897	10219
888.021	10154
888.146	10078
888.27	10276
888.395	10185
888.519	10219
888.643	10215
888.767	10162
888.891	10128
889.015	10002
889.139	10086
889.263	9930
889.387	10109
889.511	10082
889.635	10048
889.759	9956
889.883	9991
890.006	10059
890.13	10093
890.254	9960
890.377	9926
890.501	9873
890.624	9911
890.748	9869
890.871	9804
890.995	9717
891.118	9728
891.241	9831
891.364	9644
891.488	9835
891.611	9720
891.734	9755
891.857	9762
891.98	9671
892.103	9797
892.226	9732
892.349	9618
892.471	9549
892.594	9618
892.717	9595
892.839	9519
892.962	9542
893.085	9667
893.207	9485
893.33	9515
893.452	9599
893.575	9618
893.697	9462
893.819	9603
893.941	9591
894.064	9538
894.186	9485
894.308	9370
894.43	9439
894.552	9538
894.674	9500
894.796	9382
894.918	9393
895.04	9344
895.161	9401
895.283	9310
895.405	9298
895.526	9245
895.648	9222
895.769	9256
895.891	9226
896.012	9275
896.134	9150
896.255	9233
896.376	9146
896.498	9085
896.619	9077
896.74	9039
896.861	9108
896.982	9279
897.103	9230
897.224	9203
897.345	9043
897.466	9028
897.587	9097
897.708	9047
897.828	8929
897.949	8960
898.07	8842
898.19	8902
898.311	9036
898.431	8876
898.552	8861
898.672	8986
898.792	8906
898.913	8921
899.033	8811
899.153	8800
899.273	8648
899.393	8632
899.513	8712
899.633	8693
899.753	8686
899.873	8686
899.993	8754
900.113	8731
900.232	8720
900.352	8682
900.472	8602
900.591	8541
900.711	8587
900.83	8541
900.95	8682
901.069	8682
901.189	8560
901.308	8389
901.427	8355
901.546	8408
901.665	8419
901.784	8461
901.904	8469
902.023	8252
902.141	8214
902.26	8221
902.379	8240
902.498	8195
902.617	8214
902.735	8252
902.854	8324
902.973	8259
903.091	8134
903.21	8172
903.328	8157
903.446	7978
903.565	8050
903.683	8050
903.801	8050
903.919	8081
904.038	8153
904.156	8031
904.274	8043
904.392	7997
904.51	7989
904.627	8016
904.745	8050
904.863	8096
904.981	7887
905.098	7868
905.216	7967
905.334	7902
905.451	7921
905.569	7894
905.686	7883
905.803	7951
905.921	7788
906.038	7879
906.155	7826
906.272	7753
906.389	7689
906.506	7601
906.623	7590
906.74	7586
906.857	7556
906.974	7582
907.091	7662
907.208	7651
907.324	7613
907.441	7647
907.557	7460
907.674	7464
907.79	7468
907.907	7441
908.023	7419
908.139	7331
908.256	7388
908.372	7320
908.488	7373
908.604	7285
908.72	7221
908.836	7255
908.952	7206
909.068	7251
909.184	7339
909.3	7221
909.415	7358
909.531	7305
909.647	7099
909.762	7084
909.878	7145
909.993	7034
910.108	7080
910.224	7069
910.339	7164
910.454	7012
910.57	6996
910.685	6897
910.8	7088
910.915	7133
911.03	7042
911.145	6932
911.259	6806
911.374	6913
911.489	6776
911.604	6829
911.718	6677
911.833	6726
911.947	6696
912.062	6563
912.176	6696
912.291	6749
912.405	6711
912.519	6787
912.633	6791
912.748	6707
912.862	6722
912.976	6642
913.09	6551
913.204	6566
913.318	6616
913.431	6719
913.545	6658
913.659	6684
913.772	6669
913.886	6589
914	6570
914.113	6597
914.226	6635
914.34	6589
914.453	6448
914.566	6585
914.68	6528
914.793	6513
914.906	6414
915.019	6426
915.132	6365
915.245	6407
915.358	6452
915.47	6452
915.583	6369
915.696	6467
915.809	6521
915.921	6513
916.034	6391
916.146	6445
916.259	6365
916.371	6483
916.483	6445
916.595	6361
916.708	6456
916.82	6395
916.932	6414
917.044	6372
917.156	6395
917.268	6285
917.38	6327
917.491	6254
917.603	6357
917.715	6433
917.826	6422
917.938	6331
918.049	6270
918.161	6361
918.272	6361
918.384	6456
918.495	6350
918.606	6285
918.717	6254
918.828	6201
918.939	6258
919.05	6182
919.161	6194
919.272	6136
919.383	6121
919.494	6277
919.604	6433
919.715	6262
919.826	6232
919.936	6228
920.047	6292
920.157	6273
920.267	6388
920.378	6311
920.488	6273
920.598	6437
920.708	6506
920.818	6494
920.928	6467
921.038	6597
921.148	6582
921.258	6395
921.368	6327
921.477	6247
921.587	6171
921.697	6125
921.806	6163
921.916	6053
922.025	5969
922.134	5885
922.244	5844
922.353	5984
922.462	5802
922.571	5798
922.68	5680
922.789	5691
922.898	5718
923.007	5672
923.116	5691
923.224	5623
923.333	5676
923.442	5551
923.55	5600
923.659	5551
923.767	5608
923.876	5551
923.984	5634
924.092	5543
924.201	5554
924.309	5543
924.417	5547
924.525	5471
924.633	5459
924.741	6289
924.849	5376
924.956	5516
925.064	5353
925.172	5357
925.279	5303
925.387	5364
925.494	5326
925.602	5387
925.709	5357
925.816	5273
925.924	5334
926.031	5360
926.138	5269
926.245	5376
926.352	5246
926.459	5311
926.566	5326
926.673	5212
926.779	5136
926.886	5136
926.993	5003
927.099	5022
927.206	4938
927.312	4934
927.419	5041
927.525	4980
927.631	4991
927.737	4843
927.843	4885
927.95	4767
928.056	4862
928.162	4786
928.267	4820
928.373	5288
928.479	4839
928.585	4706
928.69	4748
928.796	4755
928.901	4675
929.007	4626
929.112	4630
929.218	4561
929.323	4561
929.428	4569
929.533	4645
929.638	4519
929.743	4531
929.848	4531
929.953	4497
930.058	4440
930.163	4325
930.267	4318
930.372	4428
930.477	4325
930.581	4466
930.685	4367
930.79	4295
930.894	4276
930.998	4219
931.103	4379
931.207	4158
931.311	4078
931.415	4032
931.519	3907
931.623	3937
