Data from glass_V78500241_2708.txt Node
Date: Wed Sep 01 19:33:16 CST 2021
User: usil
Spectrometer: V785-0024
Trigger mode: 0
Integration Time (sec): 4.000000E-1
Scans to average: 1
Nonlinearity correction enabled: false
Boxcar width: 0
Storing dark spectrum: false
XAxis mode: Wavelengths
Number of Pixels in Spectrum: 1024
>>>>>Begin Spectral Data<<<<<
801.071	3762
801.214	3732
801.356	3701
801.499	3720
801.641	3740
801.783	3812
801.926	3850
802.068	3785
802.211	3835
802.353	3880
802.496	3838
802.638	3854
802.78	3926
802.923	3903
803.065	3846
803.208	3861
803.35	3876
803.492	3873
803.635	3911
803.777	3823
803.919	3857
804.061	4128
804.204	3926
804.346	3922
804.488	3884
804.63	4021
804.773	3941
804.915	4002
805.057	4143
805.199	4032
805.341	4074
805.483	4074
805.626	4090
805.768	4097
805.91	4200
806.052	4223
806.194	4169
806.336	4314
806.478	4204
806.62	4177
806.762	4192
806.904	4238
807.046	4344
807.188	4204
807.33	4162
807.472	4227
807.614	4173
807.756	4280
807.898	4128
808.04	4207
808.182	4276
808.324	4348
808.465	4356
808.607	4348
808.749	4462
808.891	4432
809.033	4455
809.174	4390
809.316	4265
809.458	4242
809.6	4128
809.741	4147
809.883	4120
810.025	4169
810.166	4223
810.308	4196
810.45	4227
810.591	4185
810.733	4230
810.875	4443
811.016	4797
811.158	5124
811.299	5307
811.441	5303
811.582	5064
811.724	4664
811.865	4451
812.007	4481
812.148	4405
812.29	4432
812.431	4417
812.573	4424
812.714	4409
812.855	4424
812.997	4363
813.138	4421
813.279	4398
813.421	4363
813.562	4405
813.703	4276
813.845	4352
813.986	4230
814.127	4192
814.268	4265
814.41	4246
814.551	4268
814.692	4280
814.833	4223
814.974	4341
815.115	4299
815.256	4268
815.397	4238
815.539	4242
815.68	4196
815.821	4219
815.962	4314
816.103	4306
816.244	4230
816.385	4227
816.526	4265
816.666	4192
816.807	4082
816.948	4150
817.089	4143
817.23	4097
817.371	4025
817.512	4032
817.653	4105
817.793	4013
817.934	4101
818.075	4124
818.216	4059
818.356	4013
818.497	3953
818.638	3915
818.778	3899
818.919	3854
819.06	3808
819.2	3884
819.341	3861
819.481	3781
819.622	3907
819.762	4036
819.903	3869
820.043	3854
820.184	3838
820.324	3770
820.465	3854
820.605	3846
820.746	3884
820.886	3800
821.026	3903
821.167	3880
821.307	3979
821.447	3956
821.588	3979
821.728	3934
821.868	3918
822.008	3857
822.149	3884
822.289	3880
822.429	3762
822.569	3770
822.709	3797
822.849	3713
822.99	3701
823.13	3701
823.27	3774
823.41	3717
823.55	3701
823.69	3660
823.83	3724
823.97	3663
824.11	3576
824.25	3572
824.389	3629
824.529	3675
824.669	3622
824.809	3694
824.949	3755
825.089	3679
825.228	3656
825.368	3591
825.508	3492
825.648	3549
825.787	3587
825.927	3652
826.067	3599
826.206	3667
826.346	3800
826.485	3816
826.625	3835
826.765	3918
826.904	3827
827.044	3584
827.183	3515
827.323	3420
827.462	3477
827.601	3450
827.741	3462
827.88	3454
828.02	3393
828.159	3412
828.298	3443
828.437	3511
828.577	3443
828.716	3591
828.855	3435
828.994	3325
829.134	3409
829.273	3378
829.412	3317
829.551	3336
829.69	3344
829.829	3443
829.968	3488
830.107	3405
830.246	3454
830.385	3378
830.524	3298
830.663	3283
830.802	3237
830.941	3211
831.08	3161
831.219	3203
831.357	3275
831.496	3389
831.635	3207
831.774	3154
831.913	3199
832.051	3119
832.19	3146
832.329	3192
832.467	3116
832.606	3150
832.744	3176
832.883	3195
833.022	3169
833.16	3233
833.299	3291
833.437	3310
833.576	3340
833.714	3389
833.852	3397
833.991	3412
834.129	3500
834.267	3428
834.406	3454
834.544	3401
834.682	3397
834.821	3359
834.959	3538
835.097	3473
835.235	3519
835.373	3492
835.511	3439
835.65	3447
835.788	3485
835.926	3359
836.064	3374
836.202	3382
836.34	3545
836.478	3603
836.615	3549
836.753	3557
836.891	3633
837.029	3637
837.167	3553
837.305	3557
837.443	3530
837.58	3504
837.718	3595
837.856	3568
837.993	3523
838.131	3584
838.269	3561
838.406	3591
838.544	3553
838.681	3466
838.819	3450
838.956	3355
839.094	3397
839.231	3409
839.369	3454
839.506	3743
839.643	3595
839.781	3519
839.918	3431
840.055	3507
840.193	3496
840.33	3488
840.467	3549
840.604	3614
840.742	3797
840.879	3538
841.016	3568
841.153	3564
841.29	3732
841.427	3736
841.564	3671
841.701	3728
841.838	3656
841.975	3686
842.112	3713
842.249	3637
842.385	3637
842.522	3857
842.659	3705
842.796	3679
842.933	3709
843.069	3682
843.206	3686
843.343	3808
843.479	3743
843.616	3797
843.752	3686
843.889	3682
844.025	3846
844.162	3698
844.298	3808
844.435	3732
844.571	3766
844.708	3880
844.844	3998
844.98	4036
845.117	3991
845.253	3941
845.389	3892
845.525	3937
845.661	3964
845.798	3907
845.934	4025
846.07	3930
846.206	4010
846.342	4093
846.478	4040
846.614	3991
846.75	3941
846.886	3850
847.022	4006
847.158	3975
847.294	3979
847.429	3987
847.565	3979
847.701	4246
847.837	3892
847.972	3819
848.108	3979
848.244	3998
848.379	3861
848.515	3740
848.65	3770
848.786	3827
848.921	3827
849.057	3911
849.192	3926
849.328	3899
849.463	3880
849.598	3842
849.734	3831
849.869	3819
850.004	3789
850.14	3816
850.275	3743
850.41	3713
850.545	3713
850.68	3812
850.815	3789
850.95	3812
851.085	3918
851.22	3804
851.355	3846
851.49	3770
851.625	3778
851.76	3793
851.895	3705
852.03	3679
852.165	3778
852.299	3831
852.434	3854
852.569	3869
852.703	3865
852.838	3945
852.973	3991
853.107	3994
853.242	3896
853.376	3823
853.511	3751
853.645	3850
853.78	3934
853.914	3865
854.048	3915
854.183	3884
854.317	3922
854.451	4040
854.585	3964
854.72	3934
854.854	3991
854.988	3888
855.122	3979
855.256	3915
855.39	3979
855.524	4090
855.658	4086
855.792	4097
855.926	4109
856.06	4139
856.194	4223
856.327	4154
856.461	4139
856.595	4135
856.729	4169
856.862	4242
856.996	4223
857.13	4287
857.263	4341
857.397	4356
857.53	4295
857.664	4386
857.797	4383
857.931	4379
858.064	4375
858.197	4466
858.331	4360
858.464	4371
858.597	4344
858.731	4421
858.864	4466
858.997	4447
859.13	4500
859.263	4497
859.396	4599
859.529	4504
859.662	4478
859.795	4516
859.928	4577
860.061	4698
860.194	4694
860.327	4637
860.46	4603
860.592	4687
860.725	4797
860.858	4767
860.99	4687
861.123	4641
861.256	4702
861.388	4717
861.521	5322
861.653	4725
861.786	4702
861.918	4778
862.05	4786
862.183	4831
862.315	4866
862.447	4927
862.58	4934
862.712	4744
862.844	4748
862.976	4870
863.108	4797
863.24	5254
863.372	4790
863.504	4870
863.636	4862
863.768	4972
863.9	4946
864.032	4938
864.164	4961
864.296	5060
864.428	5098
864.559	5124
864.691	5140
864.823	5124
864.954	5143
865.086	5113
865.217	5132
865.349	5098
865.48	5151
865.612	5159
865.743	5250
865.875	5201
866.006	5178
866.137	5197
866.269	5204
866.4	5250
866.531	5242
866.662	5220
866.793	5258
866.924	5292
867.055	5322
867.186	5326
867.317	5280
867.448	5307
867.579	5345
867.71	5425
867.841	5387
867.972	5448
868.103	5463
868.233	5497
868.364	5482
868.495	5543
868.625	5668
868.756	5760
868.886	5653
869.017	5756
869.147	5802
869.278	5817
869.408	5745
869.539	5855
869.669	5878
869.799	5866
869.929	5984
870.06	5992
870.19	6175
870.32	6175
870.45	6262
870.58	6414
870.71	6429
870.84	6433
870.97	6426
871.1	6388
871.23	6608
871.36	6688
871.489	6646
871.619	6722
871.749	6757
871.879	6814
872.008	6875
872.138	6943
872.267	7015
872.397	6958
872.526	7015
872.656	7076
872.785	7141
872.915	7426
873.044	7506
873.173	7518
873.303	7624
873.432	7784
873.561	7856
873.69	7959
873.819	8020
873.948	8081
874.077	8229
874.206	8320
874.335	8423
874.464	8644
874.593	8785
874.722	8960
874.851	9173
874.979	9203
875.108	9329
875.237	9408
875.365	9530
875.494	9652
875.623	9865
875.751	9762
875.88	9949
876.008	10166
876.136	10234
876.265	10485
876.393	10702
876.521	10702
876.65	10767
876.778	10809
876.906	10866
877.034	10987
877.162	11128
877.29	11132
877.418	11307
877.546	11410
877.674	11459
877.802	11547
877.93	11490
878.058	11505
878.185	11509
878.313	11619
878.441	11745
878.568	11710
878.696	11832
878.824	11843
878.951	11916
879.079	12030
879.206	12095
879.333	12038
879.461	11992
879.588	11999
879.715	12068
879.842	12239
879.97	12079
880.097	11863
880.224	11935
880.351	11939
880.478	11843
880.605	11817
880.732	11866
880.859	11958
880.986	11828
881.112	11824
881.239	11722
881.366	11524
881.493	11497
881.619	11482
881.746	11585
881.872	11528
881.999	11486
882.125	11554
882.252	11528
882.378	11558
882.505	11516
882.631	11429
882.757	11208
882.883	11288
883.01	11246
883.136	11136
883.262	11113
883.388	11128
883.514	11193
883.64	11105
883.766	11140
883.892	11048
884.018	11090
884.143	11060
884.269	11075
884.395	10885
884.52	10763
884.646	10774
884.772	10759
884.897	10660
885.023	10653
885.148	10714
885.274	10763
885.399	10656
885.524	10603
885.65	10580
885.775	10558
885.9	10573
886.025	10573
886.15	10561
886.275	10386
886.4	10382
886.525	10443
886.65	10375
886.775	10325
886.9	10474
887.025	10535
887.149	10402
887.274	10207
887.399	10177
887.523	10169
887.648	10147
887.773	10086
887.897	10257
888.021	10261
888.146	10074
888.27	10249
888.395	10234
888.519	10124
888.643	10169
888.767	10227
888.891	10078
889.015	10044
889.139	9998
889.263	10029
889.387	10074
889.511	10147
889.635	10025
889.759	9991
889.883	10021
890.006	10002
890.13	10215
890.254	9956
890.377	10021
890.501	9888
890.624	9865
890.748	9876
890.871	9743
890.995	9797
891.118	9713
891.241	9808
891.364	9671
891.488	9785
891.611	9717
891.734	9728
891.857	9770
891.98	9656
892.103	9766
892.226	9690
892.349	9637
892.471	9568
892.594	9648
892.717	9610
892.839	9629
892.962	9561
893.085	9686
893.207	9561
893.33	9561
893.452	9473
893.575	9553
893.697	9473
893.819	9557
893.941	9610
894.064	9534
894.186	9401
894.308	9348
894.43	9568
894.552	9629
894.674	9557
894.796	9359
894.918	9329
895.04	9378
895.161	9355
895.283	9344
895.405	9230
895.526	9237
895.648	9253
895.769	9260
895.891	9264
896.012	9260
896.134	9173
896.255	9180
896.376	9062
896.498	9097
896.619	9043
896.74	9085
896.861	9116
896.982	9230
897.103	9321
897.224	9161
897.345	9097
897.466	8982
897.587	8979
897.708	9047
897.828	9020
897.949	8994
898.07	8815
898.19	8967
898.311	9009
898.431	8891
898.552	8876
898.672	8956
898.792	8952
898.913	8910
899.033	8800
899.153	8705
899.273	8632
899.393	8648
899.513	8670
899.633	8781
899.753	8777
899.873	8743
899.993	8781
900.113	8689
900.232	8708
900.352	8602
900.472	8579
900.591	8583
900.711	8640
900.83	8503
900.95	8705
901.069	8674
901.189	8564
901.308	8389
901.427	8358
901.546	8469
901.665	8419
901.784	8461
901.904	8370
902.023	8385
902.141	8248
902.26	8187
902.379	8229
902.498	8237
902.617	8244
902.735	8275
902.854	8294
902.973	8244
903.091	8054
903.21	8103
903.328	8100
903.446	8103
903.565	8088
903.683	8058
903.801	8050
903.919	8119
904.038	8100
904.156	7982
904.274	8058
904.392	8058
904.51	8012
904.627	8050
904.745	8077
904.863	8111
904.981	7921
905.098	7803
905.216	7852
905.334	7928
905.451	7898
905.569	7871
905.686	7852
905.803	7898
905.921	7776
906.038	7944
906.155	7772
906.272	7727
906.389	7719
906.506	7655
906.623	7658
906.74	7582
906.857	7571
906.974	7567
907.091	7624
907.208	7643
907.324	7639
907.441	7586
907.557	7422
907.674	7483
907.79	7403
907.907	7381
908.023	7430
908.139	7403
908.256	7377
908.372	7324
908.488	7335
908.604	7217
908.72	7194
908.836	7225
908.952	7206
909.068	7221
909.184	7305
909.3	7213
909.415	7316
909.531	7194
909.647	7114
909.762	7084
909.878	7084
909.993	7118
910.108	7084
910.224	7103
910.339	7122
910.454	7038
910.57	7012
910.685	6954
910.8	7149
910.915	7088
911.03	7046
911.145	6962
911.259	6825
911.374	6844
911.489	6810
911.604	6726
911.718	6734
911.833	6757
911.947	6608
912.062	6578
912.176	6684
912.291	6764
912.405	6692
912.519	6783
912.633	6810
912.748	6711
912.862	6662
912.976	6620
913.09	6551
913.204	6585
913.318	6585
913.431	6684
913.545	6711
913.659	6711
913.772	6730
913.886	6578
914	6521
914.113	6650
914.226	6608
914.34	6574
914.453	6467
914.566	6593
914.68	6540
914.793	6460
914.906	6399
915.019	6365
915.132	6403
915.245	6395
915.358	6433
915.47	6483
915.583	6445
915.696	6460
915.809	6521
915.921	6566
916.034	6433
916.146	6388
916.259	6334
916.371	6422
916.483	6395
916.595	6361
916.708	6361
916.82	6369
916.932	6380
917.044	6311
917.156	6399
917.268	6300
917.38	6418
917.491	6319
917.603	6258
917.715	6407
917.826	6376
917.938	6289
918.049	6220
918.161	6353
918.272	6452
918.384	6414
918.495	6300
918.606	6243
918.717	6171
918.828	6209
918.939	6228
919.05	6155
919.161	6243
919.272	6060
919.383	6114
919.494	6292
919.604	6403
919.715	6277
919.826	6213
919.936	6243
920.047	6323
920.157	6258
920.267	6426
920.378	6300
920.488	6281
920.598	6441
920.708	6551
920.818	6475
920.928	6403
921.038	6506
921.148	6521
921.258	6338
921.368	6304
921.477	6182
921.587	6167
921.697	6045
921.806	6178
921.916	6095
922.025	5878
922.134	5977
922.244	5916
922.353	5920
922.462	5870
922.571	5779
922.68	5726
922.789	5688
922.898	5672
923.007	5600
923.116	5688
923.224	5642
923.333	5596
923.442	5600
923.55	5554
923.659	5566
923.767	5592
923.876	5471
923.984	5589
924.092	5528
924.201	5558
924.309	5528
924.417	5543
924.525	5463
924.633	5528
924.741	6273
924.849	5402
924.956	5440
925.064	5360
925.172	5288
925.279	5277
925.387	5357
925.494	5337
925.602	5410
925.709	5414
925.816	5280
925.924	5299
926.031	5334
926.138	5288
926.245	5307
926.352	5181
926.459	5303
926.566	5334
926.673	5151
926.779	5155
926.886	5086
926.993	5014
927.099	4984
927.206	4938
927.312	4968
927.419	5003
927.525	4968
927.631	4961
927.737	4934
927.843	4828
927.95	4782
928.056	4790
928.162	4820
928.267	4820
928.373	5311
928.479	4862
928.585	4683
928.69	4797
928.796	4706
928.901	4710
929.007	4615
929.112	4691
929.218	4649
929.323	4588
929.428	4512
929.533	4634
929.638	4535
929.743	4516
929.848	4542
929.953	4542
930.058	4409
930.163	4272
930.267	4322
930.372	4417
930.477	4280
930.581	4443
930.685	4344
930.79	4219
930.894	4284
930.998	4204
931.103	4394
931.207	4112
931.311	4074
931.415	3998
931.519	3892
931.623	3964
