Data from glass_V78500241_2339.txt Node
Date: Wed Sep 01 19:30:42 CST 2021
User: usil
Spectrometer: V785-0024
Trigger mode: 0
Integration Time (sec): 4.000000E-1
Scans to average: 1
Nonlinearity correction enabled: false
Boxcar width: 0
Storing dark spectrum: false
XAxis mode: Wavelengths
Number of Pixels in Spectrum: 1024
>>>>>Begin Spectral Data<<<<<
801.071	3713
801.214	3755
801.356	3709
801.499	3755
801.641	3717
801.783	3743
801.926	3850
802.068	3846
802.211	3812
802.353	3876
802.496	3827
802.638	3854
802.78	3884
802.923	3930
803.065	3876
803.208	3823
803.35	3884
803.492	3884
803.635	3918
803.777	3774
803.919	3876
804.061	4162
804.204	3937
804.346	3911
804.488	3915
804.63	4036
804.773	3964
804.915	3964
805.057	4139
805.199	3998
805.341	4051
805.483	4139
805.626	4101
805.768	4097
805.91	4196
806.052	4249
806.194	4181
806.336	4329
806.478	4200
806.62	4162
806.762	4207
806.904	4246
807.046	4352
807.188	4204
807.33	4185
807.472	4227
807.614	4185
807.756	4238
807.898	4207
808.04	4234
808.182	4329
808.324	4284
808.465	4325
808.607	4424
808.749	4421
808.891	4470
809.033	4470
809.174	4417
809.316	4261
809.458	4227
809.6	4158
809.741	4139
809.883	4101
810.025	4200
810.166	4211
810.308	4230
810.45	4211
810.591	4257
810.733	4246
810.875	4485
811.016	4839
811.158	5102
811.299	5326
811.441	5284
811.582	5033
811.724	4698
811.865	4474
812.007	4481
812.148	4383
812.29	4383
812.431	4447
812.573	4428
812.714	4367
812.855	4383
812.997	4428
813.138	4508
813.279	4443
813.421	4386
813.562	4390
813.703	4325
813.845	4325
813.986	4253
814.127	4246
814.268	4246
814.41	4299
814.551	4280
814.692	4314
814.833	4253
814.974	4303
815.115	4375
815.256	4261
815.397	4238
815.539	4246
815.68	4192
815.821	4215
815.962	4295
816.103	4295
816.244	4284
816.385	4207
816.526	4261
816.666	4207
816.807	4074
816.948	4196
817.089	4150
817.23	4112
817.371	4029
817.512	4029
817.653	4086
817.793	4040
817.934	4025
818.075	4101
818.216	4025
818.356	4078
818.497	3994
818.638	3903
818.778	3857
818.919	3869
819.06	3869
819.2	3888
819.341	3861
819.481	3838
819.622	3873
819.762	4017
819.903	3972
820.043	3892
820.184	3854
820.324	3766
820.465	3869
820.605	3869
820.746	3880
820.886	3789
821.026	3903
821.167	3937
821.307	3983
821.447	3956
821.588	3953
821.728	3949
821.868	3903
822.008	3846
822.149	3934
822.289	3918
822.429	3766
822.569	3781
822.709	3766
822.849	3690
822.99	3690
823.13	3789
823.27	3800
823.41	3686
823.55	3736
823.69	3675
823.83	3701
823.97	3648
824.11	3633
824.25	3591
824.389	3648
824.529	3641
824.669	3629
824.809	3675
824.949	3732
825.089	3701
825.228	3709
825.368	3557
825.508	3557
825.648	3599
825.787	3584
825.927	3629
826.067	3561
826.206	3652
826.346	3804
826.485	3793
826.625	3892
826.765	3930
826.904	3804
827.044	3595
827.183	3542
827.323	3454
827.462	3466
827.601	3420
827.741	3443
827.88	3424
828.02	3378
828.159	3405
828.298	3447
828.437	3488
828.577	3496
828.716	3564
828.855	3469
828.994	3370
829.134	3359
829.273	3393
829.412	3329
829.551	3340
829.69	3359
829.829	3431
829.968	3523
830.107	3462
830.246	3393
830.385	3329
830.524	3336
830.663	3336
830.802	3237
830.941	3203
831.08	3195
831.219	3279
831.357	3237
831.496	3431
831.635	3245
831.774	3157
831.913	3188
832.051	3135
832.19	3097
832.329	3199
832.467	3127
832.606	3104
832.744	3180
832.883	3211
833.022	3199
833.16	3230
833.299	3298
833.437	3336
833.576	3340
833.714	3374
833.852	3424
833.991	3439
834.129	3447
834.267	3409
834.406	3397
834.544	3386
834.682	3393
834.821	3397
834.959	3603
835.097	3397
835.235	3507
835.373	3504
835.511	3466
835.65	3447
835.788	3481
835.926	3401
836.064	3386
836.202	3409
836.34	3614
836.478	3618
836.615	3526
836.753	3580
836.891	3637
837.029	3648
837.167	3599
837.305	3557
837.443	3538
837.58	3519
837.718	3603
837.856	3511
837.993	3557
838.131	3587
838.269	3568
838.406	3595
838.544	3576
838.681	3435
838.819	3431
838.956	3378
839.094	3389
839.231	3447
839.369	3458
839.506	3759
839.643	3618
839.781	3492
839.918	3485
840.055	3542
840.193	3523
840.33	3511
840.467	3557
840.604	3629
840.742	3808
840.879	3523
841.016	3587
841.153	3595
841.29	3762
841.427	3698
841.564	3720
841.701	3747
841.838	3694
841.975	3679
842.112	3743
842.249	3629
842.385	3622
842.522	3831
842.659	3671
842.796	3648
842.933	3713
843.069	3663
843.206	3717
843.343	3774
843.479	3755
843.616	3797
843.752	3663
843.889	3686
844.025	3819
844.162	3713
844.298	3838
844.435	3785
844.571	3781
844.708	3876
844.844	3975
844.98	4048
845.117	3972
845.253	3888
845.389	3861
845.525	3983
845.661	3956
845.798	3892
845.934	4059
846.07	3937
846.206	4021
846.342	4086
846.478	4048
846.614	3937
846.75	3918
846.886	3896
847.022	4040
847.158	4006
847.294	3972
847.429	4063
847.565	3979
847.701	4215
847.837	3884
847.972	3800
848.108	3949
848.244	3953
848.379	3884
848.515	3816
848.65	3819
848.786	3857
848.921	3876
849.057	3911
849.192	3964
849.328	3945
849.463	3911
849.598	3876
849.734	3869
849.869	3804
850.004	3751
850.14	3797
850.275	3762
850.41	3751
850.545	3732
850.68	3766
850.815	3789
850.95	3797
851.085	3968
851.22	3842
851.355	3827
851.49	3827
851.625	3755
851.76	3804
851.895	3732
852.03	3751
852.165	3781
852.299	3808
852.434	3915
852.569	3876
852.703	3831
852.838	3930
852.973	3983
853.107	4002
853.242	3888
853.376	3831
853.511	3755
853.645	3823
853.78	3941
853.914	3907
854.048	3865
854.183	3857
854.317	3968
854.451	4063
854.585	3937
854.72	3937
854.854	4021
854.988	3934
855.122	4006
855.256	3926
855.39	4048
855.524	4086
855.658	4101
855.792	4082
855.926	4158
856.06	4139
856.194	4173
856.327	4116
856.461	4112
856.595	4128
856.729	4139
856.862	4230
856.996	4215
857.13	4322
857.263	4344
857.397	4371
857.53	4299
857.664	4344
857.797	4375
857.931	4390
858.064	4383
858.197	4428
858.331	4360
858.464	4398
858.597	4337
858.731	4443
858.864	4455
858.997	4413
859.13	4519
859.263	4542
859.396	4561
859.529	4535
859.662	4523
859.795	4527
859.928	4588
860.061	4721
860.194	4725
860.327	4691
860.46	4584
860.592	4736
860.725	4694
860.858	4752
860.99	4706
861.123	4660
861.256	4626
861.388	4774
861.521	5315
861.653	4725
861.786	4717
861.918	4744
862.05	4774
862.183	4820
862.315	4915
862.447	4961
862.58	4862
862.712	4771
862.844	4767
862.976	4843
863.108	4850
863.24	5147
863.372	4797
863.504	4900
863.636	4885
863.768	4938
863.9	4957
864.032	4949
864.164	4949
864.296	4980
864.428	5037
864.559	5060
864.691	5098
864.823	5090
864.954	5113
865.086	5128
865.217	5151
865.349	5094
865.48	5143
865.612	5231
865.743	5284
865.875	5162
866.006	5193
866.137	5212
866.269	5197
866.4	5299
866.531	5273
866.662	5284
866.793	5235
866.924	5269
867.055	5345
867.186	5322
867.317	5235
867.448	5303
867.579	5322
867.71	5395
867.841	5379
867.972	5455
868.103	5421
868.233	5444
868.364	5512
868.495	5532
868.625	5680
868.756	5760
868.886	5676
869.017	5714
869.147	5889
869.278	5863
869.408	5756
869.539	5767
869.669	5950
869.799	5916
869.929	6011
870.06	5984
870.19	6224
870.32	6178
870.45	6266
870.58	6311
870.71	6429
870.84	6429
870.97	6407
871.1	6418
871.23	6623
871.36	6665
871.489	6646
871.619	6692
871.749	6719
871.879	6856
872.008	6958
872.138	6932
872.267	6973
872.397	6993
872.526	7042
872.656	7050
872.785	7187
872.915	7407
873.044	7495
873.173	7533
873.303	7601
873.432	7792
873.561	7826
873.69	7852
873.819	8024
873.948	8138
874.077	8202
874.206	8358
874.335	8450
874.464	8621
874.593	8838
874.722	8960
874.851	9074
874.979	9264
875.108	9302
875.237	9412
875.365	9439
875.494	9606
875.623	9888
875.751	9797
875.88	10002
876.008	10139
876.136	10265
876.265	10558
876.393	10744
876.521	10752
876.65	10744
876.778	10873
876.906	10854
877.034	10934
877.162	11067
877.29	11132
877.418	11246
877.546	11299
877.674	11512
877.802	11505
877.93	11478
878.058	11535
878.185	11634
878.313	11532
878.441	11805
878.568	11695
878.696	11824
878.824	11802
878.951	11977
879.079	11977
879.206	12087
879.333	12068
879.461	11954
879.588	12026
879.715	12072
879.842	12213
879.97	12011
880.097	11916
880.224	11840
880.351	11870
880.478	11912
880.605	11882
880.732	11790
880.859	11996
880.986	11843
881.112	11824
881.239	11623
881.366	11718
881.493	11592
881.619	11562
881.746	11543
881.872	11455
881.999	11543
882.125	11509
882.252	11604
882.378	11551
882.505	11581
882.631	11391
882.757	11265
882.883	11326
883.01	11299
883.136	11159
883.262	11037
883.388	11094
883.514	11159
883.64	11178
883.766	11121
883.892	10908
884.018	10965
884.143	10999
884.269	11048
884.395	10843
884.52	10790
884.646	10786
884.772	10706
884.897	10573
885.023	10618
885.148	10698
885.274	10809
885.399	10710
885.524	10603
885.65	10618
885.775	10565
885.9	10558
886.025	10694
886.15	10599
886.275	10489
886.4	10314
886.525	10405
886.65	10363
886.775	10360
886.9	10500
887.025	10588
887.149	10421
887.274	10238
887.399	10215
887.523	10211
887.648	10112
887.773	10135
887.897	10268
888.021	10185
888.146	10093
888.27	10143
888.395	10234
888.519	10181
888.643	10169
888.767	10139
888.891	10086
889.015	10101
889.139	10006
889.263	10006
889.387	9972
889.511	10112
889.635	10086
889.759	9972
889.883	9998
890.006	9937
890.13	10105
890.254	10021
890.377	9937
890.501	9835
890.624	9823
890.748	9907
890.871	9850
890.995	9747
891.118	9667
891.241	9778
891.364	9793
891.488	9804
891.611	9762
891.734	9774
891.857	9762
891.98	9740
892.103	9713
892.226	9686
892.349	9648
892.471	9511
892.594	9614
892.717	9603
892.839	9572
892.962	9603
893.085	9667
893.207	9564
893.33	9458
893.452	9526
893.575	9580
893.697	9591
893.819	9625
893.941	9564
894.064	9606
894.186	9439
894.308	9389
894.43	9553
894.552	9580
894.674	9511
894.796	9378
894.918	9401
895.04	9332
895.161	9317
895.283	9393
895.405	9203
895.526	9325
895.648	9207
895.769	9298
895.891	9272
896.012	9272
896.134	9207
896.255	9211
896.376	9116
896.498	9142
896.619	9188
896.74	9077
896.861	9100
896.982	9260
897.103	9298
897.224	9123
897.345	9081
897.466	8941
897.587	8952
897.708	9020
897.828	9070
897.949	8914
898.07	8891
898.19	8994
898.311	8975
898.431	8891
898.552	8872
898.672	8937
898.792	8899
898.913	8872
899.033	8826
899.153	8739
899.273	8670
899.393	8724
899.513	8754
899.633	8731
899.753	8750
899.873	8686
899.993	8708
900.113	8727
900.232	8689
900.352	8682
900.472	8545
900.591	8564
900.711	8560
900.83	8606
900.95	8617
901.069	8689
901.189	8571
901.308	8522
901.427	8339
901.546	8374
901.665	8438
901.784	8469
901.904	8415
902.023	8298
902.141	8210
902.26	8202
902.379	8210
902.498	8252
902.617	8252
902.735	8279
902.854	8301
902.973	8252
903.091	8115
903.21	8107
903.328	8172
903.446	8103
903.565	8046
903.683	8062
903.801	8012
903.919	8065
904.038	8199
904.156	8035
904.274	8164
904.392	8039
904.51	7963
904.627	8035
904.745	8088
904.863	8123
904.981	7913
905.098	7871
905.216	7875
905.334	7864
905.451	7913
905.569	7871
905.686	7860
905.803	7913
905.921	7715
906.038	7803
906.155	7849
906.272	7765
906.389	7715
906.506	7624
906.623	7594
906.74	7578
906.857	7567
906.974	7609
907.091	7651
907.208	7643
907.324	7632
907.441	7559
907.557	7480
907.674	7480
907.79	7392
907.907	7369
908.023	7457
908.139	7350
908.256	7396
908.372	7422
908.488	7350
908.604	7255
908.72	7133
908.836	7198
908.952	7217
909.068	7255
909.184	7312
909.3	7266
909.415	7259
909.531	7259
909.647	7069
909.762	7110
909.878	7080
909.993	7133
910.108	7145
910.224	7107
910.339	7103
910.454	7004
910.57	7015
910.685	6954
910.8	7187
910.915	7118
911.03	7000
911.145	6913
911.259	6871
911.374	6848
911.489	6825
911.604	6802
911.718	6684
911.833	6734
911.947	6658
912.062	6604
912.176	6692
912.291	6719
912.405	6707
912.519	6776
912.633	6825
912.748	6700
912.862	6734
912.976	6544
913.09	6555
913.204	6597
913.318	6631
913.431	6669
913.545	6654
913.659	6662
913.772	6665
913.886	6601
914	6585
914.113	6616
914.226	6597
914.34	6532
914.453	6456
914.566	6608
914.68	6513
914.793	6464
914.906	6334
915.019	6475
915.132	6426
915.245	6353
915.358	6391
915.47	6452
915.583	6441
915.696	6502
915.809	6513
915.921	6536
916.034	6410
916.146	6357
916.259	6391
916.371	6433
916.483	6429
916.595	6391
916.708	6433
916.82	6380
916.932	6376
917.044	6399
917.156	6448
917.268	6334
917.38	6388
917.491	6281
917.603	6300
917.715	6369
917.826	6452
917.938	6281
918.049	6228
918.161	6342
918.272	6399
918.384	6448
918.495	6388
918.606	6235
918.717	6213
918.828	6228
918.939	6300
919.05	6159
919.161	6251
919.272	6083
919.383	6178
919.494	6311
919.604	6422
919.715	6308
919.826	6171
919.936	6254
920.047	6327
920.157	6224
920.267	6460
920.378	6311
920.488	6247
920.598	6441
920.708	6570
920.818	6429
920.928	6464
921.038	6555
921.148	6498
921.258	6376
921.368	6194
921.477	6136
921.587	6224
921.697	6049
921.806	6197
921.916	6083
922.025	5958
922.134	5939
922.244	5851
922.353	5912
922.462	5851
922.571	5752
922.68	5695
922.789	5722
922.898	5729
923.007	5592
923.116	5649
923.224	5695
923.333	5608
923.442	5596
923.55	5554
923.659	5566
923.767	5657
923.876	5554
923.984	5604
924.092	5486
924.201	5600
924.309	5524
924.417	5585
924.525	5566
924.633	5490
924.741	6220
924.849	5387
924.956	5440
925.064	5341
925.172	5292
925.279	5379
925.387	5360
925.494	5311
925.602	5364
925.709	5376
925.816	5254
925.924	5303
926.031	5326
926.138	5299
926.245	5337
926.352	5235
926.459	5299
926.566	5299
926.673	5212
926.779	5121
926.886	5094
926.993	5045
927.099	4987
927.206	4980
927.312	4953
927.419	4999
927.525	4961
927.631	4949
927.737	4873
927.843	4870
927.95	4744
928.056	4831
928.162	4854
928.267	4835
928.373	5326
928.479	4801
928.585	4679
928.69	4744
928.796	4744
928.901	4656
929.007	4626
929.112	4691
929.218	4584
929.323	4569
929.428	4626
929.533	4653
929.638	4466
929.743	4516
929.848	4554
929.953	4478
930.058	4451
930.163	4314
930.267	4322
930.372	4383
930.477	4341
930.581	4455
930.685	4329
930.79	4211
930.894	4287
930.998	4215
931.103	4383
931.207	4093
931.311	4071
931.415	4048
931.519	3896
931.623	3888
