Data from glass_V78500241_214.txt Node
Date: Wed Sep 01 19:15:58 CST 2021
User: usil
Spectrometer: V785-0024
Trigger mode: 0
Integration Time (sec): 4.000000E-1
Scans to average: 1
Nonlinearity correction enabled: false
Boxcar width: 0
Storing dark spectrum: false
XAxis mode: Wavelengths
Number of Pixels in Spectrum: 1024
>>>>>Begin Spectral Data<<<<<
801.071	3797
801.214	3785
801.356	3694
801.499	3778
801.641	3759
801.783	3785
801.926	3861
802.068	3842
802.211	3876
802.353	3915
802.496	3831
802.638	3873
802.78	3918
802.923	3926
803.065	3911
803.208	3854
803.35	3903
803.492	3949
803.635	3926
803.777	3804
803.919	3930
804.061	4147
804.204	3994
804.346	4017
804.488	3998
804.63	4040
804.773	4010
804.915	4059
805.057	4158
805.199	4040
805.341	4086
805.483	4139
805.626	4173
805.768	4150
805.91	4230
806.052	4211
806.194	4177
806.336	4360
806.478	4246
806.62	4200
806.762	4234
806.904	4276
807.046	4344
807.188	4227
807.33	4188
807.472	4257
807.614	4211
807.756	4261
807.898	4227
808.04	4219
808.182	4329
808.324	4352
808.465	4443
808.607	4470
808.749	4474
808.891	4519
809.033	4500
809.174	4428
809.316	4329
809.458	4280
809.6	4185
809.741	4128
809.883	4120
810.025	4207
810.166	4242
810.308	4253
810.45	4223
810.591	4211
810.733	4356
810.875	4550
811.016	4801
811.158	5136
811.299	5292
811.441	5353
811.582	5064
811.724	4698
811.865	4497
812.007	4478
812.148	4413
812.29	4402
812.431	4413
812.573	4440
812.714	4436
812.855	4379
812.997	4409
813.138	4538
813.279	4405
813.421	4405
813.562	4379
813.703	4341
813.845	4348
813.986	4291
814.127	4238
814.268	4322
814.41	4310
814.551	4303
814.692	4383
814.833	4291
814.974	4306
815.115	4329
815.256	4284
815.397	4242
815.539	4249
815.68	4246
815.821	4242
815.962	4322
816.103	4299
816.244	4249
816.385	4223
816.526	4344
816.666	4207
816.807	4124
816.948	4204
817.089	4196
817.23	4124
817.371	4071
817.512	4124
817.653	4097
817.793	4002
817.934	4078
818.075	4128
818.216	4090
818.356	4093
818.497	4006
818.638	3926
818.778	3892
818.919	3922
819.06	3850
819.2	3922
819.341	3869
819.481	3827
819.622	3964
819.762	3987
819.903	3964
820.043	3861
820.184	3873
820.324	3861
820.465	3888
820.605	3896
820.746	3907
820.886	3873
821.026	3949
821.167	3968
821.307	3975
821.447	4010
821.588	3960
821.728	3941
821.868	3930
822.008	3876
822.149	3922
822.289	3869
822.429	3842
822.569	3831
822.709	3804
822.849	3720
822.99	3759
823.13	3686
823.27	3770
823.41	3709
823.55	3701
823.69	3720
823.83	3724
823.97	3720
824.11	3618
824.25	3610
824.389	3667
824.529	3717
824.669	3660
824.809	3686
824.949	3762
825.089	3743
825.228	3720
825.368	3603
825.508	3568
825.648	3572
825.787	3603
825.927	3644
826.067	3603
826.206	3641
826.346	3781
826.485	3880
826.625	3899
826.765	3960
826.904	3842
827.044	3580
827.183	3557
827.323	3409
827.462	3519
827.601	3462
827.741	3462
827.88	3458
828.02	3351
828.159	3439
828.298	3530
828.437	3542
828.577	3526
828.716	3641
828.855	3504
828.994	3401
829.134	3359
829.273	3401
829.412	3363
829.551	3367
829.69	3332
829.829	3416
829.968	3561
830.107	3469
830.246	3462
830.385	3393
830.524	3374
830.663	3310
830.802	3287
830.941	3195
831.08	3214
831.219	3306
831.357	3313
831.496	3393
831.635	3272
831.774	3211
831.913	3192
832.051	3150
832.19	3161
832.329	3195
832.467	3131
832.606	3135
832.744	3165
832.883	3192
833.022	3192
833.16	3291
833.299	3279
833.437	3332
833.576	3378
833.714	3424
833.852	3420
833.991	3469
834.129	3492
834.267	3454
834.406	3363
834.544	3462
834.682	3435
834.821	3481
834.959	3553
835.097	3435
835.235	3553
835.373	3500
835.511	3526
835.65	3477
835.788	3515
835.926	3420
836.064	3401
836.202	3443
836.34	3622
836.478	3660
836.615	3553
836.753	3603
836.891	3606
837.029	3652
837.167	3633
837.305	3545
837.443	3553
837.58	3553
837.718	3637
837.856	3557
837.993	3534
838.131	3599
838.269	3603
838.406	3549
838.544	3584
838.681	3454
838.819	3454
838.956	3397
839.094	3393
839.231	3454
839.369	3564
839.506	3759
839.643	3644
839.781	3519
839.918	3462
840.055	3568
840.193	3519
840.33	3580
840.467	3545
840.604	3629
840.742	3793
840.879	3553
841.016	3576
841.153	3603
841.29	3759
841.427	3736
841.564	3755
841.701	3759
841.838	3709
841.975	3660
842.112	3740
842.249	3667
842.385	3633
842.522	3823
842.659	3720
842.796	3690
842.933	3751
843.069	3732
843.206	3762
843.343	3808
843.479	3819
843.616	3808
843.752	3663
843.889	3698
844.025	3896
844.162	3770
844.298	3857
844.435	3812
844.571	3800
844.708	3915
844.844	4006
844.98	4017
845.117	4055
845.253	3956
845.389	3922
845.525	3972
845.661	3968
845.798	3941
845.934	3979
846.07	3975
846.206	4051
846.342	4162
846.478	4048
846.614	3956
846.75	3937
846.886	3945
847.022	4051
847.158	3972
847.294	3991
847.429	4048
847.565	3994
847.701	4257
847.837	3915
847.972	3861
848.108	3975
848.244	3968
848.379	3876
848.515	3850
848.65	3823
848.786	3869
848.921	3884
849.057	3903
849.192	4006
849.328	3956
849.463	3941
849.598	3899
849.734	3884
849.869	3861
850.004	3785
850.14	3827
850.275	3808
850.41	3747
850.545	3755
850.68	3770
850.815	3823
850.95	3823
851.085	3968
851.22	3850
851.355	3846
851.49	3800
851.625	3861
851.76	3800
851.895	3770
852.03	3766
852.165	3819
852.299	3865
852.434	3926
852.569	3896
852.703	3876
852.838	3945
852.973	4025
853.107	4006
853.242	3922
853.376	3884
853.511	3797
853.645	3846
853.78	3994
853.914	3915
854.048	3930
854.183	3922
854.317	3964
854.451	4074
854.585	4002
854.72	3979
854.854	4017
854.988	3972
855.122	3987
855.256	3968
855.39	4071
855.524	4112
855.658	4116
855.792	4090
855.926	4166
856.06	4196
856.194	4234
856.327	4109
856.461	4166
856.595	4162
856.729	4253
856.862	4284
856.996	4265
857.13	4329
857.263	4363
857.397	4390
857.53	4306
857.664	4417
857.797	4447
857.931	4436
858.064	4394
858.197	4474
858.331	4405
858.464	4371
858.597	4363
858.731	4500
858.864	4432
858.997	4459
859.13	4531
859.263	4580
859.396	4577
859.529	4546
859.662	4481
859.795	4508
859.928	4596
860.061	4687
860.194	4782
860.327	4687
860.46	4691
860.592	4694
860.725	4740
860.858	4790
860.99	4725
861.123	4729
861.256	4733
861.388	4801
861.521	5402
861.653	4752
861.786	4714
861.918	4744
862.05	4809
862.183	4854
862.315	4877
862.447	4927
862.58	4919
862.712	4809
862.844	4778
862.976	4854
863.108	4873
863.24	5185
863.372	4816
863.504	4843
863.636	4938
863.768	4984
863.9	5010
864.032	4934
864.164	4927
864.296	5022
864.428	5117
864.559	5151
864.691	5155
864.823	5117
864.954	5109
865.086	5185
865.217	5132
865.349	5113
865.48	5174
865.612	5216
865.743	5273
865.875	5212
866.006	5181
866.137	5235
866.269	5265
866.4	5223
866.531	5246
866.662	5216
866.793	5288
866.924	5337
867.055	5318
867.186	5341
867.317	5349
867.448	5311
867.579	5395
867.71	5395
867.841	5440
867.972	5467
868.103	5486
868.233	5497
868.364	5501
868.495	5554
868.625	5684
868.756	5798
868.886	5676
869.017	5714
869.147	5847
869.278	5908
869.408	5866
869.539	5813
869.669	5973
869.799	5836
869.929	6034
870.06	6030
870.19	6144
870.32	6220
870.45	6289
870.58	6369
870.71	6509
870.84	6464
870.97	6410
871.1	6456
871.23	6608
871.36	6711
871.489	6639
871.619	6741
871.749	6829
871.879	6882
872.008	7061
872.138	7012
872.267	6977
872.397	7008
872.526	7050
872.656	7118
872.785	7255
872.915	7388
873.044	7548
873.173	7563
873.303	7643
873.432	7795
873.561	7856
873.69	7936
873.819	7989
873.948	8126
874.077	8259
874.206	8358
874.335	8507
874.464	8659
874.593	8849
874.722	9001
874.851	9123
874.979	9207
875.108	9393
875.237	9412
875.365	9458
875.494	9637
875.623	9823
875.751	9861
875.88	9991
876.008	10158
876.136	10257
876.265	10542
876.393	10656
876.521	10771
876.65	10831
876.778	10877
876.906	10908
877.034	10911
877.162	11121
877.29	11143
877.418	11280
877.546	11311
877.674	11459
877.802	11490
877.93	11539
878.058	11585
878.185	11642
878.313	11665
878.441	11642
878.568	11764
878.696	11813
878.824	11821
878.951	11965
879.079	12019
879.206	12197
879.333	12072
879.461	12038
879.588	12133
879.715	12098
879.842	12205
879.97	12064
880.097	11904
880.224	11840
880.351	11969
880.478	11889
880.605	11855
880.732	11847
880.859	12068
880.986	11866
881.112	11893
881.239	11733
881.366	11688
881.493	11710
881.619	11566
881.746	11558
881.872	11581
881.999	11524
882.125	11516
882.252	11562
882.378	11543
882.505	11551
882.631	11410
882.757	11303
882.883	11353
883.01	11307
883.136	11235
883.262	11166
883.388	11037
883.514	11239
883.64	11212
883.766	11124
883.892	10987
884.018	11022
884.143	11109
884.269	11086
884.395	10843
884.52	10828
884.646	10812
884.772	10687
884.897	10645
885.023	10793
885.148	10660
885.274	10816
885.399	10683
885.524	10565
885.65	10584
885.775	10672
885.9	10592
886.025	10618
886.15	10569
886.275	10485
886.4	10341
886.525	10447
886.65	10489
886.775	10276
886.9	10523
887.025	10573
887.149	10352
887.274	10253
887.399	10230
887.523	10166
887.648	10158
887.773	10055
887.897	10242
888.021	10257
888.146	10120
888.27	10253
888.395	10265
888.519	10169
888.643	10215
888.767	10158
888.891	10067
889.015	9956
889.139	10074
889.263	9979
889.387	10147
889.511	10067
889.635	10101
889.759	9941
889.883	10032
890.006	9949
890.13	10120
890.254	9953
890.377	9987
890.501	9876
890.624	9903
890.748	9915
890.871	9789
890.995	9740
891.118	9762
891.241	9774
891.364	9736
891.488	9816
891.611	9690
891.734	9762
891.857	9701
891.98	9740
892.103	9804
892.226	9705
892.349	9629
892.471	9435
892.594	9606
892.717	9652
892.839	9644
892.962	9606
893.085	9610
893.207	9580
893.33	9572
893.452	9572
893.575	9595
893.697	9530
893.819	9603
893.941	9648
894.064	9545
894.186	9507
894.308	9473
894.43	9580
894.552	9618
894.674	9523
894.796	9447
894.918	9363
895.04	9355
895.161	9454
895.283	9317
895.405	9336
895.526	9325
895.648	9260
895.769	9256
895.891	9245
896.012	9287
896.134	9233
896.255	9150
896.376	9165
896.498	9207
896.619	9188
896.74	9032
896.861	9116
896.982	9283
897.103	9359
897.224	9123
897.345	9100
897.466	9032
897.587	9013
897.708	9123
897.828	9074
897.949	8982
898.07	8952
898.19	8944
898.311	9032
898.431	8952
898.552	8880
898.672	8994
898.792	8944
898.913	8944
899.033	8876
899.153	8769
899.273	8655
899.393	8796
899.513	8807
899.633	8712
899.753	8727
899.873	8781
899.993	8766
900.113	8621
900.232	8792
900.352	8682
900.472	8659
900.591	8602
900.711	8587
900.83	8526
900.95	8659
901.069	8727
901.189	8602
901.308	8476
901.427	8408
901.546	8480
901.665	8469
901.784	8507
901.904	8305
902.023	8385
902.141	8271
902.26	8294
902.379	8317
902.498	8225
902.617	8206
902.735	8294
902.854	8332
902.973	8271
903.091	8123
903.21	8172
903.328	8191
903.446	8161
903.565	8107
903.683	8130
903.801	8039
903.919	8149
904.038	8221
904.156	8062
904.274	8073
904.392	7959
904.51	8084
904.627	8084
904.745	8107
904.863	8043
904.981	7982
905.098	7852
905.216	7890
905.334	7913
905.451	7947
905.569	7871
905.686	7940
905.803	7921
905.921	7830
906.038	7887
906.155	7811
906.272	7689
906.389	7772
906.506	7636
906.623	7620
906.74	7605
906.857	7563
906.974	7594
907.091	7700
907.208	7742
907.324	7597
907.441	7651
907.557	7468
907.674	7480
907.79	7392
907.907	7415
908.023	7449
908.139	7468
908.256	7358
908.372	7384
908.488	7324
908.604	7232
908.72	7259
908.836	7289
908.952	7316
909.068	7316
909.184	7346
909.3	7270
909.415	7324
909.531	7308
909.647	7160
909.762	7126
909.878	7080
909.993	7095
910.108	7118
910.224	7053
910.339	7190
910.454	7031
910.57	6989
910.685	6985
910.8	7145
910.915	7095
911.03	7053
911.145	6920
911.259	6856
911.374	6951
911.489	6795
911.604	6791
911.718	6745
911.833	6764
911.947	6673
912.062	6623
912.176	6768
912.291	6726
912.405	6760
912.519	6844
912.633	6829
912.748	6715
912.862	6738
912.976	6612
913.09	6559
913.204	6597
913.318	6665
913.431	6654
913.545	6665
913.659	6764
913.772	6639
913.886	6555
914	6536
914.113	6623
914.226	6608
914.34	6574
914.453	6479
914.566	6631
914.68	6517
914.793	6578
914.906	6426
915.019	6422
915.132	6327
915.245	6414
915.358	6448
915.47	6456
915.583	6456
915.696	6494
915.809	6578
915.921	6532
916.034	6494
916.146	6429
916.259	6441
916.371	6479
916.483	6490
916.595	6441
916.708	6418
916.82	6433
916.932	6448
917.044	6407
917.156	6380
917.268	6319
917.38	6342
917.491	6300
917.603	6308
917.715	6479
917.826	6399
917.938	6323
918.049	6243
918.161	6384
918.272	6399
918.384	6365
918.495	6380
918.606	6270
918.717	6262
918.828	6266
918.939	6243
919.05	6254
919.161	6228
919.272	6121
919.383	6136
919.494	6243
919.604	6445
919.715	6342
919.826	6243
919.936	6277
920.047	6350
920.157	6292
920.267	6483
920.378	6353
920.488	6289
920.598	6479
920.708	6570
920.818	6486
920.928	6441
921.038	6646
921.148	6536
921.258	6319
921.368	6334
921.477	6254
921.587	6163
921.697	6106
921.806	6209
921.916	6125
922.025	6038
922.134	5950
922.244	5893
922.353	5935
922.462	5863
922.571	5802
922.68	5729
922.789	5737
922.898	5676
923.007	5665
923.116	5691
923.224	5653
923.333	5661
923.442	5608
923.55	5570
923.659	5661
923.767	5638
923.876	5547
923.984	5570
924.092	5516
924.201	5596
924.309	5592
924.417	5585
924.525	5486
924.633	5516
924.741	6277
924.849	5345
924.956	5520
925.064	5357
925.172	5315
925.279	5322
925.387	5398
925.494	5353
925.602	5425
925.709	5337
925.816	5273
925.924	5337
926.031	5341
926.138	5345
926.245	5322
926.352	5242
926.459	5315
926.566	5307
926.673	5250
926.779	5174
926.886	5121
926.993	5086
927.099	5056
927.206	5010
927.312	4976
927.419	5018
927.525	5029
927.631	4999
927.737	4896
927.843	4923
927.95	4786
928.056	4835
928.162	4858
928.267	4862
928.373	5277
928.479	4911
928.585	4679
928.69	4790
928.796	4797
928.901	4717
929.007	4615
929.112	4683
929.218	4660
929.323	4596
929.428	4641
929.533	4691
929.638	4516
929.743	4512
929.848	4630
929.953	4561
930.058	4451
930.163	4379
930.267	4409
930.372	4421
930.477	4295
930.581	4470
930.685	4363
930.79	4284
930.894	4329
930.998	4291
931.103	4371
931.207	4135
931.311	4154
931.415	4078
931.519	3918
931.623	3934
