Data from glass_V78500241_2263.txt Node
Date: Wed Sep 01 19:30:11 CST 2021
User: usil
Spectrometer: V785-0024
Trigger mode: 0
Integration Time (sec): 4.000000E-1
Scans to average: 1
Nonlinearity correction enabled: false
Boxcar width: 0
Storing dark spectrum: false
XAxis mode: Wavelengths
Number of Pixels in Spectrum: 1024
>>>>>Begin Spectral Data<<<<<
801.071	3724
801.214	3759
801.356	3701
801.499	3720
801.641	3743
801.783	3755
801.926	3880
802.068	3812
802.211	3816
802.353	3819
802.496	3766
802.638	3880
802.78	3899
802.923	3949
803.065	3842
803.208	3819
803.35	3884
803.492	3896
803.635	3857
803.777	3800
803.919	3930
804.061	4200
804.204	3998
804.346	3937
804.488	3926
804.63	4029
804.773	3964
804.915	4036
805.057	4101
805.199	4032
805.341	4105
805.483	4051
805.626	4105
805.768	4086
805.91	4147
806.052	4196
806.194	4188
806.336	4360
806.478	4211
806.62	4124
806.762	4230
806.904	4230
807.046	4306
807.188	4227
807.33	4173
807.472	4211
807.614	4181
807.756	4291
807.898	4181
808.04	4227
808.182	4287
808.324	4310
808.465	4363
808.607	4478
808.749	4455
808.891	4466
809.033	4466
809.174	4394
809.316	4287
809.458	4211
809.6	4105
809.741	4105
809.883	4143
810.025	4234
810.166	4173
810.308	4173
810.45	4242
810.591	4242
810.733	4299
810.875	4504
811.016	4793
811.158	5128
811.299	5242
811.441	5273
811.582	5018
811.724	4675
811.865	4500
812.007	4443
812.148	4459
812.29	4390
812.431	4421
812.573	4398
812.714	4379
812.855	4390
812.997	4379
813.138	4470
813.279	4405
813.421	4348
813.562	4344
813.703	4318
813.845	4284
813.986	4249
814.127	4196
814.268	4238
814.41	4211
814.551	4253
814.692	4356
814.833	4211
814.974	4310
815.115	4306
815.256	4227
815.397	4196
815.539	4268
815.68	4192
815.821	4181
815.962	4310
816.103	4333
816.244	4253
816.385	4230
816.526	4265
816.666	4204
816.807	4074
816.948	4135
817.089	4147
817.23	4116
817.371	4040
817.512	4071
817.653	4086
817.793	4021
817.934	4021
818.075	4131
818.216	4044
818.356	4109
818.497	3953
818.638	3896
818.778	3915
818.919	3861
819.06	3842
819.2	3911
819.341	3873
819.481	3781
819.622	3880
819.762	4010
819.903	3941
820.043	3857
820.184	3865
820.324	3816
820.465	3865
820.605	3861
820.746	3865
820.886	3770
821.026	3899
821.167	3880
821.307	3983
821.447	3945
821.588	3975
821.728	3964
821.868	3930
822.008	3888
822.149	3854
822.289	3941
822.429	3751
822.569	3743
822.709	3774
822.849	3660
822.99	3701
823.13	3732
823.27	3759
823.41	3701
823.55	3759
823.69	3682
823.83	3732
823.97	3686
824.11	3587
824.25	3618
824.389	3618
824.529	3614
824.669	3641
824.809	3720
824.949	3717
825.089	3717
825.228	3675
825.368	3557
825.508	3557
825.648	3523
825.787	3603
825.927	3633
826.067	3614
826.206	3652
826.346	3800
826.485	3808
826.625	3842
826.765	3884
826.904	3819
827.044	3564
827.183	3526
827.323	3454
827.462	3496
827.601	3428
827.741	3420
827.88	3454
828.02	3344
828.159	3439
828.298	3496
828.437	3523
828.577	3534
828.716	3580
828.855	3492
828.994	3412
829.134	3302
829.273	3370
829.412	3332
829.551	3359
829.69	3336
829.829	3420
829.968	3485
830.107	3450
830.246	3401
830.385	3363
830.524	3336
830.663	3317
830.802	3260
830.941	3176
831.08	3211
831.219	3256
831.357	3268
831.496	3412
831.635	3241
831.774	3211
831.913	3199
832.051	3150
832.19	3142
832.329	3176
832.467	3116
832.606	3104
832.744	3176
832.883	3173
833.022	3226
833.16	3253
833.299	3287
833.437	3336
833.576	3374
833.714	3439
833.852	3443
833.991	3439
834.129	3473
834.267	3450
834.406	3405
834.544	3424
834.682	3447
834.821	3401
834.959	3553
835.097	3435
835.235	3523
835.373	3507
835.511	3519
835.65	3439
835.788	3469
835.926	3321
836.064	3367
836.202	3389
836.34	3572
836.478	3564
836.615	3526
836.753	3599
836.891	3606
837.029	3618
837.167	3564
837.305	3599
837.443	3572
837.58	3515
837.718	3614
837.856	3584
837.993	3538
838.131	3633
838.269	3587
838.406	3591
838.544	3530
838.681	3469
838.819	3469
838.956	3382
839.094	3409
839.231	3428
839.369	3485
839.506	3705
839.643	3595
839.781	3504
839.918	3450
840.055	3511
840.193	3534
840.33	3504
840.467	3564
840.604	3603
840.742	3819
840.879	3538
841.016	3564
841.153	3553
841.29	3736
841.427	3698
841.564	3698
841.701	3751
841.838	3667
841.975	3652
842.112	3743
842.249	3644
842.385	3603
842.522	3869
842.659	3675
842.796	3644
842.933	3736
843.069	3694
843.206	3701
843.343	3766
843.479	3732
843.616	3808
843.752	3690
843.889	3682
844.025	3846
844.162	3713
844.298	3838
844.435	3770
844.571	3819
844.708	3899
844.844	3953
844.98	4017
845.117	4010
845.253	3907
845.389	3876
845.525	3941
845.661	3960
845.798	3892
845.934	3979
846.07	3945
846.206	4055
846.342	4086
846.478	4036
846.614	3926
846.75	3949
846.886	3926
847.022	4048
847.158	3945
847.294	3987
847.429	3994
847.565	3987
847.701	4207
847.837	3892
847.972	3896
848.108	3972
848.244	3979
848.379	3888
848.515	3793
848.65	3812
848.786	3800
848.921	3823
849.057	3953
849.192	3937
849.328	3915
849.463	3865
849.598	3903
849.734	3835
849.869	3869
850.004	3785
850.14	3819
850.275	3797
850.41	3720
850.545	3797
850.68	3774
850.815	3793
850.95	3793
851.085	3956
851.22	3846
851.355	3861
851.49	3774
851.625	3785
851.76	3823
851.895	3713
852.03	3762
852.165	3778
852.299	3835
852.434	3911
852.569	3827
852.703	3827
852.838	3915
852.973	3956
853.107	3937
853.242	3869
853.376	3854
853.511	3778
853.645	3831
853.78	3953
853.914	3903
854.048	3873
854.183	3861
854.317	3953
854.451	4078
854.585	3979
854.72	3941
854.854	4048
854.988	3888
855.122	3972
855.256	3922
855.39	3998
855.524	4147
855.658	4101
855.792	4105
855.926	4116
856.06	4204
856.194	4169
856.327	4071
856.461	4166
856.595	4135
856.729	4173
856.862	4246
856.996	4196
857.13	4295
857.263	4322
857.397	4303
857.53	4261
857.664	4344
857.797	4405
857.931	4405
858.064	4379
858.197	4417
858.331	4394
858.464	4390
858.597	4329
858.731	4440
858.864	4451
858.997	4474
859.13	4531
859.263	4508
859.396	4569
859.529	4538
859.662	4535
859.795	4489
859.928	4599
860.061	4660
860.194	4733
860.327	4637
860.46	4622
860.592	4683
860.725	4706
860.858	4782
860.99	4687
861.123	4660
861.256	4733
861.388	4767
861.521	5497
861.653	4687
861.786	4714
861.918	4733
862.05	4740
862.183	4866
862.315	4885
862.447	4919
862.58	4866
862.712	4786
862.844	4771
862.976	4835
863.108	4881
863.24	5147
863.372	4858
863.504	4854
863.636	4847
863.768	4927
863.9	4980
864.032	4923
864.164	4972
864.296	5041
864.428	5071
864.559	5117
864.691	5071
864.823	5136
864.954	5075
865.086	5109
865.217	5094
865.349	5098
865.48	5136
865.612	5151
865.743	5246
865.875	5178
866.006	5178
866.137	5181
866.269	5193
866.4	5280
866.531	5250
866.662	5166
866.793	5299
866.924	5277
867.055	5315
867.186	5349
867.317	5322
867.448	5326
867.579	5337
867.71	5353
867.841	5417
867.972	5414
868.103	5463
868.233	5455
868.364	5448
868.495	5516
868.625	5672
868.756	5760
868.886	5691
869.017	5752
869.147	5813
869.278	5870
869.408	5840
869.539	5733
869.669	5844
869.799	5939
869.929	5996
870.06	5988
870.19	6243
870.32	6232
870.45	6239
870.58	6300
870.71	6407
870.84	6437
870.97	6380
871.1	6433
871.23	6578
871.36	6642
871.489	6612
871.619	6753
871.749	6802
871.879	6863
872.008	7008
872.138	6901
872.267	6996
872.397	6993
872.526	7050
872.656	7057
872.785	7194
872.915	7331
873.044	7495
873.173	7525
873.303	7639
873.432	7677
873.561	7814
873.69	7932
873.819	7982
873.948	8161
874.077	8256
874.206	8305
874.335	8427
874.464	8667
874.593	8807
874.722	8918
874.851	9093
874.979	9222
875.108	9386
875.237	9443
875.365	9549
875.494	9629
875.623	9831
875.751	9842
875.88	10040
876.008	10059
876.136	10253
876.265	10474
876.393	10706
876.521	10683
876.65	10744
876.778	10858
876.906	10911
877.034	10968
877.162	11045
877.29	11048
877.418	11246
877.546	11299
877.674	11410
877.802	11471
877.93	11497
878.058	11558
878.185	11634
878.313	11619
878.441	11745
878.568	11684
878.696	11756
878.824	11832
878.951	11946
879.079	12019
879.206	12121
879.333	12011
879.461	12045
879.588	12140
879.715	12087
879.842	12232
879.97	12076
880.097	11893
880.224	11878
880.351	11897
880.478	11866
880.605	11859
880.732	11870
880.859	12041
880.986	11843
881.112	11824
881.239	11699
881.366	11573
881.493	11627
881.619	11600
881.746	11524
881.872	11497
881.999	11524
882.125	11486
882.252	11634
882.378	11463
882.505	11535
882.631	11436
882.757	11239
882.883	11254
883.01	11151
883.136	11124
883.262	11079
883.388	11048
883.514	11277
883.64	11102
883.766	11075
883.892	10991
884.018	10930
884.143	11071
884.269	11117
884.395	10797
884.52	10767
884.646	10797
884.772	10634
884.897	10599
885.023	10596
885.148	10660
885.274	10752
885.399	10736
885.524	10584
885.65	10592
885.775	10630
885.9	10535
886.025	10611
886.15	10500
886.275	10451
886.4	10417
886.525	10318
886.65	10318
886.775	10310
886.9	10493
887.025	10462
887.149	10394
887.274	10291
887.399	10143
887.523	10162
887.648	10101
887.773	10135
887.897	10276
888.021	10242
888.146	10177
888.27	10249
888.395	10215
888.519	10086
888.643	10116
888.767	10185
888.891	10112
889.015	10013
889.139	9998
889.263	9922
889.387	10074
889.511	10082
889.635	10105
889.759	9930
889.883	9915
890.006	9953
890.13	10147
890.254	10071
890.377	9968
890.501	9770
890.624	9888
890.748	9854
890.871	9751
890.995	9686
891.118	9679
891.241	9770
891.364	9762
891.488	9876
891.611	9705
891.734	9736
891.857	9770
891.98	9724
892.103	9732
892.226	9671
892.349	9660
892.471	9515
892.594	9629
892.717	9694
892.839	9675
892.962	9591
893.085	9625
893.207	9587
893.33	9534
893.452	9519
893.575	9614
893.697	9568
893.819	9603
893.941	9618
894.064	9584
894.186	9393
894.308	9393
894.43	9504
894.552	9545
894.674	9534
894.796	9386
894.918	9408
895.04	9317
895.161	9443
895.283	9363
895.405	9260
895.526	9203
895.648	9211
895.769	9253
895.891	9264
896.012	9332
896.134	9218
896.255	9199
896.376	9066
896.498	9165
896.619	9150
896.74	9097
896.861	9127
896.982	9256
897.103	9348
897.224	9165
897.345	9055
897.466	9032
897.587	9017
897.708	9097
897.828	8941
897.949	8952
898.07	8864
898.19	8921
898.311	9032
898.431	8918
898.552	8906
898.672	8963
898.792	8902
898.913	8906
899.033	8792
899.153	8648
899.273	8648
899.393	8682
899.513	8682
899.633	8689
899.753	8708
899.873	8693
899.993	8724
900.113	8689
900.232	8636
900.352	8682
900.472	8613
900.591	8465
900.711	8568
900.83	8537
900.95	8636
901.069	8712
901.189	8537
901.308	8408
901.427	8347
901.546	8412
901.665	8461
901.784	8495
901.904	8423
902.023	8248
902.141	8286
902.26	8164
902.379	8267
902.498	8191
902.617	8126
902.735	8275
902.854	8229
902.973	8244
903.091	8088
903.21	8164
903.328	8142
903.446	8073
903.565	8058
903.683	8077
903.801	8050
903.919	8020
904.038	8115
904.156	8031
904.274	8084
904.392	8058
904.51	7974
904.627	7982
904.745	8084
904.863	8168
904.981	7997
905.098	7860
905.216	7883
905.334	7947
905.451	7925
905.569	7932
905.686	7883
905.803	7860
905.921	7849
906.038	7841
906.155	7890
906.272	7738
906.389	7723
906.506	7651
906.623	7586
906.74	7540
906.857	7567
906.974	7563
907.091	7624
907.208	7681
907.324	7605
907.441	7529
907.557	7415
907.674	7426
907.79	7400
907.907	7407
908.023	7449
908.139	7388
908.256	7289
908.372	7365
908.488	7354
908.604	7270
908.72	7282
908.836	7240
908.952	7263
909.068	7278
909.184	7274
909.3	7240
909.415	7312
909.531	7263
909.647	7076
909.762	7137
909.878	7156
909.993	7152
910.108	7046
910.224	7129
910.339	7046
910.454	7053
910.57	7000
910.685	6894
910.8	7164
910.915	7084
911.03	7015
911.145	6909
911.259	6924
911.374	6837
911.489	6802
911.604	6791
911.718	6795
911.833	6734
911.947	6681
912.062	6589
912.176	6730
912.291	6692
912.405	6677
912.519	6833
912.633	6814
912.748	6707
912.862	6692
912.976	6589
913.09	6528
913.204	6631
913.318	6559
913.431	6658
913.545	6696
913.659	6715
913.772	6642
913.886	6525
914	6574
914.113	6673
914.226	6646
914.34	6559
914.453	6490
914.566	6544
914.68	6559
914.793	6563
914.906	6338
915.019	6399
915.132	6369
915.245	6460
915.358	6448
915.47	6418
915.583	6418
915.696	6456
915.809	6502
915.921	6570
916.034	6433
916.146	6399
916.259	6323
916.371	6448
916.483	6456
916.595	6331
916.708	6494
916.82	6350
916.932	6422
917.044	6384
917.156	6369
917.268	6380
917.38	6376
917.491	6338
917.603	6262
917.715	6410
917.826	6353
917.938	6311
918.049	6216
918.161	6319
918.272	6403
918.384	6380
918.495	6331
918.606	6251
918.717	6182
918.828	6182
918.939	6232
919.05	6155
919.161	6289
919.272	6060
919.383	6163
919.494	6235
919.604	6414
919.715	6323
919.826	6273
919.936	6262
920.047	6357
920.157	6308
920.267	6437
920.378	6319
920.488	6232
920.598	6426
920.708	6506
920.818	6452
920.928	6418
921.038	6677
921.148	6566
921.258	6331
921.368	6292
921.477	6155
921.587	6136
921.697	6007
921.806	6155
921.916	6076
922.025	5916
922.134	5912
922.244	5916
922.353	5901
922.462	5851
922.571	5798
922.68	5722
922.789	5691
922.898	5695
923.007	5623
923.116	5699
923.224	5665
923.333	5657
923.442	5585
923.55	5589
923.659	5570
923.767	5562
923.876	5509
923.984	5585
924.092	5459
924.201	5630
924.309	5532
924.417	5577
924.525	5501
924.633	5520
924.741	6292
924.849	5357
924.956	5444
925.064	5364
925.172	5315
925.279	5288
925.387	5334
925.494	5269
925.602	5398
925.709	5337
925.816	5265
925.924	5261
926.031	5364
926.138	5280
926.245	5296
926.352	5212
926.459	5334
926.566	5326
926.673	5197
926.779	5113
926.886	5117
926.993	4976
927.099	4995
927.206	4968
927.312	4968
927.419	5014
927.525	4930
927.631	4991
927.737	4881
927.843	4828
927.95	4721
928.056	4812
928.162	4835
928.267	4790
928.373	5311
928.479	4786
928.585	4672
928.69	4790
928.796	4805
928.901	4626
929.007	4565
929.112	4706
929.218	4634
929.323	4603
929.428	4531
929.533	4645
929.638	4508
929.743	4497
929.848	4542
929.953	4489
930.058	4436
930.163	4276
930.267	4371
930.372	4413
930.477	4318
930.581	4428
930.685	4344
930.79	4246
930.894	4268
930.998	4295
931.103	4371
931.207	4147
931.311	4051
931.415	4044
931.519	3915
931.623	3934
