Data from glass_V78500241_2746.txt Node
Date: Wed Sep 01 19:33:32 CST 2021
User: usil
Spectrometer: V785-0024
Trigger mode: 0
Integration Time (sec): 4.000000E-1
Scans to average: 1
Nonlinearity correction enabled: false
Boxcar width: 0
Storing dark spectrum: false
XAxis mode: Wavelengths
Number of Pixels in Spectrum: 1024
>>>>>Begin Spectral Data<<<<<
801.071	3717
801.214	3751
801.356	3679
801.499	3675
801.641	3713
801.783	3789
801.926	3892
802.068	3812
802.211	3835
802.353	3907
802.496	3838
802.638	3880
802.78	3880
802.923	3884
803.065	3930
803.208	3854
803.35	3835
803.492	3899
803.635	3838
803.777	3755
803.919	3922
804.061	4143
804.204	3972
804.346	3922
804.488	3888
804.63	4002
804.773	3972
804.915	4025
805.057	4120
805.199	3949
805.341	4101
805.483	4139
805.626	4093
805.768	4093
805.91	4219
806.052	4219
806.194	4158
806.336	4325
806.478	4192
806.62	4196
806.762	4135
806.904	4257
807.046	4314
807.188	4188
807.33	4131
807.472	4230
807.614	4196
807.756	4204
807.898	4200
808.04	4185
808.182	4268
808.324	4360
808.465	4337
808.607	4409
808.749	4363
808.891	4459
809.033	4493
809.174	4398
809.316	4268
809.458	4246
809.6	4131
809.741	4128
809.883	4105
810.025	4219
810.166	4169
810.308	4185
810.45	4230
810.591	4230
810.733	4249
810.875	4481
811.016	4778
811.158	5109
811.299	5242
811.441	5246
811.582	4987
811.724	4714
811.865	4470
812.007	4440
812.148	4424
812.29	4402
812.431	4424
812.573	4383
812.714	4333
812.855	4398
812.997	4413
813.138	4455
813.279	4360
813.421	4348
813.562	4409
813.703	4314
813.845	4291
813.986	4246
814.127	4227
814.268	4265
814.41	4287
814.551	4265
814.692	4287
814.833	4215
814.974	4303
815.115	4333
815.256	4200
815.397	4223
815.539	4242
815.68	4227
815.821	4219
815.962	4310
816.103	4268
816.244	4207
816.385	4169
816.526	4249
816.666	4207
816.807	4071
816.948	4147
817.089	4143
817.23	4128
817.371	4074
817.512	4078
817.653	4097
817.793	3991
817.934	4025
818.075	4067
818.216	4067
818.356	4116
818.497	3972
818.638	3884
818.778	3896
818.919	3850
819.06	3865
819.2	3907
819.341	3793
819.481	3804
819.622	3911
819.762	3968
819.903	3956
820.043	3831
820.184	3842
820.324	3823
820.465	3819
820.605	3838
820.746	3865
820.886	3797
821.026	3911
821.167	3876
821.307	3975
821.447	3934
821.588	3922
821.728	3922
821.868	3949
822.008	3812
822.149	3922
822.289	3888
822.429	3778
822.569	3774
822.709	3740
822.849	3690
822.99	3717
823.13	3736
823.27	3800
823.41	3705
823.55	3698
823.69	3698
823.83	3701
823.97	3709
824.11	3595
824.25	3561
824.389	3614
824.529	3648
824.669	3599
824.809	3701
824.949	3747
825.089	3724
825.228	3675
825.368	3568
825.508	3591
825.648	3580
825.787	3614
825.927	3610
826.067	3633
826.206	3648
826.346	3747
826.485	3823
826.625	3808
826.765	3956
826.904	3812
827.044	3606
827.183	3488
827.323	3412
827.462	3431
827.601	3458
827.741	3397
827.88	3420
828.02	3374
828.159	3469
828.298	3447
828.437	3504
828.577	3458
828.716	3557
828.855	3462
828.994	3344
829.134	3351
829.273	3374
829.412	3306
829.551	3336
829.69	3370
829.829	3412
829.968	3519
830.107	3431
830.246	3431
830.385	3355
830.524	3363
830.663	3249
830.802	3195
830.941	3176
831.08	3169
831.219	3237
831.357	3291
831.496	3370
831.635	3188
831.774	3154
831.913	3192
832.051	3116
832.19	3119
832.329	3203
832.467	3131
832.606	3089
832.744	3154
832.883	3169
833.022	3203
833.16	3237
833.299	3291
833.437	3313
833.576	3374
833.714	3397
833.852	3424
833.991	3428
834.129	3481
834.267	3469
834.406	3393
834.544	3428
834.682	3409
834.821	3412
834.959	3534
835.097	3416
835.235	3500
835.373	3485
835.511	3485
835.65	3462
835.788	3454
835.926	3378
836.064	3367
836.202	3424
836.34	3584
836.478	3580
836.615	3500
836.753	3564
836.891	3629
837.029	3584
837.167	3557
837.305	3492
837.443	3526
837.58	3473
837.718	3595
837.856	3523
837.993	3500
838.131	3587
838.269	3587
838.406	3557
838.544	3572
838.681	3454
838.819	3424
838.956	3367
839.094	3344
839.231	3462
839.369	3443
839.506	3740
839.643	3599
839.781	3507
839.918	3485
840.055	3500
840.193	3462
840.33	3515
840.467	3561
840.604	3629
840.742	3793
840.879	3538
841.016	3568
841.153	3557
841.29	3675
841.427	3728
841.564	3713
841.701	3686
841.838	3720
841.975	3679
842.112	3679
842.249	3633
842.385	3595
842.522	3812
842.659	3671
842.796	3641
842.933	3732
843.069	3698
843.206	3667
843.343	3812
843.479	3759
843.616	3808
843.752	3656
843.889	3671
844.025	3850
844.162	3724
844.298	3869
844.435	3766
844.571	3770
844.708	3865
844.844	3968
844.98	4025
845.117	3994
845.253	3915
845.389	3892
845.525	3892
845.661	3922
845.798	3846
845.934	3975
846.07	3987
846.206	4032
846.342	4067
846.478	4010
846.614	3960
846.75	3911
846.886	3945
847.022	4010
847.158	3991
847.294	3987
847.429	4025
847.565	3960
847.701	4207
847.837	3861
847.972	3831
848.108	3945
848.244	3956
848.379	3827
848.515	3816
848.65	3827
848.786	3835
848.921	3884
849.057	3911
849.192	3922
849.328	3873
849.463	3899
849.598	3861
849.734	3857
849.869	3812
850.004	3812
850.14	3819
850.275	3740
850.41	3732
850.545	3755
850.68	3774
850.815	3766
850.95	3816
851.085	3896
851.22	3903
851.355	3835
851.49	3816
851.625	3762
851.76	3751
851.895	3705
852.03	3698
852.165	3789
852.299	3850
852.434	3873
852.569	3797
852.703	3846
852.838	3945
852.973	3941
853.107	3972
853.242	3876
853.376	3854
853.511	3766
853.645	3812
853.78	3987
853.914	3876
854.048	3857
854.183	3846
854.317	3941
854.451	4040
854.585	3941
854.72	3949
854.854	4063
854.988	3937
855.122	3972
855.256	3907
855.39	3987
855.524	4048
855.658	4059
855.792	4097
855.926	4105
856.06	4150
856.194	4150
856.327	4135
856.461	4120
856.595	4109
856.729	4162
856.862	4238
856.996	4219
857.13	4287
857.263	4280
857.397	4322
857.53	4230
857.664	4303
857.797	4329
857.931	4379
858.064	4379
858.197	4409
858.331	4409
858.464	4337
858.597	4314
858.731	4436
858.864	4424
858.997	4402
859.13	4504
859.263	4542
859.396	4584
859.529	4519
859.662	4512
859.795	4504
859.928	4546
860.061	4656
860.194	4694
860.327	4672
860.46	4653
860.592	4706
860.725	4805
860.858	4748
860.99	4649
861.123	4698
861.256	4630
861.388	4774
861.521	5231
861.653	4759
861.786	4702
861.918	4714
862.05	4786
862.183	4771
862.315	4885
862.447	4991
862.58	4862
862.712	4790
862.844	4740
862.976	4828
863.108	4866
863.24	5292
863.372	4786
863.504	4885
863.636	4919
863.768	4991
863.9	4881
864.032	4862
864.164	4961
864.296	5025
864.428	5064
864.559	5086
864.691	5090
864.823	5056
864.954	5079
865.086	5105
865.217	5151
865.349	5083
865.48	5174
865.612	5201
865.743	5246
865.875	5212
866.006	5170
866.137	5239
866.269	5242
866.4	5231
866.531	5204
866.662	5254
866.793	5265
866.924	5269
867.055	5341
867.186	5315
867.317	5288
867.448	5280
867.579	5303
867.71	5299
867.841	5387
867.972	5467
868.103	5467
868.233	5486
868.364	5501
868.495	5501
868.625	5661
868.756	5767
868.886	5684
869.017	5695
869.147	5817
869.278	5844
869.408	5836
869.539	5821
869.669	5950
869.799	5840
869.929	5977
870.06	6026
870.19	6144
870.32	6152
870.45	6266
870.58	6327
870.71	6410
870.84	6486
870.97	6418
871.1	6372
871.23	6681
871.36	6696
871.489	6662
871.619	6711
871.749	6768
871.879	6806
872.008	7031
872.138	6932
872.267	6977
872.397	7000
872.526	7023
872.656	7114
872.785	7198
872.915	7369
873.044	7499
873.173	7552
873.303	7677
873.432	7780
873.561	7826
873.69	7822
873.819	7997
873.948	8172
874.077	8233
874.206	8279
874.335	8461
874.464	8693
874.593	8815
874.722	8918
874.851	9074
874.979	9275
875.108	9393
875.237	9313
875.365	9488
875.494	9603
875.623	9842
875.751	9850
875.88	9956
876.008	10166
876.136	10287
876.265	10436
876.393	10683
876.521	10687
876.65	10740
876.778	10877
876.906	10824
877.034	11048
877.162	11090
877.29	11166
877.418	11395
877.546	11341
877.674	11474
877.802	11463
877.93	11486
878.058	11604
878.185	11459
878.313	11638
878.441	11741
878.568	11646
878.696	11836
878.824	11908
878.951	11889
879.079	11958
879.206	12209
879.333	11980
879.461	11977
879.588	12098
879.715	12114
879.842	12182
879.97	12072
880.097	11904
880.224	11916
880.351	11904
880.478	11920
880.605	11779
880.732	11863
880.859	12041
880.986	11878
881.112	11866
881.239	11688
881.366	11615
881.493	11592
881.619	11589
881.746	11528
881.872	11509
881.999	11524
882.125	11463
882.252	11554
882.378	11459
882.505	11554
882.631	11364
882.757	11250
882.883	11368
883.01	11231
883.136	11208
883.262	11083
883.388	11056
883.514	11147
883.64	11124
883.766	11075
883.892	10961
884.018	10999
884.143	11037
884.269	11025
884.395	10877
884.52	10744
884.646	10748
884.772	10653
884.897	10603
885.023	10706
885.148	10694
885.274	10752
885.399	10668
885.524	10656
885.65	10569
885.775	10599
885.9	10527
886.025	10580
886.15	10481
886.275	10493
886.4	10375
886.525	10386
886.65	10379
886.775	10219
886.9	10485
887.025	10519
887.149	10325
887.274	10207
887.399	10173
887.523	10204
887.648	10166
887.773	10082
887.897	10147
888.021	10192
888.146	10059
888.27	10200
888.395	10211
888.519	10147
888.643	10192
888.767	10074
888.891	10036
889.015	10010
889.139	10105
889.263	10013
889.387	10097
889.511	10169
889.635	9987
889.759	9911
889.883	9991
890.006	9956
890.13	10139
890.254	9934
890.377	9926
890.501	9838
890.624	9838
890.748	9888
890.871	9774
890.995	9759
891.118	9759
891.241	9785
891.364	9701
891.488	9713
891.611	9774
891.734	9728
891.857	9732
891.98	9648
892.103	9774
892.226	9751
892.349	9637
892.471	9454
892.594	9534
892.717	9622
892.839	9561
892.962	9587
893.085	9606
893.207	9572
893.33	9507
893.452	9504
893.575	9580
893.697	9477
893.819	9595
893.941	9614
894.064	9633
894.186	9382
894.308	9462
894.43	9424
894.552	9538
894.674	9511
894.796	9370
894.918	9374
895.04	9424
895.161	9306
895.283	9325
895.405	9275
895.526	9188
895.648	9253
895.769	9203
895.891	9264
896.012	9268
896.134	9142
896.255	9131
896.376	9055
896.498	9089
896.619	9157
896.74	9013
896.861	9116
896.982	9230
897.103	9298
897.224	9112
897.345	9074
897.466	9028
897.587	8937
897.708	9138
897.828	9005
897.949	8910
898.07	8883
898.19	8918
898.311	8937
898.431	8960
898.552	8921
898.672	8963
898.792	8990
898.913	8868
899.033	8773
899.153	8705
899.273	8663
899.393	8731
899.513	8724
899.633	8705
899.753	8739
899.873	8659
899.993	8674
900.113	8670
900.232	8644
900.352	8598
900.472	8533
900.591	8518
900.711	8598
900.83	8526
900.95	8613
901.069	8598
901.189	8545
901.308	8393
901.427	8347
901.546	8438
901.665	8408
901.784	8480
901.904	8358
902.023	8381
902.141	8286
902.26	8164
902.379	8279
902.498	8218
902.617	8161
902.735	8252
902.854	8237
902.973	8271
903.091	8130
903.21	8081
903.328	8142
903.446	8073
903.565	8065
903.683	8100
903.801	8088
903.919	8130
904.038	8111
904.156	8073
904.274	8050
904.392	8005
904.51	8027
904.627	8020
904.745	8058
904.863	8092
904.981	7951
905.098	7833
905.216	7807
905.334	7894
905.451	7879
905.569	7906
905.686	7887
905.803	7925
905.921	7761
906.038	7814
906.155	7776
906.272	7685
906.389	7681
906.506	7582
906.623	7578
906.74	7674
906.857	7476
906.974	7571
907.091	7670
907.208	7655
907.324	7636
907.441	7559
907.557	7445
907.674	7415
907.79	7335
907.907	7403
908.023	7438
908.139	7396
908.256	7449
908.372	7335
908.488	7392
908.604	7293
908.72	7278
908.836	7282
908.952	7228
909.068	7251
909.184	7278
909.3	7305
909.415	7278
909.531	7259
909.647	7080
909.762	7099
909.878	7076
909.993	7122
910.108	7069
910.224	7008
910.339	7050
910.454	7065
910.57	7004
910.685	6924
910.8	7171
910.915	7034
911.03	7034
911.145	6909
911.259	6779
911.374	6856
911.489	6856
911.604	6840
911.718	6722
911.833	6722
911.947	6623
912.062	6574
912.176	6662
912.291	6688
912.405	6665
912.519	6787
912.633	6818
912.748	6688
912.862	6662
912.976	6665
913.09	6521
913.204	6566
913.318	6597
913.431	6665
913.545	6662
913.659	6715
913.772	6616
913.886	6544
914	6517
914.113	6574
914.226	6639
914.34	6597
914.453	6506
914.566	6585
914.68	6498
914.793	6536
914.906	6338
915.019	6410
915.132	6391
915.245	6365
915.358	6418
915.47	6460
915.583	6445
915.696	6433
915.809	6498
915.921	6563
916.034	6422
916.146	6338
916.259	6353
916.371	6460
916.483	6410
916.595	6353
916.708	6452
916.82	6407
916.932	6403
917.044	6433
917.156	6403
917.268	6254
917.38	6331
917.491	6251
917.603	6346
917.715	6376
917.826	6365
917.938	6289
918.049	6232
918.161	6331
918.272	6418
918.384	6376
918.495	6342
918.606	6251
918.717	6216
918.828	6152
918.939	6266
919.05	6232
919.161	6175
919.272	6144
919.383	6136
919.494	6281
919.604	6380
919.715	6289
919.826	6235
919.936	6296
920.047	6342
920.157	6213
920.267	6422
920.378	6266
920.488	6308
920.598	6441
920.708	6578
920.818	6433
920.928	6376
921.038	6627
921.148	6555
921.258	6380
921.368	6194
921.477	6171
921.587	6201
921.697	6114
921.806	6117
921.916	6034
922.025	5950
922.134	5950
922.244	5832
922.353	5889
922.462	5844
922.571	5748
922.68	5695
922.789	5680
922.898	5703
923.007	5619
923.116	5676
923.224	5665
923.333	5589
923.442	5551
923.55	5619
923.659	5539
923.767	5611
923.876	5490
923.984	5592
924.092	5520
924.201	5551
924.309	5516
924.417	5474
924.525	5482
924.633	5425
924.741	6300
924.849	5322
924.956	5463
925.064	5345
925.172	5296
925.279	5303
925.387	5364
925.494	5288
925.602	5337
925.709	5353
925.816	5299
925.924	5296
926.031	5318
926.138	5258
926.245	5292
926.352	5242
926.459	5273
926.566	5292
926.673	5204
926.779	5064
926.886	5124
926.993	5052
927.099	5010
927.206	4961
927.312	4927
927.419	4987
927.525	4949
927.631	4984
927.737	4885
927.843	4866
927.95	4790
928.056	4858
928.162	4847
928.267	4870
928.373	5318
928.479	4820
928.585	4698
928.69	4793
928.796	4740
928.901	4679
929.007	4584
929.112	4675
929.218	4622
929.323	4577
929.428	4558
929.533	4641
929.638	4489
929.743	4489
929.848	4500
929.953	4508
930.058	4459
930.163	4299
930.267	4344
930.372	4371
930.477	4276
930.581	4466
930.685	4333
930.79	4276
930.894	4299
930.998	4234
931.103	4383
931.207	4105
931.311	4051
931.415	4044
931.519	3960
931.623	3896
