Data from glass_V78500241_2817.txt Node
Date: Wed Sep 01 19:34:01 CST 2021
User: usil
Spectrometer: V785-0024
Trigger mode: 0
Integration Time (sec): 4.000000E-1
Scans to average: 1
Nonlinearity correction enabled: false
Boxcar width: 0
Storing dark spectrum: false
XAxis mode: Wavelengths
Number of Pixels in Spectrum: 1024
>>>>>Begin Spectral Data<<<<<
801.071	3724
801.214	3705
801.356	3720
801.499	3766
801.641	3728
801.783	3762
801.926	3861
802.068	3835
802.211	3812
802.353	3835
802.496	3842
802.638	3812
802.78	3896
802.923	3926
803.065	3850
803.208	3861
803.35	3831
803.492	3854
803.635	3903
803.777	3755
803.919	3842
804.061	4120
804.204	3949
804.346	3903
804.488	3937
804.63	4040
804.773	3934
804.915	3991
805.057	4147
805.199	4021
805.341	4048
805.483	4105
805.626	4124
805.768	4093
805.91	4185
806.052	4200
806.194	4185
806.336	4318
806.478	4200
806.62	4181
806.762	4173
806.904	4207
807.046	4348
807.188	4166
807.33	4147
807.472	4219
807.614	4177
807.756	4257
807.898	4169
808.04	4166
808.182	4230
808.324	4306
808.465	4360
808.607	4447
808.749	4417
808.891	4432
809.033	4485
809.174	4379
809.316	4230
809.458	4230
809.6	4082
809.741	4112
809.883	4105
810.025	4177
810.166	4200
810.308	4200
810.45	4246
810.591	4230
810.733	4314
810.875	4474
811.016	4793
811.158	5105
811.299	5299
811.441	5303
811.582	5014
811.724	4694
811.865	4455
812.007	4485
812.148	4390
812.29	4379
812.431	4379
812.573	4405
812.714	4348
812.855	4363
812.997	4409
813.138	4413
813.279	4398
813.421	4348
813.562	4356
813.703	4344
813.845	4318
813.986	4272
814.127	4215
814.268	4219
814.41	4253
814.551	4227
814.692	4261
814.833	4268
814.974	4280
815.115	4287
815.256	4261
815.397	4230
815.539	4276
815.68	4181
815.821	4215
815.962	4268
816.103	4242
816.244	4249
816.385	4185
816.526	4207
816.666	4177
816.807	4063
816.948	4154
817.089	4177
817.23	4063
817.371	4040
817.512	4051
817.653	4036
817.793	3998
817.934	4044
818.075	4135
818.216	4029
818.356	4051
818.497	3949
818.638	3899
818.778	3918
818.919	3899
819.06	3816
819.2	3896
819.341	3838
819.481	3800
819.622	3892
819.762	4006
819.903	3918
820.043	3846
820.184	3797
820.324	3823
820.465	3876
820.605	3823
820.746	3842
820.886	3789
821.026	3888
821.167	3922
821.307	3983
821.447	3941
821.588	3964
821.728	3922
821.868	3888
822.008	3899
822.149	3884
822.289	3903
822.429	3800
822.569	3709
822.709	3766
822.849	3652
822.99	3698
823.13	3736
823.27	3755
823.41	3713
823.55	3713
823.69	3667
823.83	3717
823.97	3614
824.11	3591
824.25	3572
824.389	3656
824.529	3648
824.669	3538
824.809	3743
824.949	3717
825.089	3736
825.228	3667
825.368	3606
825.508	3538
825.648	3542
825.787	3576
825.927	3599
826.067	3580
826.206	3675
826.346	3755
826.485	3797
826.625	3808
826.765	3941
826.904	3804
827.044	3606
827.183	3500
827.323	3428
827.462	3481
827.601	3386
827.741	3393
827.88	3454
828.02	3344
828.159	3416
828.298	3431
828.437	3519
828.577	3450
828.716	3580
828.855	3488
828.994	3363
829.134	3317
829.273	3367
829.412	3321
829.551	3298
829.69	3310
829.829	3401
829.968	3504
830.107	3401
830.246	3439
830.385	3321
830.524	3359
830.663	3310
830.802	3237
830.941	3157
831.08	3165
831.219	3203
831.357	3230
831.496	3359
831.635	3233
831.774	3173
831.913	3207
832.051	3112
832.19	3100
832.329	3226
832.467	3093
832.606	3058
832.744	3184
832.883	3184
833.022	3199
833.16	3203
833.299	3294
833.437	3325
833.576	3370
833.714	3374
833.852	3412
833.991	3450
834.129	3515
834.267	3397
834.406	3386
834.544	3405
834.682	3382
834.821	3412
834.959	3557
835.097	3401
835.235	3511
835.373	3462
835.511	3469
835.65	3485
835.788	3454
835.926	3386
836.064	3370
836.202	3412
836.34	3576
836.478	3603
836.615	3523
836.753	3564
836.891	3603
837.029	3625
837.167	3572
837.305	3526
837.443	3511
837.58	3507
837.718	3614
837.856	3553
837.993	3549
838.131	3622
838.269	3568
838.406	3595
838.544	3526
838.681	3431
838.819	3428
838.956	3355
839.094	3393
839.231	3424
839.369	3481
839.506	3720
839.643	3603
839.781	3443
839.918	3469
840.055	3519
840.193	3507
840.33	3515
840.467	3584
840.604	3618
840.742	3747
840.879	3568
841.016	3530
841.153	3561
841.29	3740
841.427	3720
841.564	3671
841.701	3686
841.838	3679
841.975	3675
842.112	3701
842.249	3633
842.385	3584
842.522	3808
842.659	3690
842.796	3663
842.933	3679
843.069	3671
843.206	3701
843.343	3774
843.479	3770
843.616	3766
843.752	3641
843.889	3690
844.025	3831
844.162	3652
844.298	3808
844.435	3785
844.571	3785
844.708	3850
844.844	3956
844.98	4017
845.117	3998
845.253	3934
845.389	3861
845.525	3979
845.661	3964
845.798	3930
845.934	3975
846.07	3907
846.206	4059
846.342	4078
846.478	4048
846.614	3934
846.75	3899
846.886	3888
847.022	4040
847.158	3953
847.294	4002
847.429	3960
847.565	3968
847.701	4177
847.837	3876
847.972	3873
848.108	3975
848.244	3960
848.379	3819
848.515	3850
848.65	3816
848.786	3838
848.921	3903
849.057	3934
849.192	3903
849.328	3911
849.463	3896
849.598	3850
849.734	3827
849.869	3831
850.004	3774
850.14	3846
850.275	3789
850.41	3743
850.545	3732
850.68	3766
850.815	3785
850.95	3770
851.085	3903
851.22	3865
851.355	3793
851.49	3774
851.625	3797
851.76	3755
851.895	3755
852.03	3743
852.165	3793
852.299	3857
852.434	3838
852.569	3846
852.703	3857
852.838	3892
852.973	3987
853.107	4010
853.242	3899
853.376	3842
853.511	3781
853.645	3831
853.78	3979
853.914	3896
854.048	3873
854.183	3907
854.317	3941
854.451	4078
854.585	3945
854.72	3922
854.854	4013
854.988	3884
855.122	4010
855.256	3857
855.39	3994
855.524	4071
855.658	4086
855.792	4090
855.926	4116
856.06	4196
856.194	4223
856.327	4154
856.461	4093
856.595	4131
856.729	4162
856.862	4268
856.996	4246
857.13	4287
857.263	4303
857.397	4318
857.53	4306
857.664	4291
857.797	4341
857.931	4386
858.064	4367
858.197	4383
858.331	4367
858.464	4314
858.597	4333
858.731	4417
858.864	4398
858.997	4413
859.13	4474
859.263	4527
859.396	4599
859.529	4478
859.662	4538
859.795	4516
859.928	4558
860.061	4717
860.194	4748
860.327	4656
860.46	4611
860.592	4744
860.725	4752
860.858	4698
860.99	4630
861.123	4679
861.256	4714
861.388	4771
861.521	5235
861.653	4698
861.786	4660
861.918	4714
862.05	4786
862.183	4843
862.315	4831
862.447	4919
862.58	4873
862.712	4763
862.844	4714
862.976	4828
863.108	4824
863.24	5185
863.372	4820
863.504	4866
863.636	4862
863.768	4938
863.9	4957
864.032	4938
864.164	4946
864.296	5022
864.428	5052
864.559	5083
864.691	5064
864.823	5121
864.954	5090
865.086	5143
865.217	5132
865.349	5094
865.48	5166
865.612	5189
865.743	5273
865.875	5162
866.006	5189
866.137	5258
866.269	5212
866.4	5250
866.531	5204
866.662	5178
866.793	5220
866.924	5307
867.055	5353
867.186	5372
867.317	5330
867.448	5292
867.579	5322
867.71	5334
867.841	5334
867.972	5410
868.103	5474
868.233	5402
868.364	5493
868.495	5520
868.625	5615
868.756	5767
868.886	5653
869.017	5722
869.147	5851
869.278	5847
869.408	5817
869.539	5809
869.669	5946
869.799	5901
869.929	5931
870.06	5992
870.19	6125
870.32	6163
870.45	6205
870.58	6273
870.71	6376
870.84	6483
870.97	6372
871.1	6445
871.23	6627
871.36	6612
871.489	6623
871.619	6749
871.749	6802
871.879	6852
872.008	6935
872.138	6973
872.267	6970
872.397	6947
872.526	7012
872.656	7057
872.785	7168
872.915	7381
873.044	7518
873.173	7529
873.303	7590
873.432	7795
873.561	7776
873.69	7814
873.819	8035
873.948	8145
874.077	8218
874.206	8237
874.335	8442
874.464	8602
874.593	8864
874.722	8902
874.851	9089
874.979	9146
875.108	9359
875.237	9401
875.365	9492
875.494	9625
875.623	9819
875.751	9838
875.88	10032
876.008	10219
876.136	10234
876.265	10542
876.393	10660
876.521	10729
876.65	10759
876.778	10850
876.906	10923
877.034	10980
877.162	11090
877.29	11159
877.418	11372
877.546	11330
877.674	11448
877.802	11379
877.93	11509
878.058	11501
878.185	11562
878.313	11600
878.441	11726
878.568	11649
878.696	11813
878.824	11870
878.951	11923
879.079	12003
879.206	12117
879.333	12068
879.461	11878
879.588	12091
879.715	12057
879.842	12197
879.97	12095
880.097	11828
880.224	11912
880.351	11916
880.478	11904
880.605	11923
880.732	11817
880.859	11950
880.986	11878
881.112	11824
881.239	11779
881.366	11676
881.493	11581
881.619	11509
881.746	11566
881.872	11474
881.999	11558
882.125	11509
882.252	11497
882.378	11505
882.505	11528
882.631	11379
882.757	11307
882.883	11280
883.01	11193
883.136	11197
883.262	11147
883.388	11121
883.514	11143
883.64	11181
883.766	11014
883.892	10968
884.018	10965
884.143	10987
884.269	11132
884.395	10828
884.52	10759
884.646	10793
884.772	10691
884.897	10637
885.023	10675
885.148	10759
885.274	10717
885.399	10733
885.524	10603
885.65	10546
885.775	10531
885.9	10569
886.025	10694
886.15	10523
886.275	10478
886.4	10421
886.525	10409
886.65	10390
886.775	10409
886.9	10535
887.025	10459
887.149	10405
887.274	10246
887.399	10204
887.523	10128
887.648	10101
887.773	10139
887.897	10306
888.021	10265
888.146	10131
888.27	10261
888.395	10200
888.519	10116
888.643	10109
888.767	10166
888.891	10093
889.015	9991
889.139	10036
889.263	10032
889.387	10101
889.511	10105
889.635	10055
889.759	10017
889.883	9968
890.006	9918
890.13	10063
890.254	9956
890.377	9972
890.501	9880
890.624	9819
890.748	9968
890.871	9808
890.995	9781
891.118	9717
891.241	9808
891.364	9690
891.488	9812
891.611	9713
891.734	9720
891.857	9778
891.98	9648
892.103	9850
892.226	9667
892.349	9709
892.471	9473
892.594	9629
892.717	9576
892.839	9584
892.962	9545
893.085	9637
893.207	9584
893.33	9462
893.452	9507
893.575	9633
893.697	9473
893.819	9538
893.941	9675
894.064	9648
894.186	9378
894.308	9325
894.43	9561
894.552	9504
894.674	9473
894.796	9351
894.918	9450
895.04	9283
895.161	9351
895.283	9348
895.405	9222
895.526	9256
895.648	9203
895.769	9268
895.891	9298
896.012	9264
896.134	9233
896.255	9127
896.376	9093
896.498	9089
896.619	9085
896.74	9074
896.861	9100
896.982	9249
897.103	9272
897.224	9142
897.345	8990
897.466	8994
897.587	9013
897.708	9066
897.828	9024
897.949	8895
898.07	8872
898.19	8918
898.311	9001
898.431	8861
898.552	8925
898.672	8963
898.792	8971
898.913	8864
899.033	8819
899.153	8762
899.273	8735
899.393	8727
899.513	8712
899.633	8785
899.753	8716
899.873	8625
899.993	8735
900.113	8636
900.232	8667
900.352	8640
900.472	8575
900.591	8602
900.711	8537
900.83	8514
900.95	8644
901.069	8587
901.189	8495
901.308	8419
901.427	8400
901.546	8393
901.665	8434
901.784	8492
901.904	8362
902.023	8347
902.141	8214
902.26	8210
902.379	8225
902.498	8225
902.617	8237
902.735	8176
902.854	8271
902.973	8244
903.091	8062
903.21	8130
903.328	8153
903.446	8111
903.565	8065
903.683	8107
903.801	8020
903.919	8142
904.038	8187
904.156	8069
904.274	8054
904.392	7982
904.51	8054
904.627	7986
904.745	8035
904.863	8024
904.981	7830
905.098	7807
905.216	7833
905.334	7887
905.451	7967
905.569	7849
905.686	7913
905.803	7887
905.921	7818
906.038	7792
906.155	7776
906.272	7639
906.389	7685
906.506	7658
906.623	7575
906.74	7586
906.857	7567
906.974	7582
907.091	7605
907.208	7734
907.324	7704
907.441	7575
907.557	7434
907.674	7346
907.79	7358
907.907	7381
908.023	7411
908.139	7396
908.256	7350
908.372	7308
908.488	7354
908.604	7263
908.72	7247
908.836	7266
908.952	7270
909.068	7255
909.184	7259
909.3	7183
909.415	7213
909.531	7244
909.647	7076
909.762	7103
909.878	7015
909.993	7110
910.108	7095
910.224	7050
910.339	7129
910.454	7038
910.57	6935
910.685	6947
910.8	7145
910.915	7137
911.03	6985
911.145	6852
911.259	6871
911.374	6863
911.489	6810
911.604	6795
911.718	6703
911.833	6726
911.947	6650
912.062	6574
912.176	6722
912.291	6700
912.405	6715
912.519	6753
912.633	6783
912.748	6692
912.862	6692
912.976	6654
913.09	6517
913.204	6601
913.318	6612
913.431	6654
913.545	6707
913.659	6719
913.772	6608
913.886	6528
914	6540
914.113	6578
914.226	6612
914.34	6616
914.453	6490
914.566	6566
914.68	6494
914.793	6475
914.906	6448
915.019	6403
915.132	6323
915.245	6445
915.358	6391
915.47	6418
915.583	6414
915.696	6467
915.809	6521
915.921	6490
916.034	6429
916.146	6437
916.259	6323
916.371	6445
916.483	6429
916.595	6388
916.708	6380
916.82	6361
916.932	6350
917.044	6391
917.156	6395
917.268	6331
917.38	6334
917.491	6323
917.603	6308
917.715	6346
917.826	6372
917.938	6262
918.049	6213
918.161	6334
918.272	6429
918.384	6448
918.495	6258
918.606	6224
918.717	6205
918.828	6243
918.939	6251
919.05	6235
919.161	6220
919.272	6152
919.383	6110
919.494	6292
919.604	6399
919.715	6285
919.826	6194
919.936	6235
920.047	6319
920.157	6186
920.267	6422
920.378	6372
920.488	6262
920.598	6433
920.708	6563
920.818	6486
920.928	6437
921.038	6582
921.148	6532
921.258	6338
921.368	6266
921.477	6197
921.587	6178
921.697	6053
921.806	6235
921.916	6072
922.025	5961
922.134	5847
922.244	5863
922.353	5855
922.462	5805
922.571	5798
922.68	5665
922.789	5665
922.898	5691
923.007	5619
923.116	5638
923.224	5707
923.333	5619
923.442	5589
923.55	5592
923.659	5611
923.767	5562
923.876	5520
923.984	5547
924.092	5509
924.201	5535
924.309	5505
924.417	5543
924.525	5493
924.633	5459
924.741	6167
924.849	5395
924.956	5482
925.064	5299
925.172	5315
925.279	5299
925.387	5280
925.494	5315
925.602	5455
925.709	5353
925.816	5231
925.924	5303
926.031	5341
926.138	5261
926.245	5334
926.352	5212
926.459	5254
926.566	5242
926.673	5185
926.779	5090
926.886	5056
926.993	4999
927.099	4919
927.206	4923
927.312	4938
927.419	4957
927.525	4961
927.631	4919
927.737	4854
927.843	4820
927.95	4774
928.056	4786
928.162	4809
928.267	4828
928.373	5212
928.479	4820
928.585	4710
928.69	4733
928.796	4763
928.901	4615
929.007	4596
929.112	4630
929.218	4622
929.323	4607
929.428	4523
929.533	4645
929.638	4474
929.743	4478
929.848	4523
929.953	4512
930.058	4413
930.163	4322
930.267	4341
930.372	4402
930.477	4276
930.581	4424
930.685	4314
930.79	4265
930.894	4272
930.998	4272
931.103	4379
931.207	4082
931.311	4071
931.415	3998
931.519	3865
931.623	3911
