Data from glass_V78500241_2455.txt Node
Date: Wed Sep 01 19:31:31 CST 2021
User: usil
Spectrometer: V785-0024
Trigger mode: 0
Integration Time (sec): 4.000000E-1
Scans to average: 1
Nonlinearity correction enabled: false
Boxcar width: 0
Storing dark spectrum: false
XAxis mode: Wavelengths
Number of Pixels in Spectrum: 1024
>>>>>Begin Spectral Data<<<<<
801.071	3732
801.214	3762
801.356	3694
801.499	3778
801.641	3705
801.783	3797
801.926	3838
802.068	3800
802.211	3831
802.353	3861
802.496	3804
802.638	3880
802.78	3873
802.923	3972
803.065	3892
803.208	3823
803.35	3861
803.492	3934
803.635	3888
803.777	3835
803.919	3903
804.061	4158
804.204	3953
804.346	3945
804.488	3876
804.63	4029
804.773	3945
804.915	4017
805.057	4139
805.199	4071
805.341	4093
805.483	4128
805.626	4143
805.768	4105
805.91	4204
806.052	4207
806.194	4204
806.336	4325
806.478	4192
806.62	4162
806.762	4192
806.904	4227
807.046	4341
807.188	4200
807.33	4158
807.472	4253
807.614	4196
807.756	4272
807.898	4207
808.04	4173
808.182	4253
808.324	4348
808.465	4383
808.607	4481
808.749	4440
808.891	4443
809.033	4500
809.174	4428
809.316	4238
809.458	4249
809.6	4162
809.741	4162
809.883	4154
810.025	4188
810.166	4204
810.308	4177
810.45	4257
810.591	4246
810.733	4276
810.875	4493
811.016	4782
811.158	5147
811.299	5235
811.441	5242
811.582	5064
811.724	4672
811.865	4489
812.007	4489
812.148	4352
812.29	4402
812.431	4455
812.573	4390
812.714	4352
812.855	4440
812.997	4428
813.138	4462
813.279	4413
813.421	4394
813.562	4341
813.703	4375
813.845	4268
813.986	4280
814.127	4188
814.268	4230
814.41	4284
814.551	4295
814.692	4337
814.833	4211
814.974	4284
815.115	4318
815.256	4230
815.397	4223
815.539	4284
815.68	4154
815.821	4219
815.962	4295
816.103	4265
816.244	4223
816.385	4196
816.526	4204
816.666	4219
816.807	4078
816.948	4169
817.089	4196
817.23	4078
817.371	4074
817.512	4013
817.653	4063
817.793	4048
817.934	3987
818.075	4093
818.216	4105
818.356	4071
818.497	3945
818.638	3911
818.778	3896
818.919	3896
819.06	3865
819.2	3892
819.341	3857
819.481	3808
819.622	3918
819.762	3998
819.903	3892
820.043	3884
820.184	3835
820.324	3785
820.465	3854
820.605	3892
820.746	3865
820.886	3774
821.026	3953
821.167	3888
821.307	3972
821.447	3983
821.588	3937
821.728	3937
821.868	3934
822.008	3838
822.149	3892
822.289	3907
822.429	3785
822.569	3724
822.709	3835
822.849	3709
822.99	3709
823.13	3736
823.27	3759
823.41	3679
823.55	3717
823.69	3709
823.83	3732
823.97	3705
824.11	3584
824.25	3606
824.389	3629
824.529	3671
824.669	3606
824.809	3732
824.949	3755
825.089	3728
825.228	3682
825.368	3614
825.508	3534
825.648	3584
825.787	3614
825.927	3637
826.067	3641
826.206	3656
826.346	3747
826.485	3816
826.625	3842
826.765	3922
826.904	3816
827.044	3606
827.183	3526
827.323	3382
827.462	3523
827.601	3389
827.741	3428
827.88	3458
828.02	3348
828.159	3393
828.298	3492
828.437	3519
828.577	3485
828.716	3591
828.855	3469
828.994	3374
829.134	3374
829.273	3344
829.412	3359
829.551	3287
829.69	3325
829.829	3401
829.968	3469
830.107	3447
830.246	3439
830.385	3405
830.524	3351
830.663	3291
830.802	3214
830.941	3188
831.08	3199
831.219	3260
831.357	3256
831.496	3424
831.635	3203
831.774	3195
831.913	3180
832.051	3127
832.19	3157
832.329	3195
832.467	3127
832.606	3093
832.744	3142
832.883	3192
833.022	3157
833.16	3253
833.299	3283
833.437	3310
833.576	3351
833.714	3412
833.852	3443
833.991	3439
834.129	3458
834.267	3416
834.406	3389
834.544	3431
834.682	3405
834.821	3382
834.959	3576
835.097	3428
835.235	3519
835.373	3492
835.511	3504
835.65	3420
835.788	3500
835.926	3374
836.064	3359
836.202	3401
836.34	3576
836.478	3610
836.615	3534
836.753	3572
836.891	3652
837.029	3553
837.167	3568
837.305	3526
837.443	3538
837.58	3481
837.718	3568
837.856	3553
837.993	3507
838.131	3572
838.269	3584
838.406	3614
838.544	3564
838.681	3447
838.819	3428
838.956	3386
839.094	3401
839.231	3416
839.369	3466
839.506	3690
839.643	3584
839.781	3466
839.918	3469
840.055	3511
840.193	3523
840.33	3496
840.467	3561
840.604	3587
840.742	3774
840.879	3542
841.016	3519
841.153	3587
841.29	3751
841.427	3720
841.564	3698
841.701	3743
841.838	3690
841.975	3698
842.112	3686
842.249	3667
842.385	3603
842.522	3797
842.659	3701
842.796	3614
842.933	3732
843.069	3675
843.206	3648
843.343	3785
843.479	3759
843.616	3838
843.752	3629
843.889	3701
844.025	3892
844.162	3755
844.298	3808
844.435	3797
844.571	3778
844.708	3892
844.844	3972
844.98	3987
845.117	4021
845.253	3869
845.389	3865
845.525	3994
845.661	3953
845.798	3937
845.934	4017
846.07	3972
846.206	3994
846.342	4109
846.478	4048
846.614	3956
846.75	3960
846.886	3911
847.022	4025
847.158	3964
847.294	3934
847.429	4093
847.565	4021
847.701	4207
847.837	3876
847.972	3892
848.108	3972
848.244	3949
848.379	3819
848.515	3850
848.65	3797
848.786	3838
848.921	3865
849.057	3896
849.192	3949
849.328	3915
849.463	3880
849.598	3869
849.734	3854
849.869	3808
850.004	3766
850.14	3766
850.275	3842
850.41	3717
850.545	3717
850.68	3797
850.815	3740
850.95	3819
851.085	3975
851.22	3793
851.355	3823
851.49	3797
851.625	3808
851.76	3770
851.895	3701
852.03	3713
852.165	3808
852.299	3842
852.434	3838
852.569	3842
852.703	3903
852.838	3915
852.973	3979
853.107	3937
853.242	3899
853.376	3819
853.511	3728
853.645	3816
853.78	3934
853.914	3896
854.048	3922
854.183	3854
854.317	3903
854.451	4067
854.585	3960
854.72	3926
854.854	4032
854.988	3911
855.122	4013
855.256	3892
855.39	3991
855.524	4120
855.658	4101
855.792	4071
855.926	4124
856.06	4143
856.194	4211
856.327	4147
856.461	4116
856.595	4116
856.729	4139
856.862	4253
856.996	4200
857.13	4284
857.263	4295
857.397	4306
857.53	4268
857.664	4325
857.797	4383
857.931	4417
858.064	4386
858.197	4459
858.331	4405
858.464	4383
858.597	4322
858.731	4409
858.864	4443
858.997	4459
859.13	4481
859.263	4523
859.396	4554
859.529	4531
859.662	4535
859.795	4462
859.928	4592
860.061	4679
860.194	4675
860.327	4641
860.46	4649
860.592	4691
860.725	4733
860.858	4679
860.99	4611
861.123	4672
861.256	4656
861.388	4759
861.521	5493
861.653	4683
861.786	4721
861.918	4691
862.05	4763
862.183	4858
862.315	4835
862.447	4900
862.58	4877
862.712	4797
862.844	4736
862.976	4858
863.108	4854
863.24	5223
863.372	4793
863.504	4911
863.636	4858
863.768	4946
863.9	4968
864.032	4934
864.164	4968
864.296	4965
864.428	5075
864.559	5048
864.691	5102
864.823	5147
864.954	5113
865.086	5109
865.217	5113
865.349	5064
865.48	5178
865.612	5178
865.743	5303
865.875	5170
866.006	5174
866.137	5223
866.269	5239
866.4	5231
866.531	5220
866.662	5265
866.793	5265
866.924	5239
867.055	5360
867.186	5326
867.317	5280
867.448	5337
867.579	5364
867.71	5364
867.841	5395
867.972	5463
868.103	5417
868.233	5444
868.364	5543
868.495	5566
868.625	5661
868.756	5809
868.886	5649
869.017	5729
869.147	5885
869.278	5847
869.408	5794
869.539	5836
869.669	5920
869.799	5828
869.929	5984
870.06	6026
870.19	6194
870.32	6205
870.45	6216
870.58	6281
870.71	6410
870.84	6490
870.97	6350
871.1	6441
871.23	6642
871.36	6665
871.489	6677
871.619	6738
871.749	6783
871.879	6791
872.008	6943
872.138	6894
872.267	7027
872.397	6993
872.526	7080
872.656	7008
872.785	7194
872.915	7312
873.044	7556
873.173	7582
873.303	7620
873.432	7784
873.561	7852
873.69	7917
873.819	8012
873.948	8088
874.077	8202
874.206	8313
874.335	8480
874.464	8629
874.593	8811
874.722	8971
874.851	9119
874.979	9195
875.108	9351
875.237	9405
875.365	9488
875.494	9625
875.623	9781
875.751	9873
875.88	9991
876.008	10101
876.136	10257
876.265	10466
876.393	10675
876.521	10736
876.65	10782
876.778	10904
876.906	10896
877.034	10965
877.162	11174
877.29	11170
877.418	11280
877.546	11376
877.674	11406
877.802	11391
877.93	11501
878.058	11600
878.185	11551
878.313	11627
878.441	11649
878.568	11688
878.696	11752
878.824	11798
878.951	11885
879.079	11946
879.206	12098
879.333	12041
879.461	11958
879.588	12110
879.715	11984
879.842	12159
879.97	11931
880.097	11794
880.224	11798
880.351	11859
880.478	11904
880.605	11893
880.732	11783
880.859	11992
880.986	11813
881.112	11790
881.239	11733
881.366	11665
881.493	11592
881.619	11581
881.746	11570
881.872	11497
881.999	11520
882.125	11474
882.252	11528
882.378	11417
882.505	11486
882.631	11368
882.757	11197
882.883	11349
883.01	11349
883.136	11178
883.262	11121
883.388	10999
883.514	11197
883.64	11212
883.766	11178
883.892	10984
884.018	11022
884.143	11052
884.269	11105
884.395	10828
884.52	10816
884.646	10717
884.772	10721
884.897	10668
885.023	10580
885.148	10687
885.274	10759
885.399	10694
885.524	10615
885.65	10508
885.775	10626
885.9	10531
886.025	10580
886.15	10546
886.275	10481
886.4	10409
886.525	10363
886.65	10386
886.775	10398
886.9	10474
887.025	10512
887.149	10344
887.274	10287
887.399	10162
887.523	10116
887.648	10112
887.773	10059
887.897	10200
888.021	10139
888.146	10090
888.27	10322
888.395	10162
888.519	10139
888.643	10215
888.767	10200
888.891	10082
889.015	9964
889.139	9968
889.263	9991
889.387	10109
889.511	10086
889.635	10055
889.759	9934
889.883	9956
890.006	9949
890.13	10059
890.254	9907
890.377	10006
890.501	9793
890.624	9895
890.748	9907
890.871	9797
890.995	9785
891.118	9774
891.241	9713
891.364	9781
891.488	9797
891.611	9717
891.734	9724
891.857	9751
891.98	9800
892.103	9736
892.226	9732
892.349	9660
892.471	9526
892.594	9576
892.717	9591
892.839	9587
892.962	9557
893.085	9690
893.207	9542
893.33	9454
893.452	9545
893.575	9530
893.697	9458
893.819	9595
893.941	9614
894.064	9603
894.186	9443
894.308	9401
894.43	9580
894.552	9599
894.674	9507
894.796	9355
894.918	9431
895.04	9355
895.161	9329
895.283	9272
895.405	9344
895.526	9195
895.648	9237
895.769	9230
895.891	9176
896.012	9264
896.134	9268
896.255	9180
896.376	9097
896.498	9135
896.619	9093
896.74	9066
896.861	9138
896.982	9317
897.103	9241
897.224	9176
897.345	9142
897.466	8979
897.587	8986
897.708	9066
897.828	9043
897.949	8952
898.07	8914
898.19	8842
898.311	8963
898.431	8918
898.552	8899
898.672	8975
898.792	8933
898.913	8914
899.033	8720
899.153	8724
899.273	8678
899.393	8727
899.513	8739
899.633	8769
899.753	8762
899.873	8686
899.993	8746
900.113	8708
900.232	8743
900.352	8632
900.472	8617
900.591	8587
900.711	8587
900.83	8579
900.95	8670
901.069	8720
901.189	8560
901.308	8488
901.427	8400
901.546	8431
901.665	8495
901.784	8476
901.904	8362
902.023	8377
902.141	8172
902.26	8183
902.379	8259
902.498	8229
902.617	8240
902.735	8286
902.854	8240
902.973	8298
903.091	8103
903.21	8164
903.328	8225
903.446	8073
903.565	8149
903.683	8161
903.801	7997
903.919	8039
904.038	8191
904.156	8039
904.274	8062
904.392	8046
904.51	8035
904.627	8088
904.745	8107
904.863	8024
904.981	7890
905.098	7833
905.216	7830
905.334	7909
905.451	7852
905.569	7875
905.686	7887
905.803	7917
905.921	7746
906.038	7864
906.155	7811
906.272	7685
906.389	7738
906.506	7620
906.623	7616
906.74	7601
906.857	7559
906.974	7533
907.091	7693
907.208	7734
907.324	7609
907.441	7540
907.557	7438
907.674	7449
907.79	7415
907.907	7445
908.023	7415
908.139	7438
908.256	7320
908.372	7308
908.488	7346
908.604	7270
908.72	7232
908.836	7266
908.952	7274
909.068	7251
909.184	7305
909.3	7251
909.415	7282
909.531	7255
909.647	7141
909.762	7179
909.878	7057
909.993	7156
910.108	7110
910.224	7099
910.339	7004
910.454	7008
910.57	7084
910.685	6920
910.8	7141
910.915	7129
911.03	6951
911.145	6894
911.259	6920
911.374	6886
911.489	6814
911.604	6810
911.718	6711
911.833	6692
911.947	6612
912.062	6593
912.176	6749
912.291	6665
912.405	6673
912.519	6787
912.633	6829
912.748	6757
912.862	6688
912.976	6551
913.09	6578
913.204	6570
913.318	6574
913.431	6623
913.545	6635
913.659	6749
913.772	6639
913.886	6532
914	6559
914.113	6639
914.226	6601
914.34	6612
914.453	6471
914.566	6646
914.68	6525
914.793	6475
914.906	6464
915.019	6426
915.132	6403
915.245	6384
915.358	6403
915.47	6399
915.583	6391
915.696	6479
915.809	6513
915.921	6506
916.034	6414
916.146	6361
916.259	6327
916.371	6422
916.483	6467
916.595	6346
916.708	6369
916.82	6414
916.932	6350
917.044	6357
917.156	6315
917.268	6338
917.38	6338
917.491	6327
917.603	6369
917.715	6437
917.826	6407
917.938	6300
918.049	6205
918.161	6376
918.272	6426
918.384	6426
918.495	6331
918.606	6262
918.717	6175
918.828	6292
918.939	6308
919.05	6232
919.161	6213
919.272	6152
919.383	6163
919.494	6311
919.604	6391
919.715	6319
919.826	6194
919.936	6311
920.047	6296
920.157	6266
920.267	6445
920.378	6353
920.488	6292
920.598	6448
920.708	6517
920.818	6479
920.928	6490
921.038	6604
921.148	6486
921.258	6334
921.368	6232
921.477	6167
921.587	6197
921.697	6102
921.806	6163
921.916	6095
922.025	5946
922.134	5885
922.244	5893
922.353	5912
922.462	5817
922.571	5771
922.68	5722
922.789	5684
922.898	5615
923.007	5649
923.116	5764
923.224	5668
923.333	5668
923.442	5596
923.55	5592
923.659	5592
923.767	5688
923.876	5532
923.984	5566
924.092	5452
924.201	5535
924.309	5501
924.417	5554
924.525	5440
924.633	5520
924.741	6292
924.849	5318
924.956	5429
925.064	5368
925.172	5284
925.279	5315
925.387	5337
925.494	5303
925.602	5368
925.709	5307
925.816	5299
925.924	5307
926.031	5349
926.138	5341
926.245	5322
926.352	5223
926.459	5307
926.566	5353
926.673	5162
926.779	5159
926.886	5086
926.993	5045
927.099	4972
927.206	4976
927.312	4953
927.419	4984
927.525	4961
927.631	4987
927.737	4873
927.843	4831
927.95	4805
928.056	4805
928.162	4816
928.267	4797
928.373	5265
928.479	4847
928.585	4626
928.69	4736
928.796	4816
928.901	4706
929.007	4588
929.112	4660
929.218	4626
929.323	4558
929.428	4550
929.533	4649
929.638	4493
929.743	4535
929.848	4573
929.953	4538
930.058	4474
930.163	4322
930.267	4276
930.372	4417
930.477	4268
930.581	4512
930.685	4375
930.79	4295
930.894	4227
930.998	4227
931.103	4383
931.207	4116
931.311	4109
931.415	4059
931.519	3930
931.623	3953
