Data from glass_V78500241_2605.txt Node
Date: Wed Sep 01 19:32:33 CST 2021
User: usil
Spectrometer: V785-0024
Trigger mode: 0
Integration Time (sec): 4.000000E-1
Scans to average: 1
Nonlinearity correction enabled: false
Boxcar width: 0
Storing dark spectrum: false
XAxis mode: Wavelengths
Number of Pixels in Spectrum: 1024
>>>>>Begin Spectral Data<<<<<
801.071	3694
801.214	3732
801.356	3679
801.499	3690
801.641	3728
801.783	3755
801.926	3842
802.068	3793
802.211	3804
802.353	3911
802.496	3838
802.638	3831
802.78	3888
802.923	3915
803.065	3857
803.208	3838
803.35	3876
803.492	3884
803.635	3869
803.777	3774
803.919	3911
804.061	4124
804.204	3956
804.346	3960
804.488	3907
804.63	4078
804.773	3983
804.915	4029
805.057	4150
805.199	4006
805.341	4040
805.483	4139
805.626	4109
805.768	4124
805.91	4200
806.052	4223
806.194	4207
806.336	4310
806.478	4147
806.62	4196
806.762	4196
806.904	4246
807.046	4310
807.188	4200
807.33	4204
807.472	4223
807.614	4169
807.756	4234
807.898	4219
808.04	4188
808.182	4246
808.324	4325
808.465	4375
808.607	4440
808.749	4402
808.891	4470
809.033	4481
809.174	4402
809.316	4261
809.458	4257
809.6	4173
809.741	4181
809.883	4135
810.025	4215
810.166	4211
810.308	4223
810.45	4299
810.591	4238
810.733	4242
810.875	4493
811.016	4809
811.158	5094
811.299	5288
811.441	5242
811.582	5075
811.724	4687
811.865	4485
812.007	4421
812.148	4402
812.29	4386
812.431	4394
812.573	4424
812.714	4383
812.855	4432
812.997	4402
813.138	4504
813.279	4379
813.421	4344
813.562	4371
813.703	4268
813.845	4306
813.986	4249
814.127	4215
814.268	4261
814.41	4261
814.551	4249
814.692	4287
814.833	4238
814.974	4268
815.115	4284
815.256	4215
815.397	4211
815.539	4253
815.68	4162
815.821	4169
815.962	4253
816.103	4276
816.244	4242
816.385	4227
816.526	4287
816.666	4207
816.807	4082
816.948	4154
817.089	4154
817.23	4112
817.371	4067
817.512	4013
817.653	4051
817.793	4029
817.934	4029
818.075	4051
818.216	4059
818.356	4124
818.497	4013
818.638	3903
818.778	3899
818.919	3861
819.06	3865
819.2	3903
819.341	3892
819.481	3857
819.622	3896
819.762	4006
819.903	3960
820.043	3812
820.184	3804
820.324	3846
820.465	3899
820.605	3861
820.746	3892
820.886	3751
821.026	3892
821.167	3888
821.307	3945
821.447	3926
821.588	3945
821.728	3991
821.868	3915
822.008	3831
822.149	3896
822.289	3899
822.429	3759
822.569	3720
822.709	3793
822.849	3701
822.99	3781
823.13	3736
823.27	3816
823.41	3690
823.55	3698
823.69	3705
823.83	3743
823.97	3656
824.11	3618
824.25	3591
824.389	3637
824.529	3675
824.669	3595
824.809	3694
824.949	3717
825.089	3755
825.228	3671
825.368	3587
825.508	3572
825.648	3568
825.787	3564
825.927	3606
826.067	3599
826.206	3682
826.346	3751
826.485	3797
826.625	3835
826.765	3930
826.904	3819
827.044	3591
827.183	3511
827.323	3439
827.462	3466
827.601	3431
827.741	3405
827.88	3469
828.02	3374
828.159	3431
828.298	3458
828.437	3504
828.577	3450
828.716	3580
828.855	3485
828.994	3424
829.134	3351
829.273	3386
829.412	3340
829.551	3344
829.69	3348
829.829	3431
829.968	3523
830.107	3389
830.246	3439
830.385	3382
830.524	3386
830.663	3272
830.802	3260
830.941	3165
831.08	3203
831.219	3268
831.357	3264
831.496	3378
831.635	3237
831.774	3184
831.913	3214
832.051	3131
832.19	3138
832.329	3207
832.467	3138
832.606	3100
832.744	3157
832.883	3169
833.022	3211
833.16	3230
833.299	3294
833.437	3306
833.576	3374
833.714	3401
833.852	3443
833.991	3450
834.129	3447
834.267	3462
834.406	3397
834.544	3386
834.682	3405
834.821	3389
834.959	3568
835.097	3409
835.235	3538
835.373	3454
835.511	3469
835.65	3420
835.788	3462
835.926	3363
836.064	3367
836.202	3397
836.34	3549
836.478	3584
836.615	3500
836.753	3610
836.891	3603
837.029	3595
837.167	3572
837.305	3538
837.443	3538
837.58	3477
837.718	3576
837.856	3519
837.993	3500
838.131	3568
838.269	3557
838.406	3584
838.544	3534
838.681	3450
838.819	3428
838.956	3370
839.094	3420
839.231	3443
839.369	3500
839.506	3701
839.643	3591
839.781	3511
839.918	3481
840.055	3492
840.193	3519
840.33	3515
840.467	3526
840.604	3599
840.742	3800
840.879	3526
841.016	3549
841.153	3568
841.29	3713
841.427	3663
841.564	3667
841.701	3720
841.838	3686
841.975	3690
842.112	3743
842.249	3568
842.385	3633
842.522	3850
842.659	3686
842.796	3705
842.933	3705
843.069	3709
843.206	3682
843.343	3831
843.479	3720
843.616	3812
843.752	3641
843.889	3663
844.025	3793
844.162	3740
844.298	3823
844.435	3732
844.571	3778
844.708	3899
844.844	3972
844.98	4032
845.117	3983
845.253	3918
845.389	3819
845.525	3922
845.661	3987
845.798	3884
845.934	3991
846.07	3903
846.206	4055
846.342	4109
846.478	4044
846.614	3960
846.75	3896
846.886	3873
847.022	4055
847.158	3934
847.294	3994
847.429	4010
847.565	3991
847.701	4227
847.837	3876
847.972	3865
848.108	3945
848.244	3956
848.379	3880
848.515	3797
848.65	3819
848.786	3842
848.921	3846
849.057	3884
849.192	3941
849.328	3884
849.463	3899
849.598	3857
849.734	3842
849.869	3785
850.004	3743
850.14	3835
850.275	3785
850.41	3713
850.545	3728
850.68	3778
850.815	3816
850.95	3804
851.085	3945
851.22	3899
851.355	3797
851.49	3785
851.625	3785
851.76	3770
851.895	3736
852.03	3743
852.165	3819
852.299	3842
852.434	3892
852.569	3899
852.703	3884
852.838	3899
852.973	4013
853.107	3987
853.242	3903
853.376	3793
853.511	3785
853.645	3838
853.78	3945
853.914	3899
854.048	3861
854.183	3892
854.317	3968
854.451	4044
854.585	3918
854.72	3934
854.854	4059
854.988	3960
855.122	4017
855.256	3930
855.39	4010
855.524	4078
855.658	4063
855.792	4059
855.926	4135
856.06	4131
856.194	4204
856.327	4090
856.461	4086
856.595	4154
856.729	4154
856.862	4257
856.996	4211
857.13	4280
857.263	4272
857.397	4352
857.53	4295
857.664	4329
857.797	4405
857.931	4386
858.064	4398
858.197	4428
858.331	4390
858.464	4333
858.597	4367
858.731	4440
858.864	4436
858.997	4417
859.13	4516
859.263	4565
859.396	4558
859.529	4550
859.662	4470
859.795	4504
859.928	4615
860.061	4683
860.194	4698
860.327	4683
860.46	4641
860.592	4706
860.725	4721
860.858	4733
860.99	4714
861.123	4687
861.256	4729
861.388	4710
861.521	5326
861.653	4698
861.786	4710
861.918	4687
862.05	4786
862.183	4850
862.315	4892
862.447	4942
862.58	4843
862.712	4824
862.844	4820
862.976	4881
863.108	4892
863.24	5155
863.372	4870
863.504	4949
863.636	4938
863.768	4911
863.9	4942
864.032	4877
864.164	4911
864.296	4968
864.428	5094
864.559	5086
864.691	5113
864.823	5140
864.954	5132
865.086	5178
865.217	5102
865.349	5102
865.48	5117
865.612	5147
865.743	5269
865.875	5204
866.006	5166
866.137	5239
866.269	5235
866.4	5269
866.531	5208
866.662	5242
866.793	5231
866.924	5273
867.055	5307
867.186	5322
867.317	5318
867.448	5261
867.579	5364
867.71	5349
867.841	5376
867.972	5452
868.103	5436
868.233	5433
868.364	5452
868.495	5501
868.625	5646
868.756	5847
868.886	5680
869.017	5756
869.147	5836
869.278	5874
869.408	5802
869.539	5783
869.669	5893
869.799	5920
869.929	5996
870.06	6064
870.19	6209
870.32	6148
870.45	6281
870.58	6331
870.71	6369
870.84	6486
870.97	6418
871.1	6422
871.23	6589
871.36	6654
871.489	6658
871.619	6787
871.749	6783
871.879	6856
872.008	6939
872.138	6928
872.267	7053
872.397	6939
872.526	7012
872.656	7072
872.785	7209
872.915	7343
873.044	7537
873.173	7472
873.303	7655
873.432	7795
873.561	7875
873.69	7890
873.819	8058
873.948	8149
874.077	8275
874.206	8358
874.335	8434
874.464	8701
874.593	8864
874.722	8887
874.851	9138
874.979	9253
875.108	9298
875.237	9389
875.365	9507
875.494	9747
875.623	9899
875.751	9918
875.88	9998
876.008	10173
876.136	10299
876.265	10474
876.393	10698
876.521	10675
876.65	10809
876.778	10877
876.906	10854
877.034	10980
877.162	11109
877.29	11140
877.418	11341
877.546	11414
877.674	11440
877.802	11421
877.93	11516
878.058	11516
878.185	11535
878.313	11627
878.441	11714
878.568	11668
878.696	11767
878.824	11805
878.951	11855
879.079	11980
879.206	12114
879.333	12060
879.461	11965
879.588	12064
879.715	12038
879.842	12213
879.97	12114
880.097	11893
880.224	11916
880.351	11859
880.478	11904
880.605	11821
880.732	11798
880.859	12011
880.986	11813
881.112	11824
881.239	11722
881.366	11665
881.493	11684
881.619	11543
881.746	11547
881.872	11596
881.999	11551
882.125	11490
882.252	11570
882.378	11551
882.505	11566
882.631	11280
882.757	11376
882.883	11284
883.01	11204
883.136	11151
883.262	11250
883.388	11105
883.514	11204
883.64	11064
883.766	11136
883.892	10961
884.018	10919
884.143	11052
884.269	11098
884.395	10805
884.52	10778
884.646	10771
884.772	10618
884.897	10675
885.023	10736
885.148	10687
885.274	10675
885.399	10641
885.524	10599
885.65	10599
885.775	10558
885.9	10584
886.025	10626
886.15	10603
886.275	10382
886.4	10413
886.525	10451
886.65	10371
886.775	10287
886.9	10519
887.025	10531
887.149	10379
887.274	10246
887.399	10150
887.523	10150
887.648	10097
887.773	10131
887.897	10192
888.021	10196
888.146	10109
888.27	10249
888.395	10185
888.519	10112
888.643	10120
888.767	10109
888.891	10074
889.015	9983
889.139	10029
889.263	10017
889.387	10086
889.511	10071
889.635	10021
889.759	9865
889.883	10029
890.006	10021
890.13	10131
890.254	9945
890.377	9918
890.501	9884
890.624	9899
890.748	9922
890.871	9838
890.995	9732
891.118	9743
891.241	9740
891.364	9762
891.488	9770
891.611	9641
891.734	9785
891.857	9789
891.98	9701
892.103	9724
892.226	9717
892.349	9728
892.471	9538
892.594	9545
892.717	9584
892.839	9568
892.962	9595
893.085	9599
893.207	9545
893.33	9485
893.452	9454
893.575	9603
893.697	9568
893.819	9542
893.941	9663
894.064	9625
894.186	9408
894.308	9439
894.43	9564
894.552	9644
894.674	9515
894.796	9359
894.918	9435
895.04	9374
895.161	9405
895.283	9313
895.405	9260
895.526	9268
895.648	9233
895.769	9188
895.891	9249
896.012	9336
896.134	9218
896.255	9150
896.376	9154
896.498	9180
896.619	9135
896.74	9085
896.861	9127
896.982	9180
897.103	9298
897.224	9085
897.345	9043
897.466	9017
897.587	9032
897.708	9081
897.828	8994
897.949	8944
898.07	8830
898.19	8902
898.311	9013
898.431	8906
898.552	8960
898.672	8960
898.792	8948
898.913	8906
899.033	8838
899.153	8788
899.273	8629
899.393	8708
899.513	8830
899.633	8724
899.753	8708
899.873	8629
899.993	8743
900.113	8701
900.232	8629
900.352	8655
900.472	8575
900.591	8488
900.711	8617
900.83	8541
900.95	8727
901.069	8659
901.189	8541
901.308	8423
901.427	8347
901.546	8389
901.665	8492
901.784	8503
901.904	8396
902.023	8366
902.141	8191
902.26	8172
902.379	8294
902.498	8237
902.617	8199
902.735	8301
902.854	8244
902.973	8199
903.091	8153
903.21	8096
903.328	8168
903.446	8119
903.565	8073
903.683	8069
903.801	8043
903.919	8069
904.038	8145
904.156	7970
904.274	8054
904.392	7997
904.51	8016
904.627	8043
904.745	8111
904.863	8100
904.981	7944
905.098	7822
905.216	7814
905.334	7845
905.451	7871
905.569	7871
905.686	7875
905.803	7849
905.921	7765
906.038	7849
906.155	7769
906.272	7685
906.389	7712
906.506	7670
906.623	7647
906.74	7552
906.857	7518
906.974	7582
907.091	7605
907.208	7731
907.324	7666
907.441	7590
907.557	7403
907.674	7419
907.79	7346
907.907	7358
908.023	7392
908.139	7373
908.256	7419
908.372	7381
908.488	7312
908.604	7316
908.72	7168
908.836	7324
908.952	7259
909.068	7301
909.184	7350
909.3	7247
909.415	7297
909.531	7289
909.647	7137
909.762	7076
909.878	7004
909.993	7114
910.108	7107
910.224	7084
910.339	7072
910.454	7012
910.57	7046
910.685	6901
910.8	7179
910.915	7107
911.03	7000
911.145	6920
911.259	6802
911.374	6859
911.489	6814
911.604	6833
911.718	6688
911.833	6673
911.947	6749
912.062	6597
912.176	6700
912.291	6734
912.405	6688
912.519	6791
912.633	6837
912.748	6779
912.862	6719
912.976	6635
913.09	6528
913.204	6525
913.318	6585
913.431	6654
913.545	6639
913.659	6753
913.772	6623
913.886	6608
914	6555
914.113	6627
914.226	6631
914.34	6566
914.453	6513
914.566	6578
914.68	6509
914.793	6528
914.906	6414
915.019	6350
915.132	6346
915.245	6410
915.358	6441
915.47	6429
915.583	6422
915.696	6422
915.809	6513
915.921	6506
916.034	6403
916.146	6433
916.259	6376
916.371	6467
916.483	6433
916.595	6399
916.708	6426
916.82	6357
916.932	6323
917.044	6445
917.156	6384
917.268	6308
917.38	6292
917.491	6289
917.603	6346
917.715	6380
917.826	6372
917.938	6353
918.049	6228
918.161	6327
918.272	6433
918.384	6437
918.495	6270
918.606	6285
918.717	6167
918.828	6270
918.939	6258
919.05	6167
919.161	6273
919.272	6095
919.383	6140
919.494	6251
919.604	6376
919.715	6258
919.826	6213
919.936	6289
920.047	6281
920.157	6243
920.267	6433
920.378	6308
920.488	6239
920.598	6460
920.708	6544
920.818	6437
920.928	6479
921.038	6544
921.148	6540
921.258	6334
921.368	6285
921.477	6190
921.587	6106
921.697	6098
921.806	6110
921.916	6072
922.025	5897
922.134	5935
922.244	5897
922.353	5916
922.462	5916
922.571	5813
922.68	5684
922.789	5653
922.898	5714
923.007	5718
923.116	5691
923.224	5638
923.333	5680
923.442	5630
923.55	5596
923.659	5585
923.767	5604
923.876	5554
923.984	5608
924.092	5532
924.201	5562
924.309	5493
924.417	5562
924.525	5528
924.633	5528
924.741	6262
924.849	5368
924.956	5448
925.064	5334
925.172	5261
925.279	5322
925.387	5318
925.494	5315
925.602	5414
925.709	5357
925.816	5284
925.924	5326
926.031	5368
926.138	5265
926.245	5311
926.352	5216
926.459	5318
926.566	5326
926.673	5242
926.779	5102
926.886	5079
926.993	4987
927.099	5006
927.206	4991
927.312	4984
927.419	5014
927.525	4987
927.631	4980
927.737	4858
927.843	4828
927.95	4752
928.056	4771
928.162	4820
928.267	4873
928.373	5242
928.479	4812
928.585	4694
928.69	4740
928.796	4812
928.901	4656
929.007	4485
929.112	4645
929.218	4622
929.323	4599
929.428	4546
929.533	4649
929.638	4512
929.743	4508
929.848	4531
929.953	4497
930.058	4413
930.163	4314
930.267	4314
930.372	4466
930.477	4287
930.581	4493
930.685	4314
930.79	4268
930.894	4284
930.998	4257
931.103	4383
931.207	4143
931.311	4040
931.415	4063
931.519	3934
931.623	3941
