Data from glass_V78500241_111.txt Node
Date: Wed Sep 01 19:15:16 CST 2021
User: usil
Spectrometer: V785-0024
Trigger mode: 0
Integration Time (sec): 4.000000E-1
Scans to average: 1
Nonlinearity correction enabled: false
Boxcar width: 0
Storing dark spectrum: false
XAxis mode: Wavelengths
Number of Pixels in Spectrum: 1024
>>>>>Begin Spectral Data<<<<<
801.071	3808
801.214	3720
801.356	3717
801.499	3774
801.641	3781
801.783	3793
801.926	3873
802.068	3857
802.211	3842
802.353	3896
802.496	3861
802.638	3884
802.78	3911
802.923	3945
803.065	3884
803.208	3873
803.35	3854
803.492	3918
803.635	3945
803.777	3800
803.919	3941
804.061	4124
804.204	4010
804.346	3911
804.488	3949
804.63	4055
804.773	3915
804.915	3979
805.057	4166
805.199	4002
805.341	4078
805.483	4143
805.626	4120
805.768	4143
805.91	4246
806.052	4249
806.194	4246
806.336	4371
806.478	4238
806.62	4173
806.762	4196
806.904	4261
807.046	4337
807.188	4280
807.33	4173
807.472	4246
807.614	4173
807.756	4272
807.898	4242
808.04	4268
808.182	4348
808.324	4333
808.465	4390
808.607	4478
808.749	4462
808.891	4455
809.033	4459
809.174	4386
809.316	4318
809.458	4280
809.6	4116
809.741	4173
809.883	4135
810.025	4200
810.166	4196
810.308	4234
810.45	4287
810.591	4272
810.733	4299
810.875	4523
811.016	4801
811.158	5143
811.299	5315
811.441	5334
811.582	5064
811.724	4721
811.865	4485
812.007	4478
812.148	4470
812.29	4470
812.431	4417
812.573	4367
812.714	4367
812.855	4386
812.997	4421
813.138	4519
813.279	4432
813.421	4417
813.562	4390
813.703	4337
813.845	4375
813.986	4280
814.127	4261
814.268	4295
814.41	4295
814.551	4299
814.692	4363
814.833	4284
814.974	4295
815.115	4356
815.256	4284
815.397	4227
815.539	4234
815.68	4181
815.821	4200
815.962	4344
816.103	4284
816.244	4230
816.385	4268
816.526	4325
816.666	4204
816.807	4135
816.948	4204
817.089	4204
817.23	4143
817.371	4002
817.512	4059
817.653	4078
817.793	4051
817.934	4074
818.075	4116
818.216	4109
818.356	4093
818.497	4036
818.638	3934
818.778	3907
818.919	3896
819.06	3861
819.2	3907
819.341	3903
819.481	3865
819.622	3846
819.762	4063
819.903	3937
820.043	3899
820.184	3835
820.324	3827
820.465	3888
820.605	3854
820.746	3918
820.886	3800
821.026	3945
821.167	3903
821.307	4010
821.447	4002
821.588	3945
821.728	3987
821.868	3972
822.008	3873
822.149	3937
822.289	3937
822.429	3835
822.569	3713
822.709	3846
822.849	3701
822.99	3747
823.13	3781
823.27	3770
823.41	3743
823.55	3732
823.69	3717
823.83	3713
823.97	3698
824.11	3618
824.25	3595
824.389	3705
824.529	3728
824.669	3667
824.809	3728
824.949	3759
825.089	3705
825.228	3724
825.368	3618
825.508	3545
825.648	3564
825.787	3561
825.927	3641
826.067	3652
826.206	3656
826.346	3808
826.485	3835
826.625	3876
826.765	3934
826.904	3846
827.044	3603
827.183	3549
827.323	3447
827.462	3488
827.601	3454
827.741	3428
827.88	3507
828.02	3439
828.159	3462
828.298	3511
828.437	3549
828.577	3504
828.716	3629
828.855	3526
828.994	3389
829.134	3405
829.273	3416
829.412	3344
829.551	3386
829.69	3359
829.829	3416
829.968	3538
830.107	3469
830.246	3458
830.385	3401
830.524	3325
830.663	3325
830.802	3272
830.941	3260
831.08	3218
831.219	3268
831.357	3260
831.496	3420
831.635	3241
831.774	3241
831.913	3222
832.051	3131
832.19	3180
832.329	3256
832.467	3154
832.606	3154
832.744	3150
832.883	3207
833.022	3214
833.16	3275
833.299	3313
833.437	3351
833.576	3401
833.714	3416
833.852	3485
833.991	3500
834.129	3492
834.267	3443
834.406	3397
834.544	3473
834.682	3443
834.821	3409
834.959	3545
835.097	3428
835.235	3564
835.373	3523
835.511	3519
835.65	3435
835.788	3526
835.926	3447
836.064	3386
836.202	3420
836.34	3618
836.478	3622
836.615	3553
836.753	3633
836.891	3663
837.029	3637
837.167	3603
837.305	3584
837.443	3538
837.58	3492
837.718	3625
837.856	3542
837.993	3523
838.131	3667
838.269	3595
838.406	3572
838.544	3595
838.681	3477
838.819	3492
838.956	3420
839.094	3374
839.231	3435
839.369	3526
839.506	3774
839.643	3660
839.781	3549
839.918	3458
840.055	3568
840.193	3568
840.33	3545
840.467	3549
840.604	3644
840.742	3816
840.879	3530
841.016	3557
841.153	3622
841.29	3781
841.427	3736
841.564	3679
841.701	3789
841.838	3671
841.975	3701
842.112	3743
842.249	3633
842.385	3599
842.522	3846
842.659	3724
842.796	3709
842.933	3717
843.069	3709
843.206	3698
843.343	3812
843.479	3846
843.616	3846
843.752	3705
843.889	3724
844.025	3888
844.162	3751
844.298	3903
844.435	3793
844.571	3789
844.708	3907
844.844	3994
844.98	3987
845.117	4051
845.253	3937
845.389	3968
845.525	4002
845.661	3968
845.798	3899
845.934	4021
846.07	4013
846.206	4074
846.342	4131
846.478	4093
846.614	4002
846.75	3937
846.886	3903
847.022	4021
847.158	3994
847.294	4006
847.429	4059
847.565	4017
847.701	4234
847.837	3896
847.972	3884
848.108	3987
848.244	3960
848.379	3854
848.515	3857
848.65	3842
848.786	3854
848.921	3899
849.057	3892
849.192	3960
849.328	3930
849.463	3956
849.598	3915
849.734	3880
849.869	3846
850.004	3831
850.14	3850
850.275	3842
850.41	3743
850.545	3789
850.68	3785
850.815	3861
850.95	3819
851.085	3956
851.22	3873
851.355	3838
851.49	3804
851.625	3819
851.76	3759
851.895	3797
852.03	3724
852.165	3808
852.299	3907
852.434	3949
852.569	3918
852.703	3930
852.838	3941
852.973	4032
853.107	3991
853.242	3907
853.376	3838
853.511	3797
853.645	3808
853.78	3983
853.914	3930
854.048	3884
854.183	3873
854.317	3949
854.451	4082
854.585	3964
854.72	3941
854.854	4040
854.988	3964
855.122	4006
855.256	3915
855.39	4025
855.524	4105
855.658	4093
855.792	4128
855.926	4147
856.06	4158
856.194	4196
856.327	4128
856.461	4173
856.595	4200
856.729	4207
856.862	4310
856.996	4257
857.13	4341
857.263	4363
857.397	4356
857.53	4272
857.664	4318
857.797	4432
857.931	4470
858.064	4424
858.197	4508
858.331	4436
858.464	4440
858.597	4424
858.731	4451
858.864	4470
858.997	4413
859.13	4485
859.263	4519
859.396	4611
859.529	4523
859.662	4508
859.795	4584
859.928	4634
860.061	4774
860.194	4801
860.327	4656
860.46	4664
860.592	4752
860.725	4763
860.858	4774
860.99	4759
861.123	4664
861.256	4710
861.388	4809
861.521	5482
861.653	4748
861.786	4634
861.918	4778
862.05	4801
862.183	4866
862.315	4900
862.447	4930
862.58	4919
862.712	4828
862.844	4767
862.976	4889
863.108	4862
863.24	5299
863.372	4850
863.504	4927
863.636	4904
863.768	4984
863.9	5003
864.032	4953
864.164	4968
864.296	5041
864.428	5113
864.559	5086
864.691	5109
864.823	5143
864.954	5121
865.086	5147
865.217	5132
865.349	5090
865.48	5174
865.612	5201
865.743	5349
865.875	5170
866.006	5223
866.137	5273
866.269	5189
866.4	5261
866.531	5223
866.662	5273
866.793	5296
866.924	5273
867.055	5318
867.186	5368
867.317	5303
867.448	5349
867.579	5383
867.71	5376
867.841	5349
867.972	5452
868.103	5486
868.233	5414
868.364	5493
868.495	5596
868.625	5680
868.756	5760
868.886	5665
869.017	5745
869.147	5889
869.278	5866
869.408	5828
869.539	5863
869.669	5973
869.799	5916
869.929	6003
870.06	5988
870.19	6247
870.32	6175
870.45	6285
870.58	6353
870.71	6471
870.84	6475
870.97	6422
871.1	6471
871.23	6623
871.36	6684
871.489	6684
871.619	6738
871.749	6871
871.879	6905
872.008	6951
872.138	6996
872.267	7053
872.397	6973
872.526	7050
872.656	7072
872.785	7251
872.915	7415
873.044	7540
873.173	7601
873.303	7647
873.432	7811
873.561	7860
873.69	7925
873.819	8111
873.948	8195
874.077	8282
874.206	8355
874.335	8492
874.464	8644
874.593	8990
874.722	8921
874.851	9131
874.979	9291
875.108	9412
875.237	9344
875.365	9511
875.494	9633
875.623	9827
875.751	9880
875.88	10006
876.008	10090
876.136	10242
876.265	10558
876.393	10702
876.521	10752
876.65	10900
876.778	10835
876.906	10877
877.034	11006
877.162	11166
877.29	11162
877.418	11341
877.546	11360
877.674	11463
877.802	11444
877.93	11524
878.058	11566
878.185	11573
878.313	11714
878.441	11840
878.568	11718
878.696	11859
878.824	11832
878.951	11999
879.079	12003
879.206	12216
879.333	12007
879.461	11942
879.588	12072
879.715	12114
879.842	12277
879.97	12167
880.097	11923
880.224	11980
880.351	11958
880.478	11847
880.605	11897
880.732	11809
880.859	12045
880.986	11764
881.112	11828
881.239	11733
881.366	11695
881.493	11551
881.619	11604
881.746	11566
881.872	11512
881.999	11562
882.125	11509
882.252	11592
882.378	11493
882.505	11543
882.631	11440
882.757	11288
882.883	11311
883.01	11288
883.136	11189
883.262	11075
883.388	11079
883.514	11155
883.64	11189
883.766	11151
883.892	11060
884.018	11003
884.143	11086
884.269	11045
884.395	10839
884.52	10759
884.646	10824
884.772	10694
884.897	10645
885.023	10710
885.148	10793
885.274	10733
885.399	10702
885.524	10622
885.65	10634
885.775	10637
885.9	10615
886.025	10687
886.15	10546
886.275	10394
886.4	10367
886.525	10375
886.65	10405
886.775	10265
886.9	10481
887.025	10500
887.149	10405
887.274	10284
887.399	10158
887.523	10192
887.648	10166
887.773	10105
887.897	10303
888.021	10196
888.146	10169
888.27	10253
888.395	10215
888.519	10223
888.643	10215
888.767	10215
888.891	10120
889.015	10006
889.139	10017
889.263	10013
889.387	10177
889.511	10143
889.635	10090
889.759	9991
889.883	9895
890.006	9998
890.13	10021
890.254	10048
890.377	10025
890.501	9880
890.624	9873
890.748	9922
890.871	9762
890.995	9797
891.118	9709
891.241	9861
891.364	9804
891.488	9838
891.611	9705
891.734	9804
891.857	9762
891.98	9759
892.103	9755
892.226	9755
892.349	9660
892.471	9488
892.594	9603
892.717	9648
892.839	9591
892.962	9618
893.085	9614
893.207	9603
893.33	9538
893.452	9584
893.575	9618
893.697	9530
893.819	9606
893.941	9652
894.064	9656
894.186	9363
894.308	9378
894.43	9568
894.552	9637
894.674	9488
894.796	9454
894.918	9443
895.04	9351
895.161	9351
895.283	9397
895.405	9161
895.526	9287
895.648	9275
895.769	9275
895.891	9245
896.012	9264
896.134	9245
896.255	9169
896.376	9116
896.498	9165
896.619	9051
896.74	9176
896.861	9081
896.982	9298
897.103	9374
897.224	9097
897.345	9108
897.466	9028
897.587	9009
897.708	9066
897.828	9058
897.949	8979
898.07	8849
898.19	8952
898.311	9009
898.431	8918
898.552	8906
898.672	8933
898.792	8994
898.913	8925
899.033	8830
899.153	8689
899.273	8697
899.393	8705
899.513	8819
899.633	8727
899.753	8853
899.873	8720
899.993	8785
900.113	8655
900.232	8689
900.352	8636
900.472	8644
900.591	8571
900.711	8606
900.83	8522
900.95	8610
901.069	8689
901.189	8583
901.308	8419
901.427	8393
901.546	8431
901.665	8461
901.784	8480
901.904	8339
902.023	8336
902.141	8221
902.26	8195
902.379	8336
902.498	8187
902.617	8290
902.735	8282
902.854	8298
902.973	8244
903.091	8134
903.21	8168
903.328	8142
903.446	8153
903.565	8115
903.683	8111
903.801	7997
903.919	8119
904.038	8161
904.156	8062
904.274	8077
904.392	7997
904.51	7974
904.627	8092
904.745	8077
904.863	8161
904.981	7925
905.098	7860
905.216	7833
905.334	7959
905.451	7883
905.569	7887
905.686	7936
905.803	7944
905.921	7795
906.038	7917
906.155	7761
906.272	7727
906.389	7753
906.506	7670
906.623	7609
906.74	7605
906.857	7578
906.974	7605
907.091	7719
907.208	7742
907.324	7693
907.441	7578
907.557	7495
907.674	7468
907.79	7411
907.907	7441
908.023	7464
908.139	7377
908.256	7422
908.372	7381
908.488	7365
908.604	7289
908.72	7232
908.836	7297
908.952	7236
909.068	7228
909.184	7327
909.3	7289
909.415	7346
909.531	7335
909.647	7129
909.762	7122
909.878	7149
909.993	7129
910.108	7095
910.224	7095
910.339	7107
910.454	7027
910.57	7042
910.685	6932
910.8	7171
910.915	7137
911.03	7046
911.145	6970
911.259	6943
911.374	6924
911.489	6791
911.604	6840
911.718	6692
911.833	6779
911.947	6719
912.062	6593
912.176	6711
912.291	6768
912.405	6703
912.519	6901
912.633	6863
912.748	6814
912.862	6818
912.976	6627
913.09	6521
913.204	6608
913.318	6563
913.431	6700
913.545	6696
913.659	6681
913.772	6635
913.886	6536
914	6555
914.113	6662
914.226	6620
914.34	6544
914.453	6471
914.566	6566
914.68	6551
914.793	6585
914.906	6418
915.019	6437
915.132	6414
915.245	6448
915.358	6517
915.47	6486
915.583	6471
915.696	6467
915.809	6452
915.921	6559
916.034	6410
916.146	6391
916.259	6399
916.371	6540
916.483	6471
916.595	6445
916.708	6418
916.82	6418
916.932	6380
917.044	6391
917.156	6399
917.268	6308
917.38	6327
917.491	6414
917.603	6357
917.715	6433
917.826	6407
917.938	6395
918.049	6281
918.161	6388
918.272	6410
918.384	6414
918.495	6399
918.606	6247
918.717	6254
918.828	6311
918.939	6296
919.05	6266
919.161	6273
919.272	6114
919.383	6239
919.494	6327
919.604	6433
919.715	6300
919.826	6247
919.936	6308
920.047	6410
920.157	6258
920.267	6498
920.378	6338
920.488	6315
920.598	6418
920.708	6631
920.818	6467
920.928	6475
921.038	6559
921.148	6646
921.258	6395
921.368	6277
921.477	6239
921.587	6167
921.697	6087
921.806	6163
921.916	6091
922.025	6011
922.134	5939
922.244	5908
922.353	5958
922.462	5870
922.571	5798
922.68	5691
922.789	5722
922.898	5748
923.007	5634
923.116	5745
923.224	5649
923.333	5668
923.442	5657
923.55	5649
923.659	5570
923.767	5676
923.876	5573
923.984	5642
924.092	5497
924.201	5600
924.309	5501
924.417	5604
924.525	5520
924.633	5474
924.741	6136
924.849	5391
924.956	5501
925.064	5360
925.172	5372
925.279	5322
925.387	5417
925.494	5330
925.602	5402
925.709	5334
925.816	5292
925.924	5288
926.031	5345
926.138	5330
926.245	5334
926.352	5239
926.459	5357
926.566	5357
926.673	5212
926.779	5151
926.886	5094
926.993	5037
927.099	5041
927.206	4999
927.312	4961
927.419	5018
927.525	4999
927.631	4995
927.737	4904
927.843	4904
927.95	4797
928.056	4866
928.162	4839
928.267	4873
928.373	5368
928.479	4877
928.585	4714
928.69	4763
928.796	4790
928.901	4675
929.007	4611
929.112	4702
929.218	4649
929.323	4615
929.428	4573
929.533	4714
929.638	4516
929.743	4500
929.848	4599
929.953	4485
930.058	4466
930.163	4314
930.267	4325
930.372	4474
930.477	4291
930.581	4443
930.685	4417
930.79	4310
930.894	4303
930.998	4257
931.103	4379
931.207	4147
931.311	4109
931.415	4086
931.519	3934
931.623	3953
