Data from glass_V78500241_2356.txt Node
Date: Wed Sep 01 19:30:49 CST 2021
User: usil
Spectrometer: V785-0024
Trigger mode: 0
Integration Time (sec): 4.000000E-1
Scans to average: 1
Nonlinearity correction enabled: false
Boxcar width: 0
Storing dark spectrum: false
XAxis mode: Wavelengths
Number of Pixels in Spectrum: 1024
>>>>>Begin Spectral Data<<<<<
801.071	3740
801.214	3732
801.356	3682
801.499	3747
801.641	3728
801.783	3709
801.926	3823
802.068	3827
802.211	3823
802.353	3865
802.496	3831
802.638	3819
802.78	3915
802.923	3880
803.065	3892
803.208	3816
803.35	3873
803.492	3903
803.635	3846
803.777	3778
803.919	3873
804.061	4128
804.204	3945
804.346	3899
804.488	3937
804.63	4029
804.773	3941
804.915	4029
805.057	4112
805.199	4002
805.341	4135
805.483	4120
805.626	4158
805.768	4097
805.91	4211
806.052	4211
806.194	4185
806.336	4360
806.478	4196
806.62	4188
806.762	4196
806.904	4253
807.046	4299
807.188	4227
807.33	4147
807.472	4223
807.614	4166
807.756	4280
807.898	4211
808.04	4166
808.182	4268
808.324	4329
808.465	4344
808.607	4459
808.749	4402
808.891	4478
809.033	4489
809.174	4417
809.316	4257
809.458	4215
809.6	4162
809.741	4177
809.883	4150
810.025	4188
810.166	4185
810.308	4242
810.45	4211
810.591	4268
810.733	4261
810.875	4485
811.016	4809
811.158	5090
811.299	5212
811.441	5288
811.582	5064
811.724	4687
811.865	4436
812.007	4478
812.148	4474
812.29	4402
812.431	4383
812.573	4428
812.714	4337
812.855	4402
812.997	4428
813.138	4508
813.279	4348
813.421	4352
813.562	4413
813.703	4341
813.845	4306
813.986	4242
814.127	4219
814.268	4249
814.41	4280
814.551	4268
814.692	4344
814.833	4268
814.974	4257
815.115	4348
815.256	4230
815.397	4238
815.539	4211
815.68	4192
815.821	4177
815.962	4303
816.103	4325
816.244	4272
816.385	4253
816.526	4272
816.666	4169
816.807	4124
816.948	4188
817.089	4158
817.23	4116
817.371	4055
817.512	4036
817.653	4071
817.793	4048
817.934	4017
818.075	4048
818.216	4090
818.356	4063
818.497	4021
818.638	3846
818.778	3930
818.919	3846
819.06	3873
819.2	3918
819.341	3884
819.481	3857
819.622	3911
819.762	4025
819.903	3945
820.043	3842
820.184	3842
820.324	3838
820.465	3854
820.605	3861
820.746	3819
820.886	3812
821.026	3903
821.167	3922
821.307	3941
821.447	3979
821.588	3941
821.728	3922
821.868	3941
822.008	3819
822.149	3880
822.289	3911
822.429	3755
822.569	3724
822.709	3797
822.849	3698
822.99	3724
823.13	3781
823.27	3770
823.41	3720
823.55	3778
823.69	3701
823.83	3720
823.97	3663
824.11	3591
824.25	3629
824.389	3584
824.529	3641
824.669	3591
824.809	3652
824.949	3770
825.089	3724
825.228	3698
825.368	3553
825.508	3507
825.648	3538
825.787	3622
825.927	3660
826.067	3591
826.206	3682
826.346	3766
826.485	3797
826.625	3846
826.765	3941
826.904	3812
827.044	3625
827.183	3526
827.323	3443
827.462	3477
827.601	3420
827.741	3412
827.88	3435
828.02	3344
828.159	3409
828.298	3439
828.437	3515
828.577	3431
828.716	3618
828.855	3492
828.994	3428
829.134	3378
829.273	3424
829.412	3298
829.551	3340
829.69	3329
829.829	3389
829.968	3507
830.107	3393
830.246	3466
830.385	3363
830.524	3348
830.663	3317
830.802	3253
830.941	3207
831.08	3180
831.219	3260
831.357	3245
831.496	3409
831.635	3237
831.774	3180
831.913	3203
832.051	3100
832.19	3119
832.329	3226
832.467	3131
832.606	3135
832.744	3142
832.883	3184
833.022	3165
833.16	3222
833.299	3310
833.437	3348
833.576	3393
833.714	3359
833.852	3424
833.991	3412
834.129	3504
834.267	3431
834.406	3401
834.544	3401
834.682	3424
834.821	3428
834.959	3523
835.097	3416
835.235	3553
835.373	3507
835.511	3481
835.65	3412
835.788	3485
835.926	3367
836.064	3386
836.202	3351
836.34	3564
836.478	3622
836.615	3511
836.753	3591
836.891	3625
837.029	3637
837.167	3595
837.305	3576
837.443	3568
837.58	3492
837.718	3595
837.856	3561
837.993	3496
838.131	3580
838.269	3534
838.406	3599
838.544	3557
838.681	3431
838.819	3435
838.956	3340
839.094	3359
839.231	3431
839.369	3523
839.506	3732
839.643	3637
839.781	3492
839.918	3401
840.055	3530
840.193	3534
840.33	3557
840.467	3538
840.604	3618
840.742	3789
840.879	3557
841.016	3511
841.153	3580
841.29	3736
841.427	3705
841.564	3690
841.701	3709
841.838	3652
841.975	3660
842.112	3667
842.249	3629
842.385	3603
842.522	3831
842.659	3675
842.796	3705
842.933	3675
843.069	3679
843.206	3686
843.343	3789
843.479	3766
843.616	3812
843.752	3682
843.889	3694
844.025	3854
844.162	3720
844.298	3857
844.435	3793
844.571	3819
844.708	3861
844.844	4013
844.98	4044
845.117	4017
845.253	3911
845.389	3873
845.525	3979
845.661	3941
845.798	3907
845.934	3983
846.07	3953
846.206	4063
846.342	4093
846.478	3998
846.614	3968
846.75	3953
846.886	3892
847.022	4017
847.158	3956
847.294	3994
847.429	4032
847.565	3983
847.701	4196
847.837	3838
847.972	3823
848.108	3975
848.244	3979
848.379	3823
848.515	3797
848.65	3800
848.786	3800
848.921	3835
849.057	3911
849.192	3975
849.328	3888
849.463	3934
849.598	3827
849.734	3846
849.869	3789
850.004	3785
850.14	3800
850.275	3797
850.41	3728
850.545	3766
850.68	3713
850.815	3842
850.95	3800
851.085	3934
851.22	3842
851.355	3831
851.49	3800
851.625	3804
851.76	3816
851.895	3720
852.03	3732
852.165	3797
852.299	3857
852.434	3892
852.569	3838
852.703	3831
852.838	3918
852.973	3975
853.107	3964
853.242	3880
853.376	3835
853.511	3762
853.645	3819
853.78	3945
853.914	3880
854.048	3941
854.183	3873
854.317	3987
854.451	4067
854.585	3972
854.72	3964
854.854	4017
854.988	3934
855.122	4013
855.256	3960
855.39	4029
855.524	4147
855.658	4097
855.792	4067
855.926	4158
856.06	4166
856.194	4188
856.327	4109
856.461	4109
856.595	4162
856.729	4196
856.862	4246
856.996	4230
857.13	4284
857.263	4314
857.397	4329
857.53	4276
857.664	4341
857.797	4409
857.931	4432
858.064	4363
858.197	4409
858.331	4409
858.464	4379
858.597	4310
858.731	4409
858.864	4443
858.997	4462
859.13	4466
859.263	4538
859.396	4561
859.529	4527
859.662	4531
859.795	4489
859.928	4634
860.061	4721
860.194	4721
860.327	4615
860.46	4645
860.592	4733
860.725	4702
860.858	4771
860.99	4717
861.123	4679
861.256	4687
861.388	4755
861.521	5265
861.653	4698
861.786	4717
861.918	4729
862.05	4790
862.183	4801
862.315	4889
862.447	4927
862.58	4866
862.712	4778
862.844	4744
862.976	4866
863.108	4839
863.24	5140
863.372	4790
863.504	4904
863.636	4881
863.768	4972
863.9	4976
864.032	4927
864.164	4934
864.296	5025
864.428	5045
864.559	5090
864.691	5083
864.823	5124
864.954	5143
865.086	5147
865.217	5117
865.349	5071
865.48	5102
865.612	5174
865.743	5284
865.875	5204
866.006	5162
866.137	5212
866.269	5201
866.4	5254
866.531	5261
866.662	5261
866.793	5239
866.924	5292
867.055	5357
867.186	5341
867.317	5280
867.448	5288
867.579	5379
867.71	5372
867.841	5372
867.972	5425
868.103	5516
868.233	5452
868.364	5490
868.495	5547
868.625	5699
868.756	5786
868.886	5627
869.017	5775
869.147	5805
869.278	5832
869.408	5786
869.539	5855
869.669	5897
869.799	5889
869.929	5908
870.06	5973
870.19	6140
870.32	6205
870.45	6251
870.58	6292
870.71	6414
870.84	6433
870.97	6471
871.1	6467
871.23	6589
871.36	6669
871.489	6642
871.619	6768
871.749	6810
871.879	6935
872.008	6924
872.138	6958
872.267	6962
872.397	6970
872.526	7046
872.656	7072
872.785	7129
872.915	7346
873.044	7491
873.173	7556
873.303	7639
873.432	7734
873.561	7841
873.69	7902
873.819	7993
873.948	8123
874.077	8259
874.206	8271
874.335	8415
874.464	8655
874.593	8826
874.722	8960
874.851	9051
874.979	9214
875.108	9351
875.237	9386
875.365	9431
875.494	9614
875.623	9854
875.751	9831
875.88	9949
876.008	10147
876.136	10253
876.265	10504
876.393	10691
876.521	10733
876.65	10752
876.778	10843
876.906	10881
877.034	10980
877.162	11102
877.29	11155
877.418	11292
877.546	11349
877.674	11444
877.802	11547
877.93	11478
878.058	11497
878.185	11516
878.313	11627
878.441	11703
878.568	11703
878.696	11760
878.824	11885
878.951	11931
879.079	12129
879.206	12034
879.333	12129
879.461	12019
879.588	12034
879.715	12045
879.842	12216
879.97	12110
880.097	11889
880.224	11874
880.351	11897
880.478	11912
880.605	11878
880.732	11908
880.859	11893
880.986	11916
881.112	11824
881.239	11821
881.366	11615
881.493	11684
881.619	11600
881.746	11589
881.872	11535
881.999	11543
882.125	11543
882.252	11493
882.378	11528
882.505	11516
882.631	11341
882.757	11353
882.883	11284
883.01	11269
883.136	11185
883.262	11067
883.388	11140
883.514	11212
883.64	11166
883.766	11151
883.892	10968
884.018	11018
884.143	11041
884.269	11132
884.395	10786
884.52	10790
884.646	10755
884.772	10664
884.897	10645
885.023	10710
885.148	10698
885.274	10729
885.399	10714
885.524	10607
885.65	10618
885.775	10535
885.9	10535
886.025	10611
886.15	10550
886.275	10405
886.4	10379
886.525	10344
886.65	10386
886.775	10337
886.9	10440
887.025	10489
887.149	10367
887.274	10223
887.399	10173
887.523	10185
887.648	10135
887.773	10071
887.897	10234
888.021	10284
888.146	10200
888.27	10234
888.395	10181
888.519	10124
888.643	10112
888.767	10181
888.891	10090
889.015	9987
889.139	10010
889.263	9987
889.387	10044
889.511	10086
889.635	10048
889.759	9937
889.883	10036
890.006	9930
890.13	10040
890.254	9930
890.377	9888
890.501	9888
890.624	9869
890.748	9918
890.871	9732
890.995	9755
891.118	9743
891.241	9804
891.364	9751
891.488	9918
891.611	9732
891.734	9747
891.857	9831
891.98	9690
892.103	9705
892.226	9667
892.349	9686
892.471	9488
892.594	9542
892.717	9584
892.839	9545
892.962	9637
893.085	9606
893.207	9580
893.33	9526
893.452	9511
893.575	9629
893.697	9515
893.819	9549
893.941	9660
894.064	9568
894.186	9462
894.308	9370
894.43	9545
894.552	9610
894.674	9439
894.796	9393
894.918	9439
895.04	9374
895.161	9405
895.283	9317
895.405	9268
895.526	9260
895.648	9222
895.769	9260
895.891	9298
896.012	9260
896.134	9157
896.255	9199
896.376	9097
896.498	9047
896.619	9203
896.74	9131
896.861	9077
896.982	9226
897.103	9340
897.224	9119
897.345	9085
897.466	8941
897.587	9017
897.708	9051
897.828	9051
897.949	8906
898.07	8887
898.19	8880
898.311	8948
898.431	8918
898.552	8948
898.672	8937
898.792	8948
898.913	8891
899.033	8804
899.153	8689
899.273	8659
899.393	8667
899.513	8804
899.633	8781
899.753	8743
899.873	8667
899.993	8758
900.113	8625
900.232	8724
900.352	8697
900.472	8590
900.591	8549
900.711	8590
900.83	8530
900.95	8613
901.069	8610
901.189	8545
901.308	8404
901.427	8415
901.546	8415
901.665	8457
901.784	8549
901.904	8442
902.023	8339
902.141	8244
902.26	8180
902.379	8252
902.498	8187
902.617	8214
902.735	8336
902.854	8286
902.973	8332
903.091	8024
903.21	8142
903.328	8187
903.446	8088
903.565	8035
903.683	8107
903.801	8008
903.919	8054
904.038	8134
904.156	8005
904.274	8157
904.392	8020
904.51	7997
904.627	8016
904.745	8073
904.863	8062
904.981	7894
905.098	7841
905.216	7864
905.334	7894
905.451	7883
905.569	7833
905.686	7894
905.803	7879
905.921	7807
906.038	7833
906.155	7742
906.272	7753
906.389	7723
906.506	7559
906.623	7643
906.74	7624
906.857	7472
906.974	7613
907.091	7689
907.208	7655
907.324	7594
907.441	7567
907.557	7537
907.674	7400
907.79	7381
907.907	7362
908.023	7460
908.139	7430
908.256	7430
908.372	7407
908.488	7331
908.604	7244
908.72	7293
908.836	7282
908.952	7228
909.068	7266
909.184	7335
909.3	7217
909.415	7335
909.531	7198
909.647	7099
909.762	7072
909.878	7050
909.993	7095
910.108	7088
910.224	7091
910.339	7057
910.454	7084
910.57	6996
910.685	6897
910.8	7160
910.915	7069
911.03	7042
911.145	6863
911.259	6867
911.374	6935
911.489	6863
911.604	6810
911.718	6730
911.833	6757
911.947	6692
912.062	6612
912.176	6654
912.291	6741
912.405	6650
912.519	6821
912.633	6848
912.748	6753
912.862	6696
912.976	6570
913.09	6574
913.204	6578
913.318	6665
913.431	6696
913.545	6650
913.659	6654
913.772	6627
913.886	6566
914	6521
914.113	6642
914.226	6620
914.34	6631
914.453	6471
914.566	6620
914.68	6566
914.793	6517
914.906	6407
915.019	6414
915.132	6414
915.245	6418
915.358	6391
915.47	6422
915.583	6418
915.696	6494
915.809	6494
915.921	6486
916.034	6395
916.146	6391
916.259	6441
916.371	6464
916.483	6414
916.595	6418
916.708	6464
916.82	6353
916.932	6338
917.044	6460
917.156	6410
917.268	6342
917.38	6346
917.491	6350
917.603	6327
917.715	6403
917.826	6388
917.938	6353
918.049	6216
918.161	6334
918.272	6407
918.384	6486
918.495	6342
918.606	6224
918.717	6163
918.828	6262
918.939	6266
919.05	6258
919.161	6213
919.272	6140
919.383	6178
919.494	6270
919.604	6490
919.715	6235
919.826	6182
919.936	6277
920.047	6346
920.157	6243
920.267	6494
920.378	6331
920.488	6304
920.598	6502
920.708	6517
920.818	6464
920.928	6483
921.038	6620
921.148	6574
921.258	6346
921.368	6327
921.477	6213
921.587	6182
921.697	6098
921.806	6163
921.916	6060
922.025	5977
922.134	5897
922.244	5821
922.353	5984
922.462	5824
922.571	5760
922.68	5619
922.789	5665
922.898	5710
923.007	5615
923.116	5703
923.224	5688
923.333	5691
923.442	5562
923.55	5592
923.659	5596
923.767	5642
923.876	5547
923.984	5570
924.092	5421
924.201	5554
924.309	5592
924.417	5570
924.525	5471
924.633	5478
924.741	6270
924.849	5376
924.956	5440
925.064	5364
925.172	5379
925.279	5269
925.387	5322
925.494	5288
925.602	5391
925.709	5376
925.816	5254
925.924	5303
926.031	5395
926.138	5311
926.245	5284
926.352	5212
926.459	5315
926.566	5322
926.673	5212
926.779	5124
926.886	5090
926.993	5018
927.099	5003
927.206	4938
927.312	4953
927.419	4965
927.525	4961
927.631	4953
927.737	4927
927.843	4885
927.95	4778
928.056	4828
928.162	4771
928.267	4854
928.373	5322
928.479	4816
928.585	4729
928.69	4759
928.796	4755
928.901	4668
929.007	4599
929.112	4679
929.218	4592
929.323	4577
929.428	4584
929.533	4698
929.638	4546
929.743	4519
929.848	4535
929.953	4527
930.058	4432
930.163	4310
930.267	4333
930.372	4409
930.477	4287
930.581	4443
930.685	4310
930.79	4265
930.894	4223
930.998	4223
931.103	4367
931.207	4116
931.311	4097
931.415	4051
931.519	3918
931.623	3956
