Data from glass_V78500241_1905.txt Node
Date: Wed Sep 01 19:27:42 CST 2021
User: usil
Spectrometer: V785-0024
Trigger mode: 0
Integration Time (sec): 4.000000E-1
Scans to average: 1
Nonlinearity correction enabled: false
Boxcar width: 0
Storing dark spectrum: false
XAxis mode: Wavelengths
Number of Pixels in Spectrum: 1024
>>>>>Begin Spectral Data<<<<<
801.071	3736
801.214	3740
801.356	3705
801.499	3690
801.641	3740
801.783	3705
801.926	3876
802.068	3827
802.211	3823
802.353	3846
802.496	3804
802.638	3857
802.78	3899
802.923	3937
803.065	3907
803.208	3838
803.35	3869
803.492	3911
803.635	3888
803.777	3793
803.919	3880
804.061	4162
804.204	3945
804.346	3903
804.488	3915
804.63	4017
804.773	3987
804.915	4025
805.057	4105
805.199	4059
805.341	4086
805.483	4090
805.626	4093
805.768	4093
805.91	4200
806.052	4207
806.194	4192
806.336	4348
806.478	4192
806.62	4177
806.762	4196
806.904	4299
807.046	4325
807.188	4215
807.33	4169
807.472	4249
807.614	4200
807.756	4223
807.898	4200
808.04	4234
808.182	4299
808.324	4306
808.465	4356
808.607	4462
808.749	4459
808.891	4478
809.033	4497
809.174	4402
809.316	4261
809.458	4234
809.6	4169
809.741	4139
809.883	4116
810.025	4246
810.166	4181
810.308	4181
810.45	4234
810.591	4219
810.733	4257
810.875	4504
811.016	4786
811.158	5121
811.299	5246
811.441	5284
811.582	5029
811.724	4675
811.865	4421
812.007	4474
812.148	4424
812.29	4405
812.431	4405
812.573	4413
812.714	4341
812.855	4394
812.997	4470
813.138	4478
813.279	4440
813.421	4405
813.562	4356
813.703	4318
813.845	4325
813.986	4234
814.127	4200
814.268	4200
814.41	4303
814.551	4291
814.692	4291
814.833	4268
814.974	4284
815.115	4314
815.256	4253
815.397	4215
815.539	4265
815.68	4211
815.821	4215
815.962	4299
816.103	4227
816.244	4215
816.385	4242
816.526	4284
816.666	4207
816.807	4090
816.948	4162
817.089	4211
817.23	4131
817.371	4029
817.512	4032
817.653	4067
817.793	4021
817.934	4051
818.075	4154
818.216	4071
818.356	4112
818.497	3956
818.638	3869
818.778	3907
818.919	3884
819.06	3835
819.2	3907
819.341	3857
819.481	3819
819.622	3915
819.762	4010
819.903	3930
820.043	3857
820.184	3854
820.324	3804
820.465	3861
820.605	3865
820.746	3835
820.886	3740
821.026	3945
821.167	3949
821.307	3956
821.447	3964
821.588	3911
821.728	3979
821.868	3934
822.008	3884
822.149	3934
822.289	3888
822.429	3804
822.569	3778
822.709	3774
822.849	3675
822.99	3698
823.13	3743
823.27	3778
823.41	3740
823.55	3759
823.69	3698
823.83	3720
823.97	3701
824.11	3606
824.25	3603
824.389	3633
824.529	3610
824.669	3629
824.809	3679
824.949	3800
825.089	3747
825.228	3740
825.368	3595
825.508	3545
825.648	3591
825.787	3568
825.927	3622
826.067	3591
826.206	3625
826.346	3770
826.485	3854
826.625	3842
826.765	3918
826.904	3812
827.044	3610
827.183	3488
827.323	3435
827.462	3466
827.601	3431
827.741	3382
827.88	3447
828.02	3367
828.159	3439
828.298	3450
828.437	3545
828.577	3469
828.716	3564
828.855	3526
828.994	3355
829.134	3389
829.273	3397
829.412	3321
829.551	3351
829.69	3397
829.829	3439
829.968	3496
830.107	3447
830.246	3424
830.385	3363
830.524	3370
830.663	3325
830.802	3253
830.941	3214
831.08	3199
831.219	3298
831.357	3275
831.496	3424
831.635	3249
831.774	3192
831.913	3214
832.051	3127
832.19	3123
832.329	3237
832.467	3085
832.606	3142
832.744	3214
832.883	3161
833.022	3188
833.16	3256
833.299	3298
833.437	3325
833.576	3378
833.714	3374
833.852	3428
833.991	3428
834.129	3485
834.267	3416
834.406	3424
834.544	3424
834.682	3416
834.821	3378
834.959	3584
835.097	3412
835.235	3538
835.373	3469
835.511	3526
835.65	3454
835.788	3466
835.926	3397
836.064	3351
836.202	3397
836.34	3549
836.478	3591
836.615	3557
836.753	3564
836.891	3618
837.029	3591
837.167	3580
837.305	3564
837.443	3557
837.58	3519
837.718	3568
837.856	3564
837.993	3542
838.131	3595
838.269	3610
838.406	3591
838.544	3591
838.681	3481
838.819	3405
838.956	3355
839.094	3374
839.231	3431
839.369	3515
839.506	3713
839.643	3667
839.781	3466
839.918	3485
840.055	3515
840.193	3534
840.33	3511
840.467	3549
840.604	3614
840.742	3827
840.879	3538
841.016	3549
841.153	3595
841.29	3740
841.427	3732
841.564	3717
841.701	3740
841.838	3705
841.975	3679
842.112	3709
842.249	3606
842.385	3671
842.522	3785
842.659	3694
842.796	3637
842.933	3686
843.069	3720
843.206	3709
843.343	3793
843.479	3770
843.616	3854
843.752	3682
843.889	3705
844.025	3857
844.162	3743
844.298	3850
844.435	3804
844.571	3778
844.708	3934
844.844	3975
844.98	4025
845.117	3987
845.253	3907
845.389	3915
845.525	3979
845.661	3964
845.798	3953
845.934	4021
846.07	3945
846.206	4044
846.342	4082
846.478	4078
846.614	3945
846.75	3953
846.886	3922
847.022	4025
847.158	3991
847.294	3968
847.429	3994
847.565	4002
847.701	4242
847.837	3884
847.972	3915
848.108	3987
848.244	3949
848.379	3857
848.515	3804
848.65	3800
848.786	3835
848.921	3857
849.057	3892
849.192	3941
849.328	3892
849.463	3918
849.598	3854
849.734	3827
849.869	3831
850.004	3804
850.14	3774
850.275	3808
850.41	3709
850.545	3751
850.68	3785
850.815	3816
850.95	3774
851.085	3983
851.22	3880
851.355	3869
851.49	3747
851.625	3781
851.76	3774
851.895	3732
852.03	3732
852.165	3785
852.299	3827
852.434	3888
852.569	3835
852.703	3899
852.838	3934
852.973	4048
853.107	3991
853.242	3873
853.376	3804
853.511	3816
853.645	3789
853.78	3998
853.914	3907
854.048	3911
854.183	3899
854.317	3941
854.451	4093
854.585	3911
854.72	3903
854.854	4074
854.988	3911
855.122	4006
855.256	3915
855.39	4013
855.524	4059
855.658	4063
855.792	4067
855.926	4120
856.06	4147
856.194	4227
856.327	4135
856.461	4158
856.595	4162
856.729	4200
856.862	4284
856.996	4234
857.13	4295
857.263	4356
857.397	4352
857.53	4310
857.664	4341
857.797	4379
857.931	4409
858.064	4417
858.197	4424
858.331	4394
858.464	4421
858.597	4379
858.731	4466
858.864	4432
858.997	4474
859.13	4512
859.263	4531
859.396	4615
859.529	4493
859.662	4523
859.795	4569
859.928	4618
860.061	4645
860.194	4740
860.327	4653
860.46	4660
860.592	4736
860.725	4748
860.858	4797
860.99	4717
861.123	4679
861.256	4683
861.388	4748
861.521	5364
861.653	4717
861.786	4698
861.918	4736
862.05	4790
862.183	4820
862.315	4877
862.447	4938
862.58	4835
862.712	4767
862.844	4759
862.976	4889
863.108	4881
863.24	5159
863.372	4805
863.504	4911
863.636	4908
863.768	4927
863.9	4987
864.032	4911
864.164	4976
864.296	5060
864.428	5071
864.559	5098
864.691	5102
864.823	5113
864.954	5094
865.086	5136
865.217	5132
865.349	5136
865.48	5162
865.612	5109
865.743	5296
865.875	5212
866.006	5231
866.137	5265
866.269	5254
866.4	5242
866.531	5242
866.662	5239
866.793	5303
866.924	5269
867.055	5258
867.186	5391
867.317	5334
867.448	5315
867.579	5364
867.71	5395
867.841	5376
867.972	5478
868.103	5452
868.233	5528
868.364	5501
868.495	5535
868.625	5695
868.756	5790
868.886	5703
869.017	5733
869.147	5847
869.278	5805
869.408	5783
869.539	5794
869.669	5942
869.799	5882
869.929	5901
870.06	6038
870.19	6186
870.32	6247
870.45	6262
870.58	6372
870.71	6429
870.84	6422
870.97	6418
871.1	6429
871.23	6612
871.36	6715
871.489	6692
871.619	6738
871.749	6795
871.879	6871
872.008	6966
872.138	6989
872.267	6951
872.397	7000
872.526	6996
872.656	7198
872.785	7202
872.915	7381
873.044	7533
873.173	7616
873.303	7715
873.432	7731
873.561	7811
873.69	7959
873.819	8092
873.948	8149
874.077	8240
874.206	8313
874.335	8469
874.464	8598
874.593	8788
874.722	8845
874.851	9138
874.979	9237
875.108	9306
875.237	9412
875.365	9450
875.494	9561
875.623	9819
875.751	9762
875.88	9960
876.008	10131
876.136	10196
876.265	10508
876.393	10691
876.521	10672
876.65	10782
876.778	10881
876.906	10869
877.034	10949
877.162	11067
877.29	11079
877.418	11159
877.546	11417
877.674	11414
877.802	11444
877.93	11402
878.058	11524
878.185	11524
878.313	11627
878.441	11783
878.568	11718
878.696	11798
878.824	11802
878.951	11866
879.079	11961
879.206	12152
879.333	11942
879.461	11977
879.588	12019
879.715	12178
879.842	12182
879.97	12064
880.097	11866
880.224	11843
880.351	11874
880.478	11885
880.605	11866
880.732	11764
880.859	12072
880.986	11847
881.112	11855
881.239	11786
881.366	11653
881.493	11623
881.619	11516
881.746	11623
881.872	11505
881.999	11577
882.125	11429
882.252	11570
882.378	11516
882.505	11486
882.631	11360
882.757	11292
882.883	11376
883.01	11303
883.136	11265
883.262	11056
883.388	11105
883.514	11220
883.64	11201
883.766	11136
883.892	10995
884.018	10972
884.143	11086
884.269	11079
884.395	10801
884.52	10744
884.646	10774
884.772	10771
884.897	10714
885.023	10702
885.148	10660
885.274	10725
885.399	10717
885.524	10683
885.65	10527
885.775	10546
885.9	10531
886.025	10615
886.15	10569
886.275	10421
886.4	10417
886.525	10382
886.65	10356
886.775	10333
886.9	10451
887.025	10523
887.149	10272
887.274	10215
887.399	10200
887.523	10177
887.648	10211
887.773	10154
887.897	10227
888.021	10169
888.146	10162
888.27	10185
888.395	10249
888.519	10230
888.643	10188
888.767	10185
888.891	10090
889.015	9987
889.139	10051
889.263	10032
889.387	10097
889.511	10063
889.635	10097
889.759	10010
889.883	9918
890.006	9968
890.13	10090
890.254	9960
890.377	9968
890.501	9907
890.624	9899
890.748	9854
890.871	9797
890.995	9770
891.118	9732
891.241	9720
891.364	9740
891.488	9819
891.611	9755
891.734	9675
891.857	9781
891.98	9759
892.103	9766
892.226	9732
892.349	9701
892.471	9523
892.594	9618
892.717	9610
892.839	9614
892.962	9557
893.085	9648
893.207	9534
893.33	9534
893.452	9568
893.575	9618
893.697	9500
893.819	9610
893.941	9591
894.064	9572
894.186	9367
894.308	9408
894.43	9572
894.552	9576
894.674	9538
894.796	9408
894.918	9367
895.04	9389
895.161	9374
895.283	9313
895.405	9241
895.526	9245
895.648	9268
895.769	9245
895.891	9161
896.012	9302
896.134	9233
896.255	9237
896.376	9077
896.498	9089
896.619	9154
896.74	9066
896.861	9058
896.982	9260
897.103	9313
897.224	9169
897.345	8998
897.466	9036
897.587	9017
897.708	9157
897.828	9055
897.949	8956
898.07	8861
898.19	8864
898.311	9005
898.431	8971
898.552	8948
898.672	8975
898.792	8876
898.913	8956
899.033	8807
899.153	8720
899.273	8708
899.393	8720
899.513	8762
899.633	8724
899.753	8716
899.873	8670
899.993	8746
900.113	8720
900.232	8629
900.352	8590
900.472	8606
900.591	8632
900.711	8579
900.83	8571
900.95	8686
901.069	8746
901.189	8533
901.308	8476
901.427	8358
901.546	8415
901.665	8476
901.784	8461
901.904	8423
902.023	8374
902.141	8244
902.26	8180
902.379	8225
902.498	8221
902.617	8210
902.735	8286
902.854	8282
902.973	8256
903.091	8172
903.21	8073
903.328	8134
903.446	8103
903.565	8001
903.683	8157
903.801	8001
903.919	8077
904.038	8119
904.156	8012
904.274	8084
904.392	8039
904.51	8069
904.627	7978
904.745	8069
904.863	8043
904.981	7944
905.098	7841
905.216	7902
905.334	7864
905.451	7921
905.569	7826
905.686	7909
905.803	7894
905.921	7765
906.038	7856
906.155	7769
906.272	7734
906.389	7708
906.506	7658
906.623	7540
906.74	7605
906.857	7567
906.974	7605
907.091	7708
907.208	7792
907.324	7632
907.441	7582
907.557	7464
907.674	7441
907.79	7392
907.907	7411
908.023	7518
908.139	7441
908.256	7350
908.372	7369
908.488	7362
908.604	7278
908.72	7266
908.836	7232
908.952	7247
909.068	7251
909.184	7335
909.3	7251
909.415	7293
909.531	7354
909.647	7110
909.762	7149
909.878	7080
909.993	7198
910.108	7164
910.224	7091
910.339	7053
910.454	6989
910.57	6989
910.685	6920
910.8	7107
910.915	7088
911.03	7061
911.145	6878
911.259	6840
911.374	6894
911.489	6821
911.604	6810
911.718	6700
911.833	6745
911.947	6597
912.062	6578
912.176	6692
912.291	6711
912.405	6741
912.519	6795
912.633	6821
912.748	6734
912.862	6692
912.976	6635
913.09	6578
913.204	6616
913.318	6635
913.431	6654
913.545	6627
913.659	6738
913.772	6669
913.886	6494
914	6559
914.113	6585
914.226	6559
914.34	6559
914.453	6509
914.566	6593
914.68	6547
914.793	6525
914.906	6464
915.019	6353
915.132	6437
915.245	6448
915.358	6429
915.47	6433
915.583	6422
915.696	6471
915.809	6559
915.921	6525
916.034	6403
916.146	6331
916.259	6346
916.371	6525
916.483	6414
916.595	6365
916.708	6407
916.82	6403
916.932	6403
917.044	6338
917.156	6376
917.268	6300
917.38	6369
917.491	6323
917.603	6361
917.715	6395
917.826	6422
917.938	6315
918.049	6266
918.161	6388
918.272	6414
918.384	6445
918.495	6300
918.606	6239
918.717	6232
918.828	6308
918.939	6311
919.05	6232
919.161	6247
919.272	6148
919.383	6140
919.494	6327
919.604	6418
919.715	6296
919.826	6213
919.936	6239
920.047	6319
920.157	6228
920.267	6418
920.378	6346
920.488	6289
920.598	6448
920.708	6490
920.818	6467
920.928	6467
921.038	6578
921.148	6597
921.258	6334
921.368	6296
921.477	6235
921.587	6178
921.697	6079
921.806	6190
921.916	6079
922.025	5893
922.134	5946
922.244	5828
922.353	5996
922.462	5889
922.571	5805
922.68	5714
922.789	5668
922.898	5707
923.007	5642
923.116	5729
923.224	5668
923.333	5608
923.442	5589
923.55	5600
923.659	5589
923.767	5608
923.876	5493
923.984	5638
924.092	5497
924.201	5516
924.309	5573
924.417	5604
924.525	5486
924.633	5528
924.741	6300
924.849	5303
924.956	5478
925.064	5398
925.172	5303
925.279	5258
925.387	5364
925.494	5318
925.602	5345
925.709	5414
925.816	5299
925.924	5341
926.031	5372
926.138	5273
926.245	5360
926.352	5239
926.459	5326
926.566	5299
926.673	5235
926.779	5174
926.886	5140
926.993	5025
927.099	5006
927.206	4991
927.312	4942
927.419	4995
927.525	4980
927.631	5018
927.737	4824
927.843	4854
927.95	4778
928.056	4812
928.162	4801
928.267	4797
928.373	5208
928.479	4805
928.585	4721
928.69	4763
928.796	4752
928.901	4683
929.007	4603
929.112	4702
929.218	4641
929.323	4630
929.428	4580
929.533	4653
929.638	4535
929.743	4512
929.848	4554
929.953	4542
930.058	4436
930.163	4318
930.267	4405
930.372	4424
930.477	4303
930.581	4485
930.685	4348
930.79	4295
930.894	4291
930.998	4249
931.103	4409
931.207	4154
931.311	4055
931.415	4055
931.519	3918
931.623	3930
