Data from glass_V78500241_2591.txt Node
Date: Wed Sep 01 19:32:27 CST 2021
User: usil
Spectrometer: V785-0024
Trigger mode: 0
Integration Time (sec): 4.000000E-1
Scans to average: 1
Nonlinearity correction enabled: false
Boxcar width: 0
Storing dark spectrum: false
XAxis mode: Wavelengths
Number of Pixels in Spectrum: 1024
>>>>>Begin Spectral Data<<<<<
801.071	3698
801.214	3740
801.356	3660
801.499	3740
801.641	3720
801.783	3774
801.926	3842
802.068	3789
802.211	3846
802.353	3899
802.496	3846
802.638	3861
802.78	3918
802.923	3892
803.065	3903
803.208	3861
803.35	3873
803.492	3896
803.635	3915
803.777	3785
803.919	3869
804.061	4093
804.204	3941
804.346	3930
804.488	3888
804.63	4017
804.773	3956
804.915	4010
805.057	4143
805.199	4059
805.341	4048
805.483	4086
805.626	4177
805.768	4086
805.91	4196
806.052	4227
806.194	4135
806.336	4333
806.478	4162
806.62	4188
806.762	4196
806.904	4253
807.046	4352
807.188	4192
807.33	4177
807.472	4238
807.614	4185
807.756	4253
807.898	4169
808.04	4211
808.182	4261
808.324	4303
808.465	4310
808.607	4500
808.749	4478
808.891	4462
809.033	4485
809.174	4394
809.316	4253
809.458	4219
809.6	4082
809.741	4150
809.883	4097
810.025	4173
810.166	4158
810.308	4215
810.45	4204
810.591	4261
810.733	4299
810.875	4512
811.016	4752
811.158	5201
811.299	5246
811.441	5239
811.582	5071
811.724	4744
811.865	4451
812.007	4478
812.148	4402
812.29	4451
812.431	4367
812.573	4356
812.714	4394
812.855	4405
812.997	4360
813.138	4497
813.279	4402
813.421	4375
813.562	4344
813.703	4318
813.845	4356
813.986	4272
814.127	4230
814.268	4280
814.41	4276
814.551	4284
814.692	4390
814.833	4303
814.974	4257
815.115	4306
815.256	4253
815.397	4253
815.539	4276
815.68	4223
815.821	4181
815.962	4318
816.103	4246
816.244	4200
816.385	4177
816.526	4268
816.666	4227
816.807	4120
816.948	4154
817.089	4196
817.23	4128
817.371	4029
817.512	4051
817.653	4074
817.793	3994
817.934	4063
818.075	4105
818.216	4109
818.356	4086
818.497	3960
818.638	3907
818.778	3911
818.919	3918
819.06	3838
819.2	3903
819.341	3838
819.481	3831
819.622	3903
819.762	4086
819.903	3918
820.043	3873
820.184	3789
820.324	3804
820.465	3857
820.605	3888
820.746	3865
820.886	3755
821.026	3880
821.167	3861
821.307	3949
821.447	3987
821.588	3949
821.728	3926
821.868	3922
822.008	3865
822.149	3884
822.289	3907
822.429	3797
822.569	3740
822.709	3789
822.849	3682
822.99	3717
823.13	3713
823.27	3781
823.41	3698
823.55	3705
823.69	3724
823.83	3736
823.97	3686
824.11	3587
824.25	3614
824.389	3648
824.529	3641
824.669	3622
824.809	3698
824.949	3732
825.089	3724
825.228	3656
825.368	3599
825.508	3561
825.648	3606
825.787	3595
825.927	3622
826.067	3603
826.206	3637
826.346	3800
826.485	3785
826.625	3865
826.765	3918
826.904	3869
827.044	3641
827.183	3504
827.323	3447
827.462	3485
827.601	3450
827.741	3458
827.88	3454
828.02	3359
828.159	3454
828.298	3466
828.437	3496
828.577	3454
828.716	3576
828.855	3447
828.994	3332
829.134	3405
829.273	3412
829.412	3344
829.551	3325
829.69	3386
829.829	3389
829.968	3530
830.107	3435
830.246	3431
830.385	3370
830.524	3355
830.663	3275
830.802	3245
830.941	3169
831.08	3203
831.219	3218
831.357	3241
831.496	3412
831.635	3226
831.774	3165
831.913	3230
832.051	3135
832.19	3104
832.329	3207
832.467	3100
832.606	3085
832.744	3169
832.883	3188
833.022	3169
833.16	3272
833.299	3317
833.437	3340
833.576	3336
833.714	3428
833.852	3409
833.991	3401
834.129	3469
834.267	3447
834.406	3344
834.544	3397
834.682	3378
834.821	3374
834.959	3542
835.097	3401
835.235	3530
835.373	3466
835.511	3519
835.65	3416
835.788	3458
835.926	3382
836.064	3393
836.202	3370
836.34	3564
836.478	3568
836.615	3545
836.753	3561
836.891	3599
837.029	3625
837.167	3557
837.305	3542
837.443	3538
837.58	3447
837.718	3614
837.856	3553
837.993	3466
838.131	3606
838.269	3549
838.406	3576
838.544	3545
838.681	3466
838.819	3416
838.956	3340
839.094	3374
839.231	3450
839.369	3507
839.506	3762
839.643	3633
839.781	3488
839.918	3477
840.055	3526
840.193	3504
840.33	3511
840.467	3523
840.604	3614
840.742	3812
840.879	3492
841.016	3568
841.153	3545
841.29	3781
841.427	3705
841.564	3701
841.701	3717
841.838	3690
841.975	3667
842.112	3705
842.249	3622
842.385	3618
842.522	3789
842.659	3675
842.796	3618
842.933	3667
843.069	3717
843.206	3728
843.343	3808
843.479	3732
843.616	3808
843.752	3694
843.889	3694
844.025	3827
844.162	3698
844.298	3857
844.435	3770
844.571	3774
844.708	3896
844.844	4025
844.98	4021
845.117	4006
845.253	3941
845.389	3892
845.525	3994
845.661	3930
845.798	3937
845.934	4025
846.07	3934
846.206	4029
846.342	4086
846.478	4051
846.614	3937
846.75	3915
846.886	3937
847.022	4036
847.158	3945
847.294	3975
847.429	3998
847.565	3983
847.701	4261
847.837	3884
847.972	3869
848.108	3960
848.244	3975
848.379	3850
848.515	3789
848.65	3816
848.786	3819
848.921	3857
849.057	3926
849.192	3941
849.328	3876
849.463	3873
849.598	3888
849.734	3854
849.869	3793
850.004	3770
850.14	3808
850.275	3762
850.41	3709
850.545	3724
850.68	3728
850.815	3804
850.95	3743
851.085	3915
851.22	3819
851.355	3812
851.49	3812
851.625	3781
851.76	3774
851.895	3751
852.03	3736
852.165	3778
852.299	3816
852.434	3911
852.569	3846
852.703	3873
852.838	3911
852.973	3975
853.107	3979
853.242	3915
853.376	3812
853.511	3762
853.645	3827
853.78	3956
853.914	3857
854.048	3899
854.183	3888
854.317	3934
854.451	4032
854.585	3953
854.72	3949
854.854	4090
854.988	3899
855.122	3972
855.256	3930
855.39	4021
855.524	4128
855.658	4090
855.792	4071
855.926	4109
856.06	4154
856.194	4223
856.327	4105
856.461	4116
856.595	4154
856.729	4158
856.862	4246
856.996	4234
857.13	4299
857.263	4291
857.397	4352
857.53	4318
857.664	4299
857.797	4344
857.931	4428
858.064	4371
858.197	4417
858.331	4352
858.464	4363
858.597	4337
858.731	4443
858.864	4470
858.997	4470
859.13	4493
859.263	4504
859.396	4596
859.529	4489
859.662	4474
859.795	4523
859.928	4626
860.061	4733
860.194	4767
860.327	4660
860.46	4626
860.592	4740
860.725	4797
860.858	4774
860.99	4691
861.123	4656
861.256	4702
861.388	4774
861.521	5296
861.653	4664
861.786	4679
861.918	4714
862.05	4862
862.183	4778
862.315	4908
862.447	4908
862.58	4881
862.712	4759
862.844	4744
862.976	4911
863.108	4873
863.24	5128
863.372	4828
863.504	4919
863.636	4889
863.768	4984
863.9	4953
864.032	4946
864.164	4965
864.296	5033
864.428	5071
864.559	5102
864.691	5128
864.823	5124
864.954	5102
865.086	5121
865.217	5079
865.349	5109
865.48	5151
865.612	5189
865.743	5326
865.875	5178
866.006	5185
866.137	5208
866.269	5212
866.4	5208
866.531	5223
866.662	5212
866.793	5303
866.924	5261
867.055	5322
867.186	5299
867.317	5292
867.448	5337
867.579	5345
867.71	5364
867.841	5368
867.972	5467
868.103	5425
868.233	5452
868.364	5459
868.495	5551
868.625	5653
868.756	5790
868.886	5680
869.017	5691
869.147	5847
869.278	5771
869.408	5790
869.539	5840
869.669	5916
869.799	5889
869.929	5939
870.06	5980
870.19	6213
870.32	6136
870.45	6289
870.58	6311
870.71	6388
870.84	6475
870.97	6448
871.1	6445
871.23	6639
871.36	6654
871.489	6582
871.619	6738
871.749	6806
871.879	6909
872.008	7019
872.138	6935
872.267	6966
872.397	7008
872.526	7046
872.656	7099
872.785	7187
872.915	7331
873.044	7552
873.173	7540
873.303	7647
873.432	7746
873.561	7913
873.69	7860
873.819	8005
873.948	8149
874.077	8275
874.206	8286
874.335	8514
874.464	8651
874.593	8815
874.722	8864
874.851	9150
874.979	9249
875.108	9253
875.237	9348
875.365	9469
875.494	9736
875.623	9880
875.751	9842
875.88	10010
876.008	10147
876.136	10268
876.265	10546
876.393	10675
876.521	10691
876.65	10790
876.778	10835
876.906	10946
877.034	10930
877.162	11022
877.29	11201
877.418	11299
877.546	11368
877.674	11452
877.802	11448
877.93	11429
878.058	11573
878.185	11490
878.313	11718
878.441	11695
878.568	11600
878.696	11790
878.824	11805
878.951	11923
879.079	11916
879.206	12148
879.333	11923
879.461	11992
879.588	12098
879.715	12076
879.842	12163
879.97	12019
880.097	11942
880.224	11794
880.351	11847
880.478	11874
880.605	11798
880.732	11786
880.859	11965
880.986	11863
881.112	11802
881.239	11634
881.366	11623
881.493	11672
881.619	11486
881.746	11577
881.872	11630
881.999	11482
882.125	11455
882.252	11509
882.378	11482
882.505	11524
882.631	11326
882.757	11265
882.883	11356
883.01	11277
883.136	11143
883.262	11162
883.388	11147
883.514	11204
883.64	11117
883.766	11094
883.892	10991
884.018	10923
884.143	11105
884.269	11098
884.395	10839
884.52	10687
884.646	10771
884.772	10721
884.897	10759
885.023	10706
885.148	10630
885.274	10824
885.399	10729
885.524	10615
885.65	10596
885.775	10565
885.9	10455
886.025	10592
886.15	10561
886.275	10440
886.4	10341
886.525	10436
886.65	10363
886.775	10356
886.9	10405
887.025	10558
887.149	10299
887.274	10227
887.399	10261
887.523	10135
887.648	10090
887.773	10109
887.897	10257
888.021	10158
888.146	10181
888.27	10246
888.395	10185
888.519	10158
888.643	10200
888.767	10150
888.891	10063
889.015	10029
889.139	9994
889.263	9998
889.387	10105
889.511	10147
889.635	10013
889.759	9945
889.883	9991
890.006	9964
890.13	10131
890.254	9941
890.377	9926
890.501	9766
890.624	9869
890.748	9850
890.871	9800
890.995	9690
891.118	9698
891.241	9812
891.364	9701
891.488	9857
891.611	9720
891.734	9717
891.857	9743
891.98	9709
892.103	9690
892.226	9694
892.349	9675
892.471	9488
892.594	9572
892.717	9671
892.839	9580
892.962	9625
893.085	9690
893.207	9614
893.33	9469
893.452	9553
893.575	9564
893.697	9431
893.819	9679
893.941	9614
894.064	9557
894.186	9416
894.308	9405
894.43	9530
894.552	9477
894.674	9481
894.796	9378
894.918	9416
895.04	9321
895.161	9344
895.283	9313
895.405	9272
895.526	9294
895.648	9313
895.769	9279
895.891	9302
896.012	9275
896.134	9165
896.255	9135
896.376	9089
896.498	9150
896.619	9154
896.74	9108
896.861	9085
896.982	9283
897.103	9283
897.224	9161
897.345	9089
897.466	9043
897.587	9009
897.708	9077
897.828	9001
897.949	8956
898.07	8887
898.19	8933
898.311	9024
898.431	8853
898.552	8921
898.672	8902
898.792	8971
898.913	8895
899.033	8823
899.153	8720
899.273	8735
899.393	8678
899.513	8796
899.633	8697
899.753	8648
899.873	8686
899.993	8705
900.113	8659
900.232	8648
900.352	8636
900.472	8636
900.591	8575
900.711	8621
900.83	8518
900.95	8617
901.069	8663
901.189	8571
901.308	8423
901.427	8351
901.546	8396
901.665	8415
901.784	8484
901.904	8442
902.023	8339
902.141	8206
902.26	8145
902.379	8259
902.498	8237
902.617	8195
902.735	8275
902.854	8221
902.973	8252
903.091	8157
903.21	8107
903.328	8172
903.446	8123
903.565	8050
903.683	8035
903.801	8043
903.919	8062
904.038	8126
904.156	8050
904.274	8050
904.392	8043
904.51	8012
904.627	8054
904.745	8096
904.863	8096
904.981	7909
905.098	7868
905.216	7868
905.334	7917
905.451	7875
905.569	7868
905.686	7913
905.803	7864
905.921	7761
906.038	7887
906.155	7746
906.272	7727
906.389	7647
906.506	7700
906.623	7632
906.74	7563
906.857	7552
906.974	7556
907.091	7632
907.208	7636
907.324	7613
907.441	7563
907.557	7472
907.674	7411
907.79	7346
907.907	7400
908.023	7426
908.139	7419
908.256	7308
908.372	7331
908.488	7324
908.604	7198
908.72	7194
908.836	7263
908.952	7232
909.068	7247
909.184	7274
909.3	7259
909.415	7282
909.531	7247
909.647	7137
909.762	7069
909.878	7091
909.993	7114
910.108	7061
910.224	7042
910.339	7110
910.454	7023
910.57	7000
910.685	6916
910.8	7152
910.915	7046
911.03	6981
911.145	6859
911.259	6894
911.374	6894
911.489	6863
911.604	6753
911.718	6715
911.833	6795
911.947	6642
912.062	6570
912.176	6646
912.291	6734
912.405	6669
912.519	6798
912.633	6859
912.748	6738
912.862	6745
912.976	6593
913.09	6452
913.204	6627
913.318	6540
913.431	6627
913.545	6677
913.659	6673
913.772	6635
913.886	6528
914	6479
914.113	6601
914.226	6604
914.34	6532
914.453	6452
914.566	6585
914.68	6559
914.793	6475
914.906	6372
915.019	6391
915.132	6403
915.245	6422
915.358	6384
915.47	6403
915.583	6391
915.696	6513
915.809	6540
915.921	6536
916.034	6452
916.146	6410
916.259	6407
916.371	6448
916.483	6452
916.595	6376
916.708	6403
916.82	6437
916.932	6357
917.044	6342
917.156	6422
917.268	6308
917.38	6376
917.491	6323
917.603	6323
917.715	6414
917.826	6395
917.938	6285
918.049	6243
918.161	6338
918.272	6426
918.384	6380
918.495	6338
918.606	6220
918.717	6239
918.828	6197
918.939	6323
919.05	6163
919.161	6186
919.272	6129
919.383	6106
919.494	6258
919.604	6429
919.715	6277
919.826	6201
919.936	6270
920.047	6331
920.157	6277
920.267	6376
920.378	6311
920.488	6311
920.598	6464
920.708	6513
920.818	6441
920.928	6456
921.038	6589
921.148	6601
921.258	6319
921.368	6296
921.477	6175
921.587	6213
921.697	6068
921.806	6213
921.916	6072
922.025	5961
922.134	5935
922.244	5821
922.353	5942
922.462	5828
922.571	5828
922.68	5703
922.789	5729
922.898	5752
923.007	5718
923.116	5741
923.224	5623
923.333	5665
923.442	5585
923.55	5577
923.659	5608
923.767	5608
923.876	5562
923.984	5642
924.092	5505
924.201	5505
924.309	5486
924.417	5539
924.525	5467
924.633	5444
924.741	6270
924.849	5364
924.956	5516
925.064	5357
925.172	5292
925.279	5307
925.387	5368
925.494	5318
925.602	5440
925.709	5444
925.816	5273
925.924	5292
926.031	5398
926.138	5277
926.245	5277
926.352	5242
926.459	5330
926.566	5258
926.673	5185
926.779	5147
926.886	5124
926.993	5018
927.099	4984
927.206	4957
927.312	4961
927.419	5010
927.525	4953
927.631	5022
927.737	4885
927.843	4862
927.95	4748
928.056	4790
928.162	4839
928.267	4915
928.373	5246
928.479	4831
928.585	4664
928.69	4752
928.796	4759
928.901	4706
929.007	4615
929.112	4641
929.218	4626
929.323	4592
929.428	4569
929.533	4698
929.638	4523
929.743	4508
929.848	4538
929.953	4489
930.058	4421
930.163	4348
930.267	4303
930.372	4443
930.477	4280
930.581	4481
930.685	4348
930.79	4196
930.894	4303
930.998	4211
931.103	4409
931.207	4112
931.311	4093
931.415	4074
931.519	3915
931.623	3918
