Data from glass_V78500241_2691.txt Node
Date: Wed Sep 01 19:33:09 CST 2021
User: usil
Spectrometer: V785-0024
Trigger mode: 0
Integration Time (sec): 4.000000E-1
Scans to average: 1
Nonlinearity correction enabled: false
Boxcar width: 0
Storing dark spectrum: false
XAxis mode: Wavelengths
Number of Pixels in Spectrum: 1024
>>>>>Begin Spectral Data<<<<<
801.071	3724
801.214	3736
801.356	3660
801.499	3709
801.641	3762
801.783	3740
801.926	3842
802.068	3793
802.211	3800
802.353	3888
802.496	3827
802.638	3876
802.78	3915
802.923	3873
803.065	3888
803.208	3869
803.35	3861
803.492	3934
803.635	3922
803.777	3804
803.919	3896
804.061	4124
804.204	3975
804.346	3945
804.488	3892
804.63	3972
804.773	3941
804.915	3998
805.057	4082
805.199	3994
805.341	4067
805.483	4078
805.626	4135
805.768	4097
805.91	4177
806.052	4238
806.194	4257
806.336	4363
806.478	4215
806.62	4173
806.762	4135
806.904	4272
807.046	4341
807.188	4173
807.33	4173
807.472	4249
807.614	4188
807.756	4249
807.898	4173
808.04	4207
808.182	4249
808.324	4322
808.465	4379
808.607	4455
808.749	4451
808.891	4451
809.033	4470
809.174	4360
809.316	4268
809.458	4253
809.6	4150
809.741	4128
809.883	4128
810.025	4196
810.166	4181
810.308	4177
810.45	4265
810.591	4196
810.733	4268
810.875	4500
811.016	4805
811.158	5098
811.299	5242
811.441	5303
811.582	5018
811.724	4687
811.865	4489
812.007	4455
812.148	4398
812.29	4421
812.431	4394
812.573	4367
812.714	4424
812.855	4432
812.997	4394
813.138	4485
813.279	4402
813.421	4375
813.562	4363
813.703	4318
813.845	4303
813.986	4249
814.127	4196
814.268	4249
814.41	4272
814.551	4284
814.692	4276
814.833	4276
814.974	4337
815.115	4291
815.256	4234
815.397	4200
815.539	4257
815.68	4162
815.821	4215
815.962	4360
816.103	4265
816.244	4223
816.385	4234
816.526	4280
816.666	4188
816.807	4124
816.948	4192
817.089	4181
817.23	4116
817.371	4029
817.512	4013
817.653	4082
817.793	4010
817.934	4006
818.075	4067
818.216	4063
818.356	4078
818.497	3972
818.638	3884
818.778	3911
818.919	3888
819.06	3876
819.2	3884
819.341	3850
819.481	3873
819.622	3911
819.762	3964
819.903	3953
820.043	3838
820.184	3804
820.324	3793
820.465	3911
820.605	3854
820.746	3873
820.886	3781
821.026	3907
821.167	3854
821.307	3956
821.447	3941
821.588	3930
821.728	3926
821.868	3945
822.008	3854
822.149	3899
822.289	3915
822.429	3785
822.569	3747
822.709	3808
822.849	3698
822.99	3690
823.13	3713
823.27	3751
823.41	3717
823.55	3713
823.69	3717
823.83	3701
823.97	3644
824.11	3591
824.25	3587
824.389	3618
824.529	3656
824.669	3652
824.809	3701
824.949	3732
825.089	3732
825.228	3682
825.368	3572
825.508	3534
825.648	3580
825.787	3591
825.927	3591
826.067	3610
826.206	3637
826.346	3804
826.485	3800
826.625	3842
826.765	3960
826.904	3819
827.044	3603
827.183	3504
827.323	3435
827.462	3534
827.601	3431
827.741	3409
827.88	3450
828.02	3332
828.159	3447
828.298	3488
828.437	3500
828.577	3477
828.716	3595
828.855	3462
828.994	3363
829.134	3340
829.273	3416
829.412	3332
829.551	3344
829.69	3393
829.829	3416
829.968	3515
830.107	3447
830.246	3462
830.385	3367
830.524	3348
830.663	3279
830.802	3272
830.941	3218
831.08	3199
831.219	3245
831.357	3230
831.496	3386
831.635	3214
831.774	3230
831.913	3165
832.051	3108
832.19	3146
832.329	3203
832.467	3108
832.606	3089
832.744	3161
832.883	3173
833.022	3188
833.16	3249
833.299	3298
833.437	3325
833.576	3367
833.714	3374
833.852	3401
833.991	3458
834.129	3466
834.267	3454
834.406	3386
834.544	3450
834.682	3424
834.821	3412
834.959	3530
835.097	3405
835.235	3523
835.373	3450
835.511	3515
835.65	3439
835.788	3454
835.926	3435
836.064	3378
836.202	3367
836.34	3534
836.478	3591
836.615	3549
836.753	3542
836.891	3614
837.029	3599
837.167	3549
837.305	3564
837.443	3553
837.58	3462
837.718	3614
837.856	3511
837.993	3530
838.131	3580
838.269	3545
838.406	3584
838.544	3549
838.681	3458
838.819	3416
838.956	3382
839.094	3389
839.231	3435
839.369	3488
839.506	3686
839.643	3603
839.781	3469
839.918	3485
840.055	3496
840.193	3511
840.33	3515
840.467	3542
840.604	3526
840.742	3804
840.879	3542
841.016	3530
841.153	3557
841.29	3728
841.427	3701
841.564	3701
841.701	3713
841.838	3671
841.975	3667
842.112	3675
842.249	3614
842.385	3595
842.522	3842
842.659	3686
842.796	3667
842.933	3690
843.069	3675
843.206	3713
843.343	3793
843.479	3819
843.616	3781
843.752	3663
843.889	3667
844.025	3835
844.162	3675
844.298	3812
844.435	3766
844.571	3774
844.708	3888
844.844	3937
844.98	3956
845.117	4021
845.253	3941
845.389	3880
845.525	3949
845.661	3975
845.798	3896
845.934	3972
846.07	3922
846.206	4040
846.342	4101
846.478	4071
846.614	3991
846.75	3953
846.886	3911
847.022	4029
847.158	3983
847.294	3994
847.429	4032
847.565	3983
847.701	4246
847.837	3865
847.972	3850
848.108	3953
848.244	3956
848.379	3854
848.515	3812
848.65	3838
848.786	3835
848.921	3846
849.057	3922
849.192	3892
849.328	3873
849.463	3911
849.598	3873
849.734	3816
849.869	3823
850.004	3804
850.14	3793
850.275	3755
850.41	3724
850.545	3778
850.68	3770
850.815	3800
850.95	3785
851.085	3934
851.22	3804
851.355	3816
851.49	3797
851.625	3781
851.76	3785
851.895	3747
852.03	3679
852.165	3755
852.299	3835
852.434	3907
852.569	3816
852.703	3816
852.838	3930
852.973	3994
853.107	3968
853.242	3892
853.376	3835
853.511	3743
853.645	3785
853.78	3983
853.914	3892
854.048	3937
854.183	3861
854.317	3953
854.451	4090
854.585	3911
854.72	3907
854.854	4025
854.988	3922
855.122	4013
855.256	3880
855.39	3987
855.524	4090
855.658	4067
855.792	4093
855.926	4097
856.06	4169
856.194	4158
856.327	4086
856.461	4124
856.595	4147
856.729	4147
856.862	4265
856.996	4268
857.13	4291
857.263	4303
857.397	4356
857.53	4284
857.664	4314
857.797	4360
857.931	4436
858.064	4371
858.197	4440
858.331	4390
858.464	4344
858.597	4341
858.731	4375
858.864	4386
858.997	4466
859.13	4504
859.263	4489
859.396	4554
859.529	4527
859.662	4497
859.795	4519
859.928	4558
860.061	4675
860.194	4759
860.327	4637
860.46	4603
860.592	4683
860.725	4717
860.858	4797
860.99	4660
861.123	4672
861.256	4717
861.388	4786
861.521	5315
861.653	4748
861.786	4675
861.918	4748
862.05	4805
862.183	4805
862.315	4839
862.447	4953
862.58	4854
862.712	4782
862.844	4782
862.976	4839
863.108	4885
863.24	5269
863.372	4828
863.504	4885
863.636	4942
863.768	4938
863.9	4946
864.032	4934
864.164	4942
864.296	5060
864.428	5071
864.559	5098
864.691	5086
864.823	5105
864.954	5140
865.086	5143
865.217	5151
865.349	5109
865.48	5147
865.612	5201
865.743	5269
865.875	5132
866.006	5193
866.137	5197
866.269	5220
866.4	5254
866.531	5227
866.662	5223
866.793	5269
866.924	5288
867.055	5353
867.186	5326
867.317	5341
867.448	5261
867.579	5410
867.71	5334
867.841	5383
867.972	5440
868.103	5448
868.233	5493
868.364	5452
868.495	5486
868.625	5722
868.756	5737
868.886	5661
869.017	5707
869.147	5847
869.278	5821
869.408	5847
869.539	5863
869.669	5916
869.799	5946
869.929	5965
870.06	5965
870.19	6167
870.32	6144
870.45	6243
870.58	6361
870.71	6452
870.84	6426
870.97	6376
871.1	6422
871.23	6578
871.36	6722
871.489	6627
871.619	6681
871.749	6806
871.879	6806
872.008	7008
872.138	6897
872.267	6989
872.397	6947
872.526	6970
872.656	7103
872.785	7202
872.915	7369
873.044	7525
873.173	7559
873.303	7677
873.432	7723
873.561	7849
873.69	7849
873.819	8024
873.948	8123
874.077	8244
874.206	8259
874.335	8408
874.464	8678
874.593	8899
874.722	8883
874.851	9142
874.979	9249
875.108	9344
875.237	9481
875.365	9447
875.494	9675
875.623	9774
875.751	9781
875.88	9953
876.008	10131
876.136	10257
876.265	10466
876.393	10721
876.521	10702
876.65	10774
876.778	10854
876.906	10915
877.034	10923
877.162	11029
877.29	11189
877.418	11337
877.546	11376
877.674	11448
877.802	11421
877.93	11570
878.058	11524
878.185	11566
878.313	11619
878.441	11878
878.568	11695
878.696	11798
878.824	11874
878.951	11893
879.079	11984
879.206	12205
879.333	12019
879.461	11912
879.588	12007
879.715	12011
879.842	12171
879.97	12057
880.097	11760
880.224	11904
880.351	11866
880.478	11942
880.605	11901
880.732	11790
880.859	11977
880.986	11893
881.112	11821
881.239	11649
881.366	11714
881.493	11634
881.619	11524
881.746	11566
881.872	11497
881.999	11570
882.125	11490
882.252	11573
882.378	11493
882.505	11478
882.631	11341
882.757	11292
882.883	11334
883.01	11212
883.136	11166
883.262	11075
883.388	11102
883.514	11174
883.64	11197
883.766	11056
883.892	11018
884.018	10965
884.143	10961
884.269	11048
884.395	10892
884.52	10752
884.646	10797
884.772	10744
884.897	10687
885.023	10672
885.148	10721
885.274	10824
885.399	10611
885.524	10531
885.65	10694
885.775	10596
885.9	10497
886.025	10538
886.15	10489
886.275	10500
886.4	10352
886.525	10432
886.65	10360
886.775	10341
886.9	10535
887.025	10504
887.149	10310
887.274	10150
887.399	10238
887.523	10173
887.648	10105
887.773	10128
887.897	10284
888.021	10246
888.146	10120
888.27	10177
888.395	10181
888.519	10097
888.643	10169
888.767	10188
888.891	10029
889.015	9991
889.139	10055
889.263	9926
889.387	9994
889.511	10109
889.635	10093
889.759	9964
889.883	9987
890.006	10055
890.13	10124
890.254	9930
890.377	9911
890.501	9785
890.624	9835
890.748	9800
890.871	9751
890.995	9690
891.118	9682
891.241	9793
891.364	9717
891.488	9831
891.611	9720
891.734	9747
891.857	9778
891.98	9705
892.103	9785
892.226	9698
892.349	9705
892.471	9481
892.594	9568
892.717	9584
892.839	9663
892.962	9595
893.085	9641
893.207	9568
893.33	9530
893.452	9526
893.575	9682
893.697	9496
893.819	9625
893.941	9610
894.064	9523
894.186	9431
894.308	9443
894.43	9507
894.552	9564
894.674	9485
894.796	9424
894.918	9374
895.04	9298
895.161	9412
895.283	9298
895.405	9249
895.526	9298
895.648	9253
895.769	9253
895.891	9264
896.012	9256
896.134	9165
896.255	9161
896.376	9157
896.498	9135
896.619	9097
896.74	9043
896.861	9100
896.982	9230
897.103	9260
897.224	9176
897.345	9112
897.466	9013
897.587	8982
897.708	9062
897.828	9024
897.949	8937
898.07	8777
898.19	8811
898.311	9028
898.431	8902
898.552	8887
898.672	8956
898.792	8906
898.913	8902
899.033	8746
899.153	8769
899.273	8613
899.393	8750
899.513	8670
899.633	8693
899.753	8716
899.873	8682
899.993	8678
900.113	8655
900.232	8644
900.352	8587
900.472	8594
900.591	8552
900.711	8518
900.83	8507
900.95	8735
901.069	8693
901.189	8511
901.308	8389
901.427	8336
901.546	8385
901.665	8423
901.784	8499
901.904	8351
902.023	8328
902.141	8180
902.26	8103
902.379	8298
902.498	8199
902.617	8271
902.735	8279
902.854	8199
902.973	8298
903.091	8062
903.21	8054
903.328	8123
903.446	8092
903.565	8050
903.683	8081
903.801	8035
903.919	8088
904.038	8161
904.156	8008
904.274	8123
904.392	8027
904.51	7997
904.627	7970
904.745	8088
904.863	8073
904.981	7932
905.098	7856
905.216	7890
905.334	7830
905.451	7913
905.569	7883
905.686	7921
905.803	7902
905.921	7795
906.038	7909
906.155	7750
906.272	7666
906.389	7712
906.506	7609
906.623	7639
906.74	7616
906.857	7434
906.974	7597
907.091	7624
907.208	7715
907.324	7616
907.441	7502
907.557	7506
907.674	7388
907.79	7388
907.907	7346
908.023	7388
908.139	7426
908.256	7293
908.372	7358
908.488	7354
908.604	7278
908.72	7179
908.836	7274
908.952	7217
909.068	7247
909.184	7274
909.3	7244
909.415	7209
909.531	7320
909.647	7076
909.762	7046
909.878	7110
909.993	7152
910.108	7065
910.224	7065
910.339	7122
910.454	6989
910.57	7000
910.685	6939
910.8	7175
910.915	7122
911.03	7023
911.145	6913
911.259	6844
911.374	6913
911.489	6875
911.604	6802
911.718	6707
911.833	6677
911.947	6585
912.062	6601
912.176	6692
912.291	6760
912.405	6669
912.519	6772
912.633	6821
912.748	6730
912.862	6688
912.976	6528
913.09	6517
913.204	6570
913.318	6601
913.431	6662
913.545	6692
913.659	6730
913.772	6582
913.886	6559
914	6563
914.113	6597
914.226	6635
914.34	6612
914.453	6479
914.566	6601
914.68	6547
914.793	6506
914.906	6369
915.019	6388
915.132	6346
915.245	6410
915.358	6429
915.47	6372
915.583	6437
915.696	6414
915.809	6544
915.921	6544
916.034	6376
916.146	6479
916.259	6388
916.371	6471
916.483	6391
916.595	6429
916.708	6399
916.82	6388
916.932	6410
917.044	6407
917.156	6422
917.268	6323
917.38	6342
917.491	6311
917.603	6319
917.715	6429
917.826	6338
917.938	6292
918.049	6270
918.161	6289
918.272	6346
918.384	6429
918.495	6296
918.606	6235
918.717	6190
918.828	6235
918.939	6254
919.05	6251
919.161	6228
919.272	6091
919.383	6148
919.494	6296
919.604	6391
919.715	6311
919.826	6213
919.936	6235
920.047	6273
920.157	6311
920.267	6426
920.378	6281
920.488	6266
920.598	6414
920.708	6536
920.818	6433
920.928	6483
921.038	6570
921.148	6585
921.258	6300
921.368	6315
921.477	6182
921.587	6091
921.697	6068
921.806	6155
921.916	6057
922.025	5950
922.134	5954
922.244	5840
922.353	5939
922.462	5859
922.571	5798
922.68	5688
922.789	5733
922.898	5710
923.007	5615
923.116	5745
923.224	5661
923.333	5615
923.442	5600
923.55	5592
923.659	5585
923.767	5611
923.876	5543
923.984	5562
924.092	5455
924.201	5562
924.309	5551
924.417	5509
924.525	5402
924.633	5497
924.741	6289
924.849	5311
924.956	5493
925.064	5284
925.172	5277
925.279	5280
925.387	5318
925.494	5318
925.602	5383
925.709	5341
925.816	5223
925.924	5326
926.031	5341
926.138	5357
926.245	5341
926.352	5235
926.459	5284
926.566	5372
926.673	5212
926.779	5136
926.886	5090
926.993	5003
927.099	5022
927.206	4965
927.312	4934
927.419	4976
927.525	5014
927.631	4934
927.737	4908
927.843	4866
927.95	4725
928.056	4786
928.162	4809
928.267	4854
928.373	5227
928.479	4858
928.585	4580
928.69	4767
928.796	4752
928.901	4687
929.007	4580
929.112	4653
929.218	4615
929.323	4615
929.428	4531
929.533	4630
929.638	4459
929.743	4519
929.848	4527
929.953	4493
930.058	4466
930.163	4299
930.267	4337
930.372	4440
930.477	4280
930.581	4417
930.685	4383
930.79	4230
930.894	4246
930.998	4249
931.103	4371
931.207	4128
931.311	4078
931.415	4036
931.519	3922
931.623	3934
