Data from glass_V78500241_189.txt Node
Date: Wed Sep 01 19:15:48 CST 2021
User: usil
Spectrometer: V785-0024
Trigger mode: 0
Integration Time (sec): 4.000000E-1
Scans to average: 1
Nonlinearity correction enabled: false
Boxcar width: 0
Storing dark spectrum: false
XAxis mode: Wavelengths
Number of Pixels in Spectrum: 1024
>>>>>Begin Spectral Data<<<<<
801.071	3713
801.214	3747
801.356	3740
801.499	3751
801.641	3736
801.783	3800
801.926	3892
802.068	3800
802.211	3835
802.353	3888
802.496	3831
802.638	3960
802.78	3918
802.923	3964
803.065	3911
803.208	3854
803.35	3896
803.492	3930
803.635	3915
803.777	3831
803.919	3915
804.061	4166
804.204	4029
804.346	3941
804.488	3934
804.63	3998
804.773	3987
804.915	4006
805.057	4162
805.199	4086
805.341	4116
805.483	4139
805.626	4173
805.768	4109
805.91	4211
806.052	4257
806.194	4166
806.336	4409
806.478	4246
806.62	4215
806.762	4188
806.904	4280
807.046	4371
807.188	4238
807.33	4177
807.472	4280
807.614	4207
807.756	4337
807.898	4219
808.04	4246
808.182	4333
808.324	4337
808.465	4375
808.607	4447
808.749	4440
808.891	4489
809.033	4550
809.174	4421
809.316	4287
809.458	4253
809.6	4204
809.741	4120
809.883	4135
810.025	4207
810.166	4230
810.308	4238
810.45	4284
810.591	4230
810.733	4287
810.875	4481
811.016	4850
811.158	5159
811.299	5284
811.441	5280
811.582	5071
811.724	4714
811.865	4470
812.007	4485
812.148	4474
812.29	4421
812.431	4413
812.573	4440
812.714	4383
812.855	4421
812.997	4459
813.138	4508
813.279	4474
813.421	4394
813.562	4360
813.703	4325
813.845	4394
813.986	4227
814.127	4253
814.268	4272
814.41	4337
814.551	4295
814.692	4344
814.833	4306
814.974	4284
815.115	4333
815.256	4299
815.397	4253
815.539	4280
815.68	4223
815.821	4215
815.962	4333
816.103	4234
816.244	4291
816.385	4246
816.526	4295
816.666	4223
816.807	4105
816.948	4188
817.089	4154
817.23	4139
817.371	4128
817.512	4048
817.653	4090
817.793	4036
817.934	4044
818.075	4097
818.216	4101
818.356	4128
818.497	3987
818.638	3922
818.778	3941
818.919	3892
819.06	3880
819.2	3956
819.341	3888
819.481	3838
819.622	3956
819.762	4048
819.903	3956
820.043	3854
820.184	3880
820.324	3846
820.465	3876
820.605	3896
820.746	3888
820.886	3797
821.026	3979
821.167	3922
821.307	3964
821.447	4013
821.588	3983
821.728	3949
821.868	3892
822.008	3869
822.149	3937
822.289	3937
822.429	3770
822.569	3781
822.709	3846
822.849	3682
822.99	3701
823.13	3762
823.27	3766
823.41	3701
823.55	3774
823.69	3770
823.83	3755
823.97	3690
824.11	3625
824.25	3572
824.389	3633
824.529	3663
824.669	3629
824.809	3701
824.949	3751
825.089	3747
825.228	3679
825.368	3591
825.508	3561
825.648	3584
825.787	3603
825.927	3660
826.067	3625
826.206	3717
826.346	3804
826.485	3854
826.625	3888
826.765	3945
826.904	3861
827.044	3629
827.183	3526
827.323	3469
827.462	3515
827.601	3389
827.741	3469
827.88	3462
828.02	3412
828.159	3481
828.298	3530
828.437	3561
828.577	3492
828.716	3576
828.855	3504
828.994	3397
829.134	3363
829.273	3424
829.412	3351
829.551	3329
829.69	3393
829.829	3466
829.968	3545
830.107	3466
830.246	3454
830.385	3428
830.524	3351
830.663	3317
830.802	3283
830.941	3222
831.08	3211
831.219	3272
831.357	3310
831.496	3420
831.635	3253
831.774	3207
831.913	3192
832.051	3161
832.19	3135
832.329	3245
832.467	3127
832.606	3169
832.744	3165
832.883	3245
833.022	3195
833.16	3253
833.299	3321
833.437	3363
833.576	3405
833.714	3420
833.852	3454
833.991	3435
834.129	3507
834.267	3443
834.406	3450
834.544	3443
834.682	3443
834.821	3405
834.959	3599
835.097	3443
835.235	3542
835.373	3534
835.511	3526
835.65	3485
835.788	3469
835.926	3393
836.064	3428
836.202	3435
836.34	3553
836.478	3625
836.615	3519
836.753	3610
836.891	3663
837.029	3591
837.167	3580
837.305	3557
837.443	3538
837.58	3519
837.718	3637
837.856	3576
837.993	3572
838.131	3610
838.269	3595
838.406	3606
838.544	3576
838.681	3504
838.819	3458
838.956	3397
839.094	3428
839.231	3450
839.369	3492
839.506	3766
839.643	3671
839.781	3481
839.918	3454
840.055	3534
840.193	3538
840.33	3488
840.467	3557
840.604	3625
840.742	3781
840.879	3595
841.016	3557
841.153	3633
841.29	3781
841.427	3720
841.564	3736
841.701	3740
841.838	3694
841.975	3686
842.112	3766
842.249	3648
842.385	3637
842.522	3823
842.659	3675
842.796	3675
842.933	3732
843.069	3717
843.206	3732
843.343	3804
843.479	3789
843.616	3823
843.752	3686
843.889	3709
844.025	3876
844.162	3717
844.298	3888
844.435	3785
844.571	3770
844.708	3926
844.844	3994
844.98	4071
845.117	4036
845.253	3956
845.389	3888
845.525	3972
845.661	3983
845.798	3903
845.934	3998
846.07	4017
846.206	4067
846.342	4150
846.478	4048
846.614	3994
846.75	3918
846.886	3907
847.022	4044
847.158	3964
847.294	4036
847.429	4044
847.565	3983
847.701	4207
847.837	3892
847.972	3911
848.108	4006
848.244	3991
848.379	3857
848.515	3816
848.65	3857
848.786	3911
848.921	3865
849.057	3911
849.192	3968
849.328	3884
849.463	3926
849.598	3926
849.734	3861
849.869	3861
850.004	3793
850.14	3865
850.275	3785
850.41	3751
850.545	3736
850.68	3797
850.815	3816
850.95	3770
851.085	3960
851.22	3880
851.355	3869
851.49	3804
851.625	3816
851.76	3816
851.895	3743
852.03	3774
852.165	3850
852.299	3819
852.434	3911
852.569	3930
852.703	3892
852.838	3937
852.973	4006
853.107	3994
853.242	3896
853.376	3888
853.511	3785
853.645	3846
853.78	3994
853.914	3949
854.048	3926
854.183	3892
854.317	3960
854.451	4116
854.585	3949
854.72	3983
854.854	4021
854.988	3922
855.122	3987
855.256	3949
855.39	4032
855.524	4105
855.658	4139
855.792	4105
855.926	4139
856.06	4150
856.194	4207
856.327	4139
856.461	4139
856.595	4181
856.729	4196
856.862	4333
856.996	4276
857.13	4287
857.263	4379
857.397	4383
857.53	4306
857.664	4386
857.797	4398
857.931	4481
858.064	4375
858.197	4451
858.331	4417
858.464	4451
858.597	4402
858.731	4428
858.864	4459
858.997	4481
859.13	4493
859.263	4584
859.396	4668
859.529	4508
859.662	4577
859.795	4550
859.928	4607
860.061	4752
860.194	4721
860.327	4664
860.46	4683
860.592	4698
860.725	4740
860.858	4816
860.99	4714
861.123	4672
861.256	4717
861.388	4790
861.521	5383
861.653	4771
861.786	4698
861.918	4752
862.05	4759
862.183	4835
862.315	4900
862.447	4949
862.58	4938
862.712	4839
862.844	4793
862.976	4885
863.108	4900
863.24	5292
863.372	4881
863.504	4885
863.636	4930
863.768	5041
863.9	4968
864.032	4972
864.164	4919
864.296	5071
864.428	5094
864.559	5094
864.691	5121
864.823	5151
864.954	5124
865.086	5204
865.217	5136
865.349	5128
865.48	5216
865.612	5231
865.743	5326
865.875	5181
866.006	5185
866.137	5265
866.269	5284
866.4	5235
866.531	5242
866.662	5254
866.793	5307
866.924	5299
867.055	5376
867.186	5364
867.317	5391
867.448	5353
867.579	5402
867.71	5425
867.841	5414
867.972	5429
868.103	5467
868.233	5471
868.364	5570
868.495	5570
868.625	5676
868.756	5798
868.886	5661
869.017	5733
869.147	5859
869.278	5897
869.408	5824
869.539	5832
869.669	5946
869.799	5927
869.929	6034
870.06	5977
870.19	6220
870.32	6213
870.45	6281
870.58	6353
870.71	6391
870.84	6407
870.97	6464
871.1	6437
871.23	6673
871.36	6700
871.489	6635
871.619	6818
871.749	6840
871.879	6878
872.008	6993
872.138	6970
872.267	7012
872.397	7038
872.526	7076
872.656	7110
872.785	7251
872.915	7381
873.044	7559
873.173	7499
873.303	7696
873.432	7814
873.561	7917
873.69	7849
873.819	7989
873.948	8157
874.077	8202
874.206	8366
874.335	8549
874.464	8670
874.593	8906
874.722	8941
874.851	9165
874.979	9176
875.108	9412
875.237	9348
875.365	9485
875.494	9610
875.623	9854
875.751	9781
875.88	10048
876.008	10196
876.136	10333
876.265	10565
876.393	10698
876.521	10740
876.65	10847
876.778	10927
876.906	10911
877.034	11052
877.162	11193
877.29	11132
877.418	11292
877.546	11337
877.674	11463
877.802	11490
877.93	11608
878.058	11539
878.185	11604
878.313	11665
878.441	11859
878.568	11695
878.696	11786
878.824	11920
878.951	11958
879.079	12057
879.206	12175
879.333	12019
879.461	12060
879.588	12190
879.715	12049
879.842	12194
879.97	12045
880.097	11870
880.224	11866
880.351	11836
880.478	11874
880.605	11874
880.732	11832
880.859	12015
880.986	11805
881.112	11802
881.239	11729
881.366	11627
881.493	11638
881.619	11585
881.746	11566
881.872	11516
881.999	11467
882.125	11474
882.252	11547
882.378	11493
882.505	11524
882.631	11501
882.757	11242
882.883	11414
883.01	11288
883.136	11162
883.262	11193
883.388	11113
883.514	11239
883.64	11201
883.766	11033
883.892	11048
884.018	10987
884.143	11037
884.269	11124
884.395	10812
884.52	10797
884.646	10744
884.772	10733
884.897	10637
885.023	10740
885.148	10626
885.274	10725
885.399	10736
885.524	10672
885.65	10607
885.775	10592
885.9	10580
886.025	10645
886.15	10558
886.275	10455
886.4	10394
886.525	10379
886.65	10432
886.775	10352
886.9	10550
887.025	10535
887.149	10322
887.274	10261
887.399	10280
887.523	10249
887.648	10128
887.773	10128
887.897	10211
888.021	10204
888.146	10101
888.27	10276
888.395	10276
888.519	10105
888.643	10276
888.767	10188
888.891	10082
889.015	10032
889.139	10010
889.263	9983
889.387	10086
889.511	10105
889.635	10097
889.759	9937
889.883	10006
890.006	9960
890.13	10097
890.254	9968
890.377	10006
890.501	9835
890.624	9888
890.748	9911
890.871	9759
890.995	9793
891.118	9778
891.241	9800
891.364	9751
891.488	9793
891.611	9747
891.734	9633
891.857	9823
891.98	9755
892.103	9766
892.226	9743
892.349	9728
892.471	9488
892.594	9545
892.717	9671
892.839	9576
892.962	9526
893.085	9652
893.207	9576
893.33	9462
893.452	9576
893.575	9637
893.697	9542
893.819	9606
893.941	9637
894.064	9576
894.186	9397
894.308	9424
894.43	9515
894.552	9580
894.674	9526
894.796	9336
894.918	9412
895.04	9408
895.161	9363
895.283	9351
895.405	9199
895.526	9230
895.648	9272
895.769	9291
895.891	9249
896.012	9291
896.134	9207
896.255	9195
896.376	9138
896.498	9161
896.619	9116
896.74	9055
896.861	9188
896.982	9298
897.103	9302
897.224	9119
897.345	9104
897.466	9039
897.587	9119
897.708	9161
897.828	9077
897.949	8975
898.07	8872
898.19	8914
898.311	8952
898.431	8891
898.552	8956
898.672	9028
898.792	8895
898.913	8952
899.033	8777
899.153	8705
899.273	8746
899.393	8697
899.513	8769
899.633	8712
899.753	8735
899.873	8766
899.993	8739
900.113	8636
900.232	8689
900.352	8724
900.472	8625
900.591	8571
900.711	8575
900.83	8564
900.95	8678
901.069	8708
901.189	8617
901.308	8465
901.427	8339
901.546	8450
901.665	8560
901.784	8507
901.904	8385
902.023	8400
902.141	8172
902.26	8279
902.379	8263
902.498	8263
902.617	8286
902.735	8377
902.854	8393
902.973	8237
903.091	8214
903.21	8172
903.328	8164
903.446	8103
903.565	8123
903.683	8107
903.801	8027
903.919	8187
904.038	8126
904.156	8031
904.274	8126
904.392	8016
904.51	7932
904.627	8096
904.745	8031
904.863	8134
904.981	7963
905.098	7921
905.216	7879
905.334	7951
905.451	7936
905.569	7845
905.686	7913
905.803	7940
905.921	7807
906.038	7925
906.155	7784
906.272	7757
906.389	7715
906.506	7651
906.623	7696
906.74	7628
906.857	7552
906.974	7586
907.091	7761
907.208	7708
907.324	7601
907.441	7643
907.557	7468
907.674	7460
907.79	7422
907.907	7476
908.023	7445
908.139	7411
908.256	7403
908.372	7407
908.488	7384
908.604	7247
908.72	7346
908.836	7316
908.952	7285
909.068	7270
909.184	7365
909.3	7236
909.415	7282
909.531	7259
909.647	7160
909.762	7099
909.878	7088
909.993	7122
910.108	7129
910.224	7061
910.339	7118
910.454	7110
910.57	7027
910.685	6981
910.8	7232
910.915	7072
911.03	7050
911.145	6890
911.259	6856
911.374	6875
911.489	6890
911.604	6764
911.718	6711
911.833	6741
911.947	6665
912.062	6608
912.176	6642
912.291	6715
912.405	6730
912.519	6806
912.633	6859
912.748	6795
912.862	6734
912.976	6650
913.09	6544
913.204	6601
913.318	6654
913.431	6707
913.545	6730
913.659	6757
913.772	6673
913.886	6589
914	6551
914.113	6631
914.226	6627
914.34	6604
914.453	6540
914.566	6642
914.68	6536
914.793	6612
914.906	6517
915.019	6418
915.132	6369
915.245	6437
915.358	6414
915.47	6422
915.583	6471
915.696	6464
915.809	6582
915.921	6570
916.034	6437
916.146	6418
916.259	6464
916.371	6525
916.483	6418
916.595	6384
916.708	6483
916.82	6460
916.932	6365
917.044	6410
917.156	6399
917.268	6334
917.38	6311
917.491	6331
917.603	6346
917.715	6433
917.826	6384
917.938	6308
918.049	6296
918.161	6380
918.272	6426
918.384	6502
918.495	6395
918.606	6239
918.717	6254
918.828	6285
918.939	6266
919.05	6243
919.161	6277
919.272	6152
919.383	6175
919.494	6353
919.604	6445
919.715	6289
919.826	6232
919.936	6323
920.047	6369
920.157	6346
920.267	6467
920.378	6281
920.488	6289
920.598	6483
920.708	6563
920.818	6467
920.928	6536
921.038	6627
921.148	6593
921.258	6410
921.368	6357
921.477	6262
921.587	6171
921.697	6045
921.806	6194
921.916	6083
922.025	5946
922.134	5916
922.244	5863
922.353	5973
922.462	5878
922.571	5760
922.68	5733
922.789	5676
922.898	5726
923.007	5646
923.116	5691
923.224	5627
923.333	5691
923.442	5600
923.55	5611
923.659	5672
923.767	5638
923.876	5497
923.984	5661
924.092	5547
924.201	5566
924.309	5554
924.417	5577
924.525	5532
924.633	5501
924.741	6133
924.849	5368
924.956	5524
925.064	5402
925.172	5337
925.279	5315
925.387	5353
925.494	5345
925.602	5463
925.709	5402
925.816	5322
925.924	5337
926.031	5436
926.138	5315
926.245	5307
926.352	5239
926.459	5379
926.566	5360
926.673	5242
926.779	5121
926.886	5143
926.993	5098
927.099	5003
927.206	5083
927.312	4968
927.419	5014
927.525	4953
927.631	5029
927.737	4889
927.843	4881
927.95	4797
928.056	4816
928.162	4835
928.267	4831
928.373	5258
928.479	4881
928.585	4702
928.69	4782
928.796	4854
928.901	4752
929.007	4618
929.112	4698
929.218	4653
929.323	4641
929.428	4592
929.533	4668
929.638	4489
929.743	4523
929.848	4603
929.953	4561
930.058	4436
930.163	4344
930.267	4337
930.372	4432
930.477	4333
930.581	4489
930.685	4367
930.79	4253
930.894	4287
930.998	4280
931.103	4402
931.207	4109
931.311	4105
931.415	4078
931.519	3945
931.623	3934
