Data from glass_V78500241_1375.txt Node
Date: Wed Sep 01 19:24:01 CST 2021
User: usil
Spectrometer: V785-0024
Trigger mode: 0
Integration Time (sec): 4.000000E-1
Scans to average: 1
Nonlinearity correction enabled: false
Boxcar width: 0
Storing dark spectrum: false
XAxis mode: Wavelengths
Number of Pixels in Spectrum: 1024
>>>>>Begin Spectral Data<<<<<
801.071	3766
801.214	3747
801.356	3724
801.499	3755
801.641	3709
801.783	3797
801.926	3880
802.068	3854
802.211	3857
802.353	3884
802.496	3842
802.638	3880
802.78	3956
802.923	3937
803.065	3884
803.208	3850
803.35	3842
803.492	3953
803.635	3903
803.777	3819
803.919	3911
804.061	4139
804.204	3968
804.346	3975
804.488	3896
804.63	4025
804.773	3998
804.915	4036
805.057	4150
805.199	4021
805.341	4086
805.483	4143
805.626	4101
805.768	4139
805.91	4265
806.052	4207
806.194	4242
806.336	4360
806.478	4215
806.62	4158
806.762	4207
806.904	4242
807.046	4333
807.188	4238
807.33	4158
807.472	4215
807.614	4196
807.756	4291
807.898	4219
808.04	4200
808.182	4310
808.324	4322
808.465	4371
808.607	4485
808.749	4474
808.891	4489
809.033	4466
809.174	4436
809.316	4257
809.458	4249
809.6	4177
809.741	4169
809.883	4169
810.025	4192
810.166	4238
810.308	4242
810.45	4215
810.591	4227
810.733	4314
810.875	4519
811.016	4839
811.158	5162
811.299	5254
811.441	5322
811.582	5033
811.724	4675
811.865	4451
812.007	4451
812.148	4421
812.29	4428
812.431	4440
812.573	4356
812.714	4322
812.855	4398
812.997	4402
813.138	4478
813.279	4413
813.421	4405
813.562	4363
813.703	4348
813.845	4325
813.986	4257
814.127	4211
814.268	4291
814.41	4299
814.551	4299
814.692	4329
814.833	4242
814.974	4333
815.115	4333
815.256	4261
815.397	4287
815.539	4291
815.68	4192
815.821	4223
815.962	4303
816.103	4329
816.244	4280
816.385	4230
816.526	4253
816.666	4223
816.807	4093
816.948	4150
817.089	4185
817.23	4116
817.371	4032
817.512	4032
817.653	4093
817.793	4044
817.934	4002
818.075	4090
818.216	4078
818.356	4090
818.497	3994
818.638	3869
818.778	3869
818.919	3892
819.06	3896
819.2	3945
819.341	3873
819.481	3835
819.622	3873
819.762	4017
819.903	3960
820.043	3888
820.184	3823
820.324	3819
820.465	3903
820.605	3892
820.746	3857
820.886	3762
821.026	3945
821.167	3907
821.307	3979
821.447	4002
821.588	3926
821.728	3915
821.868	3953
822.008	3861
822.149	3899
822.289	3911
822.429	3804
822.569	3778
822.709	3804
822.849	3694
822.99	3698
823.13	3755
823.27	3793
823.41	3709
823.55	3785
823.69	3732
823.83	3720
823.97	3667
824.11	3591
824.25	3618
824.389	3637
824.529	3652
824.669	3671
824.809	3736
824.949	3740
825.089	3728
825.228	3686
825.368	3595
825.508	3545
825.648	3610
825.787	3618
825.927	3679
826.067	3648
826.206	3686
826.346	3793
826.485	3854
826.625	3888
826.765	3953
826.904	3804
827.044	3629
827.183	3530
827.323	3405
827.462	3507
827.601	3416
827.741	3424
827.88	3492
828.02	3409
828.159	3454
828.298	3462
828.437	3523
828.577	3450
828.716	3610
828.855	3481
828.994	3405
829.134	3332
829.273	3401
829.412	3386
829.551	3355
829.69	3370
829.829	3439
829.968	3538
830.107	3473
830.246	3393
830.385	3363
830.524	3363
830.663	3298
830.802	3214
830.941	3214
831.08	3241
831.219	3264
831.357	3287
831.496	3405
831.635	3230
831.774	3180
831.913	3180
832.051	3089
832.19	3169
832.329	3199
832.467	3127
832.606	3108
832.744	3146
832.883	3199
833.022	3180
833.16	3268
833.299	3344
833.437	3351
833.576	3389
833.714	3439
833.852	3412
833.991	3447
834.129	3454
834.267	3469
834.406	3405
834.544	3431
834.682	3450
834.821	3435
834.959	3564
835.097	3435
835.235	3568
835.373	3507
835.511	3492
835.65	3485
835.788	3481
835.926	3367
836.064	3382
836.202	3454
836.34	3580
836.478	3580
836.615	3557
836.753	3614
836.891	3637
837.029	3629
837.167	3549
837.305	3610
837.443	3549
837.58	3492
837.718	3614
837.856	3568
837.993	3553
838.131	3587
838.269	3584
838.406	3603
838.544	3545
838.681	3454
838.819	3462
838.956	3359
839.094	3397
839.231	3443
839.369	3511
839.506	3682
839.643	3625
839.781	3500
839.918	3523
840.055	3488
840.193	3568
840.33	3530
840.467	3587
840.604	3610
840.742	3842
840.879	3553
841.016	3561
841.153	3614
841.29	3774
841.427	3679
841.564	3717
841.701	3759
841.838	3709
841.975	3656
842.112	3720
842.249	3648
842.385	3618
842.522	3827
842.659	3724
842.796	3694
842.933	3740
843.069	3717
843.206	3728
843.343	3819
843.479	3812
843.616	3800
843.752	3679
843.889	3667
844.025	3808
844.162	3751
844.298	3861
844.435	3762
844.571	3751
844.708	3911
844.844	3975
844.98	4013
845.117	4029
845.253	3930
845.389	3915
845.525	3983
845.661	3979
845.798	3945
845.934	3975
846.07	3956
846.206	4109
846.342	4131
846.478	4078
846.614	4002
846.75	3941
846.886	3945
847.022	4063
847.158	3994
847.294	3987
847.429	4082
847.565	3979
847.701	4234
847.837	3911
847.972	3854
848.108	4013
848.244	3991
848.379	3911
848.515	3835
848.65	3823
848.786	3831
848.921	3857
849.057	3926
849.192	4002
849.328	3884
849.463	3903
849.598	3869
849.734	3854
849.869	3827
850.004	3778
850.14	3850
850.275	3800
850.41	3762
850.545	3781
850.68	3774
850.815	3781
850.95	3793
851.085	3918
851.22	3865
851.355	3846
851.49	3774
851.625	3800
851.76	3827
851.895	3755
852.03	3766
852.165	3793
852.299	3838
852.434	3949
852.569	3892
852.703	3903
852.838	3930
852.973	3960
853.107	3998
853.242	3888
853.376	3896
853.511	3800
853.645	3846
853.78	3964
853.914	3888
854.048	3915
854.183	3888
854.317	3930
854.451	4025
854.585	3968
854.72	3922
854.854	4078
854.988	3937
855.122	3987
855.256	3918
855.39	4021
855.524	4135
855.658	4124
855.792	4135
855.926	4093
856.06	4177
856.194	4234
856.327	4131
856.461	4135
856.595	4158
856.729	4173
856.862	4265
856.996	4253
857.13	4295
857.263	4318
857.397	4333
857.53	4284
857.664	4386
857.797	4390
857.931	4440
858.064	4367
858.197	4440
858.331	4451
858.464	4405
858.597	4390
858.731	4462
858.864	4478
858.997	4455
859.13	4523
859.263	4523
859.396	4599
859.529	4519
859.662	4500
859.795	4550
859.928	4649
860.061	4733
860.194	4744
860.327	4656
860.46	4622
860.592	4733
860.725	4736
860.858	4793
860.99	4729
861.123	4698
861.256	4702
861.388	4748
861.521	5258
861.653	4725
861.786	4721
861.918	4721
862.05	4752
862.183	4850
862.315	4938
862.447	4946
862.58	4881
862.712	4839
862.844	4778
862.976	4892
863.108	4919
863.24	5193
863.372	4835
863.504	4854
863.636	4938
863.768	4976
863.9	4984
864.032	4972
864.164	4984
864.296	4991
864.428	5105
864.559	5071
864.691	5113
864.823	5147
864.954	5109
865.086	5140
865.217	5140
865.349	5094
865.48	5178
865.612	5174
865.743	5227
865.875	5189
866.006	5185
866.137	5220
866.269	5235
866.4	5216
866.531	5258
866.662	5254
866.793	5318
866.924	5341
867.055	5307
867.186	5330
867.317	5326
867.448	5334
867.579	5406
867.71	5406
867.841	5421
867.972	5455
868.103	5497
868.233	5448
868.364	5493
868.495	5516
868.625	5627
868.756	5779
868.886	5657
869.017	5748
869.147	5859
869.278	5824
869.408	5840
869.539	5863
869.669	5885
869.799	5942
869.929	5965
870.06	5980
870.19	6235
870.32	6258
870.45	6266
870.58	6342
870.71	6403
870.84	6460
870.97	6418
871.1	6525
871.23	6639
871.36	6703
871.489	6642
871.619	6722
871.749	6795
871.879	6829
872.008	6928
872.138	7042
872.267	6977
872.397	7012
872.526	7023
872.656	7156
872.785	7202
872.915	7434
873.044	7559
873.173	7616
873.303	7658
873.432	7757
873.561	7883
873.69	7917
873.819	8062
873.948	8142
874.077	8225
874.206	8275
874.335	8408
874.464	8640
874.593	8883
874.722	8902
874.851	9173
874.979	9233
875.108	9329
875.237	9435
875.365	9511
875.494	9660
875.623	9819
875.751	9781
875.88	10017
876.008	10173
876.136	10295
876.265	10538
876.393	10675
876.521	10714
876.65	10824
876.778	10908
876.906	10930
877.034	10957
877.162	11025
877.29	11166
877.418	11212
877.546	11364
877.674	11474
877.802	11376
877.93	11558
878.058	11547
878.185	11627
878.313	11600
878.441	11699
878.568	11710
878.696	11802
878.824	11946
878.951	11999
879.079	11973
879.206	12129
879.333	11908
879.461	11980
879.588	12053
879.715	12026
879.842	12213
879.97	12136
880.097	11912
880.224	11889
880.351	11836
880.478	11889
880.605	11821
880.732	11843
880.859	12011
880.986	11836
881.112	11874
881.239	11745
881.366	11638
881.493	11680
881.619	11551
881.746	11581
881.872	11535
881.999	11554
882.125	11467
882.252	11570
882.378	11482
882.505	11634
882.631	11463
882.757	11246
882.883	11318
883.01	11254
883.136	11193
883.262	11109
883.388	11064
883.514	11189
883.64	11147
883.766	11094
883.892	10961
884.018	11006
884.143	11102
884.269	11170
884.395	10850
884.52	10786
884.646	10869
884.772	10679
884.897	10630
885.023	10637
885.148	10687
885.274	10763
885.399	10675
885.524	10725
885.65	10611
885.775	10607
885.9	10516
886.025	10626
886.15	10611
886.275	10428
886.4	10360
886.525	10371
886.65	10405
886.775	10341
886.9	10508
887.025	10451
887.149	10371
887.274	10196
887.399	10249
887.523	10223
887.648	10204
887.773	10078
887.897	10135
888.021	10204
888.146	10135
888.27	10276
888.395	10223
888.519	10261
888.643	10097
888.767	10112
888.891	10154
889.015	9998
889.139	10048
889.263	9930
889.387	10067
889.511	10101
889.635	10017
889.759	9934
889.883	10032
890.006	10002
890.13	10025
890.254	9945
890.377	9915
890.501	9918
890.624	9816
890.748	9873
890.871	9842
890.995	9823
891.118	9720
891.241	9789
891.364	9747
891.488	9781
891.611	9751
891.734	9751
891.857	9728
891.98	9717
892.103	9751
892.226	9751
892.349	9625
892.471	9507
892.594	9576
892.717	9660
892.839	9637
892.962	9591
893.085	9656
893.207	9587
893.33	9561
893.452	9488
893.575	9641
893.697	9492
893.819	9564
893.941	9568
894.064	9610
894.186	9447
894.308	9363
894.43	9538
894.552	9572
894.674	9515
894.796	9363
894.918	9386
895.04	9329
895.161	9408
895.283	9382
895.405	9230
895.526	9291
895.648	9306
895.769	9275
895.891	9260
896.012	9351
896.134	9249
896.255	9127
896.376	9051
896.498	9192
896.619	9146
896.74	9081
896.861	9089
896.982	9241
897.103	9416
897.224	9176
897.345	9005
897.466	8948
897.587	9005
897.708	9097
897.828	8979
897.949	8963
898.07	8891
898.19	8838
898.311	9081
898.431	8849
898.552	8906
898.672	8948
898.792	8944
898.913	8895
899.033	8830
899.153	8823
899.273	8720
899.393	8739
899.513	8651
899.633	8667
899.753	8766
899.873	8670
899.993	8800
900.113	8727
900.232	8716
900.352	8682
900.472	8598
900.591	8621
900.711	8526
900.83	8549
900.95	8545
901.069	8720
901.189	8575
901.308	8415
901.427	8400
901.546	8446
901.665	8419
901.784	8476
901.904	8370
902.023	8320
902.141	8286
902.26	8187
902.379	8294
902.498	8183
902.617	8142
902.735	8244
902.854	8309
902.973	8282
903.091	8069
903.21	8157
903.328	8107
903.446	8062
903.565	8062
903.683	8077
903.801	8092
903.919	8050
904.038	8138
904.156	7989
904.274	8134
904.392	8008
904.51	8020
904.627	8058
904.745	8062
904.863	8092
904.981	7955
905.098	7856
905.216	7963
905.334	7879
905.451	7940
905.569	7871
905.686	7864
905.803	7913
905.921	7792
906.038	7928
906.155	7753
906.272	7723
906.389	7715
906.506	7674
906.623	7655
906.74	7643
906.857	7575
906.974	7647
907.091	7693
907.208	7651
907.324	7586
907.441	7529
907.557	7521
907.674	7438
907.79	7388
907.907	7422
908.023	7438
908.139	7377
908.256	7377
908.372	7411
908.488	7369
908.604	7251
908.72	7183
908.836	7221
908.952	7274
909.068	7251
909.184	7373
909.3	7335
909.415	7381
909.531	7274
909.647	7156
909.762	7137
909.878	7065
909.993	7152
910.108	7091
910.224	7012
910.339	7129
910.454	7099
910.57	7053
910.685	6951
910.8	7156
910.915	7114
911.03	7072
911.145	6935
911.259	6962
911.374	6882
911.489	6821
911.604	6787
911.718	6726
911.833	6753
911.947	6673
912.062	6673
912.176	6703
912.291	6715
912.405	6681
912.519	6791
912.633	6844
912.748	6726
912.862	6700
912.976	6612
913.09	6498
913.204	6601
913.318	6589
913.431	6650
913.545	6715
913.659	6734
913.772	6635
913.886	6601
914	6608
914.113	6639
914.226	6654
914.34	6639
914.453	6490
914.566	6608
914.68	6471
914.793	6582
914.906	6448
915.019	6384
915.132	6361
915.245	6437
915.358	6483
915.47	6467
915.583	6464
915.696	6460
915.809	6483
915.921	6467
916.034	6365
916.146	6388
916.259	6426
916.371	6410
916.483	6414
916.595	6418
916.708	6403
916.82	6395
916.932	6311
917.044	6384
917.156	6403
917.268	6327
917.38	6350
917.491	6243
917.603	6338
917.715	6407
917.826	6460
917.938	6334
918.049	6239
918.161	6331
918.272	6410
918.384	6403
918.495	6407
918.606	6224
918.717	6251
918.828	6262
918.939	6311
919.05	6190
919.161	6232
919.272	6110
919.383	6129
919.494	6296
919.604	6429
919.715	6273
919.826	6209
919.936	6258
920.047	6311
920.157	6338
920.267	6471
920.378	6369
920.488	6334
920.598	6460
920.708	6589
920.818	6471
920.928	6483
921.038	6585
921.148	6555
921.258	6410
921.368	6254
921.477	6205
921.587	6216
921.697	6057
921.806	6224
921.916	6125
922.025	5931
922.134	5885
922.244	5927
922.353	5950
922.462	5893
922.571	5840
922.68	5707
922.789	5672
922.898	5771
923.007	5627
923.116	5672
923.224	5676
923.333	5649
923.442	5642
923.55	5547
923.659	5570
923.767	5634
923.876	5554
923.984	5585
924.092	5558
924.201	5596
924.309	5577
924.417	5608
924.525	5455
924.633	5512
924.741	6232
924.849	5372
924.956	5455
925.064	5383
925.172	5322
925.279	5318
925.387	5330
925.494	5334
925.602	5440
925.709	5364
925.816	5242
925.924	5376
926.031	5307
926.138	5326
926.245	5299
926.352	5242
926.459	5284
926.566	5284
926.673	5227
926.779	5143
926.886	5083
926.993	5018
927.099	4965
927.206	4953
927.312	4938
927.419	5003
927.525	4976
927.631	4949
927.737	4911
927.843	4889
927.95	4793
928.056	4824
928.162	4805
928.267	4862
928.373	5288
928.479	4885
928.585	4668
928.69	4797
928.796	4774
928.901	4714
929.007	4603
929.112	4706
929.218	4710
929.323	4599
929.428	4527
929.533	4687
929.638	4512
929.743	4580
929.848	4565
929.953	4546
930.058	4481
930.163	4337
930.267	4318
930.372	4417
930.477	4306
930.581	4459
930.685	4398
930.79	4257
930.894	4238
930.998	4310
931.103	4413
931.207	4128
931.311	4071
931.415	4086
931.519	3937
931.623	3964
