Data from glass_V78500241_2323.txt Node
Date: Wed Sep 01 19:30:36 CST 2021
User: usil
Spectrometer: V785-0024
Trigger mode: 0
Integration Time (sec): 4.000000E-1
Scans to average: 1
Nonlinearity correction enabled: false
Boxcar width: 0
Storing dark spectrum: false
XAxis mode: Wavelengths
Number of Pixels in Spectrum: 1024
>>>>>Begin Spectral Data<<<<<
801.071	3720
801.214	3740
801.356	3679
801.499	3743
801.641	3705
801.783	3747
801.926	3888
802.068	3861
802.211	3838
802.353	3880
802.496	3804
802.638	3876
802.78	3873
802.923	3903
803.065	3857
803.208	3827
803.35	3865
803.492	3915
803.635	3884
803.777	3823
803.919	3880
804.061	4135
804.204	3960
804.346	3907
804.488	3892
804.63	4055
804.773	4006
804.915	3987
805.057	4147
805.199	4063
805.341	4082
805.483	4120
805.626	4135
805.768	4131
805.91	4188
806.052	4234
806.194	4158
806.336	4348
806.478	4223
806.62	4116
806.762	4177
806.904	4280
807.046	4337
807.188	4207
807.33	4166
807.472	4238
807.614	4158
807.756	4253
807.898	4211
808.04	4196
808.182	4280
808.324	4276
808.465	4344
808.607	4474
808.749	4417
808.891	4455
809.033	4493
809.174	4402
809.316	4238
809.458	4211
809.6	4139
809.741	4078
809.883	4158
810.025	4238
810.166	4207
810.308	4215
810.45	4238
810.591	4242
810.733	4291
810.875	4493
811.016	4843
811.158	5136
811.299	5269
811.441	5280
811.582	5086
811.724	4698
811.865	4462
812.007	4447
812.148	4459
812.29	4432
812.431	4390
812.573	4341
812.714	4299
812.855	4413
812.997	4432
813.138	4500
813.279	4367
813.421	4363
813.562	4356
813.703	4363
813.845	4322
813.986	4227
814.127	4242
814.268	4238
814.41	4295
814.551	4272
814.692	4333
814.833	4246
814.974	4280
815.115	4306
815.256	4238
815.397	4242
815.539	4246
815.68	4166
815.821	4162
815.962	4318
816.103	4265
816.244	4230
816.385	4257
816.526	4306
816.666	4223
816.807	4105
816.948	4150
817.089	4204
817.23	4120
817.371	4059
817.512	4025
817.653	4055
817.793	4059
817.934	4025
818.075	4116
818.216	4090
818.356	4086
818.497	3994
818.638	3888
818.778	3915
818.919	3884
819.06	3869
819.2	3930
819.341	3869
819.481	3850
819.622	3884
819.762	4010
819.903	3953
820.043	3838
820.184	3808
820.324	3774
820.465	3892
820.605	3800
820.746	3899
820.886	3797
821.026	3972
821.167	3930
821.307	3975
821.447	3960
821.588	3949
821.728	3911
821.868	3896
822.008	3861
822.149	3899
822.289	3876
822.429	3770
822.569	3743
822.709	3736
822.849	3682
822.99	3724
823.13	3728
823.27	3724
823.41	3705
823.55	3720
823.69	3732
823.83	3717
823.97	3652
824.11	3622
824.25	3629
824.389	3656
824.529	3648
824.669	3671
824.809	3667
824.949	3732
825.089	3732
825.228	3682
825.368	3591
825.508	3568
825.648	3523
825.787	3564
825.927	3618
826.067	3584
826.206	3633
826.346	3759
826.485	3861
826.625	3857
826.765	3983
826.904	3797
827.044	3633
827.183	3526
827.323	3450
827.462	3492
827.601	3447
827.741	3435
827.88	3431
828.02	3386
828.159	3447
828.298	3504
828.437	3549
828.577	3443
828.716	3599
828.855	3458
828.994	3351
829.134	3363
829.273	3401
829.412	3351
829.551	3397
829.69	3355
829.829	3412
829.968	3504
830.107	3435
830.246	3420
830.385	3355
830.524	3321
830.663	3287
830.802	3222
830.941	3176
831.08	3203
831.219	3237
831.357	3230
831.496	3397
831.635	3222
831.774	3176
831.913	3165
832.051	3127
832.19	3154
832.329	3207
832.467	3123
832.606	3089
832.744	3184
832.883	3161
833.022	3165
833.16	3245
833.299	3302
833.437	3340
833.576	3336
833.714	3397
833.852	3401
833.991	3435
834.129	3450
834.267	3382
834.406	3370
834.544	3397
834.682	3416
834.821	3393
834.959	3591
835.097	3450
835.235	3485
835.373	3477
835.511	3496
835.65	3435
835.788	3450
835.926	3397
836.064	3351
836.202	3378
836.34	3553
836.478	3572
836.615	3568
836.753	3572
836.891	3641
837.029	3568
837.167	3580
837.305	3580
837.443	3530
837.58	3511
837.718	3580
837.856	3553
837.993	3534
838.131	3591
838.269	3606
838.406	3564
838.544	3553
838.681	3469
838.819	3428
838.956	3351
839.094	3378
839.231	3458
839.369	3500
839.506	3705
839.643	3629
839.781	3492
839.918	3488
840.055	3515
840.193	3507
840.33	3530
840.467	3549
840.604	3591
840.742	3778
840.879	3504
841.016	3576
841.153	3561
841.29	3740
841.427	3679
841.564	3709
841.701	3713
841.838	3701
841.975	3652
842.112	3682
842.249	3637
842.385	3660
842.522	3838
842.659	3705
842.796	3663
842.933	3751
843.069	3709
843.206	3698
843.343	3816
843.479	3781
843.616	3835
843.752	3679
843.889	3701
844.025	3880
844.162	3705
844.298	3842
844.435	3751
844.571	3751
844.708	3915
844.844	3975
844.98	4032
845.117	3994
845.253	3896
845.389	3880
845.525	3956
845.661	3972
845.798	3899
845.934	3972
846.07	3945
846.206	4044
846.342	4086
846.478	4116
846.614	4006
846.75	3911
846.886	3892
847.022	4032
847.158	3972
847.294	3975
847.429	4055
847.565	3956
847.701	4230
847.837	3876
847.972	3842
848.108	3964
848.244	3956
848.379	3835
848.515	3835
848.65	3778
848.786	3819
848.921	3876
849.057	3960
849.192	3880
849.328	3937
849.463	3915
849.598	3918
849.734	3857
849.869	3823
850.004	3797
850.14	3823
850.275	3770
850.41	3759
850.545	3747
850.68	3770
850.815	3808
850.95	3781
851.085	3922
851.22	3865
851.355	3869
851.49	3755
851.625	3800
851.76	3785
851.895	3743
852.03	3755
852.165	3804
852.299	3831
852.434	3930
852.569	3854
852.703	3865
852.838	3926
852.973	3983
853.107	4013
853.242	3896
853.376	3831
853.511	3732
853.645	3842
853.78	3972
853.914	3896
854.048	3934
854.183	3850
854.317	3930
854.451	4025
854.585	3930
854.72	3911
854.854	4048
854.988	3873
855.122	3979
855.256	3903
855.39	4025
855.524	4105
855.658	4040
855.792	4059
855.926	4124
856.06	4177
856.194	4219
856.327	4090
856.461	4128
856.595	4158
856.729	4162
856.862	4272
856.996	4211
857.13	4284
857.263	4310
857.397	4280
857.53	4295
857.664	4310
857.797	4398
857.931	4421
858.064	4409
858.197	4379
858.331	4413
858.464	4348
858.597	4348
858.731	4424
858.864	4447
858.997	4470
859.13	4519
859.263	4459
859.396	4584
859.529	4485
859.662	4493
859.795	4516
859.928	4607
860.061	4694
860.194	4714
860.327	4626
860.46	4577
860.592	4733
860.725	4755
860.858	4740
860.99	4687
861.123	4672
861.256	4702
861.388	4744
861.521	5273
861.653	4687
861.786	4725
861.918	4717
862.05	4824
862.183	4854
862.315	4919
862.447	4938
862.58	4896
862.712	4752
862.844	4725
862.976	4801
863.108	4889
863.24	5181
863.372	4839
863.504	4942
863.636	4866
863.768	4987
863.9	4892
864.032	4889
864.164	4930
864.296	5041
864.428	5048
864.559	5075
864.691	5064
864.823	5128
864.954	5105
865.086	5159
865.217	5086
865.349	5090
865.48	5105
865.612	5174
865.743	5265
865.875	5201
866.006	5220
866.137	5170
866.269	5273
866.4	5261
866.531	5201
866.662	5212
866.793	5265
866.924	5284
867.055	5326
867.186	5311
867.317	5235
867.448	5303
867.579	5364
867.71	5357
867.841	5372
867.972	5410
868.103	5516
868.233	5497
868.364	5501
868.495	5566
868.625	5691
868.756	5802
868.886	5726
869.017	5767
869.147	5870
869.278	5863
869.408	5863
869.539	5836
869.669	5901
869.799	5897
869.929	5980
870.06	6003
870.19	6140
870.32	6159
870.45	6216
870.58	6346
870.71	6407
870.84	6513
870.97	6376
871.1	6418
871.23	6608
871.36	6662
871.489	6623
871.619	6779
871.749	6795
871.879	6878
872.008	6958
872.138	6947
872.267	7027
872.397	6977
872.526	6977
872.656	7080
872.785	7149
872.915	7365
873.044	7453
873.173	7571
873.303	7609
873.432	7685
873.561	7887
873.69	7864
873.819	7963
873.948	8065
874.077	8191
874.206	8317
874.335	8450
874.464	8617
874.593	8861
874.722	8902
874.851	9051
874.979	9264
875.108	9332
875.237	9389
875.365	9469
875.494	9705
875.623	9835
875.751	9869
875.88	9934
876.008	10074
876.136	10280
876.265	10497
876.393	10630
876.521	10672
876.65	10767
876.778	10843
876.906	10854
877.034	11010
877.162	11071
877.29	11166
877.418	11318
877.546	11376
877.674	11444
877.802	11478
877.93	11493
878.058	11486
878.185	11497
878.313	11577
878.441	11691
878.568	11684
878.696	11775
878.824	11866
878.951	11939
879.079	11969
879.206	12106
879.333	11999
879.461	12026
879.588	12003
879.715	12053
879.842	12186
879.97	12098
880.097	11923
880.224	11878
880.351	11828
880.478	11882
880.605	11748
880.732	11802
880.859	11984
880.986	11786
881.112	11977
881.239	11726
881.366	11668
881.493	11589
881.619	11482
881.746	11600
881.872	11516
881.999	11429
882.125	11501
882.252	11509
882.378	11455
882.505	11512
882.631	11391
882.757	11303
882.883	11265
883.01	11254
883.136	11178
883.262	11094
883.388	11113
883.514	11280
883.64	11147
883.766	11128
883.892	10961
884.018	10972
884.143	11029
884.269	11098
884.395	10835
884.52	10778
884.646	10790
884.772	10687
884.897	10725
885.023	10694
885.148	10675
885.274	10725
885.399	10649
885.524	10630
885.65	10596
885.775	10538
885.9	10565
886.025	10546
886.15	10519
886.275	10440
886.4	10379
886.525	10417
886.65	10341
886.775	10356
886.9	10447
887.025	10500
887.149	10356
887.274	10215
887.399	10169
887.523	10150
887.648	10128
887.773	10086
887.897	10234
888.021	10200
888.146	10150
888.27	10162
888.395	10112
888.519	10139
888.643	10143
888.767	10200
888.891	10093
889.015	10029
889.139	10006
889.263	9918
889.387	10124
889.511	10120
889.635	10048
889.759	9960
889.883	10002
890.006	9979
890.13	10090
890.254	9941
890.377	9915
890.501	9892
890.624	9854
890.748	9880
890.871	9781
890.995	9724
891.118	9740
891.241	9705
891.364	9732
891.488	9797
891.611	9797
891.734	9701
891.857	9762
891.98	9682
892.103	9713
892.226	9785
892.349	9648
892.471	9523
892.594	9595
892.717	9625
892.839	9587
892.962	9580
893.085	9610
893.207	9614
893.33	9466
893.452	9519
893.575	9603
893.697	9526
893.819	9545
893.941	9599
894.064	9618
894.186	9504
894.308	9397
894.43	9595
894.552	9504
894.674	9538
894.796	9389
894.918	9431
895.04	9329
895.161	9435
895.283	9329
895.405	9249
895.526	9211
895.648	9264
895.769	9245
895.891	9241
896.012	9218
896.134	9222
896.255	9165
896.376	9180
896.498	9184
896.619	9138
896.74	9066
896.861	9089
896.982	9253
897.103	9283
897.224	9112
897.345	9089
897.466	8952
897.587	9127
897.708	9062
897.828	9074
897.949	8948
898.07	8876
898.19	8899
898.311	9024
898.431	8887
898.552	8906
898.672	8975
898.792	8925
898.913	8895
899.033	8773
899.153	8678
899.273	8682
899.393	8746
899.513	8689
899.633	8731
899.753	8769
899.873	8674
899.993	8708
900.113	8769
900.232	8621
900.352	8670
900.472	8674
900.591	8537
900.711	8522
900.83	8552
900.95	8621
901.069	8712
901.189	8583
901.308	8450
901.427	8362
901.546	8362
901.665	8427
901.784	8492
901.904	8370
902.023	8256
902.141	8225
902.26	8161
902.379	8275
902.498	8214
902.617	8168
902.735	8290
902.854	8240
902.973	8218
903.091	8092
903.21	8111
903.328	8130
903.446	8119
903.565	8046
903.683	8001
903.801	8043
903.919	8157
904.038	8103
904.156	7982
904.274	8096
904.392	8050
904.51	8069
904.627	8020
904.745	8088
904.863	8096
904.981	7898
905.098	7898
905.216	7883
905.334	7856
905.451	7856
905.569	7822
905.686	7959
905.803	7940
905.921	7723
906.038	7822
906.155	7753
906.272	7658
906.389	7723
906.506	7658
906.623	7647
906.74	7571
906.857	7556
906.974	7586
907.091	7712
907.208	7689
907.324	7605
907.441	7518
907.557	7464
907.674	7480
907.79	7415
907.907	7343
908.023	7453
908.139	7441
908.256	7422
908.372	7365
908.488	7274
908.604	7335
908.72	7255
908.836	7149
908.952	7274
909.068	7213
909.184	7335
909.3	7251
909.415	7293
909.531	7282
909.647	7042
909.762	7114
909.878	7084
909.993	7114
910.108	7099
910.224	7099
910.339	7072
910.454	7061
910.57	6973
910.685	6958
910.8	7160
910.915	7088
911.03	6985
911.145	6890
911.259	6890
911.374	6909
911.489	6798
911.604	6741
911.718	6726
911.833	6741
911.947	6673
912.062	6544
912.176	6646
912.291	6684
912.405	6726
912.519	6852
912.633	6753
912.748	6722
912.862	6707
912.976	6642
913.09	6555
913.204	6555
913.318	6612
913.431	6665
913.545	6604
913.659	6703
913.772	6627
913.886	6563
914	6517
914.113	6544
914.226	6623
914.34	6650
914.453	6445
914.566	6532
914.68	6509
914.793	6509
914.906	6365
915.019	6414
915.132	6315
915.245	6486
915.358	6441
915.47	6452
915.583	6418
915.696	6433
915.809	6528
915.921	6551
916.034	6361
916.146	6388
916.259	6403
916.371	6448
916.483	6483
916.595	6319
916.708	6391
916.82	6353
916.932	6410
917.044	6334
917.156	6384
917.268	6319
917.38	6292
917.491	6270
917.603	6365
917.715	6380
917.826	6414
917.938	6399
918.049	6209
918.161	6342
918.272	6399
918.384	6448
918.495	6266
918.606	6205
918.717	6205
918.828	6251
918.939	6258
919.05	6205
919.161	6224
919.272	6110
919.383	6125
919.494	6289
919.604	6471
919.715	6228
919.826	6190
919.936	6232
920.047	6342
920.157	6300
920.267	6414
920.378	6311
920.488	6285
920.598	6456
920.708	6536
920.818	6418
920.928	6490
921.038	6544
921.148	6559
921.258	6372
921.368	6243
921.477	6171
921.587	6152
921.697	6083
921.806	6171
921.916	6087
922.025	5973
922.134	5889
922.244	5863
922.353	5912
922.462	5828
922.571	5733
922.68	5764
922.789	5634
922.898	5646
923.007	5604
923.116	5745
923.224	5684
923.333	5638
923.442	5573
923.55	5547
923.659	5573
923.767	5646
923.876	5554
923.984	5551
924.092	5509
924.201	5551
924.309	5573
924.417	5566
924.525	5448
924.633	5474
924.741	6235
924.849	5395
924.956	5425
925.064	5360
925.172	5311
925.279	5292
925.387	5406
925.494	5288
925.602	5459
925.709	5330
925.816	5235
925.924	5265
926.031	5406
926.138	5258
926.245	5337
926.352	5220
926.459	5318
926.566	5330
926.673	5208
926.779	5121
926.886	5128
926.993	4987
927.099	5079
927.206	4946
927.312	4968
927.419	5014
927.525	4980
927.631	4968
927.737	4870
927.843	4835
927.95	4835
928.056	4793
928.162	4763
928.267	4873
928.373	5292
928.479	4847
928.585	4687
928.69	4755
928.796	4786
928.901	4691
929.007	4584
929.112	4634
929.218	4603
929.323	4565
929.428	4573
929.533	4679
929.638	4516
929.743	4519
929.848	4504
929.953	4580
930.058	4424
930.163	4341
930.267	4318
930.372	4432
930.477	4287
930.581	4413
930.685	4329
930.79	4295
930.894	4310
930.998	4238
931.103	4413
931.207	4097
931.311	4078
931.415	4006
931.519	3922
931.623	3945
