Data from glass_V78500241_1248.txt Node
Date: Wed Sep 01 19:23:09 CST 2021
User: usil
Spectrometer: V785-0024
Trigger mode: 0
Integration Time (sec): 4.000000E-1
Scans to average: 1
Nonlinearity correction enabled: false
Boxcar width: 0
Storing dark spectrum: false
XAxis mode: Wavelengths
Number of Pixels in Spectrum: 1024
>>>>>Begin Spectral Data<<<<<
801.071	3770
801.214	3759
801.356	3694
801.499	3762
801.641	3709
801.783	3793
801.926	3884
802.068	3812
802.211	3850
802.353	3884
802.496	3838
802.638	3857
802.78	3911
802.923	3934
803.065	3903
803.208	3835
803.35	3907
803.492	3937
803.635	3876
803.777	3781
803.919	3903
804.061	4150
804.204	3991
804.346	3979
804.488	3926
804.63	4063
804.773	4002
804.915	4010
805.057	4139
805.199	4044
805.341	4082
805.483	4150
805.626	4105
805.768	4185
805.91	4211
806.052	4238
806.194	4173
806.336	4356
806.478	4257
806.62	4169
806.762	4223
806.904	4253
807.046	4344
807.188	4223
807.33	4215
807.472	4253
807.614	4158
807.756	4230
807.898	4166
808.04	4234
808.182	4272
808.324	4337
808.465	4424
808.607	4417
808.749	4470
808.891	4493
809.033	4481
809.174	4383
809.316	4322
809.458	4249
809.6	4181
809.741	4200
809.883	4169
810.025	4204
810.166	4158
810.308	4192
810.45	4234
810.591	4253
810.733	4318
810.875	4531
811.016	4828
811.158	5201
811.299	5273
811.441	5311
811.582	5064
811.724	4714
811.865	4481
812.007	4466
812.148	4455
812.29	4440
812.431	4405
812.573	4421
812.714	4398
812.855	4428
812.997	4436
813.138	4485
813.279	4459
813.421	4352
813.562	4428
813.703	4318
813.845	4325
813.986	4284
814.127	4246
814.268	4272
814.41	4287
814.551	4246
814.692	4325
814.833	4295
814.974	4295
815.115	4356
815.256	4249
815.397	4261
815.539	4242
815.68	4200
815.821	4207
815.962	4329
816.103	4291
816.244	4268
816.385	4223
816.526	4272
816.666	4215
816.807	4112
816.948	4150
817.089	4177
817.23	4139
817.371	4090
817.512	4029
817.653	4071
817.793	4040
817.934	4044
818.075	4071
818.216	4093
818.356	4101
818.497	4025
818.638	3892
818.778	3922
818.919	3911
819.06	3896
819.2	3903
819.341	3899
819.481	3831
819.622	3941
819.762	4025
819.903	3945
820.043	3861
820.184	3854
820.324	3819
820.465	3884
820.605	3880
820.746	3884
820.886	3804
821.026	3953
821.167	3953
821.307	3994
821.447	3991
821.588	3896
821.728	3930
821.868	3964
822.008	3873
822.149	3960
822.289	3934
822.429	3823
822.569	3747
822.709	3819
822.849	3679
822.99	3743
823.13	3740
823.27	3781
823.41	3694
823.55	3732
823.69	3755
823.83	3755
823.97	3644
824.11	3622
824.25	3603
824.389	3610
824.529	3720
824.669	3644
824.809	3675
824.949	3747
825.089	3762
825.228	3743
825.368	3584
825.508	3545
825.648	3576
825.787	3644
825.927	3652
826.067	3648
826.206	3679
826.346	3797
826.485	3823
826.625	3911
826.765	3972
826.904	3842
827.044	3633
827.183	3545
827.323	3405
827.462	3504
827.601	3466
827.741	3428
827.88	3466
828.02	3416
828.159	3416
828.298	3454
828.437	3504
828.577	3488
828.716	3576
828.855	3504
828.994	3409
829.134	3359
829.273	3374
829.412	3367
829.551	3363
829.69	3382
829.829	3428
829.968	3523
830.107	3481
830.246	3439
830.385	3386
830.524	3363
830.663	3283
830.802	3256
830.941	3203
831.08	3218
831.219	3256
831.357	3291
831.496	3401
831.635	3279
831.774	3203
831.913	3230
832.051	3127
832.19	3146
832.329	3211
832.467	3123
832.606	3157
832.744	3188
832.883	3192
833.022	3207
833.16	3279
833.299	3291
833.437	3348
833.576	3389
833.714	3409
833.852	3435
833.991	3439
834.129	3462
834.267	3454
834.406	3447
834.544	3447
834.682	3431
834.821	3405
834.959	3584
835.097	3435
835.235	3538
835.373	3485
835.511	3507
835.65	3450
835.788	3488
835.926	3367
836.064	3370
836.202	3405
836.34	3622
836.478	3599
836.615	3557
836.753	3618
836.891	3675
837.029	3595
837.167	3641
837.305	3606
837.443	3507
837.58	3538
837.718	3599
837.856	3576
837.993	3538
838.131	3622
838.269	3584
838.406	3603
838.544	3564
838.681	3500
838.819	3466
838.956	3424
839.094	3409
839.231	3439
839.369	3519
839.506	3755
839.643	3595
839.781	3515
839.918	3435
840.055	3523
840.193	3534
840.33	3538
840.467	3576
840.604	3629
840.742	3823
840.879	3538
841.016	3564
841.153	3576
841.29	3732
841.427	3698
841.564	3709
841.701	3762
841.838	3720
841.975	3698
842.112	3713
842.249	3663
842.385	3690
842.522	3797
842.659	3720
842.796	3686
842.933	3720
843.069	3705
843.206	3717
843.343	3819
843.479	3762
843.616	3823
843.752	3682
843.889	3705
844.025	3854
844.162	3698
844.298	3865
844.435	3793
844.571	3747
844.708	3888
844.844	3987
844.98	4021
845.117	4021
845.253	3918
845.389	3918
845.525	3972
845.661	3956
845.798	3956
845.934	4040
846.07	3987
846.206	4097
846.342	4150
846.478	4040
846.614	3949
846.75	3918
846.886	3880
847.022	4021
847.158	4017
847.294	4013
847.429	4025
847.565	4006
847.701	4253
847.837	3876
847.972	3907
848.108	4002
848.244	3998
848.379	3850
848.515	3876
848.65	3808
848.786	3880
848.921	3861
849.057	3941
849.192	4021
849.328	3964
849.463	3937
849.598	3880
849.734	3892
849.869	3869
850.004	3774
850.14	3869
850.275	3804
850.41	3747
850.545	3759
850.68	3842
850.815	3831
850.95	3804
851.085	3956
851.22	3861
851.355	3842
851.49	3766
851.625	3808
851.76	3823
851.895	3728
852.03	3747
852.165	3797
852.299	3861
852.434	3937
852.569	3865
852.703	3888
852.838	3922
852.973	4040
853.107	3994
853.242	3907
853.376	3880
853.511	3789
853.645	3854
853.78	3983
853.914	3926
854.048	3892
854.183	3896
854.317	3899
854.451	4093
854.585	3991
854.72	3907
854.854	4093
854.988	3930
855.122	4017
855.256	3953
855.39	3998
855.524	4048
855.658	4097
855.792	4093
855.926	4169
856.06	4188
856.194	4223
856.327	4124
856.461	4135
856.595	4162
856.729	4185
856.862	4272
856.996	4280
857.13	4295
857.263	4333
857.397	4402
857.53	4284
857.664	4371
857.797	4436
857.931	4398
858.064	4367
858.197	4440
858.331	4390
858.464	4329
858.597	4390
858.731	4451
858.864	4478
858.997	4451
859.13	4466
859.263	4500
859.396	4584
859.529	4466
859.662	4565
859.795	4542
859.928	4592
860.061	4706
860.194	4774
860.327	4675
860.46	4649
860.592	4733
860.725	4771
860.858	4793
860.99	4687
861.123	4691
861.256	4679
861.388	4748
861.521	5368
861.653	4736
861.786	4721
861.918	4771
862.05	4774
862.183	4839
862.315	4915
862.447	4946
862.58	4881
862.712	4771
862.844	4812
862.976	4889
863.108	4847
863.24	5216
863.372	4839
863.504	4949
863.636	4889
863.768	4961
863.9	4949
864.032	4923
864.164	4938
864.296	5022
864.428	5128
864.559	5102
864.691	5128
864.823	5117
864.954	5098
865.086	5162
865.217	5136
865.349	5105
865.48	5147
865.612	5201
865.743	5284
865.875	5204
866.006	5128
866.137	5273
866.269	5277
866.4	5204
866.531	5231
866.662	5277
866.793	5284
866.924	5299
867.055	5360
867.186	5379
867.317	5307
867.448	5315
867.579	5360
867.71	5402
867.841	5417
867.972	5452
868.103	5433
868.233	5497
868.364	5535
868.495	5581
868.625	5630
868.756	5805
868.886	5676
869.017	5733
869.147	5893
869.278	5920
869.408	5824
869.539	5882
869.669	5935
869.799	5916
869.929	5958
870.06	6045
870.19	6220
870.32	6155
870.45	6197
870.58	6365
870.71	6456
870.84	6452
870.97	6464
871.1	6486
871.23	6715
871.36	6719
871.489	6654
871.619	6715
871.749	6837
871.879	6837
872.008	6993
872.138	7000
872.267	7023
872.397	7034
872.526	7023
872.656	7042
872.785	7202
872.915	7320
873.044	7518
873.173	7552
873.303	7636
873.432	7761
873.561	7928
873.69	7860
873.819	7928
873.948	8180
874.077	8301
874.206	8305
874.335	8488
874.464	8613
874.593	8819
874.722	8952
874.851	9074
874.979	9241
875.108	9340
875.237	9416
875.365	9534
875.494	9747
875.623	9854
875.751	9827
875.88	9998
876.008	10150
876.136	10257
876.265	10481
876.393	10698
876.521	10790
876.65	10889
876.778	10858
876.906	10847
877.034	11006
877.162	11079
877.29	11155
877.418	11299
877.546	11330
877.674	11493
877.802	11478
877.93	11535
878.058	11547
878.185	11589
878.313	11661
878.441	11817
878.568	11710
878.696	11897
878.824	11874
878.951	11965
879.079	11942
879.206	12175
879.333	12110
879.461	12034
879.588	12087
879.715	12060
879.842	12216
879.97	12026
880.097	11859
880.224	11851
880.351	11893
880.478	11923
880.605	11798
880.732	11809
880.859	11980
880.986	11855
881.112	11889
881.239	11760
881.366	11668
881.493	11596
881.619	11573
881.746	11520
881.872	11596
881.999	11482
882.125	11417
882.252	11592
882.378	11433
882.505	11532
882.631	11334
882.757	11356
882.883	11337
883.01	11235
883.136	11189
883.262	11181
883.388	11121
883.514	11174
883.64	11223
883.766	11185
883.892	11022
884.018	10984
884.143	11109
884.269	11147
884.395	10801
884.52	10748
884.646	10809
884.772	10672
884.897	10683
885.023	10714
885.148	10702
885.274	10782
885.399	10748
885.524	10596
885.65	10694
885.775	10675
885.9	10554
886.025	10580
886.15	10554
886.275	10474
886.4	10455
886.525	10341
886.65	10436
886.775	10451
886.9	10508
887.025	10447
887.149	10348
887.274	10303
887.399	10219
887.523	10150
887.648	10101
887.773	10131
887.897	10238
888.021	10223
888.146	10147
888.27	10295
888.395	10166
888.519	10204
888.643	10154
888.767	10147
888.891	10158
889.015	10097
889.139	9987
889.263	9975
889.387	10116
889.511	10181
889.635	10090
889.759	9960
889.883	9991
890.006	9968
890.13	10071
890.254	9869
890.377	9994
890.501	9926
890.624	9884
890.748	9949
890.871	9800
890.995	9789
891.118	9762
891.241	9717
891.364	9766
891.488	9816
891.611	9713
891.734	9793
891.857	9743
891.98	9770
892.103	9800
892.226	9720
892.349	9732
892.471	9538
892.594	9633
892.717	9625
892.839	9523
892.962	9637
893.085	9660
893.207	9622
893.33	9519
893.452	9580
893.575	9599
893.697	9606
893.819	9595
893.941	9637
894.064	9667
894.186	9408
894.308	9367
894.43	9561
894.552	9557
894.674	9511
894.796	9348
894.918	9367
895.04	9336
895.161	9393
895.283	9317
895.405	9253
895.526	9275
895.648	9279
895.769	9249
895.891	9321
896.012	9245
896.134	9256
896.255	9211
896.376	9093
896.498	9146
896.619	9188
896.74	9119
896.861	9127
896.982	9310
897.103	9359
897.224	9176
897.345	9138
897.466	9058
897.587	9062
897.708	9154
897.828	9047
897.949	8948
898.07	8849
898.19	8899
898.311	9039
898.431	8864
898.552	8933
898.672	8944
898.792	9005
898.913	8956
899.033	8754
899.153	8785
899.273	8648
899.393	8724
899.513	8746
899.633	8720
899.753	8682
899.873	8739
899.993	8750
900.113	8697
900.232	8785
900.352	8720
900.472	8686
900.591	8606
900.711	8587
900.83	8507
900.95	8621
901.069	8705
901.189	8549
901.308	8541
901.427	8377
901.546	8393
901.665	8457
901.784	8564
901.904	8351
902.023	8358
902.141	8275
902.26	8271
902.379	8294
902.498	8210
902.617	8320
902.735	8279
902.854	8225
902.973	8290
903.091	8103
903.21	8187
903.328	8183
903.446	8126
903.565	8126
903.683	8092
903.801	8031
903.919	8115
904.038	8073
904.156	8043
904.274	8043
904.392	8024
904.51	8016
904.627	8092
904.745	8073
904.863	8096
904.981	7928
905.098	7849
905.216	7932
905.334	7833
905.451	7917
905.569	7833
905.686	7963
905.803	7833
905.921	7837
906.038	7917
906.155	7803
906.272	7681
906.389	7734
906.506	7693
906.623	7689
906.74	7636
906.857	7597
906.974	7613
907.091	7727
907.208	7708
907.324	7636
907.441	7594
907.557	7449
907.674	7434
907.79	7365
907.907	7354
908.023	7396
908.139	7426
908.256	7384
908.372	7381
908.488	7335
908.604	7308
908.72	7225
908.836	7217
908.952	7255
909.068	7289
909.184	7331
909.3	7293
909.415	7301
909.531	7289
909.647	7091
909.762	7118
909.878	7126
909.993	7145
910.108	7145
910.224	7038
910.339	7114
910.454	6993
910.57	6985
910.685	6958
910.8	7152
910.915	7103
911.03	6981
911.145	6886
911.259	6852
911.374	6943
911.489	6863
911.604	6840
911.718	6703
911.833	6783
911.947	6597
912.062	6684
912.176	6696
912.291	6722
912.405	6760
912.519	6848
912.633	6837
912.748	6798
912.862	6753
912.976	6578
913.09	6544
913.204	6563
913.318	6646
913.431	6692
913.545	6658
913.659	6764
913.772	6677
913.886	6517
914	6521
914.113	6616
914.226	6639
914.34	6635
914.453	6502
914.566	6616
914.68	6547
914.793	6566
914.906	6456
915.019	6391
915.132	6357
915.245	6445
915.358	6475
915.47	6479
915.583	6483
915.696	6502
915.809	6525
915.921	6528
916.034	6369
916.146	6376
916.259	6422
916.371	6525
916.483	6456
916.595	6426
916.708	6418
916.82	6391
916.932	6323
917.044	6426
917.156	6391
917.268	6323
917.38	6300
917.491	6338
917.603	6361
917.715	6399
917.826	6460
917.938	6311
918.049	6220
918.161	6342
918.272	6407
918.384	6422
918.495	6319
918.606	6254
918.717	6201
918.828	6304
918.939	6273
919.05	6262
919.161	6205
919.272	6110
919.383	6159
919.494	6308
919.604	6422
919.715	6289
919.826	6194
919.936	6251
920.047	6334
920.157	6243
920.267	6445
920.378	6357
920.488	6315
920.598	6475
920.708	6506
920.818	6467
920.928	6460
921.038	6578
921.148	6593
921.258	6331
921.368	6350
921.477	6216
921.587	6175
921.697	6038
921.806	6175
921.916	6087
922.025	5950
922.134	5931
922.244	5927
922.353	5942
922.462	5798
922.571	5824
922.68	5714
922.789	5729
922.898	5684
923.007	5638
923.116	5733
923.224	5676
923.333	5627
923.442	5577
923.55	5589
923.659	5592
923.767	5623
923.876	5596
923.984	5596
924.092	5551
924.201	5566
924.309	5490
924.417	5566
924.525	5482
924.633	5505
924.741	6251
924.849	5410
924.956	5551
925.064	5330
925.172	5315
925.279	5360
925.387	5307
925.494	5322
925.602	5410
925.709	5372
925.816	5299
925.924	5322
926.031	5391
926.138	5250
926.245	5303
926.352	5223
926.459	5322
926.566	5337
926.673	5246
926.779	5128
926.886	5162
926.993	5071
927.099	4984
927.206	4942
927.312	5006
927.419	5045
927.525	5006
927.631	4991
927.737	4927
927.843	4862
927.95	4759
928.056	4824
928.162	4786
928.267	4847
928.373	5326
928.479	4850
928.585	4710
928.69	4752
928.796	4759
928.901	4683
929.007	4599
929.112	4710
929.218	4584
929.323	4592
929.428	4584
929.533	4717
929.638	4535
929.743	4573
929.848	4561
929.953	4531
930.058	4466
930.163	4341
930.267	4371
930.372	4432
930.477	4318
930.581	4447
930.685	4344
930.79	4272
930.894	4238
930.998	4272
931.103	4371
931.207	4128
931.311	4059
931.415	4040
931.519	3975
931.623	3964
