Data from glass_V78500241_414.txt Node
Date: Wed Sep 01 19:17:22 CST 2021
User: usil
Spectrometer: V785-0024
Trigger mode: 0
Integration Time (sec): 4.000000E-1
Scans to average: 1
Nonlinearity correction enabled: false
Boxcar width: 0
Storing dark spectrum: false
XAxis mode: Wavelengths
Number of Pixels in Spectrum: 1024
>>>>>Begin Spectral Data<<<<<
801.071	3743
801.214	3793
801.356	3682
801.499	3709
801.641	3804
801.783	3751
801.926	3869
802.068	3838
802.211	3876
802.353	3899
802.496	3823
802.638	3915
802.78	3937
802.923	3960
803.065	3888
803.208	3838
803.35	3888
803.492	3922
803.635	3926
803.777	3781
803.919	3884
804.061	4124
804.204	3945
804.346	3972
804.488	3953
804.63	4044
804.773	4021
804.915	4017
805.057	4154
805.199	4074
805.341	4147
805.483	4139
805.626	4147
805.768	4158
805.91	4200
806.052	4238
806.194	4204
806.336	4398
806.478	4246
806.62	4169
806.762	4181
806.904	4242
807.046	4352
807.188	4265
807.33	4200
807.472	4227
807.614	4185
807.756	4303
807.898	4234
808.04	4227
808.182	4303
808.324	4322
808.465	4413
808.607	4485
808.749	4504
808.891	4459
809.033	4523
809.174	4394
809.316	4265
809.458	4238
809.6	4185
809.741	4166
809.883	4173
810.025	4246
810.166	4147
810.308	4227
810.45	4280
810.591	4238
810.733	4360
810.875	4554
811.016	4809
811.158	5102
811.299	5288
811.441	5322
811.582	5094
811.724	4717
811.865	4455
812.007	4508
812.148	4428
812.29	4432
812.431	4440
812.573	4417
812.714	4421
812.855	4409
812.997	4409
813.138	4485
813.279	4443
813.421	4367
813.562	4402
813.703	4352
813.845	4314
813.986	4261
814.127	4196
814.268	4299
814.41	4329
814.551	4261
814.692	4371
814.833	4246
814.974	4295
815.115	4322
815.256	4284
815.397	4280
815.539	4291
815.68	4238
815.821	4219
815.962	4306
816.103	4303
816.244	4280
816.385	4249
816.526	4310
816.666	4211
816.807	4124
816.948	4147
817.089	4207
817.23	4143
817.371	4036
817.512	4055
817.653	4067
817.793	4044
817.934	4055
818.075	4059
818.216	4097
818.356	4120
818.497	4002
818.638	3949
818.778	3949
818.919	3922
819.06	3876
819.2	3915
819.341	3899
819.481	3911
819.622	3876
819.762	4048
819.903	4006
820.043	3854
820.184	3835
820.324	3869
820.465	3884
820.605	3873
820.746	3907
820.886	3800
821.026	3998
821.167	3922
821.307	3998
821.447	3972
821.588	3960
821.728	3979
821.868	3956
822.008	3903
822.149	3922
822.289	3979
822.429	3808
822.569	3793
822.709	3816
822.849	3713
822.99	3759
823.13	3747
823.27	3789
823.41	3724
823.55	3766
823.69	3762
823.83	3751
823.97	3724
824.11	3618
824.25	3625
824.389	3637
824.529	3705
824.669	3614
824.809	3747
824.949	3793
825.089	3762
825.228	3667
825.368	3606
825.508	3564
825.648	3603
825.787	3648
825.927	3637
826.067	3629
826.206	3675
826.346	3781
826.485	3888
826.625	3888
826.765	3941
826.904	3819
827.044	3622
827.183	3507
827.323	3481
827.462	3488
827.601	3458
827.741	3477
827.88	3481
828.02	3359
828.159	3488
828.298	3488
828.437	3557
828.577	3485
828.716	3625
828.855	3466
828.994	3393
829.134	3374
829.273	3416
829.412	3325
829.551	3355
829.69	3367
829.829	3439
829.968	3519
830.107	3450
830.246	3469
830.385	3393
830.524	3378
830.663	3325
830.802	3260
830.941	3184
831.08	3173
831.219	3253
831.357	3294
831.496	3431
831.635	3264
831.774	3211
831.913	3245
832.051	3173
832.19	3157
832.329	3249
832.467	3146
832.606	3093
832.744	3165
832.883	3180
833.022	3230
833.16	3237
833.299	3325
833.437	3367
833.576	3409
833.714	3405
833.852	3443
833.991	3496
834.129	3496
834.267	3458
834.406	3435
834.544	3443
834.682	3409
834.821	3409
834.959	3618
835.097	3393
835.235	3557
835.373	3519
835.511	3481
835.65	3492
835.788	3466
835.926	3416
836.064	3363
836.202	3401
836.34	3587
836.478	3629
836.615	3557
836.753	3572
836.891	3663
837.029	3698
837.167	3576
837.305	3561
837.443	3545
837.58	3473
837.718	3633
837.856	3553
837.993	3603
838.131	3603
838.269	3587
838.406	3622
838.544	3572
838.681	3515
838.819	3450
838.956	3386
839.094	3431
839.231	3439
839.369	3553
839.506	3778
839.643	3663
839.781	3477
839.918	3507
840.055	3545
840.193	3591
840.33	3500
840.467	3557
840.604	3606
840.742	3827
840.879	3561
841.016	3584
841.153	3595
841.29	3747
841.427	3698
841.564	3762
841.701	3720
841.838	3720
841.975	3679
842.112	3709
842.249	3656
842.385	3667
842.522	3793
842.659	3701
842.796	3667
842.933	3717
843.069	3724
843.206	3728
843.343	3823
843.479	3835
843.616	3842
843.752	3694
843.889	3713
844.025	3911
844.162	3747
844.298	3827
844.435	3816
844.571	3808
844.708	3888
844.844	3998
844.98	4010
845.117	4059
845.253	3964
845.389	3941
845.525	3994
845.661	3968
845.798	3956
845.934	4055
846.07	3983
846.206	4040
846.342	4173
846.478	4097
846.614	3998
846.75	3964
846.886	3930
847.022	4120
847.158	3987
847.294	4032
847.429	4040
847.565	4010
847.701	4268
847.837	3930
847.972	3869
848.108	4036
848.244	3945
848.379	3884
848.515	3838
848.65	3850
848.786	3850
848.921	3876
849.057	3911
849.192	3960
849.328	3934
849.463	3934
849.598	3911
849.734	3850
849.869	3827
850.004	3804
850.14	3861
850.275	3789
850.41	3762
850.545	3812
850.68	3755
850.815	3857
850.95	3819
851.085	4002
851.22	3896
851.355	3854
851.49	3781
851.625	3797
851.76	3800
851.895	3736
852.03	3720
852.165	3854
852.299	3918
852.434	3888
852.569	3918
852.703	3907
852.838	3975
852.973	4040
853.107	3987
853.242	3880
853.376	3819
853.511	3789
853.645	3896
853.78	3987
853.914	3956
854.048	3896
854.183	3934
854.317	3983
854.451	4078
854.585	3968
854.72	3960
854.854	4051
854.988	3941
855.122	4017
855.256	3911
855.39	4010
855.524	4147
855.658	4158
855.792	4120
855.926	4188
856.06	4177
856.194	4169
856.327	4116
856.461	4109
856.595	4101
856.729	4196
856.862	4306
856.996	4246
857.13	4310
857.263	4333
857.397	4367
857.53	4322
857.664	4322
857.797	4402
857.931	4402
858.064	4421
858.197	4459
858.331	4413
858.464	4432
858.597	4333
858.731	4428
858.864	4497
858.997	4459
859.13	4535
859.263	4558
859.396	4554
859.529	4527
859.662	4558
859.795	4527
859.928	4649
860.061	4668
860.194	4767
860.327	4675
860.46	4710
860.592	4767
860.725	4748
860.858	4793
860.99	4664
861.123	4687
861.256	4698
861.388	4828
861.521	5410
861.653	4752
861.786	4714
861.918	4771
862.05	4797
862.183	4862
862.315	4885
862.447	4999
862.58	4881
862.712	4744
862.844	4820
862.976	4915
863.108	4873
863.24	5284
863.372	4889
863.504	4904
863.636	4919
863.768	4984
863.9	5022
864.032	4961
864.164	4877
864.296	5052
864.428	5113
864.559	5143
864.691	5128
864.823	5071
864.954	5109
865.086	5143
865.217	5105
865.349	5098
865.48	5155
865.612	5170
865.743	5322
865.875	5208
866.006	5181
866.137	5246
866.269	5288
866.4	5315
866.531	5235
866.662	5231
866.793	5231
866.924	5269
867.055	5395
867.186	5349
867.317	5334
867.448	5318
867.579	5345
867.71	5402
867.841	5417
867.972	5474
868.103	5455
868.233	5505
868.364	5543
868.495	5566
868.625	5649
868.756	5813
868.886	5684
869.017	5786
869.147	5836
869.278	5870
869.408	5802
869.539	5821
869.669	5950
869.799	5946
869.929	6015
870.06	6026
870.19	6155
870.32	6213
870.45	6243
870.58	6418
870.71	6452
870.84	6467
870.97	6422
871.1	6475
871.23	6719
871.36	6696
871.489	6673
871.619	6711
871.749	6738
871.879	6916
872.008	6973
872.138	6962
872.267	7004
872.397	7023
872.526	7027
872.656	7057
872.785	7213
872.915	7426
873.044	7537
873.173	7548
873.303	7613
873.432	7757
873.561	7955
873.69	7913
873.819	7982
873.948	8157
874.077	8332
874.206	8252
874.335	8533
874.464	8625
874.593	8868
874.722	8933
874.851	9085
874.979	9268
875.108	9344
875.237	9466
875.365	9462
875.494	9705
875.623	9846
875.751	9800
875.88	10025
876.008	10101
876.136	10242
876.265	10542
876.393	10740
876.521	10675
876.65	10873
876.778	10896
876.906	10892
877.034	10934
877.162	11090
877.29	11208
877.418	11345
877.546	11353
877.674	11459
877.802	11452
877.93	11589
878.058	11520
878.185	11532
878.313	11661
878.441	11726
878.568	11718
878.696	11794
878.824	11824
878.951	12003
879.079	12049
879.206	12155
879.333	12095
879.461	12003
879.588	12095
879.715	12121
879.842	12254
879.97	12144
880.097	11942
880.224	11912
880.351	11843
880.478	11863
880.605	11874
880.732	11828
880.859	12049
880.986	11866
881.112	11840
881.239	11737
881.366	11589
881.493	11638
881.619	11566
881.746	11608
881.872	11543
881.999	11482
882.125	11505
882.252	11604
882.378	11512
882.505	11547
882.631	11341
882.757	11277
882.883	11402
883.01	11246
883.136	11189
883.262	11121
883.388	11098
883.514	11185
883.64	11193
883.766	11143
883.892	11075
884.018	10987
884.143	11083
884.269	11143
884.395	10854
884.52	10717
884.646	10774
884.772	10698
884.897	10656
885.023	10706
885.148	10778
885.274	10725
885.399	10782
885.524	10736
885.65	10546
885.775	10565
885.9	10527
886.025	10542
886.15	10577
886.275	10447
886.4	10337
886.525	10367
886.65	10424
886.775	10318
886.9	10516
887.025	10603
887.149	10344
887.274	10207
887.399	10181
887.523	10185
887.648	10154
887.773	10116
887.897	10227
888.021	10261
888.146	10112
888.27	10192
888.395	10173
888.519	10188
888.643	10211
888.767	10181
888.891	10112
889.015	10051
889.139	10029
889.263	9937
889.387	10109
889.511	10120
889.635	10071
889.759	10002
889.883	9972
890.006	9983
890.13	10131
890.254	9911
890.377	10055
890.501	9854
890.624	9918
890.748	9941
890.871	9842
890.995	9713
891.118	9766
891.241	9762
891.364	9690
891.488	9797
891.611	9713
891.734	9713
891.857	9732
891.98	9778
892.103	9793
892.226	9663
892.349	9656
892.471	9561
892.594	9519
892.717	9603
892.839	9633
892.962	9633
893.085	9625
893.207	9561
893.33	9488
893.452	9553
893.575	9599
893.697	9477
893.819	9549
893.941	9595
894.064	9690
894.186	9462
894.308	9431
894.43	9557
894.552	9542
894.674	9496
894.796	9447
894.918	9405
895.04	9351
895.161	9393
895.283	9374
895.405	9249
895.526	9310
895.648	9241
895.769	9237
895.891	9203
896.012	9249
896.134	9302
896.255	9230
896.376	9142
896.498	9154
896.619	9081
896.74	9100
896.861	9036
896.982	9233
897.103	9302
897.224	9211
897.345	9116
897.466	9047
897.587	9028
897.708	9032
897.828	9070
897.949	8941
898.07	8872
898.19	8982
898.311	9024
898.431	8895
898.552	8872
898.672	9032
898.792	8982
898.913	8975
899.033	8830
899.153	8712
899.273	8678
899.393	8632
899.513	8712
899.633	8693
899.753	8682
899.873	8667
899.993	8773
900.113	8682
900.232	8716
900.352	8606
900.472	8621
900.591	8556
900.711	8625
900.83	8533
900.95	8678
901.069	8708
901.189	8571
901.308	8450
901.427	8461
901.546	8533
901.665	8495
901.784	8442
901.904	8328
902.023	8362
902.141	8240
902.26	8275
902.379	8332
902.498	8218
902.617	8206
902.735	8339
902.854	8259
902.973	8195
903.091	8142
903.21	8130
903.328	8206
903.446	8168
903.565	8035
903.683	8069
903.801	8031
903.919	8126
904.038	8149
904.156	8062
904.274	8046
904.392	8077
904.51	8077
904.627	8134
904.745	8031
904.863	8058
904.981	7951
905.098	7875
905.216	7921
905.334	7909
905.451	8001
905.569	7833
905.686	7959
905.803	7947
905.921	7811
906.038	7852
906.155	7784
906.272	7750
906.389	7803
906.506	7632
906.623	7639
906.74	7700
906.857	7556
906.974	7639
907.091	7666
907.208	7734
907.324	7734
907.441	7647
907.557	7499
907.674	7468
907.79	7449
907.907	7460
908.023	7453
908.139	7400
908.256	7449
908.372	7400
908.488	7350
908.604	7297
908.72	7209
908.836	7285
908.952	7266
909.068	7293
909.184	7392
909.3	7289
909.415	7316
909.531	7297
909.647	7110
909.762	7091
909.878	7118
909.993	7171
910.108	7149
910.224	7107
910.339	7149
910.454	7053
910.57	7042
910.685	7004
910.8	7149
910.915	7168
911.03	7042
911.145	6947
911.259	6863
911.374	6943
911.489	6787
911.604	6840
911.718	6696
911.833	6715
911.947	6669
912.062	6642
912.176	6741
912.291	6730
912.405	6700
912.519	6818
912.633	6821
912.748	6711
912.862	6757
912.976	6631
913.09	6566
913.204	6589
913.318	6593
913.431	6662
913.545	6665
913.659	6726
913.772	6642
913.886	6593
914	6528
914.113	6646
914.226	6642
914.34	6620
914.453	6509
914.566	6620
914.68	6506
914.793	6521
914.906	6407
915.019	6403
915.132	6395
915.245	6414
915.358	6483
915.47	6513
915.583	6422
915.696	6479
915.809	6544
915.921	6544
916.034	6361
916.146	6384
916.259	6441
916.371	6467
916.483	6456
916.595	6407
916.708	6433
916.82	6441
916.932	6350
917.044	6426
917.156	6399
917.268	6327
917.38	6353
917.491	6342
917.603	6346
917.715	6410
917.826	6376
917.938	6361
918.049	6228
918.161	6365
918.272	6456
918.384	6372
918.495	6388
918.606	6292
918.717	6254
918.828	6258
918.939	6308
919.05	6216
919.161	6281
919.272	6121
919.383	6140
919.494	6323
919.604	6452
919.715	6254
919.826	6182
919.936	6300
920.047	6334
920.157	6273
920.267	6452
920.378	6346
920.488	6296
920.598	6467
920.708	6566
920.818	6502
920.928	6437
921.038	6566
921.148	6585
921.258	6350
921.368	6311
921.477	6201
921.587	6171
921.697	6091
921.806	6216
921.916	6091
922.025	5935
922.134	5931
922.244	5935
922.353	5965
922.462	5885
922.571	5866
922.68	5748
922.789	5672
922.898	5714
923.007	5668
923.116	5699
923.224	5688
923.333	5642
923.442	5585
923.55	5570
923.659	5570
923.767	5608
923.876	5528
923.984	5630
924.092	5486
924.201	5615
924.309	5585
924.417	5585
924.525	5467
924.633	5535
924.741	6331
924.849	5417
924.956	5505
925.064	5345
925.172	5296
925.279	5296
925.387	5376
925.494	5341
925.602	5436
925.709	5387
925.816	5345
925.924	5345
926.031	5391
926.138	5337
926.245	5360
926.352	5235
926.459	5364
926.566	5345
926.673	5174
926.779	5147
926.886	5159
926.993	5014
927.099	5037
927.206	4968
927.312	5041
927.419	5029
927.525	5037
927.631	5056
927.737	4919
927.843	4885
927.95	4854
928.056	4870
928.162	4850
928.267	4854
928.373	5265
928.479	4877
928.585	4656
928.69	4805
928.796	4797
928.901	4702
929.007	4607
929.112	4691
929.218	4645
929.323	4584
929.428	4580
929.533	4679
929.638	4550
929.743	4550
929.848	4588
929.953	4535
930.058	4459
930.163	4329
930.267	4322
930.372	4493
930.477	4325
930.581	4489
930.685	4379
930.79	4272
930.894	4295
930.998	4234
931.103	4386
931.207	4128
931.311	4040
931.415	4063
931.519	3903
931.623	3953
