Data from glass_V78500241_1190.txt Node
Date: Wed Sep 01 19:22:44 CST 2021
User: usil
Spectrometer: V785-0024
Trigger mode: 0
Integration Time (sec): 4.000000E-1
Scans to average: 1
Nonlinearity correction enabled: false
Boxcar width: 0
Storing dark spectrum: false
XAxis mode: Wavelengths
Number of Pixels in Spectrum: 1024
>>>>>Begin Spectral Data<<<<<
801.071	3770
801.214	3762
801.356	3736
801.499	3789
801.641	3762
801.783	3759
801.926	3892
802.068	3846
802.211	3876
802.353	3899
802.496	3896
802.638	3888
802.78	3899
802.923	3953
803.065	3903
803.208	3888
803.35	3896
803.492	3888
803.635	3930
803.777	3793
803.919	3892
804.061	4143
804.204	3953
804.346	3964
804.488	3884
804.63	4021
804.773	4002
804.915	4059
805.057	4158
805.199	4101
805.341	4116
805.483	4166
805.626	4173
805.768	4109
805.91	4230
806.052	4227
806.194	4246
806.336	4367
806.478	4204
806.62	4196
806.762	4181
806.904	4249
807.046	4371
807.188	4230
807.33	4204
807.472	4261
807.614	4185
807.756	4261
807.898	4234
808.04	4188
808.182	4303
808.324	4306
808.465	4436
808.607	4497
808.749	4432
808.891	4470
809.033	4493
809.174	4428
809.316	4242
809.458	4257
809.6	4139
809.741	4173
809.883	4200
810.025	4230
810.166	4215
810.308	4215
810.45	4268
810.591	4295
810.733	4299
810.875	4500
811.016	4835
811.158	5083
811.299	5235
811.441	5273
811.582	5045
811.724	4702
811.865	4481
812.007	4466
812.148	4398
812.29	4459
812.431	4447
812.573	4421
812.714	4379
812.855	4481
812.997	4455
813.138	4485
813.279	4451
813.421	4390
813.562	4394
813.703	4322
813.845	4333
813.986	4242
814.127	4276
814.268	4261
814.41	4284
814.551	4272
814.692	4284
814.833	4310
814.974	4314
815.115	4367
815.256	4253
815.397	4223
815.539	4276
815.68	4192
815.821	4257
815.962	4333
816.103	4257
816.244	4227
816.385	4200
816.526	4287
816.666	4223
816.807	4143
816.948	4211
817.089	4230
817.23	4139
817.371	4109
817.512	4082
817.653	4051
817.793	4017
817.934	4044
818.075	4078
818.216	4101
818.356	4063
818.497	4025
818.638	3911
818.778	3907
818.919	3861
819.06	3854
819.2	3899
819.341	3835
819.481	3842
819.622	3930
819.762	4051
819.903	3968
820.043	3884
820.184	3835
820.324	3865
820.465	3850
820.605	3838
820.746	3880
820.886	3812
821.026	3903
821.167	3915
821.307	3975
821.447	3994
821.588	3983
821.728	3968
821.868	3964
822.008	3850
822.149	3907
822.289	3949
822.429	3804
822.569	3751
822.709	3785
822.849	3740
822.99	3728
823.13	3797
823.27	3842
823.41	3724
823.55	3751
823.69	3743
823.83	3751
823.97	3690
824.11	3633
824.25	3641
824.389	3682
824.529	3663
824.669	3614
824.809	3732
824.949	3747
825.089	3743
825.228	3663
825.368	3584
825.508	3568
825.648	3591
825.787	3595
825.927	3644
826.067	3625
826.206	3656
826.346	3850
826.485	3838
826.625	3857
826.765	3949
826.904	3827
827.044	3637
827.183	3534
827.323	3466
827.462	3496
827.601	3412
827.741	3397
827.88	3469
828.02	3370
828.159	3473
828.298	3496
828.437	3507
828.577	3496
828.716	3610
828.855	3511
828.994	3412
829.134	3374
829.273	3393
829.412	3348
829.551	3340
829.69	3378
829.829	3431
829.968	3557
830.107	3488
830.246	3428
830.385	3412
830.524	3382
830.663	3306
830.802	3264
830.941	3214
831.08	3138
831.219	3310
831.357	3302
831.496	3409
831.635	3241
831.774	3192
831.913	3211
832.051	3150
832.19	3176
832.329	3245
832.467	3123
832.606	3135
832.744	3142
832.883	3192
833.022	3207
833.16	3256
833.299	3294
833.437	3325
833.576	3367
833.714	3397
833.852	3435
833.991	3450
834.129	3443
834.267	3469
834.406	3435
834.544	3466
834.682	3435
834.821	3416
834.959	3584
835.097	3462
835.235	3511
835.373	3507
835.511	3504
835.65	3458
835.788	3496
835.926	3435
836.064	3382
836.202	3409
836.34	3584
836.478	3625
836.615	3576
836.753	3629
836.891	3667
837.029	3637
837.167	3610
837.305	3564
837.443	3511
837.58	3504
837.718	3595
837.856	3591
837.993	3534
838.131	3595
838.269	3553
838.406	3584
838.544	3549
838.681	3469
838.819	3443
838.956	3386
839.094	3405
839.231	3485
839.369	3553
839.506	3740
839.643	3633
839.781	3534
839.918	3458
840.055	3507
840.193	3526
840.33	3557
840.467	3553
840.604	3595
840.742	3812
840.879	3511
841.016	3568
841.153	3648
841.29	3755
841.427	3720
841.564	3736
841.701	3759
841.838	3709
841.975	3709
842.112	3724
842.249	3644
842.385	3671
842.522	3800
842.659	3736
842.796	3656
842.933	3713
843.069	3663
843.206	3728
843.343	3781
843.479	3778
843.616	3827
843.752	3667
843.889	3705
844.025	3869
844.162	3667
844.298	3873
844.435	3797
844.571	3781
844.708	3934
844.844	4010
844.98	4029
845.117	4025
845.253	3934
845.389	3892
845.525	3979
845.661	4010
845.798	3911
845.934	3998
846.07	3975
846.206	4051
846.342	4086
846.478	4097
846.614	3979
846.75	3934
846.886	3922
847.022	4051
847.158	3922
847.294	3975
847.429	4040
847.565	4013
847.701	4211
847.837	3915
847.972	3884
848.108	3983
848.244	3964
848.379	3880
848.515	3800
848.65	3812
848.786	3846
848.921	3884
849.057	3903
849.192	3949
849.328	3930
849.463	3876
849.598	3880
849.734	3869
849.869	3850
850.004	3838
850.14	3827
850.275	3804
850.41	3740
850.545	3797
850.68	3766
850.815	3785
850.95	3785
851.085	3922
851.22	3873
851.355	3842
851.49	3831
851.625	3797
851.76	3812
851.895	3717
852.03	3747
852.165	3808
852.299	3827
852.434	3899
852.569	3892
852.703	3869
852.838	3922
852.973	3960
853.107	4048
853.242	3888
853.376	3865
853.511	3831
853.645	3800
853.78	4021
853.914	3979
854.048	3903
854.183	3850
854.317	3960
854.451	4051
854.585	3975
854.72	3960
854.854	4063
854.988	3941
855.122	4013
855.256	3903
855.39	4032
855.524	4101
855.658	4082
855.792	4090
855.926	4177
856.06	4150
856.194	4261
856.327	4162
856.461	4135
856.595	4169
856.729	4150
856.862	4295
856.996	4261
857.13	4329
857.263	4348
857.397	4333
857.53	4257
857.664	4325
857.797	4383
857.931	4428
858.064	4405
858.197	4474
858.331	4421
858.464	4363
858.597	4352
858.731	4428
858.864	4500
858.997	4478
859.13	4531
859.263	4542
859.396	4554
859.529	4508
859.662	4527
859.795	4504
859.928	4580
860.061	4714
860.194	4759
860.327	4706
860.46	4611
860.592	4736
860.725	4740
860.858	4790
860.99	4691
861.123	4702
861.256	4672
861.388	4778
861.521	5387
861.653	4748
861.786	4729
861.918	4748
862.05	4782
862.183	4828
862.315	4896
862.447	4934
862.58	4908
862.712	4835
862.844	4793
862.976	4843
863.108	4927
863.24	5197
863.372	4877
863.504	4896
863.636	4843
863.768	4991
863.9	4968
864.032	4919
864.164	4987
864.296	4991
864.428	5083
864.559	5094
864.691	5132
864.823	5132
864.954	5098
865.086	5113
865.217	5124
865.349	5136
865.48	5185
865.612	5201
865.743	5288
865.875	5185
866.006	5174
866.137	5258
866.269	5250
866.4	5250
866.531	5242
866.662	5269
866.793	5284
866.924	5277
867.055	5337
867.186	5357
867.317	5357
867.448	5288
867.579	5398
867.71	5345
867.841	5395
867.972	5421
868.103	5471
868.233	5535
868.364	5520
868.495	5596
868.625	5653
868.756	5824
868.886	5649
869.017	5771
869.147	5878
869.278	5908
869.408	5824
869.539	5866
869.669	5927
869.799	5958
869.929	5999
870.06	5980
870.19	6178
870.32	6232
870.45	6346
870.58	6407
870.71	6456
870.84	6490
870.97	6486
871.1	6414
871.23	6662
871.36	6665
871.489	6715
871.619	6779
871.749	6840
871.879	6924
872.008	6954
872.138	6973
872.267	7000
872.397	7031
872.526	7012
872.656	7084
872.785	7278
872.915	7362
873.044	7567
873.173	7594
873.303	7628
873.432	7776
873.561	7818
873.69	7871
873.819	8020
873.948	8210
874.077	8237
874.206	8351
874.335	8476
874.464	8705
874.593	8800
874.722	8891
874.851	9176
874.979	9214
875.108	9370
875.237	9370
875.365	9431
875.494	9610
875.623	9785
875.751	9857
875.88	10036
876.008	10181
876.136	10246
876.265	10485
876.393	10641
876.521	10683
876.65	10831
876.778	10873
876.906	10930
877.034	10953
877.162	11052
877.29	11151
877.418	11318
877.546	11372
877.674	11406
877.802	11425
877.93	11585
878.058	11535
878.185	11638
878.313	11630
878.441	11688
878.568	11707
878.696	11752
878.824	11855
878.951	11912
879.079	12102
879.206	12167
879.333	12098
879.461	11969
879.588	12076
879.715	12026
879.842	12205
879.97	12159
880.097	11897
880.224	11954
880.351	11942
880.478	12007
880.605	11775
880.732	11779
880.859	12091
880.986	11878
881.112	11870
881.239	11783
881.366	11634
881.493	11608
881.619	11551
881.746	11611
881.872	11668
881.999	11543
882.125	11512
882.252	11554
882.378	11524
882.505	11657
882.631	11402
882.757	11216
882.883	11269
883.01	11204
883.136	11197
883.262	11162
883.388	11132
883.514	11250
883.64	11227
883.766	11071
883.892	10984
884.018	11014
884.143	11105
884.269	11041
884.395	10824
884.52	10774
884.646	10801
884.772	10748
884.897	10698
885.023	10706
885.148	10717
885.274	10736
885.399	10664
885.524	10611
885.65	10550
885.775	10577
885.9	10634
886.025	10561
886.15	10634
886.275	10443
886.4	10447
886.525	10379
886.65	10352
886.775	10348
886.9	10481
887.025	10466
887.149	10314
887.274	10242
887.399	10219
887.523	10242
887.648	10150
887.773	10147
887.897	10223
888.021	10215
888.146	10093
888.27	10185
888.395	10223
888.519	10147
888.643	10200
888.767	10268
888.891	10150
889.015	10021
889.139	10059
889.263	9994
889.387	10017
889.511	10086
889.635	10124
889.759	9953
889.883	9956
890.006	9926
890.13	10135
890.254	9964
890.377	9983
890.501	9937
890.624	9907
890.748	9987
890.871	9785
890.995	9701
891.118	9728
891.241	9846
891.364	9682
891.488	9823
891.611	9736
891.734	9762
891.857	9869
891.98	9694
892.103	9793
892.226	9724
892.349	9686
892.471	9538
892.594	9599
892.717	9625
892.839	9625
892.962	9587
893.085	9679
893.207	9660
893.33	9504
893.452	9538
893.575	9542
893.697	9412
893.819	9656
893.941	9660
894.064	9633
894.186	9458
894.308	9408
894.43	9545
894.552	9545
894.674	9515
894.796	9359
894.918	9382
895.04	9340
895.161	9321
895.283	9401
895.405	9275
895.526	9298
895.648	9218
895.769	9306
895.891	9260
896.012	9310
896.134	9180
896.255	9180
896.376	9089
896.498	9157
896.619	9211
896.74	9055
896.861	9131
896.982	9226
897.103	9241
897.224	9195
897.345	9112
897.466	9024
897.587	9009
897.708	9123
897.828	8982
897.949	9020
898.07	8929
898.19	8872
898.311	9001
898.431	8929
898.552	8982
898.672	8956
898.792	8944
898.913	8933
899.033	8853
899.153	8819
899.273	8674
899.393	8648
899.513	8746
899.633	8727
899.753	8735
899.873	8705
899.993	8807
900.113	8750
900.232	8689
900.352	8670
900.472	8663
900.591	8587
900.711	8564
900.83	8610
900.95	8674
901.069	8655
901.189	8526
901.308	8469
901.427	8442
901.546	8484
901.665	8434
901.784	8434
901.904	8404
902.023	8351
902.141	8294
902.26	8271
902.379	8320
902.498	8248
902.617	8210
902.735	8298
902.854	8343
902.973	8301
903.091	8164
903.21	8164
903.328	8191
903.446	8088
903.565	8024
903.683	8103
903.801	8027
903.919	8111
904.038	8123
904.156	8039
904.274	8100
904.392	7947
904.51	8024
904.627	8092
904.745	8058
904.863	8115
904.981	7928
905.098	7811
905.216	7913
905.334	7856
905.451	7925
905.569	7879
905.686	7906
905.803	7909
905.921	7807
906.038	7894
906.155	7833
906.272	7776
906.389	7772
906.506	7628
906.623	7715
906.74	7628
906.857	7556
906.974	7582
907.091	7685
907.208	7715
907.324	7624
907.441	7521
907.557	7449
907.674	7441
907.79	7422
907.907	7438
908.023	7453
908.139	7441
908.256	7430
908.372	7377
908.488	7343
908.604	7335
908.72	7282
908.836	7282
908.952	7274
909.068	7225
909.184	7335
909.3	7263
909.415	7320
909.531	7247
909.647	7091
909.762	7053
909.878	7168
909.993	7118
910.108	7103
910.224	7103
910.339	7061
910.454	7076
910.57	7004
910.685	6973
910.8	7164
910.915	7110
911.03	7012
911.145	6901
911.259	6878
911.374	6916
911.489	6848
911.604	6806
911.718	6745
911.833	6730
911.947	6635
912.062	6582
912.176	6745
912.291	6730
912.405	6734
912.519	6863
912.633	6837
912.748	6703
912.862	6707
912.976	6604
913.09	6506
913.204	6635
913.318	6639
913.431	6662
913.545	6673
913.659	6703
913.772	6673
913.886	6650
914	6551
914.113	6646
914.226	6574
914.34	6650
914.453	6475
914.566	6631
914.68	6513
914.793	6544
914.906	6471
915.019	6410
915.132	6376
915.245	6483
915.358	6429
915.47	6414
915.583	6448
915.696	6464
915.809	6559
915.921	6639
916.034	6433
916.146	6426
916.259	6407
916.371	6471
916.483	6460
916.595	6403
916.708	6414
916.82	6395
916.932	6353
917.044	6422
917.156	6414
917.268	6319
917.38	6308
917.491	6327
917.603	6414
917.715	6456
917.826	6361
917.938	6369
918.049	6270
918.161	6410
918.272	6464
918.384	6441
918.495	6376
918.606	6308
918.717	6186
918.828	6243
918.939	6266
919.05	6175
919.161	6262
919.272	6163
919.383	6224
919.494	6311
919.604	6433
919.715	6319
919.826	6228
919.936	6258
920.047	6327
920.157	6277
920.267	6506
920.378	6334
920.488	6342
920.598	6429
920.708	6578
920.818	6502
920.928	6464
921.038	6608
921.148	6639
921.258	6369
921.368	6270
921.477	6148
921.587	6148
921.697	6038
921.806	6155
921.916	6095
922.025	5950
922.134	5920
922.244	5885
922.353	5977
922.462	5840
922.571	5802
922.68	5729
922.789	5714
922.898	5737
923.007	5653
923.116	5668
923.224	5661
923.333	5691
923.442	5649
923.55	5589
923.659	5608
923.767	5623
923.876	5577
923.984	5570
924.092	5558
924.201	5543
924.309	5528
924.417	5539
924.525	5528
924.633	5539
924.741	6243
924.849	5368
924.956	5478
925.064	5353
925.172	5322
925.279	5296
925.387	5364
925.494	5288
925.602	5433
925.709	5436
925.816	5288
925.924	5311
926.031	5402
926.138	5318
926.245	5357
926.352	5223
926.459	5341
926.566	5318
926.673	5189
926.779	5109
926.886	5162
926.993	5048
927.099	4946
927.206	5006
927.312	5010
927.419	5003
927.525	4999
927.631	4953
927.737	4885
927.843	4904
927.95	4797
928.056	4816
928.162	4847
928.267	4839
928.373	5322
928.479	4850
928.585	4694
928.69	4790
928.796	4809
928.901	4694
929.007	4634
929.112	4675
929.218	4637
929.323	4577
929.428	4577
929.533	4641
929.638	4577
929.743	4550
929.848	4615
929.953	4512
930.058	4413
930.163	4356
930.267	4367
930.372	4424
930.477	4287
930.581	4462
930.685	4337
930.79	4268
930.894	4310
930.998	4265
931.103	4390
931.207	4173
931.311	4105
931.415	4051
931.519	3922
931.623	3975
