Data from glass_V78500241_1536.txt Node
Date: Wed Sep 01 19:25:08 CST 2021
User: usil
Spectrometer: V785-0024
Trigger mode: 0
Integration Time (sec): 4.000000E-1
Scans to average: 1
Nonlinearity correction enabled: false
Boxcar width: 0
Storing dark spectrum: false
XAxis mode: Wavelengths
Number of Pixels in Spectrum: 1024
>>>>>Begin Spectral Data<<<<<
801.071	3747
801.214	3732
801.356	3713
801.499	3762
801.641	3762
801.783	3770
801.926	3876
802.068	3842
802.211	3846
802.353	3873
802.496	3838
802.638	3892
802.78	3915
802.923	3934
803.065	3888
803.208	3869
803.35	3827
803.492	3869
803.635	3937
803.777	3789
803.919	3835
804.061	4143
804.204	3941
804.346	3945
804.488	3922
804.63	4017
804.773	3975
804.915	4074
805.057	4150
805.199	4025
805.341	4059
805.483	4109
805.626	4150
805.768	4109
805.91	4177
806.052	4207
806.194	4215
806.336	4344
806.478	4246
806.62	4173
806.762	4158
806.904	4287
807.046	4322
807.188	4200
807.33	4185
807.472	4223
807.614	4166
807.756	4234
807.898	4211
808.04	4192
808.182	4246
808.324	4325
808.465	4363
808.607	4497
808.749	4462
808.891	4474
809.033	4500
809.174	4390
809.316	4261
809.458	4295
809.6	4139
809.741	4143
809.883	4112
810.025	4223
810.166	4204
810.308	4257
810.45	4219
810.591	4276
810.733	4295
810.875	4500
811.016	4782
811.158	5117
811.299	5212
811.441	5288
811.582	5041
811.724	4687
811.865	4508
812.007	4470
812.148	4443
812.29	4386
812.431	4424
812.573	4402
812.714	4428
812.855	4428
812.997	4394
813.138	4474
813.279	4413
813.421	4402
813.562	4371
813.703	4329
813.845	4325
813.986	4249
814.127	4253
814.268	4242
814.41	4299
814.551	4257
814.692	4348
814.833	4284
814.974	4295
815.115	4295
815.256	4246
815.397	4196
815.539	4280
815.68	4211
815.821	4230
815.962	4310
816.103	4272
816.244	4230
816.385	4227
816.526	4249
816.666	4200
816.807	4112
816.948	4173
817.089	4154
817.23	4090
817.371	4067
817.512	4036
817.653	4055
817.793	4021
817.934	4021
818.075	4109
818.216	4082
818.356	4101
818.497	3960
818.638	3934
818.778	3949
818.919	3865
819.06	3884
819.2	3918
819.341	3873
819.481	3842
819.622	3926
819.762	3949
819.903	3926
820.043	3827
820.184	3880
820.324	3831
820.465	3903
820.605	3930
820.746	3907
820.886	3797
821.026	3968
821.167	3926
821.307	3998
821.447	3994
821.588	3972
821.728	3991
821.868	3934
822.008	3846
822.149	3907
822.289	3953
822.429	3766
822.569	3762
822.709	3770
822.849	3713
822.99	3762
823.13	3770
823.27	3793
823.41	3698
823.55	3766
823.69	3740
823.83	3740
823.97	3675
824.11	3591
824.25	3549
824.389	3625
824.529	3679
824.669	3660
824.809	3724
824.949	3743
825.089	3740
825.228	3690
825.368	3545
825.508	3584
825.648	3576
825.787	3614
825.927	3671
826.067	3660
826.206	3644
826.346	3759
826.485	3835
826.625	3857
826.765	3937
826.904	3827
827.044	3625
827.183	3504
827.323	3458
827.462	3515
827.601	3431
827.741	3409
827.88	3466
828.02	3355
828.159	3439
828.298	3488
828.437	3496
828.577	3477
828.716	3576
828.855	3477
828.994	3374
829.134	3386
829.273	3420
829.412	3351
829.551	3359
829.69	3382
829.829	3466
829.968	3500
830.107	3401
830.246	3447
830.385	3378
830.524	3355
830.663	3310
830.802	3245
830.941	3188
831.08	3188
831.219	3249
831.357	3317
831.496	3435
831.635	3256
831.774	3154
831.913	3214
832.051	3138
832.19	3161
832.329	3218
832.467	3116
832.606	3085
832.744	3192
832.883	3157
833.022	3230
833.16	3256
833.299	3283
833.437	3340
833.576	3329
833.714	3374
833.852	3435
833.991	3447
834.129	3492
834.267	3477
834.406	3405
834.544	3428
834.682	3416
834.821	3389
834.959	3557
835.097	3450
835.235	3526
835.373	3534
835.511	3481
835.65	3454
835.788	3462
835.926	3397
836.064	3389
836.202	3424
836.34	3545
836.478	3629
836.615	3542
836.753	3580
836.891	3644
837.029	3606
837.167	3580
837.305	3549
837.443	3504
837.58	3481
837.718	3572
837.856	3576
837.993	3572
838.131	3568
838.269	3572
838.406	3610
838.544	3591
838.681	3450
838.819	3443
838.956	3401
839.094	3374
839.231	3477
839.369	3492
839.506	3740
839.643	3660
839.781	3515
839.918	3462
840.055	3530
840.193	3534
840.33	3526
840.467	3576
840.604	3553
840.742	3774
840.879	3542
841.016	3557
841.153	3629
841.29	3766
841.427	3713
841.564	3720
841.701	3713
841.838	3717
841.975	3694
842.112	3755
842.249	3625
842.385	3595
842.522	3797
842.659	3705
842.796	3675
842.933	3709
843.069	3724
843.206	3667
843.343	3827
843.479	3759
843.616	3816
843.752	3599
843.889	3690
844.025	3876
844.162	3724
844.298	3896
844.435	3785
844.571	3785
844.708	3899
844.844	3987
844.98	4025
845.117	4017
845.253	3899
845.389	3903
845.525	3979
845.661	3949
845.798	3918
845.934	4013
846.07	3964
846.206	4025
846.342	4112
846.478	4032
846.614	3972
846.75	3911
846.886	3888
847.022	4032
847.158	4010
847.294	4017
847.429	4044
847.565	3979
847.701	4246
847.837	3873
847.972	3842
848.108	3979
848.244	3968
848.379	3903
848.515	3827
848.65	3800
848.786	3835
848.921	3888
849.057	3953
849.192	3941
849.328	3922
849.463	3892
849.598	3915
849.734	3842
849.869	3831
850.004	3812
850.14	3808
850.275	3762
850.41	3736
850.545	3743
850.68	3785
850.815	3762
850.95	3800
851.085	3949
851.22	3869
851.355	3827
851.49	3793
851.625	3770
851.76	3797
851.895	3740
852.03	3732
852.165	3781
852.299	3861
852.434	3888
852.569	3835
852.703	3922
852.838	3915
852.973	4002
853.107	3972
853.242	3896
853.376	3869
853.511	3789
853.645	3778
853.78	3945
853.914	3934
854.048	3842
854.183	3907
854.317	3937
854.451	4036
854.585	3953
854.72	3983
854.854	4010
854.988	3945
855.122	4051
855.256	3911
855.39	4029
855.524	4071
855.658	4074
855.792	4112
855.926	4135
856.06	4135
856.194	4219
856.327	4109
856.461	4135
856.595	4131
856.729	4143
856.862	4265
856.996	4253
857.13	4306
857.263	4322
857.397	4394
857.53	4276
857.664	4333
857.797	4405
857.931	4409
858.064	4367
858.197	4466
858.331	4436
858.464	4386
858.597	4402
858.731	4443
858.864	4451
858.997	4455
859.13	4493
859.263	4569
859.396	4569
859.529	4542
859.662	4542
859.795	4527
859.928	4592
860.061	4694
860.194	4725
860.327	4679
860.46	4603
860.592	4755
860.725	4740
860.858	4771
860.99	4717
861.123	4725
861.256	4706
861.388	4809
861.521	5562
861.653	4687
861.786	4683
861.918	4809
862.05	4797
862.183	4786
862.315	4904
862.447	4919
862.58	4862
862.712	4755
862.844	4736
862.976	4877
863.108	4850
863.24	5277
863.372	4771
863.504	4915
863.636	4873
863.768	4961
863.9	4972
864.032	4934
864.164	4953
864.296	5018
864.428	5071
864.559	5071
864.691	5090
864.823	5185
864.954	5090
865.086	5147
865.217	5121
865.349	5140
865.48	5143
865.612	5201
865.743	5273
865.875	5204
866.006	5193
866.137	5185
866.269	5235
866.4	5265
866.531	5261
866.662	5204
866.793	5239
866.924	5254
867.055	5349
867.186	5322
867.317	5318
867.448	5353
867.579	5353
867.71	5391
867.841	5341
867.972	5474
868.103	5501
868.233	5455
868.364	5463
868.495	5505
868.625	5668
868.756	5828
868.886	5695
869.017	5764
869.147	5866
869.278	5866
869.408	5798
869.539	5802
869.669	5965
869.799	5863
869.929	5969
870.06	6003
870.19	6224
870.32	6251
870.45	6289
870.58	6410
870.71	6486
870.84	6475
870.97	6445
871.1	6452
871.23	6681
871.36	6711
871.489	6662
871.619	6711
871.749	6848
871.879	6871
872.008	7042
872.138	6958
872.267	6985
872.397	6977
872.526	7038
872.656	7095
872.785	7217
872.915	7327
873.044	7495
873.173	7537
873.303	7677
873.432	7719
873.561	7894
873.69	7928
873.819	8020
873.948	8142
874.077	8218
874.206	8332
874.335	8488
874.464	8655
874.593	8857
874.722	8921
874.851	9104
874.979	9275
875.108	9386
875.237	9428
875.365	9477
875.494	9553
875.623	9808
875.751	9838
875.88	10002
876.008	10150
876.136	10303
876.265	10504
876.393	10710
876.521	10691
876.65	10873
876.778	10850
876.906	10869
877.034	10946
877.162	11136
877.29	11075
877.418	11341
877.546	11349
877.674	11429
877.802	11410
877.93	11539
878.058	11611
878.185	11532
878.313	11661
878.441	11775
878.568	11771
878.696	11771
878.824	11885
878.951	11901
879.079	12060
879.206	12163
879.333	12015
879.461	11988
879.588	12098
879.715	12125
879.842	12182
879.97	12064
880.097	11942
880.224	11916
880.351	11935
880.478	11794
880.605	11885
880.732	11855
880.859	11992
880.986	11840
881.112	11840
881.239	11767
881.366	11722
881.493	11615
881.619	11554
881.746	11611
881.872	11471
881.999	11459
882.125	11455
882.252	11558
882.378	11490
882.505	11490
882.631	11421
882.757	11208
882.883	11284
883.01	11303
883.136	11235
883.262	11151
883.388	11162
883.514	11124
883.64	11079
883.766	11128
883.892	10968
884.018	11033
884.143	11003
884.269	11121
884.395	10843
884.52	10755
884.646	10767
884.772	10744
884.897	10683
885.023	10717
885.148	10710
885.274	10805
885.399	10683
885.524	10634
885.65	10538
885.775	10603
885.9	10664
886.025	10565
886.15	10485
886.275	10485
886.4	10375
886.525	10402
886.65	10402
886.775	10322
886.9	10470
887.025	10519
887.149	10337
887.274	10181
887.399	10196
887.523	10135
887.648	10143
887.773	10204
887.897	10272
888.021	10314
888.146	10166
888.27	10253
888.395	10219
888.519	10162
888.643	10207
888.767	10227
888.891	10116
889.015	10051
889.139	9987
889.263	10036
889.387	10067
889.511	10082
889.635	10059
889.759	10044
889.883	10006
890.006	9956
890.13	10013
890.254	9968
890.377	9949
890.501	9903
890.624	9922
890.748	9911
890.871	9778
890.995	9800
891.118	9736
891.241	9797
891.364	9701
891.488	9842
891.611	9713
891.734	9762
891.857	9728
891.98	9762
892.103	9728
892.226	9690
892.349	9667
892.471	9542
892.594	9591
892.717	9660
892.839	9545
892.962	9667
893.085	9629
893.207	9652
893.33	9515
893.452	9538
893.575	9584
893.697	9462
893.819	9625
893.941	9682
894.064	9603
894.186	9500
894.308	9374
894.43	9500
894.552	9564
894.674	9496
894.796	9344
894.918	9458
895.04	9367
895.161	9389
895.283	9378
895.405	9226
895.526	9298
895.648	9272
895.769	9287
895.891	9298
896.012	9226
896.134	9176
896.255	9211
896.376	9131
896.498	9222
896.619	9119
896.74	9051
896.861	9077
896.982	9298
897.103	9291
897.224	9188
897.345	9077
897.466	9028
897.587	9039
897.708	9093
897.828	9024
897.949	8956
898.07	8857
898.19	8941
898.311	8956
898.431	8948
898.552	8952
898.672	9013
898.792	8914
898.913	8849
899.033	8845
899.153	8705
899.273	8693
899.393	8674
899.513	8773
899.633	8750
899.753	8788
899.873	8708
899.993	8727
900.113	8686
900.232	8781
900.352	8720
900.472	8640
900.591	8507
900.711	8575
900.83	8541
900.95	8716
901.069	8655
901.189	8632
901.308	8511
901.427	8461
901.546	8423
901.665	8469
901.784	8530
901.904	8404
902.023	8259
902.141	8252
902.26	8214
902.379	8305
902.498	8145
902.617	8206
902.735	8263
902.854	8263
902.973	8263
903.091	8145
903.21	8123
903.328	8138
903.446	8153
903.565	8145
903.683	8111
903.801	8054
903.919	8202
904.038	8103
904.156	8027
904.274	8024
904.392	8039
904.51	7989
904.627	8035
904.745	8077
904.863	8130
904.981	7928
905.098	7871
905.216	7871
905.334	7925
905.451	7849
905.569	7849
905.686	7940
905.803	7906
905.921	7761
906.038	7898
906.155	7780
906.272	7776
906.389	7693
906.506	7628
906.623	7624
906.74	7624
906.857	7548
906.974	7556
907.091	7662
907.208	7693
907.324	7674
907.441	7575
907.557	7537
907.674	7430
907.79	7403
907.907	7449
908.023	7396
908.139	7483
908.256	7407
908.372	7335
908.488	7381
908.604	7225
908.72	7187
908.836	7263
908.952	7247
909.068	7263
909.184	7305
909.3	7209
909.415	7225
909.531	7289
909.647	7149
909.762	7126
909.878	7137
909.993	7114
910.108	7084
910.224	7110
910.339	7099
910.454	7023
910.57	6985
910.685	6962
910.8	7179
910.915	7088
911.03	6973
911.145	6897
911.259	6863
911.374	6894
911.489	6818
911.604	6779
911.718	6749
911.833	6791
911.947	6627
912.062	6620
912.176	6692
912.291	6684
912.405	6703
912.519	6875
912.633	6795
912.748	6734
912.862	6681
912.976	6665
913.09	6506
913.204	6566
913.318	6574
913.431	6646
913.545	6658
913.659	6722
913.772	6673
913.886	6585
914	6559
914.113	6585
914.226	6677
914.34	6601
914.453	6502
914.566	6578
914.68	6582
914.793	6525
914.906	6384
915.019	6433
915.132	6403
915.245	6460
915.358	6445
915.47	6456
915.583	6391
915.696	6494
915.809	6551
915.921	6517
916.034	6410
916.146	6433
916.259	6391
916.371	6486
916.483	6410
916.595	6399
916.708	6437
916.82	6391
916.932	6376
917.044	6391
917.156	6471
917.268	6311
917.38	6410
917.491	6281
917.603	6380
917.715	6388
917.826	6407
917.938	6350
918.049	6254
918.161	6353
918.272	6418
918.384	6369
918.495	6262
918.606	6235
918.717	6235
918.828	6251
918.939	6289
919.05	6213
919.161	6262
919.272	6114
919.383	6136
919.494	6270
919.604	6441
919.715	6247
919.826	6266
919.936	6296
920.047	6334
920.157	6285
920.267	6433
920.378	6342
920.488	6247
920.598	6433
920.708	6544
920.818	6483
920.928	6471
921.038	6608
921.148	6544
921.258	6350
921.368	6323
921.477	6228
921.587	6201
921.697	6102
921.806	6136
921.916	6098
922.025	5965
922.134	5980
922.244	5878
922.353	5980
922.462	5878
922.571	5847
922.68	5653
922.789	5676
922.898	5691
923.007	5668
923.116	5653
923.224	5623
923.333	5680
923.442	5649
923.55	5611
923.659	5573
923.767	5627
923.876	5520
923.984	5611
924.092	5528
924.201	5524
924.309	5577
924.417	5535
924.525	5440
924.633	5509
924.741	6140
924.849	5326
924.956	5509
925.064	5326
925.172	5296
925.279	5345
925.387	5406
925.494	5315
925.602	5421
925.709	5379
925.816	5296
925.924	5311
926.031	5322
926.138	5307
926.245	5315
926.352	5197
926.459	5326
926.566	5318
926.673	5220
926.779	5147
926.886	5136
926.993	5045
927.099	4957
927.206	4957
927.312	4953
927.419	5045
927.525	4980
927.631	5014
927.737	4930
927.843	4847
927.95	4729
928.056	4828
928.162	4881
928.267	4843
928.373	5364
928.479	4812
928.585	4660
928.69	4786
928.796	4786
928.901	4698
929.007	4561
929.112	4664
929.218	4683
929.323	4599
929.428	4592
929.533	4653
929.638	4512
929.743	4538
929.848	4607
929.953	4523
930.058	4443
930.163	4303
930.267	4325
930.372	4455
930.477	4329
930.581	4478
930.685	4367
930.79	4291
930.894	4249
930.998	4253
931.103	4398
931.207	4120
931.311	4086
931.415	4086
931.519	3903
931.623	3953
