Data from glass_V78500241_2200.txt Node
Date: Wed Sep 01 19:29:45 CST 2021
User: usil
Spectrometer: V785-0024
Trigger mode: 0
Integration Time (sec): 4.000000E-1
Scans to average: 1
Nonlinearity correction enabled: false
Boxcar width: 0
Storing dark spectrum: false
XAxis mode: Wavelengths
Number of Pixels in Spectrum: 1024
>>>>>Begin Spectral Data<<<<<
801.071	3736
801.214	3759
801.356	3743
801.499	3694
801.641	3755
801.783	3800
801.926	3831
802.068	3819
802.211	3808
802.353	3869
802.496	3854
802.638	3850
802.78	3922
802.923	3911
803.065	3873
803.208	3823
803.35	3888
803.492	3930
803.635	3896
803.777	3793
803.919	3861
804.061	4112
804.204	4002
804.346	3964
804.488	3926
804.63	3991
804.773	3991
804.915	3998
805.057	4173
805.199	4010
805.341	4067
805.483	4177
805.626	4131
805.768	4109
805.91	4204
806.052	4173
806.194	4200
806.336	4329
806.478	4166
806.62	4200
806.762	4162
806.904	4268
807.046	4295
807.188	4185
807.33	4188
807.472	4211
807.614	4173
807.756	4261
807.898	4230
808.04	4246
808.182	4249
808.324	4287
808.465	4352
808.607	4424
808.749	4440
808.891	4455
809.033	4470
809.174	4398
809.316	4280
809.458	4227
809.6	4109
809.741	4135
809.883	4166
810.025	4234
810.166	4234
810.308	4207
810.45	4238
810.591	4234
810.733	4306
810.875	4470
811.016	4793
811.158	5102
811.299	5254
811.441	5239
811.582	5067
811.724	4649
811.865	4466
812.007	4462
812.148	4470
812.29	4402
812.431	4409
812.573	4383
812.714	4344
812.855	4421
812.997	4402
813.138	4512
813.279	4409
813.421	4409
813.562	4421
813.703	4325
813.845	4314
813.986	4211
814.127	4238
814.268	4265
814.41	4253
814.551	4211
814.692	4318
814.833	4261
814.974	4303
815.115	4291
815.256	4234
815.397	4272
815.539	4280
815.68	4177
815.821	4185
815.962	4280
816.103	4223
816.244	4242
816.385	4227
816.526	4272
816.666	4249
816.807	4048
816.948	4185
817.089	4162
817.23	4048
817.371	4051
817.512	4067
817.653	4139
817.793	3972
817.934	4071
818.075	4059
818.216	4044
818.356	4097
818.497	3960
818.638	3926
818.778	3911
818.919	3854
819.06	3857
819.2	3934
819.341	3842
819.481	3797
819.622	3907
819.762	4013
819.903	3915
820.043	3854
820.184	3835
820.324	3835
820.465	3869
820.605	3854
820.746	3880
820.886	3789
821.026	3915
821.167	3884
821.307	3994
821.447	3945
821.588	3915
821.728	3888
821.868	3892
822.008	3873
822.149	3945
822.289	3937
822.429	3812
822.569	3789
822.709	3793
822.849	3740
822.99	3701
823.13	3759
823.27	3740
823.41	3625
823.55	3736
823.69	3694
823.83	3717
823.97	3660
824.11	3614
824.25	3561
824.389	3614
824.529	3622
824.669	3633
824.809	3717
824.949	3732
825.089	3671
825.228	3679
825.368	3587
825.508	3542
825.648	3561
825.787	3599
825.927	3610
826.067	3633
826.206	3648
826.346	3755
826.485	3876
826.625	3842
826.765	3918
826.904	3857
827.044	3576
827.183	3515
827.323	3439
827.462	3477
827.601	3428
827.741	3428
827.88	3496
828.02	3370
828.159	3447
828.298	3466
828.437	3534
828.577	3485
828.716	3584
828.855	3485
828.994	3401
829.134	3355
829.273	3378
829.412	3344
829.551	3351
829.69	3344
829.829	3424
829.968	3500
830.107	3386
830.246	3431
830.385	3363
830.524	3359
830.663	3279
830.802	3268
830.941	3169
831.08	3169
831.219	3222
831.357	3275
831.496	3412
831.635	3218
831.774	3176
831.913	3180
832.051	3142
832.19	3161
832.329	3233
832.467	3146
832.606	3138
832.744	3127
832.883	3192
833.022	3230
833.16	3237
833.299	3325
833.437	3359
833.576	3416
833.714	3397
833.852	3416
833.991	3466
834.129	3439
834.267	3450
834.406	3393
834.544	3439
834.682	3454
834.821	3435
834.959	3561
835.097	3401
835.235	3545
835.373	3466
835.511	3496
835.65	3420
835.788	3523
835.926	3393
836.064	3386
836.202	3355
836.34	3584
836.478	3610
836.615	3515
836.753	3557
836.891	3637
837.029	3618
837.167	3568
837.305	3553
837.443	3511
837.58	3519
837.718	3606
837.856	3545
837.993	3511
838.131	3618
838.269	3572
838.406	3553
838.544	3591
838.681	3473
838.819	3435
838.956	3378
839.094	3405
839.231	3450
839.369	3549
839.506	3717
839.643	3660
839.781	3481
839.918	3447
840.055	3538
840.193	3549
840.33	3515
840.467	3542
840.604	3576
840.742	3831
840.879	3515
841.016	3526
841.153	3584
841.29	3789
841.427	3690
841.564	3728
841.701	3762
841.838	3694
841.975	3671
842.112	3736
842.249	3603
842.385	3641
842.522	3850
842.659	3705
842.796	3667
842.933	3682
843.069	3667
843.206	3717
843.343	3781
843.479	3774
843.616	3781
843.752	3686
843.889	3686
844.025	3873
844.162	3671
844.298	3850
844.435	3804
844.571	3781
844.708	3911
844.844	3998
844.98	4036
845.117	4013
845.253	3979
845.389	3892
845.525	3953
845.661	4006
845.798	3956
845.934	3987
846.07	3876
846.206	4067
846.342	4071
846.478	3991
846.614	3934
846.75	3953
846.886	3873
847.022	4010
847.158	3979
847.294	3968
847.429	4002
847.565	4017
847.701	4200
847.837	3873
847.972	3873
848.108	3994
848.244	4010
848.379	3838
848.515	3797
848.65	3827
848.786	3823
848.921	3816
849.057	3934
849.192	3941
849.328	3880
849.463	3892
849.598	3861
849.734	3903
849.869	3827
850.004	3800
850.14	3827
850.275	3785
850.41	3743
850.545	3755
850.68	3724
850.815	3770
850.95	3778
851.085	3854
851.22	3892
851.355	3835
851.49	3774
851.625	3759
851.76	3812
851.895	3720
852.03	3759
852.165	3774
852.299	3808
852.434	3915
852.569	3854
852.703	3880
852.838	3899
852.973	4002
853.107	3956
853.242	3869
853.376	3854
853.511	3808
853.645	3861
853.78	3956
853.914	3876
854.048	3915
854.183	3869
854.317	3937
854.451	4071
854.585	3960
854.72	3922
854.854	4071
854.988	3915
855.122	4013
855.256	3934
855.39	4013
855.524	4109
855.658	4071
855.792	4120
855.926	4158
856.06	4154
856.194	4177
856.327	4105
856.461	4120
856.595	4158
856.729	4181
856.862	4276
856.996	4265
857.13	4337
857.263	4333
857.397	4402
857.53	4291
857.664	4375
857.797	4367
857.931	4428
858.064	4383
858.197	4447
858.331	4363
858.464	4363
858.597	4325
858.731	4440
858.864	4447
858.997	4451
859.13	4516
859.263	4527
859.396	4573
859.529	4542
859.662	4561
859.795	4519
859.928	4588
860.061	4668
860.194	4702
860.327	4634
860.46	4630
860.592	4755
860.725	4793
860.858	4763
860.99	4668
861.123	4637
861.256	4710
861.388	4763
861.521	5395
861.653	4759
861.786	4714
861.918	4763
862.05	4778
862.183	4831
862.315	4889
862.447	4911
862.58	4858
862.712	4801
862.844	4740
862.976	4820
863.108	4862
863.24	5140
863.372	4809
863.504	4900
863.636	4900
863.768	4930
863.9	4949
864.032	4911
864.164	4919
864.296	5048
864.428	5037
864.559	5075
864.691	5117
864.823	5178
864.954	5147
865.086	5159
865.217	5136
865.349	5037
865.48	5147
865.612	5185
865.743	5269
865.875	5143
866.006	5132
866.137	5235
866.269	5185
866.4	5223
866.531	5258
866.662	5216
866.793	5254
866.924	5280
867.055	5311
867.186	5273
867.317	5353
867.448	5292
867.579	5391
867.71	5372
867.841	5341
867.972	5455
868.103	5440
868.233	5493
868.364	5493
868.495	5554
868.625	5668
868.756	5764
868.886	5638
869.017	5733
869.147	5847
869.278	5832
869.408	5779
869.539	5802
869.669	5828
869.799	5847
869.929	6007
870.06	5999
870.19	6110
870.32	6190
870.45	6258
870.58	6331
870.71	6414
870.84	6471
870.97	6388
871.1	6422
871.23	6593
871.36	6692
871.489	6681
871.619	6779
871.749	6776
871.879	6806
872.008	6924
872.138	6947
872.267	6951
872.397	7038
872.526	7019
872.656	7107
872.785	7209
872.915	7396
873.044	7529
873.173	7582
873.303	7597
873.432	7830
873.561	7894
873.69	7906
873.819	8031
873.948	8100
874.077	8248
874.206	8275
874.335	8450
874.464	8644
874.593	8826
874.722	8967
874.851	9146
874.979	9275
875.108	9393
875.237	9458
875.365	9534
875.494	9648
875.623	9808
875.751	9903
875.88	9972
876.008	10071
876.136	10272
876.265	10462
876.393	10645
876.521	10672
876.65	10816
876.778	10809
876.906	10839
877.034	10976
877.162	11014
877.29	11155
877.418	11292
877.546	11444
877.674	11436
877.802	11501
877.93	11501
878.058	11570
878.185	11585
878.313	11634
878.441	11699
878.568	11634
878.696	11756
878.824	11893
878.951	11904
879.079	12015
879.206	12155
879.333	12026
879.461	11904
879.588	12079
879.715	12057
879.842	12247
879.97	12057
880.097	11931
880.224	11874
880.351	11901
880.478	11961
880.605	11908
880.732	11893
880.859	11980
880.986	11722
881.112	11851
881.239	11775
881.366	11665
881.493	11573
881.619	11577
881.746	11532
881.872	11558
881.999	11452
882.125	11566
882.252	11558
882.378	11501
882.505	11589
882.631	11284
882.757	11181
882.883	11383
883.01	11296
883.136	11170
883.262	11174
883.388	11071
883.514	11147
883.64	11178
883.766	11124
883.892	10984
884.018	11037
884.143	11083
884.269	11048
884.395	10847
884.52	10721
884.646	10717
884.772	10717
884.897	10645
885.023	10687
885.148	10771
885.274	10744
885.399	10672
885.524	10645
885.65	10546
885.775	10550
885.9	10611
886.025	10535
886.15	10538
886.275	10432
886.4	10337
886.525	10371
886.65	10341
886.775	10440
886.9	10432
887.025	10519
887.149	10303
887.274	10253
887.399	10284
887.523	10154
887.648	10196
887.773	10078
887.897	10299
888.021	10257
888.146	10124
888.27	10249
888.395	10272
888.519	10177
888.643	10215
888.767	10154
888.891	10086
889.015	9972
889.139	10135
889.263	9987
889.387	10097
889.511	10177
889.635	10101
889.759	9987
889.883	10036
890.006	9975
890.13	10021
890.254	9956
890.377	10002
890.501	9846
890.624	9892
890.748	9869
890.871	9720
890.995	9759
891.118	9682
891.241	9698
891.364	9793
891.488	9838
891.611	9717
891.734	9785
891.857	9789
891.98	9667
892.103	9797
892.226	9675
892.349	9637
892.471	9485
892.594	9477
892.717	9614
892.839	9549
892.962	9614
893.085	9701
893.207	9603
893.33	9530
893.452	9538
893.575	9675
893.697	9488
893.819	9675
893.941	9580
894.064	9534
894.186	9393
894.308	9424
894.43	9591
894.552	9538
894.674	9488
894.796	9405
894.918	9367
895.04	9386
895.161	9363
895.283	9256
895.405	9237
895.526	9256
895.648	9237
895.769	9253
895.891	9275
896.012	9310
896.134	9245
896.255	9154
896.376	9131
896.498	9142
896.619	9135
896.74	8975
896.861	9154
896.982	9294
897.103	9268
897.224	9119
897.345	8960
897.466	8990
897.587	8998
897.708	9093
897.828	9066
897.949	8883
898.07	8887
898.19	8857
898.311	8948
898.431	8925
898.552	8910
898.672	8967
898.792	8914
898.913	8948
899.033	8750
899.153	8705
899.273	8670
899.393	8705
899.513	8777
899.633	8667
899.753	8674
899.873	8701
899.993	8739
900.113	8632
900.232	8682
900.352	8625
900.472	8648
900.591	8583
900.711	8587
900.83	8575
900.95	8663
901.069	8712
901.189	8629
901.308	8438
901.427	8381
901.546	8362
901.665	8457
901.784	8438
901.904	8347
902.023	8431
902.141	8176
902.26	8138
902.379	8290
902.498	8172
902.617	8214
902.735	8343
902.854	8252
902.973	8263
903.091	8153
903.21	8115
903.328	8092
903.446	8069
903.565	8001
903.683	8092
903.801	8088
903.919	8065
904.038	8153
904.156	8103
904.274	8058
904.392	8035
904.51	8054
904.627	8062
904.745	8115
904.863	8027
904.981	7951
905.098	7830
905.216	7925
905.334	7830
905.451	7860
905.569	7849
905.686	7875
905.803	7852
905.921	7734
906.038	7845
906.155	7833
906.272	7723
906.389	7651
906.506	7613
906.623	7632
906.74	7582
906.857	7548
906.974	7533
907.091	7594
907.208	7674
907.324	7594
907.441	7563
907.557	7449
907.674	7407
907.79	7415
907.907	7350
908.023	7392
908.139	7441
908.256	7400
908.372	7346
908.488	7305
908.604	7282
908.72	7202
908.836	7270
908.952	7259
909.068	7259
909.184	7335
909.3	7198
909.415	7274
909.531	7282
909.647	7110
909.762	7149
909.878	7069
909.993	7129
910.108	7099
910.224	7069
910.339	7129
910.454	7057
910.57	7004
910.685	6989
910.8	7133
910.915	7091
911.03	7088
911.145	6852
911.259	6871
911.374	6859
911.489	6920
911.604	6787
911.718	6684
911.833	6726
911.947	6620
912.062	6570
912.176	6703
912.291	6715
912.405	6719
912.519	6783
912.633	6848
912.748	6662
912.862	6673
912.976	6608
913.09	6544
913.204	6547
913.318	6593
913.431	6631
913.545	6700
913.659	6662
913.772	6604
913.886	6604
914	6544
914.113	6563
914.226	6620
914.34	6551
914.453	6502
914.566	6570
914.68	6555
914.793	6506
914.906	6498
915.019	6331
915.132	6327
915.245	6403
915.358	6479
915.47	6498
915.583	6460
915.696	6517
915.809	6464
915.921	6517
916.034	6445
916.146	6380
916.259	6327
916.371	6429
916.483	6452
916.595	6376
916.708	6395
916.82	6399
916.932	6403
917.044	6445
917.156	6331
917.268	6281
917.38	6308
917.491	6319
917.603	6388
917.715	6410
917.826	6418
917.938	6338
918.049	6254
918.161	6334
918.272	6399
918.384	6433
918.495	6350
918.606	6254
918.717	6178
918.828	6300
918.939	6266
919.05	6220
919.161	6235
919.272	6117
919.383	6163
919.494	6285
919.604	6365
919.715	6300
919.826	6239
919.936	6262
920.047	6319
920.157	6270
920.267	6410
920.378	6304
920.488	6281
920.598	6426
920.708	6525
920.818	6452
920.928	6407
921.038	6662
921.148	6494
921.258	6315
921.368	6273
921.477	6232
921.587	6155
921.697	6129
921.806	6194
921.916	6053
922.025	5912
922.134	5935
922.244	5878
922.353	5920
922.462	5809
922.571	5790
922.68	5707
922.789	5657
922.898	5623
923.007	5661
923.116	5729
923.224	5657
923.333	5680
923.442	5581
923.55	5570
923.659	5585
923.767	5600
923.876	5532
923.984	5585
924.092	5497
924.201	5516
924.309	5532
924.417	5562
924.525	5505
924.633	5505
924.741	6308
924.849	5402
924.956	5452
925.064	5322
925.172	5277
925.279	5288
925.387	5376
925.494	5311
925.602	5349
925.709	5341
925.816	5265
925.924	5326
926.031	5360
926.138	5345
926.245	5242
926.352	5216
926.459	5235
926.566	5322
926.673	5220
926.779	5132
926.886	5136
926.993	4991
927.099	4953
927.206	4968
927.312	4972
927.419	5025
927.525	4984
927.631	4942
927.737	4889
927.843	4850
927.95	4774
928.056	4839
928.162	4809
928.267	4854
928.373	5353
928.479	4896
928.585	4630
928.69	4752
928.796	4767
928.901	4649
929.007	4596
929.112	4672
929.218	4649
929.323	4573
929.428	4535
929.533	4649
929.638	4500
929.743	4523
929.848	4565
929.953	4550
930.058	4466
930.163	4322
930.267	4299
930.372	4459
930.477	4207
930.581	4500
930.685	4375
930.79	4238
930.894	4280
930.998	4249
931.103	4329
931.207	4128
931.311	3998
931.415	4040
931.519	3899
931.623	3922
