Data from glass_V78500241_1820.txt Node
Date: Wed Sep 01 19:27:07 CST 2021
User: usil
Spectrometer: V785-0024
Trigger mode: 0
Integration Time (sec): 4.000000E-1
Scans to average: 1
Nonlinearity correction enabled: false
Boxcar width: 0
Storing dark spectrum: false
XAxis mode: Wavelengths
Number of Pixels in Spectrum: 1024
>>>>>Begin Spectral Data<<<<<
801.071	3747
801.214	3751
801.356	3671
801.499	3751
801.641	3705
801.783	3766
801.926	3869
802.068	3800
802.211	3861
802.353	3854
802.496	3835
802.638	3861
802.78	3937
802.923	3941
803.065	3880
803.208	3869
803.35	3846
803.492	3899
803.635	3876
803.777	3800
803.919	3857
804.061	4181
804.204	3941
804.346	3926
804.488	3960
804.63	4082
804.773	3945
804.915	4017
805.057	4097
805.199	4090
805.341	4101
805.483	4135
805.626	4109
805.768	4162
805.91	4207
806.052	4207
806.194	4200
806.336	4360
806.478	4246
806.62	4139
806.762	4181
806.904	4265
807.046	4379
807.188	4181
807.33	4192
807.472	4238
807.614	4150
807.756	4276
807.898	4185
808.04	4192
808.182	4284
808.324	4348
808.465	4394
808.607	4470
808.749	4436
808.891	4428
809.033	4504
809.174	4398
809.316	4234
809.458	4230
809.6	4185
809.741	4120
809.883	4147
810.025	4188
810.166	4173
810.308	4200
810.45	4238
810.591	4238
810.733	4284
810.875	4512
811.016	4774
811.158	5109
811.299	5284
811.441	5292
811.582	5086
811.724	4706
811.865	4447
812.007	4466
812.148	4443
812.29	4383
812.431	4386
812.573	4333
812.714	4386
812.855	4405
812.997	4394
813.138	4455
813.279	4440
813.421	4371
813.562	4402
813.703	4310
813.845	4314
813.986	4246
814.127	4211
814.268	4272
814.41	4303
814.551	4295
814.692	4356
814.833	4242
814.974	4310
815.115	4310
815.256	4230
815.397	4242
815.539	4268
815.68	4242
815.821	4242
815.962	4287
816.103	4272
816.244	4211
816.385	4211
816.526	4227
816.666	4162
816.807	4090
816.948	4166
817.089	4181
817.23	4074
817.371	4040
817.512	4006
817.653	4078
817.793	4002
817.934	4090
818.075	4101
818.216	4044
818.356	4082
818.497	3994
818.638	3903
818.778	3930
818.919	3873
819.06	3873
819.2	3911
819.341	3861
819.481	3857
819.622	3937
819.762	4063
819.903	3934
820.043	3869
820.184	3823
820.324	3835
820.465	3926
820.605	3873
820.746	3892
820.886	3755
821.026	3960
821.167	3953
821.307	3953
821.447	3926
821.588	3896
821.728	3941
821.868	3907
822.008	3899
822.149	3896
822.289	3850
822.429	3785
822.569	3762
822.709	3808
822.849	3686
822.99	3720
823.13	3770
823.27	3797
823.41	3663
823.55	3709
823.69	3686
823.83	3686
823.97	3618
824.11	3618
824.25	3542
824.389	3663
824.529	3694
824.669	3610
824.809	3698
824.949	3770
825.089	3724
825.228	3701
825.368	3591
825.508	3580
825.648	3568
825.787	3568
825.927	3591
826.067	3614
826.206	3686
826.346	3800
826.485	3842
826.625	3850
826.765	3937
826.904	3838
827.044	3633
827.183	3507
827.323	3416
827.462	3485
827.601	3386
827.741	3450
827.88	3443
828.02	3370
828.159	3443
828.298	3488
828.437	3481
828.577	3500
828.716	3599
828.855	3500
828.994	3393
829.134	3363
829.273	3416
829.412	3359
829.551	3344
829.69	3351
829.829	3443
829.968	3523
830.107	3401
830.246	3424
830.385	3348
830.524	3363
830.663	3291
830.802	3291
830.941	3188
831.08	3173
831.219	3279
831.357	3249
831.496	3443
831.635	3230
831.774	3207
831.913	3195
832.051	3131
832.19	3157
832.329	3211
832.467	3161
832.606	3104
832.744	3157
832.883	3195
833.022	3169
833.16	3279
833.299	3344
833.437	3329
833.576	3367
833.714	3359
833.852	3401
833.991	3466
834.129	3492
834.267	3447
834.406	3344
834.544	3424
834.682	3401
834.821	3397
834.959	3526
835.097	3450
835.235	3519
835.373	3477
835.511	3488
835.65	3431
835.788	3519
835.926	3348
836.064	3355
836.202	3393
836.34	3576
836.478	3606
836.615	3519
836.753	3610
836.891	3622
837.029	3603
837.167	3587
837.305	3545
837.443	3564
837.58	3515
837.718	3644
837.856	3591
837.993	3500
838.131	3576
838.269	3584
838.406	3584
838.544	3545
838.681	3473
838.819	3477
838.956	3401
839.094	3389
839.231	3389
839.369	3492
839.506	3736
839.643	3587
839.781	3504
839.918	3458
840.055	3519
840.193	3481
840.33	3534
840.467	3564
840.604	3599
840.742	3785
840.879	3542
841.016	3553
841.153	3614
841.29	3751
841.427	3713
841.564	3671
841.701	3701
841.838	3698
841.975	3694
842.112	3713
842.249	3629
842.385	3606
842.522	3793
842.659	3625
842.796	3633
842.933	3690
843.069	3679
843.206	3705
843.343	3804
843.479	3808
843.616	3797
843.752	3705
843.889	3705
844.025	3876
844.162	3751
844.298	3850
844.435	3808
844.571	3747
844.708	3899
844.844	3979
844.98	4006
845.117	4044
845.253	3956
845.389	3918
845.525	4002
845.661	3953
845.798	3956
845.934	4025
846.07	3945
846.206	4078
846.342	4154
846.478	4078
846.614	3964
846.75	3888
846.886	3937
847.022	4059
847.158	3987
847.294	3998
847.429	4051
847.565	3983
847.701	4211
847.837	3857
847.972	3876
848.108	3991
848.244	3983
848.379	3831
848.515	3793
848.65	3778
848.786	3812
848.921	3854
849.057	3896
849.192	3972
849.328	3880
849.463	3888
849.598	3869
849.734	3876
849.869	3816
850.004	3808
850.14	3846
850.275	3781
850.41	3770
850.545	3736
850.68	3762
850.815	3778
850.95	3770
851.085	3972
851.22	3861
851.355	3823
851.49	3793
851.625	3781
851.76	3793
851.895	3751
852.03	3698
852.165	3808
852.299	3922
852.434	3945
852.569	3873
852.703	3869
852.838	3964
852.973	4017
853.107	3960
853.242	3907
853.376	3850
853.511	3751
853.645	3838
853.78	3987
853.914	3869
854.048	3934
854.183	3880
854.317	3960
854.451	4063
854.585	3937
854.72	3964
854.854	4036
854.988	3949
855.122	3998
855.256	3922
855.39	3941
855.524	4055
855.658	4063
855.792	4116
855.926	4093
856.06	4150
856.194	4143
856.327	4143
856.461	4078
856.595	4124
856.729	4207
856.862	4284
856.996	4249
857.13	4341
857.263	4333
857.397	4360
857.53	4242
857.664	4375
857.797	4417
857.931	4383
858.064	4360
858.197	4447
858.331	4405
858.464	4390
858.597	4386
858.731	4428
858.864	4413
858.997	4481
859.13	4538
859.263	4580
859.396	4561
859.529	4512
859.662	4512
859.795	4561
859.928	4637
860.061	4736
860.194	4721
860.327	4672
860.46	4641
860.592	4733
860.725	4755
860.858	4740
860.99	4691
861.123	4668
861.256	4660
861.388	4786
861.521	5360
861.653	4725
861.786	4687
861.918	4740
862.05	4786
862.183	4809
862.315	4877
862.447	4946
862.58	4885
862.712	4763
862.844	4809
862.976	4877
863.108	4866
863.24	5235
863.372	4839
863.504	4923
863.636	4961
863.768	5006
863.9	4919
864.032	4942
864.164	4934
864.296	4972
864.428	5117
864.559	5102
864.691	5109
864.823	5117
864.954	5117
865.086	5083
865.217	5064
865.349	5128
865.48	5132
865.612	5166
865.743	5368
865.875	5166
866.006	5197
866.137	5250
866.269	5178
866.4	5280
866.531	5246
866.662	5208
866.793	5292
866.924	5299
867.055	5288
867.186	5357
867.317	5322
867.448	5318
867.579	5345
867.71	5368
867.841	5349
867.972	5478
868.103	5482
868.233	5493
868.364	5493
868.495	5547
868.625	5623
868.756	5783
868.886	5623
869.017	5752
869.147	5805
869.278	5817
869.408	5805
869.539	5817
869.669	5927
869.799	5927
869.929	6007
870.06	6015
870.19	6197
870.32	6155
870.45	6273
870.58	6365
870.71	6429
870.84	6475
870.97	6437
871.1	6456
871.23	6650
871.36	6715
871.489	6570
871.619	6722
871.749	6833
871.879	6844
872.008	6985
872.138	6943
872.267	7008
872.397	6977
872.526	7042
872.656	7053
872.785	7206
872.915	7308
873.044	7495
873.173	7571
873.303	7559
873.432	7776
873.561	7826
873.69	7898
873.819	8016
873.948	8187
874.077	8263
874.206	8286
874.335	8415
874.464	8648
874.593	8830
874.722	8910
874.851	9138
874.979	9199
875.108	9405
875.237	9386
875.365	9447
875.494	9591
875.623	9797
875.751	9934
875.88	9960
876.008	10135
876.136	10272
876.265	10542
876.393	10714
876.521	10820
876.65	10717
876.778	10900
876.906	10915
877.034	10984
877.162	11086
877.29	11143
877.418	11315
877.546	11349
877.674	11406
877.802	11509
877.93	11623
878.058	11535
878.185	11589
878.313	11649
878.441	11779
878.568	11634
878.696	11745
878.824	11935
878.951	11977
879.079	12011
879.206	12194
879.333	12045
879.461	11935
879.588	12022
879.715	12106
879.842	12258
879.97	12098
880.097	11904
880.224	11802
880.351	11904
880.478	11927
880.605	11950
880.732	11821
880.859	12003
880.986	11813
881.112	11866
881.239	11729
881.366	11623
881.493	11596
881.619	11573
881.746	11551
881.872	11532
881.999	11474
882.125	11512
882.252	11543
882.378	11452
882.505	11520
882.631	11376
882.757	11273
882.883	11345
883.01	11227
883.136	11170
883.262	11143
883.388	11064
883.514	11109
883.64	11124
883.766	11025
883.892	11029
884.018	10999
884.143	11048
884.269	11124
884.395	10877
884.52	10816
884.646	10748
884.772	10706
884.897	10706
885.023	10653
885.148	10759
885.274	10767
885.399	10656
885.524	10698
885.65	10561
885.775	10554
885.9	10558
886.025	10618
886.15	10569
886.275	10512
886.4	10356
886.525	10390
886.65	10352
886.775	10348
886.9	10531
887.025	10573
887.149	10382
887.274	10223
887.399	10124
887.523	10162
887.648	10135
887.773	10116
887.897	10242
888.021	10188
888.146	10109
888.27	10215
888.395	10207
888.519	10173
888.643	10242
888.767	10173
888.891	10036
889.015	9960
889.139	10036
889.263	9983
889.387	10112
889.511	10150
889.635	10051
889.759	9915
889.883	9945
890.006	9972
890.13	10078
890.254	10002
890.377	9994
890.501	9884
890.624	9835
890.748	9911
890.871	9766
890.995	9736
891.118	9694
891.241	9785
891.364	9686
891.488	9838
891.611	9770
891.734	9652
891.857	9717
891.98	9743
892.103	9728
892.226	9743
892.349	9717
892.471	9519
892.594	9648
892.717	9614
892.839	9622
892.962	9610
893.085	9705
893.207	9603
893.33	9462
893.452	9454
893.575	9633
893.697	9523
893.819	9561
893.941	9591
894.064	9549
894.186	9462
894.308	9447
894.43	9485
894.552	9515
894.674	9519
894.796	9332
894.918	9462
895.04	9283
895.161	9412
895.283	9389
895.405	9245
895.526	9294
895.648	9188
895.769	9233
895.891	9287
896.012	9268
896.134	9203
896.255	9222
896.376	9123
896.498	9173
896.619	9127
896.74	9127
896.861	9066
896.982	9249
897.103	9302
897.224	9116
897.345	9043
897.466	9009
897.587	8979
897.708	9138
897.828	8994
897.949	8956
898.07	8815
898.19	8971
898.311	9005
898.431	8910
898.552	9017
898.672	8956
898.792	8963
898.913	8956
899.033	8785
899.153	8800
899.273	8575
899.393	8712
899.513	8766
899.633	8773
899.753	8735
899.873	8659
899.993	8686
900.113	8754
900.232	8693
900.352	8693
900.472	8598
900.591	8568
900.711	8579
900.83	8533
900.95	8693
901.069	8670
901.189	8556
901.308	8438
901.427	8358
901.546	8431
901.665	8461
901.784	8461
901.904	8408
902.023	8301
902.141	8237
902.26	8225
902.379	8358
902.498	8218
902.617	8199
902.735	8282
902.854	8279
902.973	8183
903.091	8123
903.21	8062
903.328	8142
903.446	8092
903.565	8084
903.683	8073
903.801	8001
903.919	8100
904.038	8134
904.156	7967
904.274	8134
904.392	8005
904.51	8077
904.627	8062
904.745	8103
904.863	8092
904.981	7951
905.098	7902
905.216	7849
905.334	7871
905.451	7860
905.569	7841
905.686	7879
905.803	7982
905.921	7784
906.038	7898
906.155	7776
906.272	7681
906.389	7704
906.506	7689
906.623	7693
906.74	7567
906.857	7609
906.974	7594
907.091	7658
907.208	7761
907.324	7632
907.441	7571
907.557	7434
907.674	7438
907.79	7392
907.907	7384
908.023	7468
908.139	7388
908.256	7384
908.372	7415
908.488	7327
908.604	7324
908.72	7247
908.836	7240
908.952	7247
909.068	7251
909.184	7270
909.3	7255
909.415	7270
909.531	7278
909.647	7084
909.762	7129
909.878	7042
909.993	7190
910.108	7141
910.224	7095
910.339	7126
910.454	7084
910.57	7008
910.685	6981
910.8	7129
910.915	7141
911.03	7004
911.145	6852
911.259	6932
911.374	6924
911.489	6818
911.604	6791
911.718	6715
911.833	6776
911.947	6677
912.062	6563
912.176	6673
912.291	6688
912.405	6760
912.519	6818
912.633	6760
912.748	6738
912.862	6700
912.976	6601
913.09	6509
913.204	6620
913.318	6646
913.431	6642
913.545	6662
913.659	6692
913.772	6608
913.886	6532
914	6540
914.113	6585
914.226	6597
914.34	6585
914.453	6494
914.566	6593
914.68	6494
914.793	6544
914.906	6376
915.019	6361
915.132	6334
915.245	6456
915.358	6475
915.47	6479
915.583	6361
915.696	6486
915.809	6521
915.921	6582
916.034	6365
916.146	6414
916.259	6342
916.371	6460
916.483	6448
916.595	6376
916.708	6407
916.82	6422
916.932	6350
917.044	6361
917.156	6426
917.268	6353
917.38	6281
917.491	6323
917.603	6315
917.715	6353
917.826	6426
917.938	6323
918.049	6228
918.161	6300
918.272	6448
918.384	6410
918.495	6334
918.606	6270
918.717	6224
918.828	6258
918.939	6205
919.05	6186
919.161	6266
919.272	6152
919.383	6155
919.494	6273
919.604	6418
919.715	6262
919.826	6186
919.936	6209
920.047	6376
920.157	6239
920.267	6403
920.378	6346
920.488	6247
920.598	6445
920.708	6582
920.818	6483
920.928	6509
921.038	6525
921.148	6555
921.258	6342
921.368	6292
921.477	6216
921.587	6197
921.697	6038
921.806	6209
921.916	6076
922.025	5977
922.134	5904
922.244	5893
922.353	5908
922.462	5866
922.571	5775
922.68	5695
922.789	5729
922.898	5661
923.007	5642
923.116	5680
923.224	5707
923.333	5680
923.442	5596
923.55	5600
923.659	5562
923.767	5619
923.876	5532
923.984	5604
924.092	5524
924.201	5573
924.309	5566
924.417	5516
924.525	5482
924.633	5551
924.741	6262
924.849	5368
924.956	5463
925.064	5311
925.172	5284
925.279	5315
925.387	5379
925.494	5341
925.602	5448
925.709	5410
925.816	5307
925.924	5318
926.031	5414
926.138	5227
926.245	5315
926.352	5239
926.459	5345
926.566	5330
926.673	5201
926.779	5140
926.886	5086
926.993	5018
927.099	4991
927.206	4995
927.312	4957
927.419	5022
927.525	4957
927.631	4999
927.737	4919
927.843	4873
927.95	4778
928.056	4839
928.162	4850
928.267	4866
928.373	5315
928.479	4820
928.585	4634
928.69	4755
928.796	4759
928.901	4675
929.007	4641
929.112	4660
929.218	4607
929.323	4645
929.428	4554
929.533	4645
929.638	4531
929.743	4531
929.848	4611
929.953	4424
930.058	4432
930.163	4329
930.267	4371
930.372	4390
930.477	4314
930.581	4478
930.685	4337
930.79	4249
930.894	4303
930.998	4253
931.103	4329
931.207	4112
931.311	4116
931.415	4051
931.519	3945
931.623	3953
