Data from glass_V78500241_728.txt Node
Date: Wed Sep 01 19:19:32 CST 2021
User: usil
Spectrometer: V785-0024
Trigger mode: 0
Integration Time (sec): 4.000000E-1
Scans to average: 1
Nonlinearity correction enabled: false
Boxcar width: 0
Storing dark spectrum: false
XAxis mode: Wavelengths
Number of Pixels in Spectrum: 1024
>>>>>Begin Spectral Data<<<<<
801.071	3774
801.214	3755
801.356	3709
801.499	3755
801.641	3740
801.783	3797
801.926	3873
802.068	3827
802.211	3861
802.353	3892
802.496	3819
802.638	3915
802.78	3911
802.923	3960
803.065	3903
803.208	3865
803.35	3911
803.492	3888
803.635	3926
803.777	3808
803.919	3876
804.061	4177
804.204	4002
804.346	3960
804.488	3884
804.63	4025
804.773	4013
804.915	4055
805.057	4116
805.199	4048
805.341	4135
805.483	4128
805.626	4135
805.768	4112
805.91	4215
806.052	4280
806.194	4238
806.336	4383
806.478	4234
806.62	4166
806.762	4200
806.904	4246
807.046	4383
807.188	4211
807.33	4192
807.472	4265
807.614	4207
807.756	4272
807.898	4181
808.04	4204
808.182	4295
808.324	4341
808.465	4402
808.607	4466
808.749	4432
808.891	4497
809.033	4504
809.174	4398
809.316	4291
809.458	4303
809.6	4181
809.741	4135
809.883	4173
810.025	4230
810.166	4223
810.308	4219
810.45	4265
810.591	4253
810.733	4299
810.875	4519
811.016	4850
811.158	5102
811.299	5250
811.441	5258
811.582	5083
811.724	4672
811.865	4478
812.007	4440
812.148	4428
812.29	4443
812.431	4421
812.573	4436
812.714	4417
812.855	4443
812.997	4424
813.138	4485
813.279	4402
813.421	4356
813.562	4390
813.703	4390
813.845	4341
813.986	4234
814.127	4227
814.268	4272
814.41	4303
814.551	4272
814.692	4383
814.833	4299
814.974	4333
815.115	4352
815.256	4265
815.397	4223
815.539	4299
815.68	4238
815.821	4200
815.962	4344
816.103	4314
816.244	4291
816.385	4253
816.526	4276
816.666	4223
816.807	4150
816.948	4188
817.089	4185
817.23	4166
817.371	4067
817.512	4017
817.653	4074
817.793	4059
817.934	4071
818.075	4143
818.216	4093
818.356	4067
818.497	4002
818.638	3953
818.778	3930
818.919	3915
819.06	3926
819.2	3911
819.341	3819
819.481	3846
819.622	3937
819.762	4063
819.903	3979
820.043	3884
820.184	3846
820.324	3827
820.465	3907
820.605	3876
820.746	3926
820.886	3838
821.026	3918
821.167	3937
821.307	3922
821.447	4025
821.588	3994
821.728	3953
821.868	3945
822.008	3865
822.149	3899
822.289	3956
822.429	3819
822.569	3781
822.709	3800
822.849	3728
822.99	3728
823.13	3774
823.27	3774
823.41	3751
823.55	3759
823.69	3701
823.83	3759
823.97	3698
824.11	3641
824.25	3545
824.389	3679
824.529	3701
824.669	3644
824.809	3686
824.949	3751
825.089	3762
825.228	3713
825.368	3614
825.508	3580
825.648	3568
825.787	3618
825.927	3686
826.067	3671
826.206	3656
826.346	3808
826.485	3831
826.625	3857
826.765	3998
826.904	3800
827.044	3603
827.183	3549
827.323	3424
827.462	3519
827.601	3428
827.741	3454
827.88	3435
828.02	3443
828.159	3473
828.298	3477
828.437	3564
828.577	3477
828.716	3587
828.855	3481
828.994	3424
829.134	3397
829.273	3428
829.412	3382
829.551	3348
829.69	3363
829.829	3466
829.968	3504
830.107	3462
830.246	3485
830.385	3416
830.524	3317
830.663	3298
830.802	3272
830.941	3211
831.08	3195
831.219	3241
831.357	3283
831.496	3401
831.635	3260
831.774	3180
831.913	3230
832.051	3180
832.19	3176
832.329	3214
832.467	3138
832.606	3127
832.744	3192
832.883	3207
833.022	3195
833.16	3264
833.299	3279
833.437	3355
833.576	3355
833.714	3401
833.852	3443
833.991	3447
834.129	3504
834.267	3469
834.406	3389
834.544	3412
834.682	3412
834.821	3420
834.959	3606
835.097	3424
835.235	3515
835.373	3511
835.511	3515
835.65	3511
835.788	3519
835.926	3443
836.064	3336
836.202	3393
836.34	3595
836.478	3622
836.615	3576
836.753	3595
836.891	3610
837.029	3629
837.167	3606
837.305	3637
837.443	3534
837.58	3549
837.718	3606
837.856	3568
837.993	3576
838.131	3599
838.269	3599
838.406	3610
838.544	3561
838.681	3496
838.819	3469
838.956	3405
839.094	3378
839.231	3458
839.369	3553
839.506	3759
839.643	3606
839.781	3507
839.918	3462
840.055	3553
840.193	3523
840.33	3523
840.467	3557
840.604	3599
840.742	3823
840.879	3542
841.016	3591
841.153	3629
841.29	3759
841.427	3705
841.564	3717
841.701	3766
841.838	3728
841.975	3682
842.112	3747
842.249	3629
842.385	3614
842.522	3842
842.659	3732
842.796	3698
842.933	3709
843.069	3701
843.206	3663
843.343	3835
843.479	3793
843.616	3816
843.752	3724
843.889	3679
844.025	3861
844.162	3720
844.298	3873
844.435	3804
844.571	3800
844.708	3907
844.844	3994
844.98	4021
845.117	4010
845.253	3956
845.389	3945
845.525	3968
845.661	3987
845.798	3869
845.934	3991
846.07	3987
846.206	4078
846.342	4116
846.478	4109
846.614	3983
846.75	3960
846.886	3945
847.022	4044
847.158	3987
847.294	3964
847.429	4021
847.565	3987
847.701	4188
847.837	3899
847.972	3911
848.108	4010
848.244	3987
848.379	3842
848.515	3884
848.65	3865
848.786	3861
848.921	3865
849.057	3911
849.192	3949
849.328	3903
849.463	3926
849.598	3861
849.734	3873
849.869	3831
850.004	3812
850.14	3808
850.275	3812
850.41	3740
850.545	3804
850.68	3778
850.815	3831
850.95	3804
851.085	3949
851.22	3876
851.355	3774
851.49	3774
851.625	3804
851.76	3785
851.895	3770
852.03	3736
852.165	3759
852.299	3854
852.434	3907
852.569	3861
852.703	3907
852.838	3937
852.973	3994
853.107	3964
853.242	3884
853.376	3892
853.511	3800
853.645	3838
853.78	3956
853.914	3896
854.048	3876
854.183	3911
854.317	3979
854.451	4128
854.585	4006
854.72	3949
854.854	4090
854.988	3918
855.122	4006
855.256	3888
855.39	4017
855.524	4086
855.658	4139
855.792	4124
855.926	4158
856.06	4131
856.194	4215
856.327	4177
856.461	4162
856.595	4124
856.729	4196
856.862	4284
856.996	4291
857.13	4325
857.263	4352
857.397	4383
857.53	4268
857.664	4402
857.797	4421
857.931	4421
858.064	4413
858.197	4470
858.331	4409
858.464	4402
858.597	4409
858.731	4421
858.864	4481
858.997	4459
859.13	4508
859.263	4535
859.396	4603
859.529	4542
859.662	4596
859.795	4504
859.928	4603
860.061	4733
860.194	4782
860.327	4672
860.46	4653
860.592	4793
860.725	4774
860.858	4767
860.99	4717
861.123	4675
861.256	4691
861.388	4809
861.521	5387
861.653	4721
861.786	4702
861.918	4698
862.05	4801
862.183	4850
862.315	4892
862.447	4942
862.58	4923
862.712	4778
862.844	4778
862.976	4900
863.108	4942
863.24	5246
863.372	4843
863.504	4908
863.636	4915
863.768	4968
863.9	4984
864.032	4915
864.164	4984
864.296	5056
864.428	5117
864.559	5083
864.691	5162
864.823	5227
864.954	5170
865.086	5216
865.217	5162
865.349	5121
865.48	5178
865.612	5151
865.743	5334
865.875	5193
866.006	5239
866.137	5273
866.269	5258
866.4	5296
866.531	5284
866.662	5250
866.793	5303
866.924	5307
867.055	5406
867.186	5360
867.317	5387
867.448	5299
867.579	5440
867.71	5425
867.841	5444
867.972	5478
868.103	5429
868.233	5493
868.364	5478
868.495	5551
868.625	5718
868.756	5836
868.886	5691
869.017	5748
869.147	5885
869.278	5863
869.408	5790
869.539	5851
869.669	5931
869.799	5984
869.929	6015
870.06	6003
870.19	6213
870.32	6194
870.45	6304
870.58	6331
870.71	6445
870.84	6467
870.97	6456
871.1	6437
871.23	6627
871.36	6700
871.489	6700
871.619	6802
871.749	6829
871.879	6947
872.008	6985
872.138	6981
872.267	6962
872.397	7038
872.526	7015
872.656	7156
872.785	7232
872.915	7335
873.044	7537
873.173	7563
873.303	7674
873.432	7818
873.561	7811
873.69	7955
873.819	8020
873.948	8126
874.077	8259
874.206	8343
874.335	8484
874.464	8663
874.593	8845
874.722	8937
874.851	9138
874.979	9253
875.108	9344
875.237	9412
875.365	9538
875.494	9713
875.623	9816
875.751	9838
875.88	10002
876.008	10173
876.136	10246
876.265	10603
876.393	10755
876.521	10717
876.65	10793
876.778	10862
876.906	10934
877.034	10999
877.162	11056
877.29	11166
877.418	11372
877.546	11360
877.674	11474
877.802	11482
877.93	11497
878.058	11524
878.185	11562
878.313	11676
878.441	11699
878.568	11627
878.696	11840
878.824	11840
878.951	11897
879.079	11969
879.206	12140
879.333	12114
879.461	12049
879.588	12148
879.715	12083
879.842	12205
879.97	12072
880.097	11885
880.224	11798
880.351	11889
880.478	11927
880.605	11851
880.732	11813
880.859	11954
880.986	11840
881.112	11840
881.239	11691
881.366	11638
881.493	11566
881.619	11623
881.746	11535
881.872	11516
881.999	11532
882.125	11471
882.252	11554
882.378	11554
882.505	11505
882.631	11402
882.757	11280
882.883	11360
883.01	11292
883.136	11185
883.262	11162
883.388	11140
883.514	11193
883.64	11136
883.766	11140
883.892	10908
884.018	10965
884.143	11155
884.269	11094
884.395	10854
884.52	10805
884.646	10828
884.772	10691
884.897	10675
885.023	10656
885.148	10771
885.274	10801
885.399	10702
885.524	10573
885.65	10535
885.775	10630
885.9	10618
886.025	10615
886.15	10588
886.275	10462
886.4	10386
886.525	10443
886.65	10325
886.775	10375
886.9	10493
887.025	10512
887.149	10333
887.274	10253
887.399	10223
887.523	10249
887.648	10219
887.773	10166
887.897	10204
888.021	10196
888.146	10120
888.27	10242
888.395	10242
888.519	10177
888.643	10223
888.767	10177
888.891	9994
889.015	10029
889.139	10093
889.263	9934
889.387	10055
889.511	10116
889.635	10032
889.759	9983
889.883	9960
890.006	10040
890.13	10097
890.254	9926
890.377	9945
890.501	9800
890.624	9861
890.748	9846
890.871	9766
890.995	9740
891.118	9656
891.241	9808
891.364	9747
891.488	9816
891.611	9785
891.734	9724
891.857	9831
891.98	9766
892.103	9789
892.226	9781
892.349	9663
892.471	9500
892.594	9644
892.717	9648
892.839	9637
892.962	9667
893.085	9682
893.207	9568
893.33	9496
893.452	9519
893.575	9580
893.697	9507
893.819	9637
893.941	9682
894.064	9618
894.186	9469
894.308	9450
894.43	9530
894.552	9622
894.674	9447
894.796	9393
894.918	9420
895.04	9382
895.161	9454
895.283	9332
895.405	9310
895.526	9298
895.648	9138
895.769	9279
895.891	9298
896.012	9329
896.134	9272
896.255	9135
896.376	9100
896.498	9173
896.619	9214
896.74	9108
896.861	9119
896.982	9199
897.103	9245
897.224	9165
897.345	9089
897.466	8986
897.587	9032
897.708	9150
897.828	9001
897.949	8952
898.07	8876
898.19	8902
898.311	9062
898.431	8948
898.552	8895
898.672	8952
898.792	8960
898.913	8883
899.033	8811
899.153	8781
899.273	8689
899.393	8724
899.513	8785
899.633	8819
899.753	8739
899.873	8754
899.993	8815
900.113	8682
900.232	8781
900.352	8667
900.472	8636
900.591	8610
900.711	8575
900.83	8556
900.95	8636
901.069	8682
901.189	8545
901.308	8389
901.427	8370
901.546	8415
901.665	8492
901.784	8541
901.904	8408
902.023	8370
902.141	8263
902.26	8225
902.379	8301
902.498	8240
902.617	8206
902.735	8290
902.854	8248
902.973	8187
903.091	8157
903.21	8161
903.328	8183
903.446	8157
903.565	8050
903.683	8092
903.801	8062
903.919	8092
904.038	8130
904.156	8027
904.274	8119
904.392	8054
904.51	8100
904.627	8062
904.745	8062
904.863	8081
904.981	7955
905.098	7871
905.216	7871
905.334	7974
905.451	7902
905.569	7951
905.686	7970
905.803	7909
905.921	7784
906.038	7902
906.155	7784
906.272	7708
906.389	7685
906.506	7628
906.623	7670
906.74	7613
906.857	7575
906.974	7597
907.091	7674
907.208	7708
907.324	7677
907.441	7632
907.557	7518
907.674	7480
907.79	7354
907.907	7384
908.023	7480
908.139	7445
908.256	7392
908.372	7430
908.488	7396
908.604	7263
908.72	7240
908.836	7305
908.952	7293
909.068	7247
909.184	7320
909.3	7232
909.415	7293
909.531	7316
909.647	7107
909.762	7110
909.878	7149
909.993	7145
910.108	7114
910.224	7122
910.339	7088
910.454	7050
910.57	7023
910.685	6943
910.8	7145
910.915	7145
911.03	7057
911.145	6932
911.259	6863
911.374	6901
911.489	6818
911.604	6928
911.718	6806
911.833	6730
911.947	6612
912.062	6601
912.176	6783
912.291	6700
912.405	6669
912.519	6856
912.633	6844
912.748	6764
912.862	6749
912.976	6623
913.09	6532
913.204	6646
913.318	6547
913.431	6662
913.545	6654
913.659	6776
913.772	6700
913.886	6566
914	6525
914.113	6665
914.226	6642
914.34	6684
914.453	6418
914.566	6631
914.68	6566
914.793	6582
914.906	6456
915.019	6437
915.132	6410
915.245	6365
915.358	6437
915.47	6456
915.583	6502
915.696	6471
915.809	6544
915.921	6597
916.034	6448
916.146	6395
916.259	6380
916.371	6483
916.483	6494
916.595	6384
916.708	6429
916.82	6475
916.932	6460
917.044	6399
917.156	6372
917.268	6338
917.38	6342
917.491	6350
917.603	6342
917.715	6384
917.826	6399
917.938	6372
918.049	6235
918.161	6380
918.272	6388
918.384	6475
918.495	6338
918.606	6262
918.717	6190
918.828	6277
918.939	6319
919.05	6300
919.161	6331
919.272	6148
919.383	6163
919.494	6315
919.604	6429
919.715	6292
919.826	6251
919.936	6254
920.047	6304
920.157	6342
920.267	6544
920.378	6357
920.488	6338
920.598	6456
920.708	6563
920.818	6475
920.928	6471
921.038	6703
921.148	6627
921.258	6357
921.368	6266
921.477	6201
921.587	6163
921.697	6072
921.806	6258
921.916	6125
922.025	5988
922.134	5931
922.244	5893
922.353	5939
922.462	5908
922.571	5798
922.68	5703
922.789	5748
922.898	5767
923.007	5653
923.116	5748
923.224	5657
923.333	5665
923.442	5646
923.55	5627
923.659	5649
923.767	5611
923.876	5532
923.984	5680
924.092	5493
924.201	5611
924.309	5551
924.417	5562
924.525	5520
924.633	5505
924.741	6144
924.849	5398
924.956	5478
925.064	5357
925.172	5330
925.279	5303
925.387	5360
925.494	5341
925.602	5509
925.709	5376
925.816	5296
925.924	5284
926.031	5337
926.138	5254
926.245	5334
926.352	5261
926.459	5379
926.566	5364
926.673	5223
926.779	5227
926.886	5124
926.993	5037
927.099	5045
927.206	4942
927.312	4961
927.419	5029
927.525	4976
927.631	4984
927.737	4919
927.843	4854
927.95	4771
928.056	4831
928.162	4839
928.267	4889
928.373	5337
928.479	4881
928.585	4687
928.69	4790
928.796	4759
928.901	4679
929.007	4611
929.112	4702
929.218	4656
929.323	4622
929.428	4611
929.533	4653
929.638	4565
929.743	4516
929.848	4596
929.953	4512
930.058	4443
930.163	4322
930.267	4352
930.372	4409
930.477	4333
930.581	4466
930.685	4348
930.79	4234
930.894	4329
930.998	4249
931.103	4367
931.207	4147
931.311	4082
931.415	3998
931.519	3945
931.623	3934
