Data from glass_V78500241_1943.txt Node
Date: Wed Sep 01 19:27:58 CST 2021
User: usil
Spectrometer: V785-0024
Trigger mode: 0
Integration Time (sec): 4.000000E-1
Scans to average: 1
Nonlinearity correction enabled: false
Boxcar width: 0
Storing dark spectrum: false
XAxis mode: Wavelengths
Number of Pixels in Spectrum: 1024
>>>>>Begin Spectral Data<<<<<
801.071	3717
801.214	3724
801.356	3682
801.499	3740
801.641	3694
801.783	3793
801.926	3869
802.068	3831
802.211	3857
802.353	3846
802.496	3816
802.638	3850
802.78	3941
802.923	3960
803.065	3907
803.208	3842
803.35	3884
803.492	3857
803.635	3888
803.777	3823
803.919	3892
804.061	4147
804.204	4006
804.346	3983
804.488	3918
804.63	4032
804.773	4013
804.915	4059
805.057	4158
805.199	4032
805.341	4082
805.483	4124
805.626	4139
805.768	4124
805.91	4223
806.052	4261
806.194	4192
806.336	4375
806.478	4204
806.62	4154
806.762	4204
806.904	4265
807.046	4303
807.188	4234
807.33	4177
807.472	4257
807.614	4162
807.756	4223
807.898	4230
808.04	4238
808.182	4276
808.324	4314
808.465	4371
808.607	4432
808.749	4432
808.891	4394
809.033	4519
809.174	4413
809.316	4268
809.458	4227
809.6	4166
809.741	4131
809.883	4109
810.025	4166
810.166	4219
810.308	4211
810.45	4268
810.591	4246
810.733	4291
810.875	4508
811.016	4820
811.158	5159
811.299	5239
811.441	5277
811.582	5083
811.724	4706
811.865	4474
812.007	4440
812.148	4455
812.29	4455
812.431	4398
812.573	4428
812.714	4333
812.855	4402
812.997	4424
813.138	4523
813.279	4394
813.421	4379
813.562	4379
813.703	4314
813.845	4287
813.986	4272
814.127	4227
814.268	4246
814.41	4295
814.551	4272
814.692	4318
814.833	4291
814.974	4318
815.115	4284
815.256	4295
815.397	4261
815.539	4238
815.68	4196
815.821	4253
815.962	4337
816.103	4310
816.244	4242
816.385	4265
816.526	4314
816.666	4249
816.807	4105
816.948	4173
817.089	4177
817.23	4097
817.371	3994
817.512	4021
817.653	4097
817.793	3979
817.934	4067
818.075	4112
818.216	4086
818.356	4059
818.497	3964
818.638	3888
818.778	3941
818.919	3850
819.06	3884
819.2	3907
819.341	3857
819.481	3835
819.622	3888
819.762	4010
819.903	3972
820.043	3896
820.184	3808
820.324	3827
820.465	3850
820.605	3831
820.746	3816
820.886	3804
821.026	3934
821.167	3896
821.307	3972
821.447	3922
821.588	3911
821.728	3941
821.868	3884
822.008	3816
822.149	3884
822.289	3911
822.429	3785
822.569	3743
822.709	3762
822.849	3701
822.99	3679
823.13	3770
823.27	3774
823.41	3732
823.55	3728
823.69	3732
823.83	3724
823.97	3701
824.11	3584
824.25	3629
824.389	3618
824.529	3675
824.669	3633
824.809	3694
824.949	3740
825.089	3740
825.228	3686
825.368	3606
825.508	3545
825.648	3561
825.787	3625
825.927	3637
826.067	3614
826.206	3610
826.346	3770
826.485	3842
826.625	3838
826.765	3960
826.904	3838
827.044	3618
827.183	3538
827.323	3420
827.462	3454
827.601	3447
827.741	3435
827.88	3370
828.02	3359
828.159	3466
828.298	3485
828.437	3507
828.577	3447
828.716	3625
828.855	3523
828.994	3370
829.134	3374
829.273	3374
829.412	3329
829.551	3317
829.69	3397
829.829	3412
829.968	3534
830.107	3416
830.246	3428
830.385	3382
830.524	3317
830.663	3310
830.802	3279
830.941	3195
831.08	3211
831.219	3279
831.357	3283
831.496	3401
831.635	3211
831.774	3169
831.913	3184
832.051	3135
832.19	3173
832.329	3211
832.467	3142
832.606	3112
832.744	3138
832.883	3199
833.022	3230
833.16	3264
833.299	3279
833.437	3321
833.576	3386
833.714	3382
833.852	3424
833.991	3443
834.129	3496
834.267	3428
834.406	3374
834.544	3447
834.682	3428
834.821	3393
834.959	3553
835.097	3435
835.235	3561
835.373	3462
835.511	3492
835.65	3488
835.788	3492
835.926	3389
836.064	3336
836.202	3416
836.34	3549
836.478	3648
836.615	3523
836.753	3603
836.891	3603
837.029	3637
837.167	3553
837.305	3580
837.443	3496
837.58	3496
837.718	3595
837.856	3538
837.993	3542
838.131	3595
838.269	3580
838.406	3603
838.544	3538
838.681	3420
838.819	3454
838.956	3359
839.094	3370
839.231	3481
839.369	3500
839.506	3709
839.643	3644
839.781	3523
839.918	3477
840.055	3481
840.193	3507
840.33	3561
840.467	3572
840.604	3599
840.742	3793
840.879	3507
841.016	3591
841.153	3614
841.29	3736
841.427	3690
841.564	3717
841.701	3713
841.838	3717
841.975	3663
842.112	3755
842.249	3614
842.385	3629
842.522	3797
842.659	3709
842.796	3648
842.933	3728
843.069	3713
843.206	3713
843.343	3819
843.479	3762
843.616	3827
843.752	3663
843.889	3740
844.025	3816
844.162	3732
844.298	3857
844.435	3812
844.571	3762
844.708	3880
844.844	3956
844.98	3975
845.117	4017
845.253	3896
845.389	3869
845.525	3972
845.661	3983
845.798	3918
845.934	3964
846.07	3972
846.206	4040
846.342	4128
846.478	4059
846.614	3975
846.75	3937
846.886	3911
847.022	4032
847.158	3987
847.294	4021
847.429	4010
847.565	4013
847.701	4219
847.837	3861
847.972	3827
848.108	3991
848.244	4006
848.379	3800
848.515	3831
848.65	3789
848.786	3831
848.921	3892
849.057	3945
849.192	3975
849.328	3876
849.463	3937
849.598	3903
849.734	3800
849.869	3842
850.004	3793
850.14	3831
850.275	3808
850.41	3728
850.545	3709
850.68	3774
850.815	3800
850.95	3804
851.085	3949
851.22	3873
851.355	3838
851.49	3762
851.625	3804
851.76	3778
851.895	3720
852.03	3747
852.165	3816
852.299	3827
852.434	3876
852.569	3903
852.703	3880
852.838	3937
852.973	3975
853.107	4013
853.242	3903
853.376	3846
853.511	3762
853.645	3865
853.78	4002
853.914	3865
854.048	3876
854.183	3926
854.317	3972
854.451	4086
854.585	3960
854.72	3960
854.854	4006
854.988	3915
855.122	4002
855.256	3945
855.39	4017
855.524	4097
855.658	4067
855.792	4074
855.926	4120
856.06	4128
856.194	4230
856.327	4082
856.461	4116
856.595	4097
856.729	4154
856.862	4318
856.996	4268
857.13	4295
857.263	4246
857.397	4356
857.53	4265
857.664	4375
857.797	4398
857.931	4413
858.064	4375
858.197	4489
858.331	4421
858.464	4402
858.597	4287
858.731	4481
858.864	4451
858.997	4417
859.13	4459
859.263	4519
859.396	4527
859.529	4508
859.662	4504
859.795	4447
859.928	4584
860.061	4691
860.194	4744
860.327	4645
860.46	4649
860.592	4717
860.725	4748
860.858	4733
860.99	4702
861.123	4702
861.256	4714
861.388	4790
861.521	5383
861.653	4714
861.786	4694
861.918	4755
862.05	4767
862.183	4843
862.315	4896
862.447	4877
862.58	4938
862.712	4778
862.844	4797
862.976	4843
863.108	4858
863.24	5193
863.372	4843
863.504	4930
863.636	4889
863.768	4987
863.9	4946
864.032	4900
864.164	4957
864.296	5006
864.428	5083
864.559	5113
864.691	5094
864.823	5143
864.954	5083
865.086	5185
865.217	5067
865.349	5155
865.48	5140
865.612	5193
865.743	5303
865.875	5246
866.006	5204
866.137	5197
866.269	5159
866.4	5242
866.531	5235
866.662	5216
866.793	5311
866.924	5280
867.055	5364
867.186	5303
867.317	5337
867.448	5322
867.579	5372
867.71	5391
867.841	5364
867.972	5474
868.103	5467
868.233	5486
868.364	5512
868.495	5539
868.625	5699
868.756	5832
868.886	5691
869.017	5798
869.147	5824
869.278	5844
869.408	5817
869.539	5824
869.669	5912
869.799	5916
869.929	5961
870.06	6011
870.19	6197
870.32	6254
870.45	6228
870.58	6365
870.71	6414
870.84	6475
870.97	6380
871.1	6479
871.23	6654
871.36	6681
871.489	6669
871.619	6703
871.749	6787
871.879	6829
872.008	7057
872.138	6939
872.267	7019
872.397	6985
872.526	6977
872.656	7091
872.785	7168
872.915	7377
873.044	7483
873.173	7540
873.303	7601
873.432	7723
873.561	7883
873.69	7902
873.819	8031
873.948	8180
874.077	8233
874.206	8275
874.335	8476
874.464	8689
874.593	8781
874.722	8952
874.851	9154
874.979	9218
875.108	9302
875.237	9405
875.365	9458
875.494	9584
875.623	9778
875.751	9808
875.88	9968
876.008	10173
876.136	10261
876.265	10535
876.393	10630
876.521	10721
876.65	10809
876.778	10927
876.906	10904
877.034	10915
877.162	11098
877.29	11140
877.418	11277
877.546	11398
877.674	11383
877.802	11429
877.93	11516
878.058	11592
878.185	11520
878.313	11649
878.441	11767
878.568	11688
878.696	11783
878.824	11859
878.951	11988
879.079	12083
879.206	12117
879.333	12026
879.461	12007
879.588	12034
879.715	12076
879.842	12209
879.97	12064
880.097	11859
880.224	11973
880.351	11954
880.478	11931
880.605	11775
880.732	11714
880.859	12026
880.986	11745
881.112	11866
881.239	11741
881.366	11657
881.493	11657
881.619	11516
881.746	11604
881.872	11566
881.999	11512
882.125	11410
882.252	11505
882.378	11581
882.505	11535
882.631	11433
882.757	11387
882.883	11288
883.01	11299
883.136	11269
883.262	11181
883.388	11090
883.514	11208
883.64	11181
883.766	11060
883.892	10968
884.018	11006
884.143	11029
884.269	11090
884.395	10812
884.52	10729
884.646	10767
884.772	10725
884.897	10721
885.023	10641
885.148	10691
885.274	10786
885.399	10649
885.524	10630
885.65	10558
885.775	10592
885.9	10546
886.025	10508
886.15	10516
886.275	10508
886.4	10405
886.525	10409
886.65	10284
886.775	10375
886.9	10535
887.025	10481
887.149	10398
887.274	10109
887.399	10200
887.523	10219
887.648	10169
887.773	10097
887.897	10284
888.021	10314
888.146	10192
888.27	10211
888.395	10211
888.519	10219
888.643	10173
888.767	10253
888.891	10017
889.015	10036
889.139	10101
889.263	10013
889.387	10040
889.511	10086
889.635	10086
889.759	10002
889.883	9972
890.006	9918
890.13	10078
890.254	9876
890.377	9926
890.501	9846
890.624	9907
890.748	9842
890.871	9816
890.995	9717
891.118	9755
891.241	9717
891.364	9690
891.488	9755
891.611	9713
891.734	9686
891.857	9800
891.98	9736
892.103	9759
892.226	9713
892.349	9690
892.471	9458
892.594	9523
892.717	9660
892.839	9591
892.962	9667
893.085	9591
893.207	9564
893.33	9492
893.452	9485
893.575	9587
893.697	9435
893.819	9523
893.941	9564
894.064	9542
894.186	9393
894.308	9435
894.43	9507
894.552	9591
894.674	9481
894.796	9351
894.918	9466
895.04	9374
895.161	9428
895.283	9279
895.405	9317
895.526	9287
895.648	9253
895.769	9245
895.891	9245
896.012	9291
896.134	9180
896.255	9127
896.376	9157
896.498	9131
896.619	9051
896.74	9032
896.861	9108
896.982	9188
897.103	9291
897.224	9108
897.345	9074
897.466	8998
897.587	9020
897.708	9081
897.828	8986
897.949	8876
898.07	8849
898.19	8918
898.311	9017
898.431	8823
898.552	8956
898.672	9020
898.792	8895
898.913	8929
899.033	8872
899.153	8746
899.273	8651
899.393	8705
899.513	8739
899.633	8697
899.753	8724
899.873	8655
899.993	8697
900.113	8727
900.232	8746
900.352	8613
900.472	8610
900.591	8533
900.711	8640
900.83	8568
900.95	8651
901.069	8644
901.189	8629
901.308	8511
901.427	8396
901.546	8400
901.665	8473
901.784	8514
901.904	8374
902.023	8328
902.141	8279
902.26	8176
902.379	8290
902.498	8233
902.617	8206
902.735	8286
902.854	8328
902.973	8225
903.091	8157
903.21	8100
903.328	8183
903.446	8065
903.565	8043
903.683	8035
903.801	8016
903.919	8142
904.038	8149
904.156	8020
904.274	8119
904.392	8039
904.51	8008
904.627	8001
904.745	8115
904.863	8100
904.981	7906
905.098	7902
905.216	7852
905.334	7917
905.451	7887
905.569	7928
905.686	7936
905.803	7925
905.921	7788
906.038	7883
906.155	7822
906.272	7742
906.389	7765
906.506	7597
906.623	7609
906.74	7597
906.857	7605
906.974	7613
907.091	7647
907.208	7727
907.324	7715
907.441	7575
907.557	7419
907.674	7453
907.79	7388
907.907	7407
908.023	7430
908.139	7415
908.256	7403
908.372	7358
908.488	7293
908.604	7312
908.72	7236
908.836	7217
908.952	7244
909.068	7297
909.184	7339
909.3	7255
909.415	7263
909.531	7305
909.647	7156
909.762	7107
909.878	7118
909.993	7145
910.108	7137
910.224	7053
910.339	7061
910.454	7038
910.57	6973
910.685	6951
910.8	7110
910.915	7084
911.03	7004
911.145	6928
911.259	6928
911.374	6890
911.489	6840
911.604	6806
911.718	6722
911.833	6677
911.947	6658
912.062	6525
912.176	6692
912.291	6734
912.405	6711
912.519	6795
912.633	6825
912.748	6719
912.862	6627
912.976	6639
913.09	6498
913.204	6639
913.318	6616
913.431	6639
913.545	6662
913.659	6707
913.772	6631
913.886	6532
914	6525
914.113	6604
914.226	6635
914.34	6570
914.453	6452
914.566	6563
914.68	6494
914.793	6486
914.906	6429
915.019	6380
915.132	6384
915.245	6334
915.358	6467
915.47	6388
915.583	6464
915.696	6441
915.809	6559
915.921	6513
916.034	6441
916.146	6437
916.259	6391
916.371	6467
916.483	6441
916.595	6414
916.708	6395
916.82	6369
916.932	6338
917.044	6357
917.156	6380
917.268	6334
917.38	6334
917.491	6285
917.603	6315
917.715	6388
917.826	6353
917.938	6315
918.049	6251
918.161	6353
918.272	6365
918.384	6448
918.495	6357
918.606	6247
918.717	6197
918.828	6262
918.939	6277
919.05	6178
919.161	6270
919.272	6140
919.383	6148
919.494	6273
919.604	6418
919.715	6304
919.826	6155
919.936	6304
920.047	6315
920.157	6277
920.267	6426
920.378	6277
920.488	6247
920.598	6422
920.708	6498
920.818	6486
920.928	6433
921.038	6540
921.148	6570
921.258	6311
921.368	6296
921.477	6171
921.587	6171
921.697	6095
921.806	6186
921.916	6045
922.025	5935
922.134	5901
922.244	5882
922.353	5950
922.462	5885
922.571	5794
922.68	5699
922.789	5630
922.898	5707
923.007	5680
923.116	5737
923.224	5634
923.333	5615
923.442	5604
923.55	5535
923.659	5551
923.767	5623
923.876	5509
923.984	5581
924.092	5528
924.201	5532
924.309	5562
924.417	5539
924.525	5467
924.633	5551
924.741	6258
924.849	5364
924.956	5429
925.064	5391
925.172	5299
925.279	5280
925.387	5364
925.494	5326
925.602	5395
925.709	5417
925.816	5284
925.924	5303
926.031	5364
926.138	5273
926.245	5357
926.352	5201
926.459	5307
926.566	5292
926.673	5216
926.779	5159
926.886	5140
926.993	4995
927.099	5003
927.206	4911
927.312	4919
927.419	5071
927.525	4968
927.631	4991
927.737	4889
927.843	4858
927.95	4793
928.056	4797
928.162	4839
928.267	4854
928.373	5311
928.479	4866
928.585	4687
928.69	4767
928.796	4778
928.901	4733
929.007	4618
929.112	4660
929.218	4611
929.323	4596
929.428	4580
929.533	4653
929.638	4500
929.743	4512
929.848	4527
929.953	4462
930.058	4428
930.163	4329
930.267	4306
930.372	4421
930.477	4318
930.581	4459
930.685	4360
930.79	4249
930.894	4299
930.998	4234
931.103	4379
931.207	4131
931.311	4124
931.415	4040
931.519	3934
931.623	3960
