Data from glass_V78500241_1014.txt Node
Date: Wed Sep 01 19:21:31 CST 2021
User: usil
Spectrometer: V785-0024
Trigger mode: 0
Integration Time (sec): 4.000000E-1
Scans to average: 1
Nonlinearity correction enabled: false
Boxcar width: 0
Storing dark spectrum: false
XAxis mode: Wavelengths
Number of Pixels in Spectrum: 1024
>>>>>Begin Spectral Data<<<<<
801.071	3705
801.214	3743
801.356	3686
801.499	3785
801.641	3759
801.783	3770
801.926	3846
802.068	3778
802.211	3892
802.353	3899
802.496	3892
802.638	3884
802.78	3899
802.923	3949
803.065	3907
803.208	3865
803.35	3854
803.492	3937
803.635	3865
803.777	3800
803.919	3918
804.061	4135
804.204	3960
804.346	3968
804.488	3907
804.63	4055
804.773	3983
804.915	4082
805.057	4185
805.199	4059
805.341	4128
805.483	4169
805.626	4192
805.768	4124
805.91	4265
806.052	4211
806.194	4227
806.336	4337
806.478	4230
806.62	4181
806.762	4196
806.904	4234
807.046	4348
807.188	4291
807.33	4192
807.472	4227
807.614	4200
807.756	4280
807.898	4215
808.04	4238
808.182	4329
808.324	4337
808.465	4363
808.607	4459
808.749	4432
808.891	4432
809.033	4474
809.174	4390
809.316	4280
809.458	4284
809.6	4173
809.741	4169
809.883	4135
810.025	4181
810.166	4234
810.308	4253
810.45	4253
810.591	4253
810.733	4386
810.875	4565
811.016	4809
811.158	5105
811.299	5208
811.441	5254
811.582	5086
811.724	4691
811.865	4481
812.007	4481
812.148	4455
812.29	4413
812.431	4421
812.573	4409
812.714	4367
812.855	4432
812.997	4405
813.138	4466
813.279	4413
813.421	4424
813.562	4451
813.703	4352
813.845	4322
813.986	4249
814.127	4211
814.268	4310
814.41	4299
814.551	4295
814.692	4352
814.833	4291
814.974	4333
815.115	4360
815.256	4261
815.397	4249
815.539	4234
815.68	4196
815.821	4211
815.962	4310
816.103	4344
816.244	4276
816.385	4234
816.526	4306
816.666	4223
816.807	4120
816.948	4223
817.089	4169
817.23	4101
817.371	4078
817.512	4074
817.653	4112
817.793	4029
817.934	4090
818.075	4135
818.216	4105
818.356	4128
818.497	3994
818.638	3934
818.778	3941
818.919	3911
819.06	3892
819.2	3880
819.341	3869
819.481	3876
819.622	3937
819.762	4086
819.903	3926
820.043	3854
820.184	3838
820.324	3789
820.465	3869
820.605	3869
820.746	3899
820.886	3823
821.026	3934
821.167	3911
821.307	3987
821.447	3972
821.588	3968
821.728	3960
821.868	3941
822.008	3884
822.149	3899
822.289	3926
822.429	3793
822.569	3770
822.709	3808
822.849	3701
822.99	3751
823.13	3732
823.27	3816
823.41	3709
823.55	3747
823.69	3736
823.83	3740
823.97	3682
824.11	3606
824.25	3606
824.389	3656
824.529	3663
824.669	3614
824.809	3701
824.949	3743
825.089	3736
825.228	3751
825.368	3610
825.508	3599
825.648	3553
825.787	3637
825.927	3629
826.067	3641
826.206	3648
826.346	3842
826.485	3823
826.625	3816
826.765	3964
826.904	3869
827.044	3675
827.183	3534
827.323	3447
827.462	3500
827.601	3420
827.741	3458
827.88	3477
828.02	3420
828.159	3447
828.298	3496
828.437	3553
828.577	3492
828.716	3603
828.855	3473
828.994	3458
829.134	3386
829.273	3386
829.412	3355
829.551	3344
829.69	3367
829.829	3447
829.968	3511
830.107	3458
830.246	3450
830.385	3393
830.524	3344
830.663	3302
830.802	3264
830.941	3230
831.08	3176
831.219	3275
831.357	3298
831.496	3416
831.635	3222
831.774	3226
831.913	3199
832.051	3131
832.19	3142
832.329	3249
832.467	3157
832.606	3142
832.744	3230
832.883	3195
833.022	3222
833.16	3233
833.299	3306
833.437	3317
833.576	3370
833.714	3458
833.852	3469
833.991	3435
834.129	3473
834.267	3458
834.406	3450
834.544	3428
834.682	3409
834.821	3443
834.959	3568
835.097	3424
835.235	3530
835.373	3492
835.511	3485
835.65	3466
835.788	3496
835.926	3389
836.064	3401
836.202	3435
836.34	3568
836.478	3618
836.615	3553
836.753	3603
836.891	3652
837.029	3682
837.167	3576
837.305	3610
837.443	3549
837.58	3507
837.718	3625
837.856	3603
837.993	3545
838.131	3633
838.269	3564
838.406	3584
838.544	3572
838.681	3492
838.819	3443
838.956	3389
839.094	3428
839.231	3454
839.369	3526
839.506	3770
839.643	3622
839.781	3504
839.918	3488
840.055	3538
840.193	3553
840.33	3545
840.467	3553
840.604	3656
840.742	3823
840.879	3538
841.016	3561
841.153	3610
841.29	3774
841.427	3770
841.564	3705
841.701	3774
841.838	3720
841.975	3667
842.112	3751
842.249	3652
842.385	3637
842.522	3884
842.659	3728
842.796	3679
842.933	3675
843.069	3720
843.206	3701
843.343	3808
843.479	3785
843.616	3854
843.752	3682
843.889	3709
844.025	3899
844.162	3732
844.298	3850
844.435	3804
844.571	3800
844.708	3915
844.844	4010
844.98	4013
845.117	3994
845.253	3907
845.389	3975
845.525	4006
845.661	3937
845.798	3899
845.934	4036
846.07	3956
846.206	4048
846.342	4105
846.478	4074
846.614	3987
846.75	3941
846.886	3926
847.022	4051
847.158	4006
847.294	4006
847.429	4029
847.565	4013
847.701	4242
847.837	3922
847.972	3892
848.108	3934
848.244	3968
848.379	3838
848.515	3804
848.65	3789
848.786	3831
848.921	3835
849.057	3953
849.192	3930
849.328	3934
849.463	3930
849.598	3861
849.734	3888
849.869	3823
850.004	3804
850.14	3835
850.275	3800
850.41	3766
850.545	3751
850.68	3781
850.815	3816
850.95	3835
851.085	3934
851.22	3857
851.355	3846
851.49	3808
851.625	3800
851.76	3842
851.895	3778
852.03	3778
852.165	3781
852.299	3857
852.434	3934
852.569	3892
852.703	3892
852.838	3960
852.973	4036
853.107	3983
853.242	3922
853.376	3842
853.511	3778
853.645	3831
853.78	4032
853.914	3907
854.048	3846
854.183	3911
854.317	3972
854.451	4078
854.585	3949
854.72	3987
854.854	4074
854.988	3983
855.122	4063
855.256	3953
855.39	4040
855.524	4116
855.658	4101
855.792	4078
855.926	4177
856.06	4139
856.194	4234
856.327	4109
856.461	4143
856.595	4158
856.729	4188
856.862	4295
856.996	4257
857.13	4310
857.263	4314
857.397	4329
857.53	4314
857.664	4363
857.797	4386
857.931	4424
858.064	4451
858.197	4451
858.331	4417
858.464	4409
858.597	4394
858.731	4432
858.864	4466
858.997	4459
859.13	4493
859.263	4538
859.396	4569
859.529	4550
859.662	4527
859.795	4542
859.928	4599
860.061	4714
860.194	4744
860.327	4702
860.46	4675
860.592	4679
860.725	4763
860.858	4755
860.99	4683
861.123	4641
861.256	4641
861.388	4778
861.521	5482
861.653	4755
861.786	4691
861.918	4767
862.05	4820
862.183	4900
862.315	4927
862.447	4984
862.58	4938
862.712	4801
862.844	4774
862.976	4870
863.108	4873
863.24	5227
863.372	4862
863.504	4908
863.636	4904
863.768	4980
863.9	5014
864.032	4953
864.164	4961
864.296	5018
864.428	5094
864.559	5098
864.691	5143
864.823	5170
864.954	5102
865.086	5147
865.217	5159
865.349	5143
865.48	5181
865.612	5242
865.743	5318
865.875	5189
866.006	5193
866.137	5242
866.269	5246
866.4	5216
866.531	5239
866.662	5220
866.793	5265
866.924	5349
867.055	5334
867.186	5395
867.317	5326
867.448	5307
867.579	5387
867.71	5368
867.841	5398
867.972	5474
868.103	5516
868.233	5520
868.364	5509
868.495	5581
868.625	5691
868.756	5703
868.886	5688
869.017	5691
869.147	5859
869.278	5824
869.408	5817
869.539	5855
869.669	5908
869.799	5920
869.929	6007
870.06	5999
870.19	6197
870.32	6175
870.45	6300
870.58	6350
870.71	6437
870.84	6479
870.97	6471
871.1	6467
871.23	6654
871.36	6684
871.489	6681
871.619	6776
871.749	6787
871.879	6897
872.008	7015
872.138	6951
872.267	6932
872.397	7012
872.526	7034
872.656	7133
872.785	7247
872.915	7400
873.044	7518
873.173	7567
873.303	7696
873.432	7700
873.561	7864
873.69	7890
873.819	7974
873.948	8191
874.077	8263
874.206	8370
874.335	8461
874.464	8682
874.593	8838
874.722	8918
874.851	9116
874.979	9195
875.108	9363
875.237	9443
875.365	9504
875.494	9713
875.623	9842
875.751	9789
875.88	9926
876.008	10143
876.136	10299
876.265	10504
876.393	10683
876.521	10664
876.65	10771
876.778	10915
876.906	10889
877.034	10995
877.162	11136
877.29	11136
877.418	11311
877.546	11356
877.674	11493
877.802	11421
877.93	11543
878.058	11630
878.185	11577
878.313	11630
878.441	11710
878.568	11691
878.696	11767
878.824	11885
878.951	11946
879.079	11996
879.206	12152
879.333	12053
879.461	11961
879.588	12038
879.715	12068
879.842	12190
879.97	12110
880.097	11840
880.224	11889
880.351	11889
880.478	11878
880.605	11863
880.732	11748
880.859	11988
880.986	11961
881.112	11855
881.239	11771
881.366	11680
881.493	11581
881.619	11516
881.746	11532
881.872	11570
881.999	11471
882.125	11486
882.252	11581
882.378	11539
882.505	11596
882.631	11410
882.757	11280
882.883	11353
883.01	11223
883.136	11254
883.262	11147
883.388	11109
883.514	11197
883.64	11185
883.766	11064
883.892	11003
884.018	11006
884.143	11010
884.269	11117
884.395	10835
884.52	10873
884.646	10706
884.772	10771
884.897	10660
885.023	10645
885.148	10771
885.274	10706
885.399	10771
885.524	10634
885.65	10645
885.775	10607
885.9	10546
886.025	10618
886.15	10531
886.275	10474
886.4	10402
886.525	10462
886.65	10382
886.775	10394
886.9	10481
887.025	10550
887.149	10310
887.274	10265
887.399	10173
887.523	10173
887.648	10173
887.773	10112
887.897	10181
888.021	10196
888.146	10147
888.27	10329
888.395	10230
888.519	10299
888.643	10188
888.767	10230
888.891	10055
889.015	10013
889.139	10093
889.263	10051
889.387	10071
889.511	10147
889.635	10093
889.759	9899
889.883	10040
890.006	9956
890.13	10093
890.254	9960
890.377	9903
890.501	9892
890.624	9903
890.748	9865
890.871	9770
890.995	9755
891.118	9770
891.241	9808
891.364	9667
891.488	9892
891.611	9724
891.734	9694
891.857	9808
891.98	9709
892.103	9808
892.226	9717
892.349	9724
892.471	9584
892.594	9637
892.717	9587
892.839	9572
892.962	9591
893.085	9603
893.207	9526
893.33	9553
893.452	9637
893.575	9633
893.697	9580
893.819	9656
893.941	9603
894.064	9641
894.186	9481
894.308	9458
894.43	9576
894.552	9595
894.674	9545
894.796	9370
894.918	9382
895.04	9355
895.161	9310
895.283	9332
895.405	9264
895.526	9161
895.648	9233
895.769	9214
895.891	9188
896.012	9313
896.134	9298
896.255	9233
896.376	9165
896.498	9211
896.619	9180
896.74	9154
896.861	9051
896.982	9302
897.103	9279
897.224	9154
897.345	9089
897.466	9013
897.587	9001
897.708	9112
897.828	8990
897.949	8960
898.07	8998
898.19	8899
898.311	8944
898.431	8944
898.552	8891
898.672	8937
898.792	8944
898.913	8880
899.033	8781
899.153	8739
899.273	8667
899.393	8769
899.513	8762
899.633	8724
899.753	8766
899.873	8758
899.993	8868
900.113	8758
900.232	8708
900.352	8663
900.472	8613
900.591	8575
900.711	8590
900.83	8568
900.95	8689
901.069	8689
901.189	8606
901.308	8499
901.427	8404
901.546	8434
901.665	8469
901.784	8457
901.904	8393
902.023	8389
902.141	8256
902.26	8229
902.379	8233
902.498	8229
902.617	8199
902.735	8263
902.854	8267
902.973	8259
903.091	8157
903.21	8149
903.328	8149
903.446	8145
903.565	8027
903.683	8176
903.801	7978
903.919	8138
904.038	8138
904.156	8046
904.274	8088
904.392	8054
904.51	8027
904.627	8084
904.745	8126
904.863	8153
904.981	7963
905.098	7856
905.216	7841
905.334	7940
905.451	7871
905.569	7925
905.686	7906
905.803	7898
905.921	7776
906.038	7887
906.155	7795
906.272	7731
906.389	7753
906.506	7620
906.623	7658
906.74	7651
906.857	7571
906.974	7578
907.091	7662
907.208	7719
907.324	7639
907.441	7590
907.557	7438
907.674	7506
907.79	7460
907.907	7457
908.023	7460
908.139	7331
908.256	7381
908.372	7369
908.488	7358
908.604	7320
908.72	7206
908.836	7274
908.952	7293
909.068	7316
909.184	7350
909.3	7274
909.415	7278
909.531	7339
909.647	7160
909.762	7129
909.878	7088
909.993	7114
910.108	7042
910.224	7046
910.339	7088
910.454	7023
910.57	7053
910.685	6977
910.8	7194
910.915	7069
911.03	7019
911.145	6913
911.259	6878
911.374	6871
911.489	6829
911.604	6810
911.718	6684
911.833	6692
911.947	6646
912.062	6627
912.176	6730
912.291	6757
912.405	6776
912.519	6783
912.633	6814
912.748	6783
912.862	6757
912.976	6601
913.09	6513
913.204	6582
913.318	6593
913.431	6700
913.545	6642
913.659	6776
913.772	6631
913.886	6563
914	6532
914.113	6604
914.226	6589
914.34	6658
914.453	6532
914.566	6623
914.68	6532
914.793	6471
914.906	6486
915.019	6422
915.132	6456
915.245	6422
915.358	6445
915.47	6441
915.583	6452
915.696	6521
915.809	6551
915.921	6585
916.034	6376
916.146	6391
916.259	6384
916.371	6494
916.483	6479
916.595	6418
916.708	6407
916.82	6418
916.932	6376
917.044	6399
917.156	6429
917.268	6342
917.38	6281
917.491	6346
917.603	6346
917.715	6426
917.826	6388
917.938	6277
918.049	6270
918.161	6350
918.272	6490
918.384	6460
918.495	6361
918.606	6228
918.717	6167
918.828	6334
918.939	6262
919.05	6273
919.161	6289
919.272	6171
919.383	6121
919.494	6304
919.604	6407
919.715	6323
919.826	6251
919.936	6228
920.047	6342
920.157	6285
920.267	6479
920.378	6331
920.488	6327
920.598	6445
920.708	6585
920.818	6467
920.928	6460
921.038	6612
921.148	6593
921.258	6407
921.368	6331
921.477	6235
921.587	6205
921.697	6072
921.806	6232
921.916	6140
922.025	5931
922.134	5939
922.244	5844
922.353	5980
922.462	5844
922.571	5794
922.68	5779
922.789	5748
922.898	5688
923.007	5680
923.116	5653
923.224	5699
923.333	5695
923.442	5615
923.55	5539
923.659	5562
923.767	5676
923.876	5520
923.984	5627
924.092	5501
924.201	5551
924.309	5562
924.417	5562
924.525	5493
924.633	5509
924.741	6300
924.849	5376
924.956	5474
925.064	5433
925.172	5318
925.279	5341
925.387	5337
925.494	5337
925.602	5433
925.709	5383
925.816	5261
925.924	5357
926.031	5376
926.138	5322
926.245	5357
926.352	5250
926.459	5345
926.566	5322
926.673	5254
926.779	5197
926.886	5128
926.993	5075
927.099	4995
927.206	5010
927.312	4995
927.419	5071
927.525	4949
927.631	4976
927.737	4900
927.843	4915
927.95	4744
928.056	4793
928.162	4824
928.267	4850
928.373	5368
928.479	4824
928.585	4687
928.69	4835
928.796	4805
928.901	4694
929.007	4615
929.112	4752
929.218	4683
929.323	4580
929.428	4569
929.533	4687
929.638	4523
929.743	4512
929.848	4603
929.953	4569
930.058	4462
930.163	4356
930.267	4405
930.372	4485
930.477	4318
930.581	4474
930.685	4356
930.79	4287
930.894	4310
930.998	4276
931.103	4363
931.207	4131
931.311	4051
931.415	4044
931.519	3941
931.623	3953
