Data from glass_V78500241_621.txt Node
Date: Wed Sep 01 19:18:48 CST 2021
User: usil
Spectrometer: V785-0024
Trigger mode: 0
Integration Time (sec): 4.000000E-1
Scans to average: 1
Nonlinearity correction enabled: false
Boxcar width: 0
Storing dark spectrum: false
XAxis mode: Wavelengths
Number of Pixels in Spectrum: 1024
>>>>>Begin Spectral Data<<<<<
801.071	3728
801.214	3759
801.356	3717
801.499	3747
801.641	3713
801.783	3804
801.926	3861
802.068	3869
802.211	3903
802.353	3918
802.496	3873
802.638	3930
802.78	3903
802.923	3964
803.065	3972
803.208	3880
803.35	3857
803.492	3934
803.635	3930
803.777	3842
803.919	3918
804.061	4162
804.204	3972
804.346	3960
804.488	3903
804.63	4071
804.773	3998
804.915	4051
805.057	4135
805.199	4036
805.341	4093
805.483	4162
805.626	4162
805.768	4120
805.91	4268
806.052	4230
806.194	4207
806.336	4337
806.478	4242
806.62	4150
806.762	4200
806.904	4268
807.046	4360
807.188	4268
807.33	4147
807.472	4280
807.614	4219
807.756	4295
807.898	4261
808.04	4242
808.182	4287
808.324	4287
808.465	4390
808.607	4474
808.749	4440
808.891	4497
809.033	4504
809.174	4428
809.316	4280
809.458	4242
809.6	4181
809.741	4207
809.883	4120
810.025	4219
810.166	4223
810.308	4219
810.45	4257
810.591	4223
810.733	4318
810.875	4546
811.016	4820
811.158	5147
811.299	5280
811.441	5307
811.582	5071
811.724	4752
811.865	4485
812.007	4558
812.148	4447
812.29	4440
812.431	4428
812.573	4394
812.714	4405
812.855	4424
812.997	4470
813.138	4497
813.279	4417
813.421	4443
813.562	4360
813.703	4337
813.845	4379
813.986	4268
814.127	4242
814.268	4276
814.41	4333
814.551	4265
814.692	4322
814.833	4249
814.974	4325
815.115	4314
815.256	4268
815.397	4223
815.539	4268
815.68	4238
815.821	4211
815.962	4344
816.103	4367
816.244	4265
816.385	4215
816.526	4291
816.666	4204
816.807	4063
816.948	4150
817.089	4143
817.23	4135
817.371	4097
817.512	4082
817.653	4093
817.793	4032
817.934	4086
818.075	4124
818.216	4055
818.356	4093
818.497	3983
818.638	3956
818.778	3926
818.919	3911
819.06	3880
819.2	3937
819.341	3861
819.481	3873
819.622	3945
819.762	4048
819.903	3960
820.043	3899
820.184	3876
820.324	3850
820.465	3850
820.605	3819
820.746	3907
820.886	3812
821.026	3896
821.167	3911
821.307	3987
821.447	3972
821.588	3991
821.728	3953
821.868	3945
822.008	3907
822.149	3896
822.289	3918
822.429	3789
822.569	3797
822.709	3789
822.849	3759
822.99	3736
823.13	3812
823.27	3781
823.41	3740
823.55	3785
823.69	3736
823.83	3717
823.97	3675
824.11	3633
824.25	3599
824.389	3698
824.529	3694
824.669	3667
824.809	3740
824.949	3770
825.089	3762
825.228	3736
825.368	3622
825.508	3576
825.648	3576
825.787	3637
825.927	3614
826.067	3644
826.206	3660
826.346	3781
826.485	3850
826.625	3873
826.765	3926
826.904	3819
827.044	3633
827.183	3515
827.323	3431
827.462	3450
827.601	3450
827.741	3416
827.88	3443
828.02	3397
828.159	3431
828.298	3477
828.437	3545
828.577	3466
828.716	3614
828.855	3485
828.994	3405
829.134	3355
829.273	3393
829.412	3340
829.551	3340
829.69	3367
829.829	3412
829.968	3549
830.107	3435
830.246	3409
830.385	3374
830.524	3378
830.663	3294
830.802	3253
830.941	3249
831.08	3199
831.219	3272
831.357	3268
831.496	3420
831.635	3195
831.774	3256
831.913	3230
832.051	3138
832.19	3150
832.329	3233
832.467	3142
832.606	3104
832.744	3165
832.883	3195
833.022	3154
833.16	3256
833.299	3321
833.437	3336
833.576	3355
833.714	3409
833.852	3439
833.991	3416
834.129	3526
834.267	3485
834.406	3435
834.544	3439
834.682	3420
834.821	3424
834.959	3584
835.097	3439
835.235	3500
835.373	3469
835.511	3534
835.65	3428
835.788	3466
835.926	3401
836.064	3397
836.202	3401
836.34	3549
836.478	3644
836.615	3553
836.753	3622
836.891	3656
837.029	3633
837.167	3576
837.305	3584
837.443	3576
837.58	3534
837.718	3644
837.856	3576
837.993	3542
838.131	3603
838.269	3564
838.406	3587
838.544	3584
838.681	3496
838.819	3469
838.956	3401
839.094	3367
839.231	3439
839.369	3545
839.506	3762
839.643	3679
839.781	3496
839.918	3462
840.055	3496
840.193	3572
840.33	3519
840.467	3526
840.604	3610
840.742	3850
840.879	3557
841.016	3576
841.153	3591
841.29	3762
841.427	3698
841.564	3736
841.701	3740
841.838	3705
841.975	3713
842.112	3732
842.249	3622
842.385	3652
842.522	3827
842.659	3713
842.796	3667
842.933	3740
843.069	3740
843.206	3732
843.343	3800
843.479	3808
843.616	3823
843.752	3694
843.889	3675
844.025	3880
844.162	3732
844.298	3842
844.435	3781
844.571	3800
844.708	3972
844.844	4002
844.98	4044
845.117	4002
845.253	3960
845.389	3960
845.525	3987
845.661	3983
845.798	3926
845.934	4032
846.07	4010
846.206	4071
846.342	4109
846.478	4101
846.614	3987
846.75	3892
846.886	3892
847.022	4071
847.158	3979
847.294	4044
847.429	4029
847.565	4013
847.701	4280
847.837	3884
847.972	3876
848.108	3998
848.244	3972
848.379	3842
848.515	3831
848.65	3850
848.786	3846
848.921	3861
849.057	3960
849.192	3956
849.328	3926
849.463	3896
849.598	3888
849.734	3915
849.869	3873
850.004	3865
850.14	3819
850.275	3770
850.41	3759
850.545	3778
850.68	3827
850.815	3854
850.95	3835
851.085	3968
851.22	3865
851.355	3793
851.49	3812
851.625	3838
851.76	3842
851.895	3759
852.03	3740
852.165	3835
852.299	3854
852.434	3945
852.569	3915
852.703	3869
852.838	3945
852.973	4010
853.107	4036
853.242	3880
853.376	3869
853.511	3804
853.645	3823
853.78	3964
853.914	3918
854.048	3945
854.183	3903
854.317	3941
854.451	4101
854.585	3930
854.72	3949
854.854	4044
854.988	3934
855.122	3979
855.256	3945
855.39	4021
855.524	4074
855.658	4101
855.792	4162
855.926	4177
856.06	4112
856.194	4204
856.327	4185
856.461	4154
856.595	4135
856.729	4181
856.862	4306
856.996	4272
857.13	4287
857.263	4337
857.397	4405
857.53	4303
857.664	4333
857.797	4371
857.931	4413
858.064	4383
858.197	4462
858.331	4398
858.464	4390
858.597	4348
858.731	4493
858.864	4459
858.997	4459
859.13	4531
859.263	4508
859.396	4626
859.529	4516
859.662	4565
859.795	4516
859.928	4607
860.061	4683
860.194	4744
860.327	4660
860.46	4626
860.592	4717
860.725	4752
860.858	4763
860.99	4714
861.123	4710
861.256	4721
861.388	4763
861.521	5398
861.653	4763
861.786	4710
861.918	4759
862.05	4778
862.183	4850
862.315	4900
862.447	4911
862.58	4873
862.712	4824
862.844	4729
862.976	4930
863.108	4904
863.24	5151
863.372	4820
863.504	4854
863.636	4908
863.768	4991
863.9	5006
864.032	4938
864.164	4976
864.296	5075
864.428	5067
864.559	5181
864.691	5159
864.823	5109
864.954	5117
865.086	5121
865.217	5086
865.349	5121
865.48	5166
865.612	5223
865.743	5326
865.875	5162
866.006	5193
866.137	5235
866.269	5284
866.4	5296
866.531	5258
866.662	5239
866.793	5292
866.924	5353
867.055	5345
867.186	5341
867.317	5299
867.448	5303
867.579	5391
867.71	5334
867.841	5383
867.972	5417
868.103	5509
868.233	5486
868.364	5497
868.495	5573
868.625	5634
868.756	5764
868.886	5707
869.017	5733
869.147	5866
869.278	5878
869.408	5794
869.539	5836
869.669	5939
869.799	5931
869.929	5965
870.06	5999
870.19	6159
870.32	6144
870.45	6277
870.58	6342
870.71	6418
870.84	6391
870.97	6426
871.1	6464
871.23	6620
871.36	6700
871.489	6684
871.619	6726
871.749	6779
871.879	6958
872.008	6973
872.138	6958
872.267	7008
872.397	7042
872.526	7034
872.656	7107
872.785	7141
872.915	7449
873.044	7529
873.173	7533
873.303	7658
873.432	7731
873.561	7955
873.69	7898
873.819	8008
873.948	8153
874.077	8229
874.206	8381
874.335	8465
874.464	8750
874.593	8819
874.722	8990
874.851	9173
874.979	9184
875.108	9317
875.237	9367
875.365	9469
875.494	9671
875.623	9873
875.751	9808
875.88	10021
876.008	10181
876.136	10249
876.265	10497
876.393	10740
876.521	10683
876.65	10847
876.778	10801
876.906	10946
877.034	11014
877.162	11136
877.29	11128
877.418	11246
877.546	11372
877.674	11459
877.802	11516
877.93	11665
878.058	11543
878.185	11592
878.313	11604
878.441	11783
878.568	11676
878.696	11836
878.824	11851
878.951	11920
879.079	12026
879.206	12095
879.333	12095
879.461	11954
879.588	12125
879.715	12026
879.842	12258
879.97	12041
880.097	11977
880.224	11893
880.351	11935
880.478	11927
880.605	11824
880.732	11843
880.859	12011
880.986	11866
881.112	11931
881.239	11767
881.366	11710
881.493	11649
881.619	11547
881.746	11630
881.872	11600
881.999	11543
882.125	11471
882.252	11551
882.378	11592
882.505	11566
882.631	11360
882.757	11307
882.883	11280
883.01	11273
883.136	11223
883.262	11105
883.388	11128
883.514	11204
883.64	11121
883.766	11117
883.892	10900
884.018	11037
884.143	11102
884.269	11189
884.395	10831
884.52	10786
884.646	10771
884.772	10717
884.897	10725
885.023	10782
885.148	10721
885.274	10763
885.399	10767
885.524	10752
885.65	10550
885.775	10626
885.9	10546
886.025	10645
886.15	10596
886.275	10470
886.4	10371
886.525	10421
886.65	10432
886.775	10398
886.9	10527
887.025	10500
887.149	10352
887.274	10253
887.399	10246
887.523	10143
887.648	10135
887.773	10101
887.897	10223
888.021	10223
888.146	10090
888.27	10211
888.395	10291
888.519	10139
888.643	10204
888.767	10147
888.891	10059
889.015	9953
889.139	10101
889.263	10021
889.387	10093
889.511	10071
889.635	10112
889.759	9895
889.883	10010
890.006	9964
890.13	10131
890.254	9892
890.377	9964
890.501	9819
890.624	9861
890.748	9899
890.871	9797
890.995	9804
891.118	9720
891.241	9724
891.364	9816
891.488	9907
891.611	9762
891.734	9743
891.857	9812
891.98	9728
892.103	9778
892.226	9675
892.349	9740
892.471	9584
892.594	9603
892.717	9648
892.839	9603
892.962	9606
893.085	9736
893.207	9530
893.33	9519
893.452	9584
893.575	9633
893.697	9549
893.819	9679
893.941	9641
894.064	9660
894.186	9488
894.308	9416
894.43	9568
894.552	9610
894.674	9542
894.796	9447
894.918	9431
895.04	9435
895.161	9401
895.283	9363
895.405	9306
895.526	9272
895.648	9272
895.769	9272
895.891	9260
896.012	9313
896.134	9188
896.255	9184
896.376	9055
896.498	9211
896.619	9199
896.74	9070
896.861	9093
896.982	9294
897.103	9310
897.224	9222
897.345	9032
897.466	8952
897.587	9077
897.708	9100
897.828	9020
897.949	8868
898.07	8925
898.19	8891
898.311	9017
898.431	8979
898.552	8994
898.672	9051
898.792	8925
898.913	8967
899.033	8880
899.153	8815
899.273	8655
899.393	8693
899.513	8815
899.633	8705
899.753	8785
899.873	8693
899.993	8720
900.113	8705
900.232	8720
900.352	8663
900.472	8629
900.591	8575
900.711	8625
900.83	8545
900.95	8743
901.069	8758
901.189	8590
901.308	8473
901.427	8427
901.546	8446
901.665	8511
901.784	8507
901.904	8450
902.023	8393
902.141	8290
902.26	8199
902.379	8290
902.498	8256
902.617	8271
902.735	8339
902.854	8320
902.973	8271
903.091	8161
903.21	8153
903.328	8153
903.446	8103
903.565	8149
903.683	8073
903.801	8069
903.919	8187
904.038	8126
904.156	8054
904.274	8107
904.392	7993
904.51	8024
904.627	8020
904.745	8062
904.863	8138
904.981	7989
905.098	7894
905.216	7898
905.334	7890
905.451	7932
905.569	7871
905.686	7879
905.803	7959
905.921	7822
906.038	7803
906.155	7765
906.272	7677
906.389	7765
906.506	7681
906.623	7647
906.74	7601
906.857	7548
906.974	7590
907.091	7594
907.208	7708
907.324	7651
907.441	7586
907.557	7487
907.674	7506
907.79	7415
907.907	7392
908.023	7495
908.139	7460
908.256	7384
908.372	7362
908.488	7377
908.604	7247
908.72	7221
908.836	7270
908.952	7247
909.068	7278
909.184	7377
909.3	7293
909.415	7350
909.531	7255
909.647	7160
909.762	7160
909.878	7103
909.993	7126
910.108	7160
910.224	7110
910.339	7164
910.454	7069
910.57	7027
910.685	6981
910.8	7183
910.915	7050
911.03	7015
911.145	6901
911.259	6875
911.374	6913
911.489	6878
911.604	6783
911.718	6654
911.833	6772
911.947	6707
912.062	6646
912.176	6700
912.291	6798
912.405	6673
912.519	6806
912.633	6890
912.748	6703
912.862	6711
912.976	6601
913.09	6551
913.204	6623
913.318	6601
913.431	6722
913.545	6730
913.659	6722
913.772	6684
913.886	6604
914	6604
914.113	6673
914.226	6551
914.34	6604
914.453	6528
914.566	6700
914.68	6563
914.793	6540
914.906	6388
915.019	6399
915.132	6391
915.245	6395
915.358	6475
915.47	6426
915.583	6464
915.696	6498
915.809	6563
915.921	6620
916.034	6395
916.146	6433
916.259	6479
916.371	6418
916.483	6490
916.595	6433
916.708	6429
916.82	6388
916.932	6338
917.044	6422
917.156	6418
917.268	6353
917.38	6346
917.491	6361
917.603	6342
917.715	6353
917.826	6395
917.938	6372
918.049	6239
918.161	6380
918.272	6433
918.384	6437
918.495	6388
918.606	6266
918.717	6254
918.828	6285
918.939	6277
919.05	6216
919.161	6235
919.272	6129
919.383	6213
919.494	6338
919.604	6433
919.715	6365
919.826	6266
919.936	6270
920.047	6414
920.157	6304
920.267	6467
920.378	6319
920.488	6346
920.598	6498
920.708	6559
920.818	6467
920.928	6517
921.038	6589
921.148	6635
921.258	6414
921.368	6323
921.477	6243
921.587	6197
921.697	6053
921.806	6190
921.916	6076
922.025	5992
922.134	5961
922.244	5885
922.353	5977
922.462	5817
922.571	5794
922.68	5707
922.789	5710
922.898	5707
923.007	5589
923.116	5771
923.224	5737
923.333	5634
923.442	5638
923.55	5509
923.659	5539
923.767	5589
923.876	5520
923.984	5630
924.092	5543
924.201	5581
924.309	5543
924.417	5562
924.525	5493
924.633	5532
924.741	6292
924.849	5364
924.956	5497
925.064	5368
925.172	5311
925.279	5341
925.387	5345
925.494	5345
925.602	5440
925.709	5414
925.816	5315
925.924	5292
926.031	5421
926.138	5311
926.245	5322
926.352	5189
926.459	5334
926.566	5357
926.673	5242
926.779	5132
926.886	5121
926.993	5033
927.099	5025
927.206	5006
927.312	5006
927.419	5048
927.525	4972
927.631	4987
927.737	4930
927.843	4892
927.95	4816
928.056	4812
928.162	4873
928.267	4812
928.373	5239
928.479	4870
928.585	4687
928.69	4831
928.796	4790
928.901	4721
929.007	4603
929.112	4694
929.218	4687
929.323	4630
929.428	4531
929.533	4706
929.638	4550
929.743	4542
929.848	4569
929.953	4542
930.058	4436
930.163	4337
930.267	4360
930.372	4462
930.477	4265
930.581	4459
930.685	4402
930.79	4284
930.894	4246
930.998	4295
931.103	4367
931.207	4131
931.311	4055
931.415	4032
931.519	3949
931.623	3972
