Data from glass_V78500241_2846.txt Node
Date: Wed Sep 01 19:34:13 CST 2021
User: usil
Spectrometer: V785-0024
Trigger mode: 0
Integration Time (sec): 4.000000E-1
Scans to average: 1
Nonlinearity correction enabled: false
Boxcar width: 0
Storing dark spectrum: false
XAxis mode: Wavelengths
Number of Pixels in Spectrum: 1024
>>>>>Begin Spectral Data<<<<<
801.071	3713
801.214	3759
801.356	3747
801.499	3724
801.641	3751
801.783	3743
801.926	3800
802.068	3835
802.211	3819
802.353	3838
802.496	3774
802.638	3869
802.78	3869
802.923	3903
803.065	3876
803.208	3861
803.35	3880
803.492	3873
803.635	3884
803.777	3785
803.919	3869
804.061	4101
804.204	3941
804.346	3945
804.488	3899
804.63	4036
804.773	3926
804.915	3987
805.057	4128
805.199	4017
805.341	4078
805.483	4128
805.626	4093
805.768	4093
805.91	4219
806.052	4173
806.194	4192
806.336	4322
806.478	4223
806.62	4139
806.762	4147
806.904	4211
807.046	4280
807.188	4173
807.33	4120
807.472	4242
807.614	4162
807.756	4204
807.898	4181
808.04	4185
808.182	4261
808.324	4261
808.465	4363
808.607	4417
808.749	4443
808.891	4440
809.033	4481
809.174	4379
809.316	4234
809.458	4219
809.6	4128
809.741	4131
809.883	4120
810.025	4219
810.166	4200
810.308	4223
810.45	4227
810.591	4192
810.733	4272
810.875	4478
811.016	4774
811.158	5143
811.299	5254
811.441	5280
811.582	4999
811.724	4653
811.865	4459
812.007	4508
812.148	4375
812.29	4375
812.431	4394
812.573	4398
812.714	4329
812.855	4375
812.997	4379
813.138	4421
813.279	4394
813.421	4367
813.562	4348
813.703	4337
813.845	4314
813.986	4238
814.127	4238
814.268	4272
814.41	4265
814.551	4215
814.692	4352
814.833	4253
814.974	4261
815.115	4329
815.256	4284
815.397	4246
815.539	4227
815.68	4204
815.821	4234
815.962	4318
816.103	4261
816.244	4215
816.385	4177
816.526	4230
816.666	4185
816.807	4139
816.948	4162
817.089	4139
817.23	4109
817.371	4040
817.512	4040
817.653	4051
817.793	4021
817.934	4013
818.075	4059
818.216	4120
818.356	4044
818.497	3956
818.638	3903
818.778	3915
818.919	3873
819.06	3842
819.2	3873
819.341	3808
819.481	3819
819.622	3918
819.762	3998
819.903	3930
820.043	3842
820.184	3819
820.324	3762
820.465	3884
820.605	3888
820.746	3854
820.886	3808
821.026	3911
821.167	3911
821.307	3911
821.447	3937
821.588	3956
821.728	3975
821.868	3937
822.008	3846
822.149	3896
822.289	3934
822.429	3732
822.569	3743
822.709	3778
822.849	3675
822.99	3709
823.13	3751
823.27	3781
823.41	3709
823.55	3698
823.69	3667
823.83	3705
823.97	3641
824.11	3595
824.25	3549
824.389	3660
824.529	3660
824.669	3595
824.809	3679
824.949	3736
825.089	3713
825.228	3671
825.368	3530
825.508	3557
825.648	3580
825.787	3576
825.927	3641
826.067	3637
826.206	3667
826.346	3800
826.485	3789
826.625	3816
826.765	3941
826.904	3804
827.044	3614
827.183	3523
827.323	3431
827.462	3473
827.601	3416
827.741	3424
827.88	3424
828.02	3374
828.159	3428
828.298	3469
828.437	3488
828.577	3435
828.716	3564
828.855	3485
828.994	3351
829.134	3340
829.273	3370
829.412	3344
829.551	3329
829.69	3317
829.829	3386
829.968	3469
830.107	3458
830.246	3374
830.385	3378
830.524	3340
830.663	3256
830.802	3226
830.941	3203
831.08	3192
831.219	3195
831.357	3253
831.496	3386
831.635	3226
831.774	3192
831.913	3169
832.051	3119
832.19	3131
832.329	3199
832.467	3127
832.606	3127
832.744	3157
832.883	3169
833.022	3195
833.16	3256
833.299	3241
833.437	3329
833.576	3332
833.714	3389
833.852	3397
833.991	3405
834.129	3469
834.267	3435
834.406	3405
834.544	3405
834.682	3412
834.821	3409
834.959	3545
835.097	3389
835.235	3492
835.373	3397
835.511	3511
835.65	3401
835.788	3439
835.926	3370
836.064	3405
836.202	3317
836.34	3587
836.478	3557
836.615	3507
836.753	3610
836.891	3614
837.029	3564
837.167	3557
837.305	3538
837.443	3515
837.58	3473
837.718	3595
837.856	3519
837.993	3564
838.131	3538
838.269	3580
838.406	3564
838.544	3553
838.681	3462
838.819	3416
838.956	3367
839.094	3378
839.231	3450
839.369	3485
839.506	3724
839.643	3603
839.781	3485
839.918	3439
840.055	3485
840.193	3534
840.33	3519
840.467	3515
840.604	3603
840.742	3781
840.879	3519
841.016	3538
841.153	3568
841.29	3694
841.427	3694
841.564	3740
841.701	3720
841.838	3660
841.975	3667
842.112	3686
842.249	3637
842.385	3603
842.522	3804
842.659	3629
842.796	3633
842.933	3705
843.069	3694
843.206	3656
843.343	3789
843.479	3766
843.616	3842
843.752	3648
843.889	3633
844.025	3774
844.162	3690
844.298	3816
844.435	3743
844.571	3789
844.708	3884
844.844	3972
844.98	3941
845.117	4006
845.253	3926
845.389	3899
845.525	3960
845.661	3949
845.798	3922
845.934	3975
846.07	3899
846.206	4055
846.342	4090
846.478	4040
846.614	3937
846.75	3884
846.886	3888
847.022	3987
847.158	3918
847.294	3991
847.429	3968
847.565	4010
847.701	4204
847.837	3884
847.972	3827
848.108	3911
848.244	3937
848.379	3842
848.515	3804
848.65	3781
848.786	3827
848.921	3930
849.057	3915
849.192	3865
849.328	3907
849.463	3930
849.598	3861
849.734	3793
849.869	3800
850.004	3785
850.14	3816
850.275	3770
850.41	3747
850.545	3713
850.68	3747
850.815	3778
850.95	3770
851.085	3937
851.22	3823
851.355	3804
851.49	3770
851.625	3793
851.76	3755
851.895	3724
852.03	3762
852.165	3800
852.299	3880
852.434	3907
852.569	3873
852.703	3888
852.838	3907
852.973	3956
853.107	3972
853.242	3827
853.376	3827
853.511	3778
853.645	3816
853.78	3964
853.914	3876
854.048	3873
854.183	3880
854.317	3911
854.451	4013
854.585	3876
854.72	3899
854.854	4048
854.988	3911
855.122	4021
855.256	3930
855.39	4010
855.524	4131
855.658	4063
855.792	4093
855.926	4150
856.06	4143
856.194	4185
856.327	4128
856.461	4124
856.595	4131
856.729	4192
856.862	4238
856.996	4242
857.13	4253
857.263	4314
857.397	4379
857.53	4242
857.664	4318
857.797	4341
857.931	4402
858.064	4325
858.197	4466
858.331	4413
858.464	4356
858.597	4344
858.731	4360
858.864	4466
858.997	4440
859.13	4466
859.263	4497
859.396	4516
859.529	4474
859.662	4516
859.795	4485
859.928	4588
860.061	4683
860.194	4714
860.327	4668
860.46	4664
860.592	4790
860.725	4733
860.858	4752
860.99	4721
861.123	4637
861.256	4717
861.388	4725
861.521	5246
861.653	4702
861.786	4698
861.918	4763
862.05	4759
862.183	4831
862.315	4847
862.447	4911
862.58	4839
862.712	4801
862.844	4710
862.976	4820
863.108	4850
863.24	5250
863.372	4774
863.504	4877
863.636	4873
863.768	4957
863.9	4972
864.032	4889
864.164	4949
864.296	4972
864.428	5094
864.559	5067
864.691	5151
864.823	5189
864.954	5098
865.086	5117
865.217	5109
865.349	5090
865.48	5151
865.612	5178
865.743	5261
865.875	5159
866.006	5174
866.137	5227
866.269	5227
866.4	5193
866.531	5220
866.662	5296
866.793	5239
866.924	5311
867.055	5334
867.186	5273
867.317	5303
867.448	5318
867.579	5410
867.71	5341
867.841	5360
867.972	5463
868.103	5471
868.233	5433
868.364	5497
868.495	5524
868.625	5653
868.756	5733
868.886	5653
869.017	5672
869.147	5855
869.278	5844
869.408	5752
869.539	5821
869.669	5931
869.799	5912
869.929	5961
870.06	5950
870.19	6167
870.32	6163
870.45	6228
870.58	6315
870.71	6361
870.84	6509
870.97	6361
871.1	6422
871.23	6612
871.36	6665
871.489	6631
871.619	6776
871.749	6741
871.879	6859
872.008	6909
872.138	6954
872.267	6996
872.397	6970
872.526	6973
872.656	7069
872.785	7164
872.915	7335
873.044	7468
873.173	7578
873.303	7643
873.432	7670
873.561	7803
873.69	7871
873.819	8020
873.948	8180
874.077	8244
874.206	8279
874.335	8457
874.464	8602
874.593	8834
874.722	8883
874.851	9104
874.979	9241
875.108	9317
875.237	9393
875.365	9477
875.494	9652
875.623	9789
875.751	9827
875.88	9991
876.008	10124
876.136	10314
876.265	10409
876.393	10607
876.521	10653
876.65	10763
876.778	10862
876.906	10850
877.034	10930
877.162	10995
877.29	11166
877.418	11280
877.546	11341
877.674	11337
877.802	11410
877.93	11478
878.058	11497
878.185	11512
878.313	11691
878.441	11771
878.568	11733
878.696	11878
878.824	11775
878.951	11973
879.079	11980
879.206	12068
879.333	12049
879.461	12007
879.588	11973
879.715	11980
879.842	12251
879.97	12053
880.097	11874
880.224	11885
880.351	11912
880.478	11863
880.605	11775
880.732	11859
880.859	12026
880.986	11775
881.112	11748
881.239	11737
881.366	11680
881.493	11539
881.619	11524
881.746	11474
881.872	11615
881.999	11505
882.125	11425
882.252	11520
882.378	11459
882.505	11600
882.631	11345
882.757	11303
882.883	11231
883.01	11220
883.136	11258
883.262	11086
883.388	11124
883.514	11140
883.64	11098
883.766	11022
883.892	11033
884.018	10995
884.143	11075
884.269	11140
884.395	10843
884.52	10786
884.646	10694
884.772	10645
884.897	10683
885.023	10588
885.148	10691
885.274	10759
885.399	10596
885.524	10584
885.65	10603
885.775	10607
885.9	10447
886.025	10516
886.15	10516
886.275	10478
886.4	10405
886.525	10379
886.65	10398
886.775	10356
886.9	10443
887.025	10485
887.149	10268
887.274	10268
887.399	10188
887.523	10196
887.648	10135
887.773	10135
887.897	10166
888.021	10257
888.146	10158
888.27	10158
888.395	10158
888.519	10158
888.643	10177
888.767	10192
888.891	10074
889.015	9975
889.139	10086
889.263	9979
889.387	10048
889.511	10048
889.635	10048
889.759	9926
889.883	9987
890.006	9918
890.13	10063
890.254	9918
890.377	9953
890.501	9819
890.624	9854
890.748	9899
890.871	9827
890.995	9797
891.118	9724
891.241	9819
891.364	9751
891.488	9785
891.611	9701
891.734	9759
891.857	9770
891.98	9686
892.103	9762
892.226	9736
892.349	9614
892.471	9545
892.594	9530
892.717	9523
892.839	9603
892.962	9622
893.085	9572
893.207	9584
893.33	9473
893.452	9511
893.575	9591
893.697	9435
893.819	9599
893.941	9606
894.064	9614
894.186	9469
894.308	9393
894.43	9496
894.552	9519
894.674	9515
894.796	9367
894.918	9317
895.04	9279
895.161	9370
895.283	9260
895.405	9199
895.526	9294
895.648	9207
895.769	9184
895.891	9253
896.012	9260
896.134	9150
896.255	9184
896.376	9138
896.498	9127
896.619	9085
896.74	9043
896.861	9024
896.982	9245
897.103	9253
897.224	9222
897.345	9020
897.466	9036
897.587	8967
897.708	9127
897.828	9005
897.949	8891
898.07	8853
898.19	8929
898.311	8937
898.431	8883
898.552	8849
898.672	8960
898.792	8880
898.913	8811
899.033	8826
899.153	8750
899.273	8617
899.393	8724
899.513	8735
899.633	8727
899.753	8792
899.873	8686
899.993	8701
900.113	8659
900.232	8678
900.352	8659
900.472	8526
900.591	8541
900.711	8610
900.83	8476
900.95	8629
901.069	8674
901.189	8484
901.308	8434
901.427	8404
901.546	8400
901.665	8488
901.784	8473
901.904	8355
902.023	8305
902.141	8221
902.26	8130
902.379	8214
902.498	8187
902.617	8164
902.735	8210
902.854	8271
902.973	8256
903.091	8069
903.21	8164
903.328	8096
903.446	8149
903.565	8092
903.683	8111
903.801	8073
903.919	8088
904.038	8157
904.156	8027
904.274	8031
904.392	8024
904.51	8020
904.627	7982
904.745	8024
904.863	8043
904.981	7875
905.098	7856
905.216	7784
905.334	7887
905.451	7871
905.569	7894
905.686	7890
905.803	7902
905.921	7803
906.038	7814
906.155	7822
906.272	7670
906.389	7674
906.506	7628
906.623	7582
906.74	7556
906.857	7445
906.974	7548
907.091	7628
907.208	7674
907.324	7658
907.441	7597
907.557	7415
907.674	7449
907.79	7434
907.907	7388
908.023	7392
908.139	7381
908.256	7377
908.372	7350
908.488	7285
908.604	7274
908.72	7194
908.836	7240
908.952	7244
909.068	7278
909.184	7247
909.3	7206
909.415	7255
909.531	7251
909.647	7069
909.762	7084
909.878	7061
909.993	7110
910.108	7084
910.224	7031
910.339	7046
910.454	7027
910.57	6985
910.685	6951
910.8	7133
910.915	7103
911.03	7008
911.145	6848
911.259	6810
911.374	6901
911.489	6837
911.604	6806
911.718	6745
911.833	6738
911.947	6650
912.062	6627
912.176	6650
912.291	6677
912.405	6677
912.519	6859
912.633	6791
912.748	6711
912.862	6730
912.976	6642
913.09	6532
913.204	6585
913.318	6616
913.431	6688
913.545	6677
913.659	6654
913.772	6631
913.886	6589
914	6460
914.113	6616
914.226	6563
914.34	6642
914.453	6467
914.566	6627
914.68	6452
914.793	6563
914.906	6456
915.019	6327
915.132	6346
915.245	6403
915.358	6422
915.47	6395
915.583	6475
915.696	6433
915.809	6483
915.921	6540
916.034	6475
916.146	6414
916.259	6403
916.371	6456
916.483	6467
916.595	6403
916.708	6403
916.82	6369
916.932	6304
917.044	6407
917.156	6372
917.268	6300
917.38	6311
917.491	6315
917.603	6281
917.715	6353
917.826	6399
917.938	6331
918.049	6262
918.161	6369
918.272	6403
918.384	6437
918.495	6277
918.606	6285
918.717	6129
918.828	6194
918.939	6235
919.05	6144
919.161	6262
919.272	6038
919.383	6114
919.494	6308
919.604	6452
919.715	6315
919.826	6258
919.936	6239
920.047	6346
920.157	6205
920.267	6395
920.378	6338
920.488	6247
920.598	6456
920.708	6521
920.818	6456
920.928	6486
921.038	6582
921.148	6604
921.258	6300
921.368	6296
921.477	6155
921.587	6129
921.697	6125
921.806	6155
921.916	6057
922.025	5977
922.134	5931
922.244	5866
922.353	5931
922.462	5824
922.571	5786
922.68	5688
922.789	5668
922.898	5638
923.007	5634
923.116	5695
923.224	5623
923.333	5570
923.442	5566
923.55	5566
923.659	5524
923.767	5592
923.876	5524
923.984	5543
924.092	5459
924.201	5532
924.309	5566
924.417	5547
924.525	5436
924.633	5459
924.741	6072
924.849	5349
924.956	5455
925.064	5311
925.172	5250
925.279	5284
925.387	5334
925.494	5288
925.602	5360
925.709	5379
925.816	5273
925.924	5292
926.031	5364
926.138	5284
926.245	5288
926.352	5162
926.459	5368
926.566	5277
926.673	5193
926.779	5079
926.886	5117
926.993	4972
927.099	5029
927.206	4923
927.312	4976
927.419	5003
927.525	4953
927.631	4946
927.737	4828
927.843	4850
927.95	4774
928.056	4797
928.162	4812
928.267	4839
928.373	5269
928.479	4839
928.585	4694
928.69	4759
928.796	4801
928.901	4668
929.007	4558
929.112	4675
929.218	4584
929.323	4592
929.428	4535
929.533	4645
929.638	4493
929.743	4580
929.848	4538
929.953	4481
930.058	4447
930.163	4310
930.267	4287
930.372	4440
930.477	4291
930.581	4451
930.685	4318
930.79	4215
930.894	4227
930.998	4211
931.103	4337
931.207	4105
931.311	4074
931.415	4010
931.519	3896
931.623	3907
