Data from glass_V78500241_168.txt Node
Date: Wed Sep 01 19:15:39 CST 2021
User: usil
Spectrometer: V785-0024
Trigger mode: 0
Integration Time (sec): 4.000000E-1
Scans to average: 1
Nonlinearity correction enabled: false
Boxcar width: 0
Storing dark spectrum: false
XAxis mode: Wavelengths
Number of Pixels in Spectrum: 1024
>>>>>Begin Spectral Data<<<<<
801.071	3793
801.214	3774
801.356	3709
801.499	3759
801.641	3720
801.783	3770
801.926	3926
802.068	3869
802.211	3835
802.353	3903
802.496	3873
802.638	3892
802.78	3941
802.923	3907
803.065	3884
803.208	3876
803.35	3926
803.492	3937
803.635	3903
803.777	3789
803.919	3922
804.061	4166
804.204	4002
804.346	3975
804.488	3972
804.63	4025
804.773	3964
804.915	4055
805.057	4116
805.199	4036
805.341	4105
805.483	4173
805.626	4139
805.768	4147
805.91	4227
806.052	4242
806.194	4211
806.336	4344
806.478	4246
806.62	4219
806.762	4196
806.904	4234
807.046	4356
807.188	4242
807.33	4219
807.472	4253
807.614	4185
807.756	4230
807.898	4238
808.04	4207
808.182	4284
808.324	4352
808.465	4386
808.607	4474
808.749	4478
808.891	4504
809.033	4561
809.174	4405
809.316	4284
809.458	4238
809.6	4192
809.741	4169
809.883	4154
810.025	4196
810.166	4215
810.308	4253
810.45	4238
810.591	4230
810.733	4314
810.875	4531
811.016	4854
811.158	5140
811.299	5341
811.441	5299
811.582	5067
811.724	4801
811.865	4508
812.007	4451
812.148	4462
812.29	4386
812.431	4428
812.573	4432
812.714	4421
812.855	4394
812.997	4436
813.138	4474
813.279	4443
813.421	4386
813.562	4360
813.703	4352
813.845	4325
813.986	4287
814.127	4242
814.268	4295
814.41	4257
814.551	4291
814.692	4337
814.833	4276
814.974	4295
815.115	4386
815.256	4268
815.397	4253
815.539	4280
815.68	4147
815.821	4230
815.962	4284
816.103	4287
816.244	4268
816.385	4223
816.526	4314
816.666	4227
816.807	4143
816.948	4150
817.089	4166
817.23	4116
817.371	4025
817.512	4105
817.653	4097
817.793	4025
817.934	4025
818.075	4105
818.216	4090
818.356	4120
818.497	4010
818.638	3956
818.778	3964
818.919	3915
819.06	3854
819.2	3911
819.341	3873
819.481	3899
819.622	3926
819.762	4067
819.903	3983
820.043	3865
820.184	3869
820.324	3846
820.465	3903
820.605	3884
820.746	3846
820.886	3770
821.026	3926
821.167	3930
821.307	3975
821.447	4025
821.588	3941
821.728	3994
821.868	3956
822.008	3892
822.149	3945
822.289	3892
822.429	3831
822.569	3781
822.709	3816
822.849	3740
822.99	3766
823.13	3755
823.27	3823
823.41	3705
823.55	3728
823.69	3709
823.83	3774
823.97	3713
824.11	3644
824.25	3580
824.389	3629
824.529	3698
824.669	3629
824.809	3728
824.949	3800
825.089	3751
825.228	3747
825.368	3629
825.508	3606
825.648	3591
825.787	3591
825.927	3667
826.067	3610
826.206	3679
826.346	3797
826.485	3831
826.625	3865
826.765	3975
826.904	3827
827.044	3637
827.183	3603
827.323	3488
827.462	3530
827.601	3447
827.741	3428
827.88	3416
828.02	3393
828.159	3473
828.298	3492
828.437	3591
828.577	3496
828.716	3644
828.855	3496
828.994	3386
829.134	3370
829.273	3374
829.412	3351
829.551	3317
829.69	3409
829.829	3412
829.968	3526
830.107	3435
830.246	3443
830.385	3386
830.524	3389
830.663	3332
830.802	3275
830.941	3226
831.08	3211
831.219	3256
831.357	3249
831.496	3401
831.635	3264
831.774	3203
831.913	3218
832.051	3138
832.19	3176
832.329	3272
832.467	3127
832.606	3131
832.744	3142
832.883	3226
833.022	3237
833.16	3241
833.299	3348
833.437	3355
833.576	3393
833.714	3409
833.852	3458
833.991	3431
834.129	3500
834.267	3462
834.406	3424
834.544	3435
834.682	3450
834.821	3450
834.959	3557
835.097	3462
835.235	3561
835.373	3519
835.511	3492
835.65	3473
835.788	3500
835.926	3416
836.064	3389
836.202	3367
836.34	3595
836.478	3629
836.615	3572
836.753	3629
836.891	3660
837.029	3633
837.167	3648
837.305	3587
837.443	3545
837.58	3538
837.718	3568
837.856	3595
837.993	3584
838.131	3599
838.269	3599
838.406	3610
838.544	3614
838.681	3504
838.819	3462
838.956	3386
839.094	3382
839.231	3393
839.369	3542
839.506	3778
839.643	3610
839.781	3530
839.918	3477
840.055	3519
840.193	3534
840.33	3568
840.467	3545
840.604	3610
840.742	3816
840.879	3526
841.016	3553
841.153	3599
841.29	3781
841.427	3759
841.564	3720
841.701	3736
841.838	3724
841.975	3724
842.112	3701
842.249	3701
842.385	3663
842.522	3797
842.659	3675
842.796	3694
842.933	3740
843.069	3709
843.206	3747
843.343	3819
843.479	3797
843.616	3831
843.752	3671
843.889	3679
844.025	3907
844.162	3766
844.298	3884
844.435	3819
844.571	3781
844.708	3915
844.844	3991
844.98	4029
845.117	4013
845.253	3945
845.389	3937
845.525	4040
845.661	3964
845.798	3956
845.934	4032
846.07	3979
846.206	4055
846.342	4116
846.478	4093
846.614	4002
846.75	3926
846.886	3926
847.022	4090
847.158	4032
847.294	4036
847.429	4048
847.565	4021
847.701	4284
847.837	3880
847.972	3876
848.108	3979
848.244	4006
848.379	3930
848.515	3861
848.65	3800
848.786	3835
848.921	3926
849.057	3934
849.192	3945
849.328	3896
849.463	3983
849.598	3869
849.734	3888
849.869	3857
850.004	3808
850.14	3831
850.275	3793
850.41	3759
850.545	3770
850.68	3789
850.815	3861
850.95	3774
851.085	3991
851.22	3873
851.355	3835
851.49	3774
851.625	3778
851.76	3804
851.895	3759
852.03	3759
852.165	3812
852.299	3838
852.434	3899
852.569	3915
852.703	3854
852.838	3937
852.973	4021
853.107	4017
853.242	3918
853.376	3865
853.511	3778
853.645	3842
853.78	3964
853.914	3937
854.048	3876
854.183	3884
854.317	3930
854.451	4048
854.585	3972
854.72	3972
854.854	4059
854.988	3956
855.122	4044
855.256	3964
855.39	4082
855.524	4135
855.658	4105
855.792	4120
855.926	4120
856.06	4185
856.194	4265
856.327	4204
856.461	4150
856.595	4181
856.729	4207
856.862	4314
856.996	4257
857.13	4284
857.263	4367
857.397	4363
857.53	4284
857.664	4379
857.797	4413
857.931	4470
858.064	4375
858.197	4512
858.331	4394
858.464	4371
858.597	4360
858.731	4432
858.864	4474
858.997	4451
859.13	4478
859.263	4504
859.396	4584
859.529	4535
859.662	4577
859.795	4546
859.928	4649
860.061	4740
860.194	4744
860.327	4672
860.46	4660
860.592	4721
860.725	4736
860.858	4801
860.99	4733
861.123	4664
861.256	4744
861.388	4725
861.521	5364
861.653	4736
861.786	4717
861.918	4774
862.05	4782
862.183	4858
862.315	4946
862.447	4961
862.58	4915
862.712	4793
862.844	4778
862.976	4873
863.108	4911
863.24	5246
863.372	4820
863.504	4942
863.636	4877
863.768	5018
863.9	4991
864.032	4972
864.164	4968
864.296	5060
864.428	5025
864.559	5159
864.691	5136
864.823	5136
864.954	5174
865.086	5124
865.217	5109
865.349	5162
865.48	5170
865.612	5193
865.743	5288
865.875	5216
866.006	5174
866.137	5280
866.269	5201
866.4	5254
866.531	5258
866.662	5277
866.793	5269
866.924	5311
867.055	5364
867.186	5376
867.317	5360
867.448	5307
867.579	5421
867.71	5433
867.841	5357
867.972	5501
868.103	5474
868.233	5474
868.364	5528
868.495	5528
868.625	5695
868.756	5779
868.886	5642
869.017	5722
869.147	5870
869.278	5878
869.408	5832
869.539	5885
869.669	5946
869.799	5935
869.929	6038
870.06	6019
870.19	6178
870.32	6209
870.45	6319
870.58	6338
870.71	6460
870.84	6448
870.97	6486
871.1	6502
871.23	6654
871.36	6673
871.489	6658
871.619	6806
871.749	6818
871.879	6894
872.008	7034
872.138	6958
872.267	7050
872.397	7015
872.526	6989
872.656	7114
872.785	7202
872.915	7396
873.044	7499
873.173	7575
873.303	7674
873.432	7738
873.561	7871
873.69	7936
873.819	7997
873.948	8103
874.077	8271
874.206	8370
874.335	8545
874.464	8651
874.593	8845
874.722	8872
874.851	9142
874.979	9283
875.108	9382
875.237	9428
875.365	9519
875.494	9549
875.623	9842
875.751	9835
875.88	9956
876.008	10116
876.136	10356
876.265	10599
876.393	10721
876.521	10805
876.65	10831
876.778	10850
876.906	10885
877.034	11033
877.162	11117
877.29	11079
877.418	11318
877.546	11356
877.674	11417
877.802	11501
877.93	11596
878.058	11512
878.185	11512
878.313	11657
878.441	11756
878.568	11535
878.696	11798
878.824	11824
878.951	11946
879.079	12045
879.206	12159
879.333	12068
879.461	11954
879.588	12129
879.715	12114
879.842	12239
879.97	12053
880.097	11813
880.224	11904
880.351	11851
880.478	11874
880.605	11790
880.732	11923
880.859	11942
880.986	11813
881.112	11836
881.239	11726
881.366	11653
881.493	11672
881.619	11581
881.746	11581
881.872	11589
881.999	11551
882.125	11490
882.252	11627
882.378	11471
882.505	11474
882.631	11376
882.757	11292
882.883	11315
883.01	11307
883.136	11181
883.262	11162
883.388	11094
883.514	11140
883.64	11136
883.766	11181
883.892	11022
884.018	11083
884.143	11060
884.269	11113
884.395	10801
884.52	10828
884.646	10793
884.772	10778
884.897	10596
885.023	10687
885.148	10710
885.274	10679
885.399	10805
885.524	10641
885.65	10561
885.775	10577
885.9	10626
886.025	10558
886.15	10504
886.275	10489
886.4	10500
886.525	10413
886.65	10432
886.775	10310
886.9	10485
887.025	10504
887.149	10367
887.274	10166
887.399	10204
887.523	10116
887.648	10135
887.773	10109
887.897	10272
888.021	10219
888.146	10147
888.27	10242
888.395	10185
888.519	10150
888.643	10143
888.767	10291
888.891	10105
889.015	9994
889.139	10071
889.263	10025
889.387	10025
889.511	10071
889.635	10101
889.759	9941
889.883	10017
890.006	9983
890.13	10116
890.254	9937
890.377	9994
890.501	9857
890.624	9785
890.748	9827
890.871	9869
890.995	9732
891.118	9728
891.241	9808
891.364	9747
891.488	9816
891.611	9751
891.734	9762
891.857	9732
891.98	9732
892.103	9751
892.226	9770
892.349	9633
892.471	9606
892.594	9595
892.717	9538
892.839	9599
892.962	9618
893.085	9671
893.207	9648
893.33	9462
893.452	9447
893.575	9663
893.697	9496
893.819	9633
893.941	9648
894.064	9603
894.186	9458
894.308	9431
894.43	9519
894.552	9549
894.674	9568
894.796	9370
894.918	9462
895.04	9344
895.161	9389
895.283	9378
895.405	9298
895.526	9283
895.648	9260
895.769	9272
895.891	9317
896.012	9355
896.134	9249
896.255	9264
896.376	9157
896.498	9169
896.619	9165
896.74	9047
896.861	9051
896.982	9264
897.103	9332
897.224	9146
897.345	9055
897.466	9009
897.587	9013
897.708	9089
897.828	9043
897.949	8876
898.07	8857
898.19	9001
898.311	9005
898.431	8857
898.552	8891
898.672	8967
898.792	8929
898.913	8963
899.033	8788
899.153	8769
899.273	8640
899.393	8727
899.513	8769
899.633	8724
899.753	8758
899.873	8686
899.993	8785
900.113	8720
900.232	8697
900.352	8693
900.472	8640
900.591	8587
900.711	8613
900.83	8526
900.95	8693
901.069	8705
901.189	8556
901.308	8476
901.427	8393
901.546	8503
901.665	8450
901.784	8545
901.904	8374
902.023	8381
902.141	8256
902.26	8275
902.379	8328
902.498	8202
902.617	8294
902.735	8259
902.854	8317
902.973	8328
903.091	8119
903.21	8157
903.328	8126
903.446	8084
903.565	8111
903.683	8123
903.801	8092
903.919	8069
904.038	8134
904.156	8020
904.274	8126
904.392	8031
904.51	8043
904.627	8084
904.745	8096
904.863	8065
904.981	7894
905.098	7883
905.216	7898
905.334	7970
905.451	7875
905.569	7947
905.686	7944
905.803	7890
905.921	7792
906.038	7883
906.155	7860
906.272	7704
906.389	7769
906.506	7693
906.623	7670
906.74	7662
906.857	7533
906.974	7582
907.091	7681
907.208	7689
907.324	7578
907.441	7521
907.557	7487
907.674	7472
907.79	7400
907.907	7407
908.023	7457
908.139	7426
908.256	7362
908.372	7403
908.488	7362
908.604	7324
908.72	7206
908.836	7259
908.952	7327
909.068	7324
909.184	7354
909.3	7270
909.415	7346
909.531	7320
909.647	7149
909.762	7137
909.878	7141
909.993	7145
910.108	7065
910.224	7099
910.339	7110
910.454	7034
910.57	7023
910.685	6932
910.8	7202
910.915	7114
911.03	7004
911.145	6837
911.259	6856
911.374	6913
911.489	6776
911.604	6856
911.718	6726
911.833	6760
911.947	6703
912.062	6582
912.176	6646
912.291	6677
912.405	6692
912.519	6894
912.633	6867
912.748	6715
912.862	6738
912.976	6593
913.09	6536
913.204	6547
913.318	6601
913.431	6703
913.545	6711
913.659	6772
913.772	6642
913.886	6597
914	6623
914.113	6620
914.226	6688
914.34	6612
914.453	6536
914.566	6623
914.68	6566
914.793	6513
914.906	6437
915.019	6456
915.132	6395
915.245	6422
915.358	6452
915.47	6467
915.583	6521
915.696	6479
915.809	6544
915.921	6563
916.034	6437
916.146	6414
916.259	6433
916.371	6498
916.483	6490
916.595	6342
916.708	6464
916.82	6388
916.932	6399
917.044	6410
917.156	6422
917.268	6285
917.38	6361
917.491	6327
917.603	6395
917.715	6467
917.826	6486
917.938	6300
918.049	6266
918.161	6327
918.272	6437
918.384	6407
918.495	6426
918.606	6342
918.717	6194
918.828	6342
918.939	6327
919.05	6186
919.161	6281
919.272	6110
919.383	6175
919.494	6308
919.604	6486
919.715	6311
919.826	6258
919.936	6292
920.047	6372
920.157	6273
920.267	6456
920.378	6369
920.488	6281
920.598	6464
920.708	6551
920.818	6460
920.928	6498
921.038	6673
921.148	6570
921.258	6315
921.368	6277
921.477	6232
921.587	6239
921.697	6030
921.806	6228
921.916	6144
922.025	6019
922.134	5977
922.244	5874
922.353	5920
922.462	5882
922.571	5809
922.68	5710
922.789	5707
922.898	5756
923.007	5657
923.116	5699
923.224	5703
923.333	5627
923.442	5623
923.55	5619
923.659	5615
923.767	5710
923.876	5566
923.984	5581
924.092	5570
924.201	5535
924.309	5516
924.417	5554
924.525	5524
924.633	5501
924.741	6148
924.849	5364
924.956	5482
925.064	5379
925.172	5337
925.279	5341
925.387	5398
925.494	5376
925.602	5387
925.709	5417
925.816	5299
925.924	5334
926.031	5395
926.138	5280
926.245	5357
926.352	5220
926.459	5311
926.566	5311
926.673	5208
926.779	5117
926.886	5124
926.993	5025
927.099	5003
927.206	5006
927.312	4953
927.419	5037
927.525	4965
927.631	5033
927.737	4938
927.843	4877
927.95	4790
928.056	4831
928.162	4881
928.267	4847
928.373	5376
928.479	4911
928.585	4660
928.69	4782
928.796	4828
928.901	4729
929.007	4615
929.112	4641
929.218	4618
929.323	4653
929.428	4565
929.533	4698
929.638	4516
929.743	4561
929.848	4561
929.953	4516
930.058	4451
930.163	4348
930.267	4371
930.372	4455
930.477	4337
930.581	4428
930.685	4367
930.79	4291
930.894	4303
930.998	4295
931.103	4421
931.207	4181
931.311	4097
931.415	4063
931.519	3949
931.623	3911
