Data from glass_V78500241_210.txt Node
Date: Wed Sep 01 19:15:57 CST 2021
User: usil
Spectrometer: V785-0024
Trigger mode: 0
Integration Time (sec): 4.000000E-1
Scans to average: 1
Nonlinearity correction enabled: false
Boxcar width: 0
Storing dark spectrum: false
XAxis mode: Wavelengths
Number of Pixels in Spectrum: 1024
>>>>>Begin Spectral Data<<<<<
801.071	3717
801.214	3766
801.356	3717
801.499	3736
801.641	3762
801.783	3800
801.926	3918
802.068	3835
802.211	3850
802.353	3926
802.496	3876
802.638	3865
802.78	3945
802.923	3964
803.065	3926
803.208	3884
803.35	3854
803.492	3934
803.635	3922
803.777	3873
803.919	3903
804.061	4166
804.204	3968
804.346	3964
804.488	3941
804.63	4051
804.773	3979
804.915	4036
805.057	4215
805.199	4044
805.341	4082
805.483	4150
805.626	4147
805.768	4135
805.91	4219
806.052	4299
806.194	4242
806.336	4367
806.478	4276
806.62	4249
806.762	4181
806.904	4234
807.046	4329
807.188	4227
807.33	4200
807.472	4211
807.614	4253
807.756	4291
807.898	4242
808.04	4192
808.182	4272
808.324	4344
808.465	4398
808.607	4428
808.749	4462
808.891	4405
809.033	4455
809.174	4379
809.316	4287
809.458	4299
809.6	4109
809.741	4158
809.883	4154
810.025	4249
810.166	4230
810.308	4207
810.45	4310
810.591	4280
810.733	4295
810.875	4554
811.016	4824
811.158	5166
811.299	5299
811.441	5322
811.582	5117
811.724	4702
811.865	4527
812.007	4481
812.148	4421
812.29	4417
812.431	4398
812.573	4402
812.714	4379
812.855	4436
812.997	4466
813.138	4500
813.279	4481
813.421	4421
813.562	4417
813.703	4344
813.845	4360
813.986	4238
814.127	4265
814.268	4303
814.41	4295
814.551	4295
814.692	4344
814.833	4284
814.974	4276
815.115	4325
815.256	4276
815.397	4295
815.539	4272
815.68	4242
815.821	4227
815.962	4371
816.103	4291
816.244	4246
816.385	4188
816.526	4329
816.666	4242
816.807	4112
816.948	4200
817.089	4173
817.23	4154
817.371	4124
817.512	4082
817.653	4097
817.793	4040
817.934	4071
818.075	4120
818.216	4048
818.356	4120
818.497	4013
818.638	3907
818.778	3899
818.919	3911
819.06	3876
819.2	3941
819.341	3854
819.481	3838
819.622	3896
819.762	4036
819.903	3972
820.043	3869
820.184	3850
820.324	3842
820.465	3892
820.605	3922
820.746	3899
820.886	3797
821.026	3937
821.167	3915
821.307	3994
821.447	3994
821.588	4002
821.728	3968
821.868	3937
822.008	3876
822.149	3956
822.289	3937
822.429	3785
822.569	3797
822.709	3823
822.849	3720
822.99	3747
823.13	3759
823.27	3812
823.41	3762
823.55	3778
823.69	3759
823.83	3720
823.97	3724
824.11	3595
824.25	3633
824.389	3637
824.529	3675
824.669	3660
824.809	3755
824.949	3774
825.089	3713
825.228	3679
825.368	3614
825.508	3557
825.648	3584
825.787	3641
825.927	3648
826.067	3595
826.206	3701
826.346	3778
826.485	3850
826.625	3903
826.765	3968
826.904	3854
827.044	3633
827.183	3549
827.323	3454
827.462	3504
827.601	3431
827.741	3435
827.88	3443
828.02	3355
828.159	3450
828.298	3488
828.437	3553
828.577	3454
828.716	3629
828.855	3481
828.994	3405
829.134	3370
829.273	3416
829.412	3393
829.551	3374
829.69	3386
829.829	3428
829.968	3496
830.107	3450
830.246	3435
830.385	3386
830.524	3336
830.663	3287
830.802	3275
830.941	3222
831.08	3218
831.219	3253
831.357	3313
831.496	3412
831.635	3237
831.774	3233
831.913	3222
832.051	3123
832.19	3165
832.329	3245
832.467	3146
832.606	3108
832.744	3199
832.883	3211
833.022	3218
833.16	3272
833.299	3325
833.437	3363
833.576	3378
833.714	3443
833.852	3454
833.991	3435
834.129	3500
834.267	3439
834.406	3405
834.544	3466
834.682	3397
834.821	3424
834.959	3595
835.097	3450
835.235	3538
835.373	3469
835.511	3492
835.65	3447
835.788	3534
835.926	3374
836.064	3405
836.202	3382
836.34	3561
836.478	3618
836.615	3564
836.753	3572
836.891	3618
837.029	3652
837.167	3625
837.305	3580
837.443	3576
837.58	3561
837.718	3584
837.856	3557
837.993	3507
838.131	3610
838.269	3580
838.406	3606
838.544	3606
838.681	3500
838.819	3439
838.956	3378
839.094	3389
839.231	3488
839.369	3542
839.506	3774
839.643	3671
839.781	3488
839.918	3492
840.055	3549
840.193	3542
840.33	3538
840.467	3572
840.604	3641
840.742	3819
840.879	3561
841.016	3549
841.153	3591
841.29	3789
841.427	3682
841.564	3705
841.701	3770
841.838	3713
841.975	3713
842.112	3728
842.249	3637
842.385	3656
842.522	3823
842.659	3736
842.796	3709
842.933	3705
843.069	3713
843.206	3709
843.343	3831
843.479	3827
843.616	3797
843.752	3694
843.889	3682
844.025	3907
844.162	3713
844.298	3903
844.435	3800
844.571	3755
844.708	3896
844.844	4013
844.98	4036
845.117	4017
845.253	3907
845.389	3937
845.525	3949
845.661	4025
845.798	3918
845.934	4006
846.07	3956
846.206	4139
846.342	4158
846.478	4055
846.614	3964
846.75	3945
846.886	3922
847.022	4021
847.158	3972
847.294	4067
847.429	4036
847.565	4006
847.701	4223
847.837	3873
847.972	3884
848.108	4013
848.244	4036
848.379	3850
848.515	3865
848.65	3816
848.786	3842
848.921	3857
849.057	3953
849.192	3930
849.328	3918
849.463	3926
849.598	3896
849.734	3880
849.869	3861
850.004	3819
850.14	3842
850.275	3793
850.41	3740
850.545	3705
850.68	3785
850.815	3797
850.95	3846
851.085	3964
851.22	3888
851.355	3865
851.49	3816
851.625	3785
851.76	3835
851.895	3743
852.03	3785
852.165	3800
852.299	3861
852.434	3911
852.569	3831
852.703	3941
852.838	3937
852.973	4021
853.107	3998
853.242	3907
853.376	3873
853.511	3835
853.645	3850
853.78	3945
853.914	3903
854.048	3922
854.183	3918
854.317	3934
854.451	4086
854.585	3953
854.72	3968
854.854	4040
854.988	3960
855.122	4044
855.256	3945
855.39	4071
855.524	4124
855.658	4086
855.792	4112
855.926	4181
856.06	4234
856.194	4204
856.327	4116
856.461	4154
856.595	4150
856.729	4192
856.862	4299
856.996	4253
857.13	4329
857.263	4363
857.397	4360
857.53	4333
857.664	4348
857.797	4375
857.931	4440
858.064	4443
858.197	4481
858.331	4383
858.464	4417
858.597	4398
858.731	4497
858.864	4474
858.997	4481
859.13	4497
859.263	4554
859.396	4615
859.529	4550
859.662	4569
859.795	4558
859.928	4630
860.061	4752
860.194	4702
860.327	4664
860.46	4637
860.592	4702
860.725	4733
860.858	4790
860.99	4729
861.123	4714
861.256	4725
861.388	4835
861.521	5425
861.653	4717
861.786	4706
861.918	4733
862.05	4809
862.183	4866
862.315	4919
862.447	4915
862.58	4885
862.712	4809
862.844	4790
862.976	4850
863.108	4900
863.24	5174
863.372	4835
863.504	4930
863.636	4938
863.768	4957
863.9	4991
864.032	4961
864.164	4972
864.296	5075
864.428	5056
864.559	5117
864.691	5136
864.823	5155
864.954	5109
865.086	5143
865.217	5121
865.349	5140
865.48	5185
865.612	5185
865.743	5303
865.875	5223
866.006	5239
866.137	5288
866.269	5284
866.4	5265
866.531	5296
866.662	5280
866.793	5315
866.924	5364
867.055	5357
867.186	5376
867.317	5337
867.448	5288
867.579	5345
867.71	5391
867.841	5398
867.972	5463
868.103	5471
868.233	5478
868.364	5471
868.495	5585
868.625	5691
868.756	5817
868.886	5638
869.017	5722
869.147	5904
869.278	5908
869.408	5840
869.539	5813
869.669	5931
869.799	5973
869.929	5984
870.06	6034
870.19	6235
870.32	6197
870.45	6296
870.58	6319
870.71	6426
870.84	6498
870.97	6448
871.1	6452
871.23	6642
871.36	6741
871.489	6722
871.619	6837
871.749	6726
871.879	6840
872.008	6981
872.138	7012
872.267	7008
872.397	7019
872.526	7076
872.656	7107
872.785	7221
872.915	7407
873.044	7495
873.173	7563
873.303	7651
873.432	7731
873.561	7894
873.69	7856
873.819	7997
873.948	8290
874.077	8294
874.206	8408
874.335	8351
874.464	8769
874.593	8815
874.722	8944
874.851	9097
874.979	9268
875.108	9412
875.237	9420
875.365	9485
875.494	9595
875.623	9774
875.751	9740
875.88	9953
876.008	10139
876.136	10325
876.265	10504
876.393	10664
876.521	10721
876.65	10809
876.778	10862
876.906	10850
877.034	10999
877.162	11052
877.29	11193
877.418	11277
877.546	11284
877.674	11444
877.802	11524
877.93	11520
878.058	11604
878.185	11512
878.313	11657
878.441	11764
878.568	11619
878.696	11813
878.824	11874
878.951	11954
879.079	12038
879.206	12129
879.333	12072
879.461	11939
879.588	12034
879.715	12076
879.842	12228
879.97	12106
880.097	11813
880.224	11935
880.351	11855
880.478	11904
880.605	11874
880.732	11798
880.859	11980
880.986	11805
881.112	11840
881.239	11741
881.366	11668
881.493	11627
881.619	11577
881.746	11566
881.872	11520
881.999	11471
882.125	11528
882.252	11634
882.378	11433
882.505	11600
882.631	11376
882.757	11292
882.883	11201
883.01	11280
883.136	11113
883.262	11041
883.388	11048
883.514	11185
883.64	11189
883.766	11056
883.892	11003
884.018	10968
884.143	11064
884.269	11067
884.395	10850
884.52	10824
884.646	10774
884.772	10717
884.897	10698
885.023	10645
885.148	10748
885.274	10759
885.399	10683
885.524	10706
885.65	10592
885.775	10599
885.9	10565
886.025	10634
886.15	10558
886.275	10451
886.4	10413
886.525	10417
886.65	10360
886.775	10367
886.9	10500
887.025	10596
887.149	10413
887.274	10230
887.399	10166
887.523	10185
887.648	10173
887.773	10169
887.897	10215
888.021	10246
888.146	10120
888.27	10215
888.395	10246
888.519	10196
888.643	10253
888.767	10306
888.891	10055
889.015	9972
889.139	10074
889.263	10044
889.387	10071
889.511	10105
889.635	10002
889.759	9949
889.883	9998
890.006	10032
890.13	10063
890.254	9922
890.377	9968
890.501	9911
890.624	9846
890.748	9945
890.871	9842
890.995	9766
891.118	9717
891.241	9816
891.364	9686
891.488	9835
891.611	9663
891.734	9766
891.857	9812
891.98	9751
892.103	9861
892.226	9789
892.349	9728
892.471	9469
892.594	9572
892.717	9599
892.839	9534
892.962	9625
893.085	9720
893.207	9542
893.33	9534
893.452	9576
893.575	9614
893.697	9572
893.819	9603
893.941	9629
894.064	9701
894.186	9439
894.308	9359
894.43	9523
894.552	9652
894.674	9545
894.796	9439
894.918	9454
895.04	9435
895.161	9351
895.283	9435
895.405	9279
895.526	9317
895.648	9340
895.769	9302
895.891	9302
896.012	9260
896.134	9260
896.255	9150
896.376	9169
896.498	9123
896.619	9100
896.74	9100
896.861	9100
896.982	9237
897.103	9340
897.224	9188
897.345	9127
897.466	8994
897.587	9051
897.708	9135
897.828	9062
897.949	8948
898.07	8868
898.19	9005
898.311	8998
898.431	8887
898.552	8910
898.672	8948
898.792	9001
898.913	8895
899.033	8811
899.153	8796
899.273	8617
899.393	8678
899.513	8773
899.633	8712
899.753	8739
899.873	8686
899.993	8785
900.113	8701
900.232	8712
900.352	8686
900.472	8606
900.591	8648
900.711	8613
900.83	8541
900.95	8678
901.069	8743
901.189	8564
901.308	8332
901.427	8389
901.546	8450
901.665	8450
901.784	8465
901.904	8450
902.023	8370
902.141	8237
902.26	8252
902.379	8267
902.498	8218
902.617	8282
902.735	8275
902.854	8275
902.973	8301
903.091	8134
903.21	8092
903.328	8134
903.446	8172
903.565	8107
903.683	8107
903.801	8058
903.919	8172
904.038	8130
904.156	8081
904.274	8100
904.392	7986
904.51	8130
904.627	8050
904.745	8100
904.863	8130
904.981	7959
905.098	7875
905.216	7970
905.334	7894
905.451	7909
905.569	7925
905.686	7955
905.803	7936
905.921	7776
906.038	7883
906.155	7807
906.272	7795
906.389	7723
906.506	7636
906.623	7605
906.74	7620
906.857	7529
906.974	7514
907.091	7674
907.208	7723
907.324	7708
907.441	7609
907.557	7502
907.674	7476
907.79	7434
907.907	7422
908.023	7533
908.139	7430
908.256	7407
908.372	7403
908.488	7426
908.604	7217
908.72	7240
908.836	7236
908.952	7278
909.068	7278
909.184	7343
909.3	7297
909.415	7362
909.531	7259
909.647	7103
909.762	7095
909.878	7084
909.993	7118
910.108	7152
910.224	7095
910.339	7129
910.454	7038
910.57	6989
910.685	6913
910.8	7175
910.915	7110
911.03	7034
911.145	6943
911.259	6833
911.374	6867
911.489	6924
911.604	6894
911.718	6703
911.833	6726
911.947	6684
912.062	6604
912.176	6768
912.291	6810
912.405	6669
912.519	6810
912.633	6829
912.748	6738
912.862	6768
912.976	6703
913.09	6536
913.204	6623
913.318	6616
913.431	6658
913.545	6658
913.659	6715
913.772	6646
913.886	6623
914	6612
914.113	6654
914.226	6639
914.34	6627
914.453	6479
914.566	6601
914.68	6536
914.793	6536
914.906	6441
915.019	6399
915.132	6407
915.245	6464
915.358	6414
915.47	6460
915.583	6513
915.696	6483
915.809	6547
915.921	6525
916.034	6399
916.146	6395
916.259	6388
916.371	6513
916.483	6445
916.595	6418
916.708	6407
916.82	6410
916.932	6399
917.044	6414
917.156	6429
917.268	6399
917.38	6403
917.491	6331
917.603	6418
917.715	6384
917.826	6456
917.938	6338
918.049	6209
918.161	6403
918.272	6391
918.384	6448
918.495	6308
918.606	6342
918.717	6258
918.828	6262
918.939	6258
919.05	6228
919.161	6281
919.272	6133
919.383	6224
919.494	6319
919.604	6452
919.715	6308
919.826	6216
919.936	6243
920.047	6399
920.157	6289
920.267	6433
920.378	6353
920.488	6319
920.598	6433
920.708	6536
920.818	6452
920.928	6544
921.038	6585
921.148	6620
921.258	6418
921.368	6357
921.477	6224
921.587	6209
921.697	6095
921.806	6239
921.916	6087
922.025	6022
922.134	5931
922.244	5882
922.353	5946
922.462	5863
922.571	5855
922.68	5703
922.789	5767
922.898	5691
923.007	5668
923.116	5737
923.224	5707
923.333	5733
923.442	5608
923.55	5627
923.659	5646
923.767	5615
923.876	5547
923.984	5627
924.092	5539
924.201	5566
924.309	5543
924.417	5532
924.525	5505
924.633	5474
924.741	6296
924.849	5414
924.956	5455
925.064	5341
925.172	5315
925.279	5345
925.387	5376
925.494	5429
925.602	5440
925.709	5421
925.816	5334
925.924	5349
926.031	5360
926.138	5292
926.245	5357
926.352	5162
926.459	5349
926.566	5292
926.673	5258
926.779	5155
926.886	5124
926.993	4976
927.099	5045
927.206	4965
927.312	5052
927.419	5018
927.525	5045
927.631	4980
927.737	4896
927.843	4866
927.95	4771
928.056	4877
928.162	4839
928.267	4870
928.373	5273
928.479	4877
928.585	4717
928.69	4759
928.796	4755
928.901	4698
929.007	4603
929.112	4664
929.218	4675
929.323	4634
929.428	4538
929.533	4660
929.638	4558
929.743	4573
929.848	4592
929.953	4504
930.058	4436
930.163	4360
930.267	4341
930.372	4462
930.477	4299
930.581	4424
930.685	4375
930.79	4242
930.894	4284
930.998	4249
931.103	4413
931.207	4150
931.311	4074
931.415	4074
931.519	3926
931.623	3926
