Data from glass_V78500241_2878.txt Node
Date: Wed Sep 01 19:34:27 CST 2021
User: usil
Spectrometer: V785-0024
Trigger mode: 0
Integration Time (sec): 4.000000E-1
Scans to average: 1
Nonlinearity correction enabled: false
Boxcar width: 0
Storing dark spectrum: false
XAxis mode: Wavelengths
Number of Pixels in Spectrum: 1024
>>>>>Begin Spectral Data<<<<<
801.071	3690
801.214	3755
801.356	3671
801.499	3701
801.641	3686
801.783	3759
801.926	3861
802.068	3861
802.211	3781
802.353	3884
802.496	3800
802.638	3846
802.78	3911
802.923	3884
803.065	3869
803.208	3835
803.35	3838
803.492	3888
803.635	3865
803.777	3766
803.919	3888
804.061	4116
804.204	3945
804.346	3922
804.488	3930
804.63	3998
804.773	3949
804.915	3953
805.057	4101
805.199	4067
805.341	4067
805.483	4120
805.626	4135
805.768	4112
805.91	4173
806.052	4227
806.194	4192
806.336	4295
806.478	4219
806.62	4158
806.762	4105
806.904	4253
807.046	4329
807.188	4223
807.33	4128
807.472	4192
807.614	4211
807.756	4253
807.898	4162
808.04	4181
808.182	4295
808.324	4249
808.465	4383
808.607	4405
808.749	4470
808.891	4504
809.033	4466
809.174	4409
809.316	4295
809.458	4200
809.6	4101
809.741	4116
809.883	4071
810.025	4154
810.166	4169
810.308	4238
810.45	4211
810.591	4192
810.733	4299
810.875	4516
811.016	4820
811.158	5109
811.299	5254
811.441	5231
811.582	4987
811.724	4714
811.865	4447
812.007	4413
812.148	4394
812.29	4390
812.431	4443
812.573	4413
812.714	4341
812.855	4383
812.997	4348
813.138	4417
813.279	4398
813.421	4318
813.562	4337
813.703	4287
813.845	4314
813.986	4249
814.127	4227
814.268	4238
814.41	4268
814.551	4249
814.692	4272
814.833	4265
814.974	4314
815.115	4322
815.256	4253
815.397	4207
815.539	4211
815.68	4181
815.821	4215
815.962	4276
816.103	4268
816.244	4158
816.385	4169
816.526	4238
816.666	4154
816.807	4040
816.948	4169
817.089	4188
817.23	4067
817.371	3987
817.512	4029
817.653	4048
817.793	3998
817.934	4025
818.075	4082
818.216	4101
818.356	4051
818.497	4002
818.638	3926
818.778	3907
818.919	3869
819.06	3823
819.2	3873
819.341	3873
819.481	3835
819.622	3896
819.762	3998
819.903	3850
820.043	3854
820.184	3838
820.324	3835
820.465	3854
820.605	3835
820.746	3842
820.886	3770
821.026	3880
821.167	3884
821.307	3876
821.447	3953
821.588	3918
821.728	3949
821.868	3873
822.008	3873
822.149	3873
822.289	3884
822.429	3770
822.569	3728
822.709	3778
822.849	3720
822.99	3717
823.13	3770
823.27	3770
823.41	3686
823.55	3701
823.69	3656
823.83	3713
823.97	3629
824.11	3599
824.25	3576
824.389	3622
824.529	3599
824.669	3584
824.809	3679
824.949	3717
825.089	3694
825.228	3660
825.368	3557
825.508	3549
825.648	3526
825.787	3561
825.927	3614
826.067	3568
826.206	3629
826.346	3736
826.485	3838
826.625	3827
826.765	3915
826.904	3823
827.044	3595
827.183	3485
827.323	3420
827.462	3466
827.601	3412
827.741	3401
827.88	3435
828.02	3359
828.159	3458
828.298	3454
828.437	3492
828.577	3435
828.716	3603
828.855	3477
828.994	3370
829.134	3321
829.273	3348
829.412	3306
829.551	3325
829.69	3348
829.829	3424
829.968	3469
830.107	3458
830.246	3409
830.385	3355
830.524	3329
830.663	3245
830.802	3233
830.941	3188
831.08	3142
831.219	3249
831.357	3272
831.496	3401
831.635	3218
831.774	3199
831.913	3173
832.051	3135
832.19	3116
832.329	3222
832.467	3081
832.606	3066
832.744	3176
832.883	3169
833.022	3199
833.16	3233
833.299	3283
833.437	3336
833.576	3317
833.714	3344
833.852	3416
833.991	3439
834.129	3466
834.267	3420
834.406	3382
834.544	3378
834.682	3420
834.821	3382
834.959	3515
835.097	3424
835.235	3511
835.373	3477
835.511	3473
835.65	3397
835.788	3447
835.926	3405
836.064	3336
836.202	3397
836.34	3561
836.478	3549
836.615	3545
836.753	3572
836.891	3614
837.029	3610
837.167	3542
837.305	3542
837.443	3507
837.58	3492
837.718	3557
837.856	3542
837.993	3534
838.131	3576
838.269	3523
838.406	3557
838.544	3526
838.681	3469
838.819	3447
838.956	3370
839.094	3359
839.231	3401
839.369	3481
839.506	3709
839.643	3629
839.781	3416
839.918	3450
840.055	3462
840.193	3488
840.33	3504
840.467	3591
840.604	3614
840.742	3781
840.879	3534
841.016	3526
841.153	3568
841.29	3774
841.427	3694
841.564	3682
841.701	3713
841.838	3652
841.975	3648
842.112	3682
842.249	3576
842.385	3587
842.522	3823
842.659	3694
842.796	3637
842.933	3698
843.069	3694
843.206	3644
843.343	3816
843.479	3766
843.616	3838
843.752	3618
843.889	3641
844.025	3835
844.162	3671
844.298	3831
844.435	3747
844.571	3736
844.708	3850
844.844	3960
844.98	3949
845.117	3987
845.253	3915
845.389	3918
845.525	3956
845.661	3922
845.798	3926
845.934	4006
846.07	3930
846.206	4010
846.342	4063
846.478	4017
846.614	3934
846.75	3899
846.886	3873
847.022	4013
847.158	3991
847.294	3941
847.429	3983
847.565	3949
847.701	4261
847.837	3846
847.972	3854
848.108	3937
848.244	3949
848.379	3823
848.515	3762
848.65	3770
848.786	3835
848.921	3797
849.057	3888
849.192	3876
849.328	3873
849.463	3876
849.598	3888
849.734	3869
849.869	3797
850.004	3781
850.14	3793
850.275	3797
850.41	3766
850.545	3728
850.68	3770
850.815	3762
850.95	3743
851.085	3899
851.22	3876
851.355	3819
851.49	3766
851.625	3762
851.76	3740
851.895	3747
852.03	3770
852.165	3812
852.299	3842
852.434	3857
852.569	3819
852.703	3888
852.838	3915
852.973	3991
853.107	3956
853.242	3884
853.376	3816
853.511	3736
853.645	3835
853.78	3956
853.914	3854
854.048	3865
854.183	3865
854.317	3903
854.451	4044
854.585	3915
854.72	3930
854.854	4006
854.988	3926
855.122	3972
855.256	3918
855.39	4006
855.524	4128
855.658	4090
855.792	4105
855.926	4074
856.06	4139
856.194	4215
856.327	4139
856.461	4105
856.595	4112
856.729	4177
856.862	4215
856.996	4211
857.13	4242
857.263	4318
857.397	4337
857.53	4276
857.664	4310
857.797	4344
857.931	4405
858.064	4371
858.197	4432
858.331	4367
858.464	4379
858.597	4322
858.731	4424
858.864	4424
858.997	4436
859.13	4474
859.263	4497
859.396	4626
859.529	4516
859.662	4519
859.795	4504
859.928	4565
860.061	4710
860.194	4698
860.327	4641
860.46	4626
860.592	4725
860.725	4729
860.858	4755
860.99	4710
861.123	4634
861.256	4710
861.388	4717
861.521	5364
861.653	4687
861.786	4653
861.918	4714
862.05	4725
862.183	4847
862.315	4881
862.447	4911
862.58	4847
862.712	4733
862.844	4736
862.976	4866
863.108	4858
863.24	5140
863.372	4839
863.504	4881
863.636	4904
863.768	4946
863.9	4995
864.032	4862
864.164	4972
864.296	5006
864.428	5052
864.559	5041
864.691	5136
864.823	5113
864.954	5094
865.086	5090
865.217	5128
865.349	5079
865.48	5105
865.612	5166
865.743	5197
865.875	5185
866.006	5185
866.137	5181
866.269	5216
866.4	5201
866.531	5227
866.662	5227
866.793	5322
866.924	5334
867.055	5265
867.186	5265
867.317	5273
867.448	5258
867.579	5436
867.71	5311
867.841	5345
867.972	5429
868.103	5463
868.233	5486
868.364	5474
868.495	5528
868.625	5592
868.756	5783
868.886	5665
869.017	5710
869.147	5836
869.278	5855
869.408	5779
869.539	5786
869.669	5847
869.799	5882
869.929	5935
870.06	5996
870.19	6178
870.32	6148
870.45	6262
870.58	6319
870.71	6395
870.84	6479
870.97	6410
871.1	6391
871.23	6559
871.36	6707
871.489	6616
871.619	6688
871.749	6753
871.879	6795
872.008	6909
872.138	6901
872.267	6985
872.397	6970
872.526	7019
872.656	7110
872.785	7133
872.915	7354
873.044	7457
873.173	7476
873.303	7597
873.432	7647
873.561	7818
873.69	7879
873.819	7932
873.948	8191
874.077	8229
874.206	8328
874.335	8431
874.464	8629
874.593	8849
874.722	8895
874.851	9058
874.979	9260
875.108	9321
875.237	9363
875.365	9386
875.494	9568
875.623	9751
875.751	9800
875.88	9953
876.008	10135
876.136	10272
876.265	10508
876.393	10691
876.521	10664
876.65	10733
876.778	10896
876.906	10767
877.034	10949
877.162	11140
877.29	11189
877.418	11261
877.546	11284
877.674	11444
877.802	11448
877.93	11444
878.058	11539
878.185	11486
878.313	11524
878.441	11688
878.568	11630
878.696	11783
878.824	11874
878.951	11961
879.079	11942
879.206	12136
879.333	12060
879.461	12026
879.588	12041
879.715	12026
879.842	12182
879.97	12049
880.097	11935
880.224	11802
880.351	11874
880.478	11847
880.605	11832
880.732	11756
880.859	11908
880.986	11786
881.112	11866
881.239	11688
881.366	11623
881.493	11646
881.619	11497
881.746	11562
881.872	11558
881.999	11532
882.125	11425
882.252	11501
882.378	11414
882.505	11551
882.631	11299
882.757	11208
882.883	11231
883.01	11250
883.136	11193
883.262	11117
883.388	11071
883.514	11220
883.64	11098
883.766	11132
883.892	10957
884.018	10934
884.143	10980
884.269	11109
884.395	10786
884.52	10637
884.646	10755
884.772	10592
884.897	10641
885.023	10607
885.148	10664
885.274	10752
885.399	10744
885.524	10504
885.65	10603
885.775	10546
885.9	10485
886.025	10550
886.15	10531
886.275	10424
886.4	10348
886.525	10436
886.65	10314
886.775	10413
886.9	10344
887.025	10489
887.149	10356
887.274	10215
887.399	10181
887.523	10105
887.648	10128
887.773	10101
887.897	10196
888.021	10135
888.146	10109
888.27	10147
888.395	10280
888.519	10185
888.643	10105
888.767	10128
888.891	10090
889.015	10002
889.139	10059
889.263	9972
889.387	10059
889.511	10067
889.635	10013
889.759	9945
889.883	9937
890.006	9975
890.13	10048
890.254	9991
890.377	9903
890.501	9759
890.624	9827
890.748	9800
890.871	9797
890.995	9667
891.118	9694
891.241	9736
891.364	9705
891.488	9797
891.611	9682
891.734	9656
891.857	9759
891.98	9728
892.103	9774
892.226	9690
892.349	9587
892.471	9401
892.594	9523
892.717	9629
892.839	9603
892.962	9561
893.085	9606
893.207	9500
893.33	9526
893.452	9462
893.575	9542
893.697	9507
893.819	9591
893.941	9526
894.064	9477
894.186	9496
894.308	9389
894.43	9504
894.552	9591
894.674	9504
894.796	9279
894.918	9340
895.04	9291
895.161	9348
895.283	9291
895.405	9176
895.526	9241
895.648	9222
895.769	9211
895.891	9199
896.012	9207
896.134	9241
896.255	9108
896.376	9108
896.498	9142
896.619	9146
896.74	9070
896.861	9089
896.982	9291
897.103	9237
897.224	9241
897.345	9032
897.466	8960
897.587	9013
897.708	9036
897.828	8948
897.949	8902
898.07	8864
898.19	8937
898.311	9001
898.431	8823
898.552	8883
898.672	8861
898.792	8891
898.913	8895
899.033	8746
899.153	8712
899.273	8648
899.393	8777
899.513	8689
899.633	8689
899.753	8689
899.873	8720
899.993	8625
900.113	8644
900.232	8659
900.352	8598
900.472	8621
900.591	8518
900.711	8549
900.83	8473
900.95	8594
901.069	8594
901.189	8541
901.308	8347
901.427	8343
901.546	8351
901.665	8427
901.784	8476
901.904	8320
902.023	8343
902.141	8237
902.26	8183
902.379	8313
902.498	8195
902.617	8172
902.735	8259
902.854	8313
902.973	8168
903.091	8069
903.21	8111
903.328	8149
903.446	8081
903.565	8077
903.683	8111
903.801	8020
903.919	8069
904.038	8138
904.156	7959
904.274	8058
904.392	7993
904.51	7989
904.627	8043
904.745	8020
904.863	8027
904.981	7902
905.098	7868
905.216	7856
905.334	7955
905.451	7868
905.569	7860
905.686	7909
905.803	7989
905.921	7746
906.038	7849
906.155	7803
906.272	7704
906.389	7734
906.506	7571
906.623	7594
906.74	7540
906.857	7544
906.974	7571
907.091	7556
907.208	7681
907.324	7620
907.441	7563
907.557	7430
907.674	7400
907.79	7358
907.907	7388
908.023	7426
908.139	7468
908.256	7381
908.372	7350
908.488	7282
908.604	7266
908.72	7213
908.836	7236
908.952	7240
909.068	7194
909.184	7312
909.3	7213
909.415	7225
909.531	7270
909.647	7107
909.762	7061
909.878	7103
909.993	7122
910.108	7084
910.224	7076
910.339	7160
910.454	6985
910.57	7012
910.685	6920
910.8	7126
910.915	7008
911.03	7038
911.145	6871
911.259	6798
911.374	6913
911.489	6848
911.604	6760
911.718	6730
911.833	6779
911.947	6578
912.062	6559
912.176	6760
912.291	6787
912.405	6719
912.519	6700
912.633	6844
912.748	6662
912.862	6753
912.976	6597
913.09	6578
913.204	6582
913.318	6623
913.431	6639
913.545	6658
913.659	6631
913.772	6604
913.886	6559
914	6528
914.113	6570
914.226	6620
914.34	6589
914.453	6433
914.566	6578
914.68	6456
914.793	6498
914.906	6388
915.019	6429
915.132	6311
915.245	6441
915.358	6437
915.47	6460
915.583	6502
915.696	6437
915.809	6467
915.921	6502
916.034	6338
916.146	6308
916.259	6338
916.371	6448
916.483	6437
916.595	6350
916.708	6410
916.82	6361
916.932	6384
917.044	6399
917.156	6372
917.268	6243
917.38	6323
917.491	6315
917.603	6334
917.715	6357
917.826	6391
917.938	6308
918.049	6194
918.161	6342
918.272	6369
918.384	6426
918.495	6277
918.606	6262
918.717	6197
918.828	6266
918.939	6235
919.05	6228
919.161	6159
919.272	6106
919.383	6133
919.494	6258
919.604	6315
919.715	6308
919.826	6159
919.936	6144
920.047	6346
920.157	6254
920.267	6395
920.378	6285
920.488	6292
920.598	6399
920.708	6456
920.818	6429
920.928	6376
921.038	6547
921.148	6540
921.258	6357
921.368	6289
921.477	6167
921.587	6175
921.697	6049
921.806	6140
921.916	6064
922.025	5866
922.134	5897
922.244	5878
922.353	5904
922.462	5824
922.571	5775
922.68	5684
922.789	5710
922.898	5657
923.007	5646
923.116	5695
923.224	5630
923.333	5581
923.442	5604
923.55	5611
923.659	5570
923.767	5649
923.876	5547
923.984	5615
924.092	5516
924.201	5547
924.309	5501
924.417	5509
924.525	5444
924.633	5459
924.741	6098
924.849	5337
924.956	5501
925.064	5322
925.172	5284
925.279	5299
925.387	5322
925.494	5284
925.602	5417
925.709	5395
925.816	5212
925.924	5269
926.031	5318
926.138	5299
926.245	5337
926.352	5170
926.459	5250
926.566	5307
926.673	5201
926.779	5079
926.886	5086
926.993	4995
927.099	4972
927.206	4968
927.312	4968
927.419	4953
927.525	4915
927.631	4968
927.737	4877
927.843	4786
927.95	4782
928.056	4790
928.162	4847
928.267	4850
928.373	5208
928.479	4862
928.585	4694
928.69	4793
928.796	4752
928.901	4668
929.007	4561
929.112	4634
929.218	4592
929.323	4542
929.428	4535
929.533	4683
929.638	4485
929.743	4459
929.848	4531
929.953	4516
930.058	4379
930.163	4318
930.267	4291
930.372	4386
930.477	4257
930.581	4409
930.685	4341
930.79	4207
930.894	4257
930.998	4230
931.103	4356
931.207	4158
931.311	4063
931.415	4048
931.519	3922
931.623	3899
