Data from glass_V78500241_1930.txt Node
Date: Wed Sep 01 19:27:52 CST 2021
User: usil
Spectrometer: V785-0024
Trigger mode: 0
Integration Time (sec): 4.000000E-1
Scans to average: 1
Nonlinearity correction enabled: false
Boxcar width: 0
Storing dark spectrum: false
XAxis mode: Wavelengths
Number of Pixels in Spectrum: 1024
>>>>>Begin Spectral Data<<<<<
801.071	3671
801.214	3720
801.356	3736
801.499	3759
801.641	3751
801.783	3800
801.926	3873
802.068	3831
802.211	3823
802.353	3926
802.496	3842
802.638	3869
802.78	3831
802.923	3922
803.065	3880
803.208	3880
803.35	3842
803.492	3861
803.635	3892
803.777	3808
803.919	3888
804.061	4112
804.204	3945
804.346	3945
804.488	3941
804.63	3991
804.773	3991
804.915	4002
805.057	4135
805.199	4032
805.341	4090
805.483	4139
805.626	4116
805.768	4116
805.91	4211
806.052	4257
806.194	4204
806.336	4360
806.478	4207
806.62	4215
806.762	4188
806.904	4234
807.046	4360
807.188	4192
807.33	4192
807.472	4207
807.614	4196
807.756	4261
807.898	4154
808.04	4230
808.182	4280
808.324	4306
808.465	4344
808.607	4455
808.749	4440
808.891	4474
809.033	4489
809.174	4390
809.316	4261
809.458	4211
809.6	4166
809.741	4116
809.883	4162
810.025	4223
810.166	4185
810.308	4173
810.45	4261
810.591	4227
810.733	4310
810.875	4508
811.016	4858
811.158	5143
811.299	5265
811.441	5284
811.582	5052
811.724	4675
811.865	4470
812.007	4443
812.148	4443
812.29	4386
812.431	4379
812.573	4421
812.714	4402
812.855	4379
812.997	4394
813.138	4500
813.279	4405
813.421	4344
813.562	4375
813.703	4363
813.845	4329
813.986	4249
814.127	4253
814.268	4299
814.41	4333
814.551	4238
814.692	4314
814.833	4272
814.974	4310
815.115	4325
815.256	4253
815.397	4192
815.539	4287
815.68	4192
815.821	4192
815.962	4344
816.103	4261
816.244	4207
816.385	4173
816.526	4284
816.666	4234
816.807	4109
816.948	4204
817.089	4169
817.23	4143
817.371	4029
817.512	4055
817.653	4086
817.793	4032
817.934	4044
818.075	4105
818.216	4131
818.356	4013
818.497	3987
818.638	3899
818.778	3922
818.919	3896
819.06	3857
819.2	3934
819.341	3876
819.481	3835
819.622	3876
819.762	4006
819.903	3941
820.043	3884
820.184	3861
820.324	3808
820.465	3842
820.605	3869
820.746	3892
820.886	3793
821.026	3945
821.167	3915
821.307	3964
821.447	3975
821.588	3975
821.728	3972
821.868	3915
822.008	3869
822.149	3926
822.289	3945
822.429	3804
822.569	3755
822.709	3781
822.849	3679
822.99	3705
823.13	3789
823.27	3732
823.41	3713
823.55	3736
823.69	3747
823.83	3709
823.97	3656
824.11	3610
824.25	3587
824.389	3603
824.529	3644
824.669	3633
824.809	3747
824.949	3747
825.089	3755
825.228	3690
825.368	3584
825.508	3519
825.648	3549
825.787	3610
825.927	3595
826.067	3595
826.206	3641
826.346	3747
826.485	3835
826.625	3857
826.765	3922
826.904	3861
827.044	3614
827.183	3542
827.323	3477
827.462	3447
827.601	3405
827.741	3416
827.88	3435
828.02	3348
828.159	3428
828.298	3500
828.437	3507
828.577	3466
828.716	3618
828.855	3507
828.994	3367
829.134	3378
829.273	3370
829.412	3332
829.551	3329
829.69	3340
829.829	3435
829.968	3538
830.107	3454
830.246	3431
830.385	3393
830.524	3363
830.663	3321
830.802	3287
830.941	3195
831.08	3222
831.219	3287
831.357	3233
831.496	3450
831.635	3233
831.774	3199
831.913	3203
832.051	3127
832.19	3097
832.329	3211
832.467	3123
832.606	3070
832.744	3157
832.883	3188
833.022	3165
833.16	3256
833.299	3294
833.437	3329
833.576	3374
833.714	3420
833.852	3409
833.991	3431
834.129	3466
834.267	3458
834.406	3386
834.544	3405
834.682	3454
834.821	3420
834.959	3557
835.097	3401
835.235	3526
835.373	3481
835.511	3526
835.65	3420
835.788	3466
835.926	3416
836.064	3382
836.202	3424
836.34	3591
836.478	3595
836.615	3564
836.753	3652
836.891	3637
837.029	3614
837.167	3584
837.305	3606
837.443	3511
837.58	3504
837.718	3614
837.856	3557
837.993	3507
838.131	3587
838.269	3572
838.406	3603
838.544	3545
838.681	3462
838.819	3431
838.956	3374
839.094	3386
839.231	3435
839.369	3553
839.506	3713
839.643	3580
839.781	3466
839.918	3477
840.055	3500
840.193	3523
840.33	3542
840.467	3526
840.604	3595
840.742	3808
840.879	3542
841.016	3580
841.153	3622
841.29	3759
841.427	3720
841.564	3717
841.701	3717
841.838	3679
841.975	3637
842.112	3709
842.249	3625
842.385	3652
842.522	3804
842.659	3743
842.796	3682
842.933	3694
843.069	3694
843.206	3656
843.343	3793
843.479	3755
843.616	3823
843.752	3720
843.889	3682
844.025	3842
844.162	3705
844.298	3865
844.435	3808
844.571	3797
844.708	3865
844.844	3972
844.98	4048
845.117	4010
845.253	3960
845.389	3880
845.525	3972
845.661	3945
845.798	3903
845.934	4017
846.07	3972
846.206	4063
846.342	4105
846.478	4101
846.614	3968
846.75	3930
846.886	3896
847.022	4002
847.158	3956
847.294	3983
847.429	4032
847.565	3987
847.701	4295
847.837	3880
847.972	3888
848.108	3983
848.244	3934
848.379	3854
848.515	3857
848.65	3823
848.786	3884
848.921	3857
849.057	3937
849.192	3903
849.328	3907
849.463	3899
849.598	3861
849.734	3823
849.869	3789
850.004	3800
850.14	3785
850.275	3785
850.41	3751
850.545	3766
850.68	3785
850.815	3816
850.95	3842
851.085	3953
851.22	3865
851.355	3812
851.49	3793
851.625	3759
851.76	3804
851.895	3717
852.03	3759
852.165	3812
852.299	3835
852.434	3865
852.569	3884
852.703	3876
852.838	3903
852.973	4010
853.107	3979
853.242	3812
853.376	3797
853.511	3724
853.645	3838
853.78	3949
853.914	3918
854.048	3907
854.183	3865
854.317	3926
854.451	4048
854.585	3926
854.72	3922
854.854	4051
854.988	3926
855.122	3994
855.256	3915
855.39	4017
855.524	4116
855.658	4074
855.792	4105
855.926	4150
856.06	4147
856.194	4177
856.327	4143
856.461	4112
856.595	4128
856.729	4223
856.862	4253
856.996	4257
857.13	4295
857.263	4295
857.397	4337
857.53	4280
857.664	4352
857.797	4402
857.931	4432
858.064	4348
858.197	4466
858.331	4405
858.464	4265
858.597	4344
858.731	4447
858.864	4428
858.997	4451
859.13	4527
859.263	4535
859.396	4596
859.529	4527
859.662	4535
859.795	4508
859.928	4634
860.061	4679
860.194	4706
860.327	4626
860.46	4656
860.592	4793
860.725	4725
860.858	4733
860.99	4694
861.123	4683
861.256	4698
861.388	4759
861.521	5406
861.653	4717
861.786	4672
861.918	4668
862.05	4778
862.183	4850
862.315	4919
862.447	4938
862.58	4877
862.712	4763
862.844	4755
862.976	4843
863.108	4949
863.24	5151
863.372	4820
863.504	4915
863.636	4896
863.768	4976
863.9	4968
864.032	4987
864.164	5003
864.296	5056
864.428	5159
864.559	5113
864.691	5090
864.823	5121
864.954	5029
865.086	5071
865.217	5140
865.349	5094
865.48	5128
865.612	5155
865.743	5250
865.875	5223
866.006	5143
866.137	5216
866.269	5227
866.4	5208
866.531	5216
866.662	5216
866.793	5246
866.924	5303
867.055	5353
867.186	5337
867.317	5307
867.448	5284
867.579	5379
867.71	5372
867.841	5421
867.972	5467
868.103	5467
868.233	5482
868.364	5493
868.495	5547
868.625	5665
868.756	5817
868.886	5665
869.017	5737
869.147	5866
869.278	5832
869.408	5824
869.539	5866
869.669	5859
869.799	5935
869.929	6019
870.06	6011
870.19	6213
870.32	6205
870.45	6243
870.58	6342
870.71	6384
870.84	6475
870.97	6372
871.1	6460
871.23	6604
871.36	6692
871.489	6650
871.619	6745
871.749	6776
871.879	6878
872.008	6905
872.138	6932
872.267	7012
872.397	6977
872.526	7015
872.656	7057
872.785	7240
872.915	7362
873.044	7567
873.173	7540
873.303	7628
873.432	7746
873.561	7826
873.69	7902
873.819	8058
873.948	8111
874.077	8305
874.206	8343
874.335	8446
874.464	8651
874.593	8918
874.722	8963
874.851	9161
874.979	9233
875.108	9351
875.237	9412
875.365	9454
875.494	9663
875.623	9819
875.751	9865
875.88	9994
876.008	10131
876.136	10192
876.265	10504
876.393	10634
876.521	10752
876.65	10740
876.778	10831
876.906	10953
877.034	10987
877.162	11102
877.29	11227
877.418	11265
877.546	11387
877.674	11478
877.802	11467
877.93	11604
878.058	11501
878.185	11505
878.313	11676
878.441	11760
878.568	11684
878.696	11817
878.824	11889
878.951	11923
879.079	11984
879.206	12064
879.333	12015
879.461	12019
879.588	12015
879.715	12064
879.842	12232
879.97	12026
880.097	11893
880.224	11908
880.351	11794
880.478	11920
880.605	11939
880.732	11851
880.859	11912
880.986	11817
881.112	11790
881.239	11794
881.366	11657
881.493	11646
881.619	11539
881.746	11581
881.872	11463
881.999	11611
882.125	11501
882.252	11630
882.378	11512
882.505	11535
882.631	11337
882.757	11273
882.883	11364
883.01	11246
883.136	11147
883.262	11181
883.388	11079
883.514	11132
883.64	11083
883.766	11045
883.892	10976
884.018	10984
884.143	11094
884.269	11083
884.395	10809
884.52	10816
884.646	10828
884.772	10733
884.897	10653
885.023	10694
885.148	10607
885.274	10744
885.399	10603
885.524	10607
885.65	10645
885.775	10683
885.9	10508
886.025	10523
886.15	10489
886.275	10447
886.4	10405
886.525	10417
886.65	10394
886.775	10344
886.9	10455
887.025	10512
887.149	10363
887.274	10246
887.399	10105
887.523	10120
887.648	10166
887.773	10093
887.897	10207
888.021	10135
888.146	10116
888.27	10207
888.395	10185
888.519	10158
888.643	10196
888.767	10234
888.891	10074
889.015	9945
889.139	10029
889.263	9998
889.387	10082
889.511	10166
889.635	10029
889.759	10017
889.883	10006
890.006	9972
890.13	10090
890.254	10021
890.377	9907
890.501	9846
890.624	9911
890.748	9888
890.871	9762
890.995	9751
891.118	9656
891.241	9808
891.364	9751
891.488	9850
891.611	9732
891.734	9717
891.857	9781
891.98	9724
892.103	9736
892.226	9755
892.349	9656
892.471	9595
892.594	9564
892.717	9614
892.839	9587
892.962	9580
893.085	9671
893.207	9549
893.33	9549
893.452	9504
893.575	9610
893.697	9477
893.819	9614
893.941	9595
894.064	9629
894.186	9431
894.308	9408
894.43	9580
894.552	9568
894.674	9530
894.796	9416
894.918	9412
895.04	9279
895.161	9389
895.283	9340
895.405	9272
895.526	9233
895.648	9157
895.769	9245
895.891	9268
896.012	9184
896.134	9226
896.255	9154
896.376	9116
896.498	9157
896.619	9036
896.74	9112
896.861	9104
896.982	9188
897.103	9313
897.224	9142
897.345	9028
897.466	9009
897.587	9005
897.708	9097
897.828	8925
897.949	8891
898.07	8918
898.19	8895
898.311	8990
898.431	8921
898.552	8921
898.672	8941
898.792	9047
898.913	8944
899.033	8811
899.153	8632
899.273	8708
899.393	8746
899.513	8754
899.633	8701
899.753	8727
899.873	8606
899.993	8716
900.113	8705
900.232	8682
900.352	8663
900.472	8568
900.591	8571
900.711	8617
900.83	8568
900.95	8670
901.069	8689
901.189	8552
901.308	8465
901.427	8336
901.546	8408
901.665	8465
901.784	8495
901.904	8366
902.023	8389
902.141	8279
902.26	8206
902.379	8259
902.498	8168
902.617	8138
902.735	8279
902.854	8244
902.973	8317
903.091	8103
903.21	8092
903.328	8199
903.446	8130
903.565	8100
903.683	8088
903.801	8039
903.919	8050
904.038	8138
904.156	8035
904.274	8065
904.392	8035
904.51	8039
904.627	8039
904.745	8088
904.863	8081
904.981	7894
905.098	7871
905.216	7811
905.334	7883
905.451	7917
905.569	7852
905.686	7974
905.803	7826
905.921	7792
906.038	7906
906.155	7837
906.272	7731
906.389	7742
906.506	7609
906.623	7651
906.74	7567
906.857	7521
906.974	7556
907.091	7662
907.208	7689
907.324	7609
907.441	7571
907.557	7411
907.674	7445
907.79	7434
907.907	7422
908.023	7419
908.139	7438
908.256	7384
908.372	7289
908.488	7358
908.604	7217
908.72	7259
908.836	7202
908.952	7266
909.068	7255
909.184	7289
909.3	7266
909.415	7244
909.531	7255
909.647	7015
909.762	7114
909.878	7084
909.993	7141
910.108	7088
910.224	7004
910.339	7091
910.454	7004
910.57	6989
910.685	6985
910.8	7145
910.915	7171
911.03	7034
911.145	6924
911.259	6878
911.374	6848
911.489	6783
911.604	6798
911.718	6711
911.833	6738
911.947	6623
912.062	6608
912.176	6665
912.291	6703
912.405	6722
912.519	6806
912.633	6810
912.748	6722
912.862	6677
912.976	6639
913.09	6513
913.204	6608
913.318	6589
913.431	6684
913.545	6654
913.659	6700
913.772	6658
913.886	6555
914	6597
914.113	6620
914.226	6631
914.34	6608
914.453	6486
914.566	6604
914.68	6471
914.793	6498
914.906	6342
915.019	6376
915.132	6395
915.245	6441
915.358	6429
915.47	6388
915.583	6445
915.696	6448
915.809	6460
915.921	6547
916.034	6448
916.146	6422
916.259	6331
916.371	6506
916.483	6448
916.595	6426
916.708	6448
916.82	6365
916.932	6399
917.044	6403
917.156	6380
917.268	6296
917.38	6296
917.491	6365
917.603	6289
917.715	6346
917.826	6441
917.938	6338
918.049	6266
918.161	6372
918.272	6380
918.384	6445
918.495	6331
918.606	6216
918.717	6213
918.828	6247
918.939	6315
919.05	6194
919.161	6285
919.272	6159
919.383	6152
919.494	6334
919.604	6399
919.715	6281
919.826	6224
919.936	6251
920.047	6357
920.157	6228
920.267	6384
920.378	6235
920.488	6232
920.598	6441
920.708	6517
920.818	6456
920.928	6456
921.038	6620
921.148	6547
921.258	6365
921.368	6289
921.477	6232
921.587	6213
921.697	6057
921.806	6106
921.916	6083
922.025	5969
922.134	5935
922.244	5847
922.353	5931
922.462	5874
922.571	5813
922.68	5707
922.789	5676
922.898	5745
923.007	5649
923.116	5733
923.224	5665
923.333	5676
923.442	5585
923.55	5581
923.659	5615
923.767	5665
923.876	5516
923.984	5585
924.092	5577
924.201	5535
924.309	5566
924.417	5543
924.525	5490
924.633	5509
924.741	6311
924.849	5364
924.956	5474
925.064	5326
925.172	5212
925.279	5330
925.387	5372
925.494	5326
925.602	5455
925.709	5360
925.816	5250
925.924	5311
926.031	5372
926.138	5345
926.245	5299
926.352	5254
926.459	5318
926.566	5360
926.673	5189
926.779	5105
926.886	5128
926.993	5029
927.099	5018
927.206	4995
927.312	4953
927.419	5022
927.525	4984
927.631	5003
927.737	4866
927.843	4854
927.95	4805
928.056	4793
928.162	4812
928.267	4828
928.373	5299
928.479	4866
928.585	4679
928.69	4790
928.796	4793
928.901	4675
929.007	4618
929.112	4675
929.218	4668
929.323	4622
929.428	4500
929.533	4649
929.638	4485
929.743	4531
929.848	4527
929.953	4459
930.058	4421
930.163	4322
930.267	4325
930.372	4409
930.477	4310
930.581	4443
930.685	4337
930.79	4234
930.894	4265
930.998	4249
931.103	4379
931.207	4105
931.311	4032
931.415	4086
931.519	3903
931.623	3972
