Data from glass_V78500241_2482.txt Node
Date: Wed Sep 01 19:31:42 CST 2021
User: usil
Spectrometer: V785-0024
Trigger mode: 0
Integration Time (sec): 4.000000E-1
Scans to average: 1
Nonlinearity correction enabled: false
Boxcar width: 0
Storing dark spectrum: false
XAxis mode: Wavelengths
Number of Pixels in Spectrum: 1024
>>>>>Begin Spectral Data<<<<<
801.071	3755
801.214	3755
801.356	3675
801.499	3747
801.641	3698
801.783	3759
801.926	3861
802.068	3812
802.211	3869
802.353	3850
802.496	3804
802.638	3915
802.78	3899
802.923	3922
803.065	3896
803.208	3835
803.35	3850
803.492	3911
803.635	3911
803.777	3785
803.919	3831
804.061	4112
804.204	3934
804.346	4006
804.488	3926
804.63	4010
804.773	3972
804.915	3994
805.057	4147
805.199	4010
805.341	4059
805.483	4078
805.626	4143
805.768	4112
805.91	4185
806.052	4249
806.194	4162
806.336	4333
806.478	4188
806.62	4158
806.762	4154
806.904	4272
807.046	4337
807.188	4204
807.33	4162
807.472	4238
807.614	4154
807.756	4261
807.898	4230
808.04	4223
808.182	4287
808.324	4371
808.465	4352
808.607	4432
808.749	4436
808.891	4417
809.033	4470
809.174	4398
809.316	4268
809.458	4276
809.6	4162
809.741	4131
809.883	4128
810.025	4223
810.166	4188
810.308	4207
810.45	4200
810.591	4265
810.733	4276
810.875	4500
811.016	4801
811.158	5140
811.299	5261
811.441	5250
811.582	5029
811.724	4687
811.865	4455
812.007	4485
812.148	4341
812.29	4379
812.431	4386
812.573	4421
812.714	4310
812.855	4405
812.997	4394
813.138	4481
813.279	4417
813.421	4383
813.562	4386
813.703	4314
813.845	4318
813.986	4257
814.127	4204
814.268	4265
814.41	4230
814.551	4230
814.692	4310
814.833	4242
814.974	4310
815.115	4318
815.256	4253
815.397	4173
815.539	4261
815.68	4181
815.821	4207
815.962	4268
816.103	4272
816.244	4223
816.385	4227
816.526	4257
816.666	4219
816.807	4067
816.948	4200
817.089	4177
817.23	4105
817.371	4048
817.512	4097
817.653	4051
817.793	4025
817.934	4051
818.075	4074
818.216	4074
818.356	4063
818.497	3975
818.638	3892
818.778	3937
818.919	3880
819.06	3896
819.2	3930
819.341	3842
819.481	3831
819.622	3876
819.762	4036
819.903	3930
820.043	3846
820.184	3846
820.324	3774
820.465	3888
820.605	3827
820.746	3880
820.886	3797
821.026	3956
821.167	3899
821.307	3972
821.447	4002
821.588	3926
821.728	3953
821.868	3934
822.008	3816
822.149	3861
822.289	3899
822.429	3785
822.569	3797
822.709	3770
822.849	3679
822.99	3732
823.13	3690
823.27	3755
823.41	3724
823.55	3766
823.69	3736
823.83	3743
823.97	3648
824.11	3584
824.25	3610
824.389	3595
824.529	3671
824.669	3599
824.809	3701
824.949	3766
825.089	3705
825.228	3709
825.368	3572
825.508	3542
825.648	3580
825.787	3591
825.927	3637
826.067	3637
826.206	3671
826.346	3797
826.485	3823
826.625	3857
826.765	3930
826.904	3835
827.044	3625
827.183	3492
827.323	3435
827.462	3496
827.601	3397
827.741	3412
827.88	3435
828.02	3359
828.159	3428
828.298	3447
828.437	3519
828.577	3458
828.716	3561
828.855	3492
828.994	3370
829.134	3348
829.273	3370
829.412	3367
829.551	3329
829.69	3332
829.829	3439
829.968	3534
830.107	3450
830.246	3412
830.385	3382
830.524	3370
830.663	3325
830.802	3253
830.941	3203
831.08	3218
831.219	3253
831.357	3241
831.496	3409
831.635	3203
831.774	3188
831.913	3169
832.051	3119
832.19	3112
832.329	3226
832.467	3108
832.606	3066
832.744	3142
832.883	3195
833.022	3180
833.16	3226
833.299	3287
833.437	3344
833.576	3359
833.714	3382
833.852	3473
833.991	3477
834.129	3454
834.267	3439
834.406	3351
834.544	3428
834.682	3378
834.821	3393
834.959	3564
835.097	3435
835.235	3492
835.373	3405
835.511	3492
835.65	3458
835.788	3507
835.926	3401
836.064	3336
836.202	3420
836.34	3519
836.478	3568
836.615	3542
836.753	3599
836.891	3587
837.029	3625
837.167	3584
837.305	3526
837.443	3511
837.58	3511
837.718	3572
837.856	3534
837.993	3488
838.131	3606
838.269	3595
838.406	3591
838.544	3542
838.681	3500
838.819	3443
838.956	3412
839.094	3405
839.231	3424
839.369	3534
839.506	3724
839.643	3587
839.781	3504
839.918	3454
840.055	3492
840.193	3519
840.33	3481
840.467	3542
840.604	3568
840.742	3781
840.879	3572
841.016	3557
841.153	3591
841.29	3740
841.427	3690
841.564	3713
841.701	3724
841.838	3694
841.975	3663
842.112	3720
842.249	3595
842.385	3625
842.522	3838
842.659	3724
842.796	3679
842.933	3751
843.069	3663
843.206	3705
843.343	3808
843.479	3762
843.616	3838
843.752	3629
843.889	3641
844.025	3823
844.162	3720
844.298	3857
844.435	3774
844.571	3812
844.708	3854
844.844	3968
844.98	3975
845.117	3983
845.253	3964
845.389	3854
845.525	3945
845.661	4029
845.798	3896
845.934	3972
846.07	3945
846.206	4051
846.342	4097
846.478	4055
846.614	3934
846.75	3937
846.886	3888
847.022	3983
847.158	3934
847.294	3972
847.429	4051
847.565	3960
847.701	4204
847.837	3865
847.972	3838
848.108	3968
848.244	3953
848.379	3846
848.515	3838
848.65	3808
848.786	3819
848.921	3873
849.057	3922
849.192	3972
849.328	3876
849.463	3896
849.598	3907
849.734	3816
849.869	3800
850.004	3808
850.14	3800
850.275	3736
850.41	3720
850.545	3740
850.68	3778
850.815	3808
850.95	3789
851.085	3945
851.22	3892
851.355	3842
851.49	3762
851.625	3781
851.76	3770
851.895	3679
852.03	3660
852.165	3797
852.299	3850
852.434	3903
852.569	3838
852.703	3888
852.838	3911
852.973	4013
853.107	4025
853.242	3880
853.376	3823
853.511	3804
853.645	3781
853.78	3975
853.914	3873
854.048	3865
854.183	3892
854.317	3930
854.451	4055
854.585	3953
854.72	3907
854.854	4055
854.988	3922
855.122	3987
855.256	3899
855.39	4025
855.524	4101
855.658	4082
855.792	4101
855.926	4147
856.06	4135
856.194	4185
856.327	4124
856.461	4128
856.595	4120
856.729	4204
856.862	4249
856.996	4272
857.13	4306
857.263	4272
857.397	4329
857.53	4299
857.664	4356
857.797	4424
857.931	4375
858.064	4375
858.197	4383
858.331	4394
858.464	4337
858.597	4337
858.731	4440
858.864	4440
858.997	4421
859.13	4485
859.263	4527
859.396	4546
859.529	4542
859.662	4508
859.795	4519
859.928	4573
860.061	4698
860.194	4710
860.327	4641
860.46	4615
860.592	4702
860.725	4706
860.858	4694
860.99	4736
861.123	4668
861.256	4714
861.388	4740
861.521	5589
861.653	4702
861.786	4717
861.918	4721
862.05	4786
862.183	4858
862.315	4919
862.447	4934
862.58	4885
862.712	4790
862.844	4752
862.976	4881
863.108	4858
863.24	5220
863.372	4854
863.504	4953
863.636	4858
863.768	4961
863.9	4934
864.032	4911
864.164	4930
864.296	4987
864.428	5060
864.559	5185
864.691	5147
864.823	5147
864.954	5090
865.086	5140
865.217	5094
865.349	5090
865.48	5147
865.612	5174
865.743	5250
865.875	5181
866.006	5159
866.137	5197
866.269	5223
866.4	5242
866.531	5223
866.662	5201
866.793	5258
866.924	5254
867.055	5318
867.186	5360
867.317	5288
867.448	5303
867.579	5379
867.71	5357
867.841	5326
867.972	5433
868.103	5444
868.233	5505
868.364	5509
868.495	5592
868.625	5672
868.756	5760
868.886	5634
869.017	5680
869.147	5798
869.278	5855
869.408	5794
869.539	5805
869.669	5901
869.799	5901
869.929	5931
870.06	6007
870.19	6144
870.32	6155
870.45	6266
870.58	6315
870.71	6391
870.84	6517
870.97	6414
871.1	6418
871.23	6665
871.36	6749
871.489	6658
871.619	6684
871.749	6779
871.879	6859
872.008	7004
872.138	6913
872.267	7038
872.397	6958
872.526	7099
872.656	7061
872.785	7164
872.915	7369
873.044	7499
873.173	7506
873.303	7601
873.432	7738
873.561	7849
873.69	7883
873.819	8039
873.948	8134
874.077	8142
874.206	8336
874.335	8415
874.464	8613
874.593	8853
874.722	8872
874.851	9043
874.979	9241
875.108	9355
875.237	9443
875.365	9458
875.494	9614
875.623	9816
875.751	9770
875.88	9991
876.008	10154
876.136	10284
876.265	10478
876.393	10668
876.521	10694
876.65	10824
876.778	10850
876.906	10915
877.034	10987
877.162	11075
877.29	11204
877.418	11261
877.546	11379
877.674	11414
877.802	11383
877.93	11573
878.058	11547
878.185	11547
878.313	11642
878.441	11802
878.568	11703
878.696	11851
878.824	11828
878.951	11920
879.079	12053
879.206	12068
879.333	12015
879.461	12053
879.588	12057
879.715	12072
879.842	12209
879.97	12091
880.097	11832
880.224	11824
880.351	11874
880.478	11912
880.605	11878
880.732	11779
880.859	12057
880.986	11840
881.112	11866
881.239	11722
881.366	11672
881.493	11627
881.619	11528
881.746	11524
881.872	11516
881.999	11501
882.125	11501
882.252	11482
882.378	11558
882.505	11566
882.631	11353
882.757	11307
882.883	11349
883.01	11269
883.136	11227
883.262	11071
883.388	11037
883.514	11151
883.64	11159
883.766	11071
883.892	10927
884.018	10961
884.143	11014
884.269	11140
884.395	10797
884.52	10801
884.646	10797
884.772	10683
884.897	10653
885.023	10641
885.148	10725
885.274	10793
885.399	10615
885.524	10679
885.65	10580
885.775	10588
885.9	10588
886.025	10577
886.15	10569
886.275	10485
886.4	10344
886.525	10451
886.65	10337
886.775	10306
886.9	10493
887.025	10611
887.149	10333
887.274	10200
887.399	10204
887.523	10173
887.648	10135
887.773	10128
887.897	10135
888.021	10234
888.146	10059
888.27	10200
888.395	10207
888.519	10143
888.643	10211
888.767	10188
888.891	10048
889.015	10025
889.139	10082
889.263	9991
889.387	10006
889.511	10059
889.635	10112
889.759	10006
889.883	9899
890.006	10051
890.13	10082
890.254	9956
890.377	9983
890.501	9869
890.624	9861
890.748	9926
890.871	9762
890.995	9800
891.118	9701
891.241	9778
891.364	9679
891.488	9838
891.611	9740
891.734	9671
891.857	9781
891.98	9686
892.103	9694
892.226	9762
892.349	9656
892.471	9584
892.594	9568
892.717	9603
892.839	9610
892.962	9591
893.085	9622
893.207	9557
893.33	9549
893.452	9477
893.575	9500
893.697	9507
893.819	9644
893.941	9580
894.064	9637
894.186	9435
894.308	9378
894.43	9500
894.552	9633
894.674	9519
894.796	9374
894.918	9420
895.04	9317
895.161	9370
895.283	9332
895.405	9222
895.526	9237
895.648	9211
895.769	9222
895.891	9192
896.012	9233
896.134	9230
896.255	9150
896.376	9135
896.498	9104
896.619	9176
896.74	9112
896.861	9085
896.982	9195
897.103	9351
897.224	9077
897.345	9043
897.466	9074
897.587	9070
897.708	9097
897.828	8960
897.949	8887
898.07	8842
898.19	8948
898.311	9039
898.431	8880
898.552	8952
898.672	8994
898.792	8963
898.913	8868
899.033	8773
899.153	8693
899.273	8716
899.393	8743
899.513	8750
899.633	8674
899.753	8670
899.873	8708
899.993	8659
900.113	8758
900.232	8750
900.352	8701
900.472	8648
900.591	8511
900.711	8549
900.83	8518
900.95	8613
901.069	8674
901.189	8602
901.308	8461
901.427	8377
901.546	8446
901.665	8457
901.784	8446
901.904	8404
902.023	8366
902.141	8202
902.26	8244
902.379	8229
902.498	8221
902.617	8206
902.735	8263
902.854	8214
902.973	8240
903.091	8096
903.21	8088
903.328	8191
903.446	8111
903.565	8073
903.683	8100
903.801	8081
903.919	8107
904.038	8126
904.156	8065
904.274	8031
904.392	8058
904.51	7986
904.627	8077
904.745	8126
904.863	8081
904.981	7928
905.098	7864
905.216	7883
905.334	7932
905.451	7883
905.569	7864
905.686	7845
905.803	7959
905.921	7689
906.038	7879
906.155	7784
906.272	7715
906.389	7715
906.506	7620
906.623	7563
906.74	7563
906.857	7597
906.974	7563
907.091	7590
907.208	7719
907.324	7548
907.441	7544
907.557	7480
907.674	7514
907.79	7369
907.907	7396
908.023	7487
908.139	7392
908.256	7365
908.372	7388
908.488	7305
908.604	7308
908.72	7194
908.836	7247
908.952	7240
909.068	7270
909.184	7308
909.3	7289
909.415	7274
909.531	7232
909.647	7126
909.762	7084
909.878	7088
909.993	7099
910.108	7168
910.224	7034
910.339	7137
910.454	7004
910.57	6924
910.685	6977
910.8	7198
910.915	7107
911.03	7031
911.145	6875
911.259	6863
911.374	6878
911.489	6825
911.604	6825
911.718	6738
911.833	6700
911.947	6673
912.062	6589
912.176	6711
912.291	6654
912.405	6692
912.519	6757
912.633	6783
912.748	6719
912.862	6642
912.976	6623
913.09	6559
913.204	6559
913.318	6597
913.431	6642
913.545	6673
913.659	6722
913.772	6654
913.886	6517
914	6555
914.113	6566
914.226	6627
914.34	6601
914.453	6521
914.566	6608
914.68	6517
914.793	6483
914.906	6376
915.019	6399
915.132	6376
915.245	6395
915.358	6456
915.47	6384
915.583	6456
915.696	6433
915.809	6551
915.921	6517
916.034	6456
916.146	6403
916.259	6334
916.371	6460
916.483	6460
916.595	6270
916.708	6422
916.82	6422
916.932	6361
917.044	6388
917.156	6342
917.268	6338
917.38	6372
917.491	6327
917.603	6372
917.715	6376
917.826	6418
917.938	6357
918.049	6235
918.161	6323
918.272	6338
918.384	6403
918.495	6346
918.606	6243
918.717	6194
918.828	6251
918.939	6232
919.05	6175
919.161	6258
919.272	6125
919.383	6175
919.494	6270
919.604	6429
919.715	6254
919.826	6220
919.936	6247
920.047	6315
920.157	6239
920.267	6410
920.378	6296
920.488	6258
920.598	6388
920.708	6513
920.818	6445
920.928	6494
921.038	6536
921.148	6521
921.258	6346
921.368	6308
921.477	6190
921.587	6148
921.697	6091
921.806	6144
921.916	6095
922.025	5912
922.134	5927
922.244	5882
922.353	5901
922.462	5824
922.571	5752
922.68	5714
922.789	5627
922.898	5710
923.007	5623
923.116	5688
923.224	5653
923.333	5672
923.442	5589
923.55	5562
923.659	5596
923.767	5619
923.876	5505
923.984	5520
924.092	5459
924.201	5577
924.309	5566
924.417	5558
924.525	5509
924.633	5486
924.741	6095
924.849	5345
924.956	5448
925.064	5368
925.172	5265
925.279	5292
925.387	5395
925.494	5341
925.602	5406
925.709	5398
925.816	5250
925.924	5299
926.031	5395
926.138	5288
926.245	5284
926.352	5204
926.459	5284
926.566	5311
926.673	5197
926.779	5140
926.886	5140
926.993	5041
927.099	4984
927.206	4995
927.312	4976
927.419	5048
927.525	4919
927.631	4972
927.737	4934
927.843	4854
927.95	4729
928.056	4786
928.162	4801
928.267	4812
928.373	5231
928.479	4812
928.585	4660
928.69	4790
928.796	4820
928.901	4683
929.007	4618
929.112	4596
929.218	4664
929.323	4588
929.428	4561
929.533	4664
929.638	4466
929.743	4485
929.848	4577
929.953	4489
930.058	4466
930.163	4325
930.267	4375
930.372	4421
930.477	4276
930.581	4386
930.685	4329
930.79	4219
930.894	4265
930.998	4257
931.103	4360
931.207	4120
931.311	4074
931.415	4025
931.519	3907
931.623	3953
