Data from glass_V78500241_2239.txt Node
Date: Wed Sep 01 19:30:01 CST 2021
User: usil
Spectrometer: V785-0024
Trigger mode: 0
Integration Time (sec): 4.000000E-1
Scans to average: 1
Nonlinearity correction enabled: false
Boxcar width: 0
Storing dark spectrum: false
XAxis mode: Wavelengths
Number of Pixels in Spectrum: 1024
>>>>>Begin Spectral Data<<<<<
801.071	3724
801.214	3743
801.356	3736
801.499	3709
801.641	3717
801.783	3770
801.926	3854
802.068	3846
802.211	3846
802.353	3896
802.496	3793
802.638	3876
802.78	3896
802.923	3930
803.065	3850
803.208	3857
803.35	3861
803.492	3884
803.635	3899
803.777	3846
803.919	3850
804.061	4162
804.204	3937
804.346	3960
804.488	3907
804.63	4040
804.773	3907
804.915	3987
805.057	4109
805.199	4013
805.341	4071
805.483	4116
805.626	4086
805.768	4093
805.91	4204
806.052	4173
806.194	4181
806.336	4322
806.478	4219
806.62	4154
806.762	4173
806.904	4253
807.046	4329
807.188	4173
807.33	4139
807.472	4261
807.614	4158
807.756	4268
807.898	4200
808.04	4242
808.182	4318
808.324	4348
808.465	4394
808.607	4478
808.749	4451
808.891	4413
809.033	4466
809.174	4424
809.316	4234
809.458	4227
809.6	4158
809.741	4124
809.883	4150
810.025	4185
810.166	4185
810.308	4188
810.45	4268
810.591	4219
810.733	4287
810.875	4497
811.016	4793
811.158	5105
811.299	5246
811.441	5273
811.582	5056
811.724	4691
811.865	4428
812.007	4478
812.148	4474
812.29	4394
812.431	4398
812.573	4383
812.714	4367
812.855	4409
812.997	4383
813.138	4500
813.279	4409
813.421	4348
813.562	4352
813.703	4249
813.845	4356
813.986	4230
814.127	4154
814.268	4280
814.41	4268
814.551	4265
814.692	4352
814.833	4280
814.974	4253
815.115	4367
815.256	4246
815.397	4246
815.539	4265
815.68	4185
815.821	4230
815.962	4310
816.103	4287
816.244	4215
816.385	4211
816.526	4242
816.666	4185
816.807	4112
816.948	4158
817.089	4215
817.23	4120
817.371	4048
817.512	4029
817.653	4086
817.793	4029
817.934	4021
818.075	4078
818.216	4063
818.356	4067
818.497	4002
818.638	3934
818.778	3899
818.919	3899
819.06	3857
819.2	3873
819.341	3846
819.481	3808
819.622	3861
819.762	4040
819.903	3922
820.043	3819
820.184	3812
820.324	3842
820.465	3827
820.605	3850
820.746	3892
820.886	3793
821.026	3907
821.167	3922
821.307	3930
821.447	3956
821.588	3968
821.728	3945
821.868	3926
822.008	3823
822.149	3896
822.289	3896
822.429	3778
822.569	3770
822.709	3778
822.849	3701
822.99	3740
823.13	3743
823.27	3759
823.41	3705
823.55	3747
823.69	3694
823.83	3724
823.97	3679
824.11	3595
824.25	3591
824.389	3587
824.529	3641
824.669	3603
824.809	3736
824.949	3755
825.089	3778
825.228	3675
825.368	3545
825.508	3553
825.648	3580
825.787	3587
825.927	3625
826.067	3625
826.206	3625
826.346	3778
826.485	3831
826.625	3842
826.765	3968
826.904	3789
827.044	3584
827.183	3481
827.323	3397
827.462	3485
827.601	3424
827.741	3439
827.88	3443
828.02	3355
828.159	3431
828.298	3485
828.437	3504
828.577	3462
828.716	3591
828.855	3523
828.994	3355
829.134	3405
829.273	3386
829.412	3359
829.551	3370
829.69	3428
829.829	3409
829.968	3481
830.107	3439
830.246	3424
830.385	3367
830.524	3386
830.663	3275
830.802	3245
830.941	3195
831.08	3169
831.219	3241
831.357	3272
831.496	3420
831.635	3214
831.774	3173
831.913	3211
832.051	3131
832.19	3165
832.329	3226
832.467	3131
832.606	3127
832.744	3150
832.883	3165
833.022	3157
833.16	3253
833.299	3302
833.437	3351
833.576	3359
833.714	3454
833.852	3397
833.991	3447
834.129	3439
834.267	3405
834.406	3416
834.544	3473
834.682	3397
834.821	3405
834.959	3523
835.097	3420
835.235	3485
835.373	3500
835.511	3500
835.65	3443
835.788	3504
835.926	3409
836.064	3363
836.202	3450
836.34	3545
836.478	3610
836.615	3542
836.753	3591
836.891	3633
837.029	3606
837.167	3568
837.305	3545
837.443	3496
837.58	3488
837.718	3599
837.856	3542
837.993	3515
838.131	3591
838.269	3561
838.406	3545
838.544	3572
838.681	3462
838.819	3481
838.956	3393
839.094	3378
839.231	3439
839.369	3526
839.506	3686
839.643	3614
839.781	3492
839.918	3473
840.055	3526
840.193	3530
840.33	3447
840.467	3633
840.604	3538
840.742	3842
840.879	3542
841.016	3523
841.153	3595
841.29	3740
841.427	3720
841.564	3690
841.701	3713
841.838	3709
841.975	3648
842.112	3743
842.249	3614
842.385	3595
842.522	3823
842.659	3705
842.796	3671
842.933	3694
843.069	3705
843.206	3679
843.343	3778
843.479	3759
843.616	3816
843.752	3720
843.889	3652
844.025	3861
844.162	3724
844.298	3850
844.435	3838
844.571	3774
844.708	3888
844.844	3983
844.98	4017
845.117	3975
845.253	3911
845.389	3896
845.525	3937
845.661	3979
845.798	3880
845.934	4029
846.07	3968
846.206	4040
846.342	4109
846.478	4071
846.614	3888
846.75	3945
846.886	3907
847.022	3983
847.158	4006
847.294	3945
847.429	4032
847.565	4010
847.701	4211
847.837	3880
847.972	3880
848.108	3972
848.244	3937
848.379	3880
848.515	3793
848.65	3800
848.786	3865
848.921	3892
849.057	3903
849.192	3918
849.328	3903
849.463	3903
849.598	3888
849.734	3876
849.869	3842
850.004	3747
850.14	3823
850.275	3819
850.41	3759
850.545	3755
850.68	3736
850.815	3781
850.95	3778
851.085	3907
851.22	3854
851.355	3838
851.49	3751
851.625	3800
851.76	3793
851.895	3701
852.03	3713
852.165	3743
852.299	3842
852.434	3896
852.569	3880
852.703	3827
852.838	3945
852.973	4029
853.107	4021
853.242	3903
853.376	3808
853.511	3762
853.645	3808
853.78	3968
853.914	3876
854.048	3937
854.183	3846
854.317	3945
854.451	4055
854.585	4002
854.72	3960
854.854	4036
854.988	3918
855.122	4036
855.256	3899
855.39	4029
855.524	4101
855.658	4055
855.792	4112
855.926	4120
856.06	4181
856.194	4204
856.327	4143
856.461	4135
856.595	4109
856.729	4143
856.862	4230
856.996	4230
857.13	4246
857.263	4287
857.397	4318
857.53	4268
857.664	4367
857.797	4390
857.931	4432
858.064	4367
858.197	4417
858.331	4405
858.464	4405
858.597	4325
858.731	4443
858.864	4455
858.997	4466
859.13	4470
859.263	4523
859.396	4626
859.529	4538
859.662	4538
859.795	4500
859.928	4618
860.061	4675
860.194	4710
860.327	4672
860.46	4626
860.592	4710
860.725	4778
860.858	4797
860.99	4634
861.123	4706
861.256	4683
861.388	4755
861.521	5292
861.653	4679
861.786	4668
861.918	4748
862.05	4778
862.183	4828
862.315	4881
862.447	4972
862.58	4862
862.712	4816
862.844	4691
862.976	4873
863.108	4866
863.24	5117
863.372	4847
863.504	4850
863.636	4889
863.768	4919
863.9	4942
864.032	4900
864.164	4949
864.296	5006
864.428	5079
864.559	5086
864.691	5105
864.823	5094
864.954	5166
865.086	5147
865.217	5079
865.349	5128
865.48	5151
865.612	5208
865.743	5284
865.875	5132
866.006	5185
866.137	5246
866.269	5223
866.4	5223
866.531	5235
866.662	5201
866.793	5265
866.924	5296
867.055	5318
867.186	5284
867.317	5376
867.448	5273
867.579	5349
867.71	5364
867.841	5337
867.972	5452
868.103	5448
868.233	5459
868.364	5505
868.495	5524
868.625	5623
868.756	5748
868.886	5680
869.017	5672
869.147	5859
869.278	5836
869.408	5756
869.539	5794
869.669	5901
869.799	5870
869.929	5942
870.06	5984
870.19	6220
870.32	6163
870.45	6289
870.58	6357
870.71	6369
870.84	6483
870.97	6426
871.1	6452
871.23	6673
871.36	6669
871.489	6559
871.619	6749
871.749	6787
871.879	6840
872.008	6985
872.138	6954
872.267	7004
872.397	7019
872.526	7015
872.656	7141
872.785	7240
872.915	7354
873.044	7556
873.173	7529
873.303	7689
873.432	7746
873.561	7860
873.69	7921
873.819	8012
873.948	8168
874.077	8252
874.206	8347
874.335	8389
874.464	8724
874.593	8891
874.722	8899
874.851	9165
874.979	9237
875.108	9363
875.237	9393
875.365	9458
875.494	9656
875.623	9846
875.751	9778
875.88	10032
876.008	10173
876.136	10268
876.265	10538
876.393	10706
876.521	10649
876.65	10786
876.778	10927
876.906	10938
877.034	10995
877.162	11117
877.29	11181
877.418	11356
877.546	11345
877.674	11417
877.802	11463
877.93	11520
878.058	11566
878.185	11482
878.313	11615
878.441	11665
878.568	11653
878.696	11821
878.824	11824
878.951	11885
879.079	11988
879.206	12091
879.333	12087
879.461	12007
879.588	12038
879.715	12175
879.842	12190
879.97	12117
880.097	11821
880.224	11809
880.351	11897
880.478	11920
880.605	11901
880.732	11824
880.859	12030
880.986	11786
881.112	11855
881.239	11684
881.366	11615
881.493	11634
881.619	11619
881.746	11604
881.872	11509
881.999	11471
882.125	11440
882.252	11512
882.378	11448
882.505	11646
882.631	11448
882.757	11322
882.883	11227
883.01	11216
883.136	11140
883.262	11102
883.388	11075
883.514	11193
883.64	11159
883.766	11052
883.892	11014
884.018	11045
884.143	11041
884.269	11094
884.395	10900
884.52	10816
884.646	10782
884.772	10653
884.897	10706
885.023	10675
885.148	10698
885.274	10683
885.399	10767
885.524	10630
885.65	10630
885.775	10626
885.9	10603
886.025	10679
886.15	10596
886.275	10421
886.4	10386
886.525	10379
886.65	10382
886.775	10333
886.9	10527
887.025	10451
887.149	10325
887.274	10230
887.399	10204
887.523	10131
887.648	10166
887.773	10074
887.897	10177
888.021	10192
888.146	10147
888.27	10177
888.395	10173
888.519	10204
888.643	10196
888.767	10139
888.891	10158
889.015	10082
889.139	10097
889.263	10006
889.387	10021
889.511	10082
889.635	10025
889.759	9983
889.883	9873
890.006	10013
890.13	10040
890.254	10021
890.377	9937
890.501	9857
890.624	9816
890.748	9918
890.871	9774
890.995	9823
891.118	9701
891.241	9785
891.364	9785
891.488	9778
891.611	9698
891.734	9694
891.857	9781
891.98	9785
892.103	9713
892.226	9675
892.349	9618
892.471	9458
892.594	9587
892.717	9595
892.839	9603
892.962	9618
893.085	9644
893.207	9610
893.33	9496
893.452	9526
893.575	9580
893.697	9504
893.819	9496
893.941	9564
894.064	9553
894.186	9397
894.308	9439
894.43	9504
894.552	9610
894.674	9485
894.796	9310
894.918	9428
895.04	9367
895.161	9329
895.283	9294
895.405	9249
895.526	9291
895.648	9176
895.769	9176
895.891	9260
896.012	9253
896.134	9161
896.255	9173
896.376	9112
896.498	9116
896.619	9036
896.74	9039
896.861	9074
896.982	9237
897.103	9298
897.224	9180
897.345	9028
897.466	8956
897.587	8967
897.708	9119
897.828	9062
897.949	8902
898.07	8914
898.19	8902
898.311	8982
898.431	8823
898.552	8883
898.672	8925
898.792	8960
898.913	8963
899.033	8804
899.153	8769
899.273	8655
899.393	8632
899.513	8724
899.633	8731
899.753	8750
899.873	8735
899.993	8724
900.113	8731
900.232	8701
900.352	8587
900.472	8530
900.591	8590
900.711	8606
900.83	8594
900.95	8632
901.069	8712
901.189	8552
901.308	8442
901.427	8351
901.546	8419
901.665	8499
901.784	8446
901.904	8362
902.023	8404
902.141	8294
902.26	8206
902.379	8263
902.498	8233
902.617	8176
902.735	8256
902.854	8248
902.973	8252
903.091	8157
903.21	8130
903.328	8168
903.446	8100
903.565	8035
903.683	8100
903.801	8050
903.919	8100
904.038	8134
904.156	8016
904.274	8065
904.392	8027
904.51	7993
904.627	8054
904.745	8058
904.863	8100
904.981	7925
905.098	7883
905.216	7871
905.334	7868
905.451	7917
905.569	7845
905.686	7894
905.803	7841
905.921	7727
906.038	7921
906.155	7814
906.272	7712
906.389	7742
906.506	7616
906.623	7624
906.74	7628
906.857	7556
906.974	7480
907.091	7620
907.208	7727
907.324	7666
907.441	7548
907.557	7422
907.674	7365
907.79	7381
907.907	7388
908.023	7460
908.139	7392
908.256	7282
908.372	7335
908.488	7354
908.604	7255
908.72	7251
908.836	7274
908.952	7266
909.068	7232
909.184	7335
909.3	7274
909.415	7263
909.531	7301
909.647	7133
909.762	7118
909.878	7053
909.993	7110
910.108	7103
910.224	7137
910.339	7099
910.454	6966
910.57	6996
910.685	7004
910.8	7187
910.915	7137
911.03	7012
911.145	6875
911.259	6856
911.374	6837
911.489	6878
911.604	6833
911.718	6681
911.833	6741
911.947	6627
912.062	6608
912.176	6665
912.291	6760
912.405	6662
912.519	6806
912.633	6821
912.748	6764
912.862	6715
912.976	6639
913.09	6532
913.204	6585
913.318	6570
913.431	6692
913.545	6669
913.659	6719
913.772	6646
913.886	6578
914	6574
914.113	6544
914.226	6532
914.34	6582
914.453	6467
914.566	6604
914.68	6498
914.793	6490
914.906	6448
915.019	6338
915.132	6452
915.245	6426
915.358	6407
915.47	6456
915.583	6414
915.696	6479
915.809	6483
915.921	6593
916.034	6391
916.146	6407
916.259	6372
916.371	6445
916.483	6441
916.595	6399
916.708	6403
916.82	6391
916.932	6395
917.044	6380
917.156	6376
917.268	6334
917.38	6353
917.491	6334
917.603	6311
917.715	6403
917.826	6513
917.938	6289
918.049	6281
918.161	6357
918.272	6445
918.384	6448
918.495	6308
918.606	6292
918.717	6159
918.828	6277
918.939	6232
919.05	6190
919.161	6247
919.272	6079
919.383	6095
919.494	6262
919.604	6350
919.715	6262
919.826	6152
919.936	6266
920.047	6323
920.157	6315
920.267	6395
920.378	6304
920.488	6270
920.598	6433
920.708	6517
920.818	6460
920.928	6467
921.038	6650
921.148	6547
921.258	6327
921.368	6315
921.477	6247
921.587	6133
921.697	6129
921.806	6201
921.916	6064
922.025	5988
922.134	5908
922.244	5855
922.353	5969
922.462	5859
922.571	5790
922.68	5726
922.789	5676
922.898	5668
923.007	5672
923.116	5733
923.224	5695
923.333	5638
923.442	5600
923.55	5558
923.659	5573
923.767	5566
923.876	5566
923.984	5589
924.092	5493
924.201	5543
924.309	5509
924.417	5512
924.525	5493
924.633	5444
924.741	6273
924.849	5345
924.956	5497
925.064	5349
925.172	5349
925.279	5307
925.387	5307
925.494	5299
925.602	5421
925.709	5349
925.816	5296
925.924	5318
926.031	5368
926.138	5284
926.245	5280
926.352	5185
926.459	5284
926.566	5303
926.673	5208
926.779	5162
926.886	5094
926.993	5014
927.099	4972
927.206	4980
927.312	4923
927.419	4980
927.525	4965
927.631	4991
927.737	4885
927.843	4843
927.95	4763
928.056	4793
928.162	4831
928.267	4816
928.373	5311
928.479	4828
928.585	4672
928.69	4729
928.796	4717
928.901	4721
929.007	4649
929.112	4584
929.218	4630
929.323	4630
929.428	4550
929.533	4664
929.638	4451
929.743	4527
929.848	4493
929.953	4535
930.058	4440
930.163	4303
930.267	4363
930.372	4432
930.477	4291
930.581	4485
930.685	4390
930.79	4249
930.894	4261
930.998	4242
931.103	4367
931.207	4147
931.311	4093
931.415	4040
931.519	3880
931.623	3915
