Data from glass_V78500241_2683.txt Node
Date: Wed Sep 01 19:33:05 CST 2021
User: usil
Spectrometer: V785-0024
Trigger mode: 0
Integration Time (sec): 4.000000E-1
Scans to average: 1
Nonlinearity correction enabled: false
Boxcar width: 0
Storing dark spectrum: false
XAxis mode: Wavelengths
Number of Pixels in Spectrum: 1024
>>>>>Begin Spectral Data<<<<<
801.071	3743
801.214	3724
801.356	3705
801.499	3717
801.641	3743
801.783	3766
801.926	3850
802.068	3816
802.211	3835
802.353	3884
802.496	3846
802.638	3907
802.78	3911
802.923	3915
803.065	3907
803.208	3880
803.35	3876
803.492	3869
803.635	3937
803.777	3759
803.919	3835
804.061	4154
804.204	3915
804.346	3934
804.488	3922
804.63	4029
804.773	3953
804.915	4029
805.057	4128
805.199	4032
805.341	4082
805.483	4105
805.626	4139
805.768	4067
805.91	4207
806.052	4265
806.194	4227
806.336	4325
806.478	4154
806.62	4185
806.762	4169
806.904	4177
807.046	4352
807.188	4219
807.33	4185
807.472	4230
807.614	4215
807.756	4265
807.898	4169
808.04	4162
808.182	4329
808.324	4322
808.465	4386
808.607	4451
808.749	4447
808.891	4443
809.033	4508
809.174	4360
809.316	4211
809.458	4242
809.6	4128
809.741	4128
809.883	4150
810.025	4207
810.166	4188
810.308	4219
810.45	4242
810.591	4223
810.733	4276
810.875	4512
811.016	4847
811.158	5098
811.299	5254
811.441	5265
811.582	5060
811.724	4694
811.865	4443
812.007	4462
812.148	4424
812.29	4455
812.431	4432
812.573	4405
812.714	4363
812.855	4398
812.997	4398
813.138	4466
813.279	4390
813.421	4367
813.562	4360
813.703	4383
813.845	4306
813.986	4238
814.127	4211
814.268	4291
814.41	4253
814.551	4223
814.692	4318
814.833	4276
814.974	4310
815.115	4322
815.256	4253
815.397	4223
815.539	4238
815.68	4192
815.821	4207
815.962	4291
816.103	4265
816.244	4200
816.385	4207
816.526	4223
816.666	4230
816.807	4093
816.948	4173
817.089	4158
817.23	4101
817.371	4032
817.512	4029
817.653	4025
817.793	4013
817.934	4051
818.075	4109
818.216	4074
818.356	4067
818.497	3983
818.638	3884
818.778	3884
818.919	3854
819.06	3876
819.2	3896
819.341	3846
819.481	3800
819.622	3918
819.762	4002
819.903	3934
820.043	3831
820.184	3819
820.324	3835
820.465	3812
820.605	3854
820.746	3880
820.886	3793
821.026	3926
821.167	3945
821.307	3994
821.447	3987
821.588	3937
821.728	3922
821.868	3934
822.008	3842
822.149	3903
822.289	3915
822.429	3762
822.569	3774
822.709	3846
822.849	3694
822.99	3717
823.13	3774
823.27	3759
823.41	3701
823.55	3720
823.69	3675
823.83	3747
823.97	3671
824.11	3572
824.25	3564
824.389	3587
824.529	3682
824.669	3641
824.809	3679
824.949	3717
825.089	3701
825.228	3682
825.368	3526
825.508	3515
825.648	3538
825.787	3515
825.927	3610
826.067	3610
826.206	3663
826.346	3755
826.485	3831
826.625	3793
826.765	3907
826.904	3831
827.044	3564
827.183	3511
827.323	3424
827.462	3488
827.601	3424
827.741	3439
827.88	3416
828.02	3329
828.159	3412
828.298	3454
828.437	3523
828.577	3488
828.716	3603
828.855	3477
828.994	3348
829.134	3359
829.273	3386
829.412	3313
829.551	3348
829.69	3412
829.829	3435
829.968	3507
830.107	3435
830.246	3431
830.385	3378
830.524	3317
830.663	3287
830.802	3253
830.941	3203
831.08	3195
831.219	3260
831.357	3260
831.496	3412
831.635	3226
831.774	3188
831.913	3173
832.051	3127
832.19	3116
832.329	3218
832.467	3123
832.606	3119
832.744	3138
832.883	3173
833.022	3192
833.16	3233
833.299	3294
833.437	3344
833.576	3321
833.714	3424
833.852	3420
833.991	3428
834.129	3485
834.267	3439
834.406	3370
834.544	3401
834.682	3424
834.821	3454
834.959	3580
835.097	3405
835.235	3511
835.373	3439
835.511	3526
835.65	3428
835.788	3450
835.926	3389
836.064	3382
836.202	3386
836.34	3618
836.478	3561
836.615	3511
836.753	3591
836.891	3580
837.029	3591
837.167	3591
837.305	3549
837.443	3549
837.58	3466
837.718	3606
837.856	3568
837.993	3507
838.131	3603
838.269	3561
838.406	3591
838.544	3534
838.681	3447
838.819	3477
838.956	3321
839.094	3389
839.231	3439
839.369	3504
839.506	3686
839.643	3610
839.781	3519
839.918	3443
840.055	3507
840.193	3530
840.33	3538
840.467	3538
840.604	3584
840.742	3797
840.879	3511
841.016	3572
841.153	3599
841.29	3709
841.427	3701
841.564	3698
841.701	3686
841.838	3713
841.975	3675
842.112	3686
842.249	3561
842.385	3599
842.522	3804
842.659	3663
842.796	3679
842.933	3682
843.069	3698
843.206	3747
843.343	3823
843.479	3755
843.616	3774
843.752	3656
843.889	3679
844.025	3865
844.162	3743
844.298	3827
844.435	3808
844.571	3762
844.708	3869
844.844	3972
844.98	4029
845.117	3994
845.253	3850
845.389	3873
845.525	3915
845.661	3964
845.798	3941
845.934	3964
846.07	3922
846.206	4021
846.342	4109
846.478	4093
846.614	3934
846.75	3918
846.886	3972
847.022	4017
847.158	3949
847.294	3968
847.429	3994
847.565	4013
847.701	4162
847.837	3861
847.972	3850
848.108	4010
848.244	3934
848.379	3835
848.515	3789
848.65	3838
848.786	3819
848.921	3827
849.057	3873
849.192	3911
849.328	3876
849.463	3911
849.598	3846
849.734	3876
849.869	3842
850.004	3778
850.14	3789
850.275	3778
850.41	3732
850.545	3778
850.68	3732
850.815	3774
850.95	3797
851.085	3949
851.22	3816
851.355	3861
851.49	3789
851.625	3770
851.76	3827
851.895	3732
852.03	3743
852.165	3785
852.299	3816
852.434	3884
852.569	3835
852.703	3861
852.838	3884
852.973	3983
853.107	3972
853.242	3896
853.376	3854
853.511	3804
853.645	3823
853.78	3934
853.914	3880
854.048	3846
854.183	3873
854.317	3937
854.451	4032
854.585	4010
854.72	3918
854.854	4029
854.988	3896
855.122	3979
855.256	3918
855.39	4017
855.524	4097
855.658	4063
855.792	4112
855.926	4093
856.06	4154
856.194	4200
856.327	4166
856.461	4128
856.595	4158
856.729	4173
856.862	4242
856.996	4219
857.13	4246
857.263	4322
857.397	4341
857.53	4287
857.664	4337
857.797	4341
857.931	4409
858.064	4299
858.197	4417
858.331	4398
858.464	4405
858.597	4306
858.731	4447
858.864	4402
858.997	4485
859.13	4493
859.263	4542
859.396	4527
859.529	4516
859.662	4565
859.795	4478
859.928	4588
860.061	4714
860.194	4736
860.327	4599
860.46	4660
860.592	4694
860.725	4782
860.858	4755
860.99	4702
861.123	4672
861.256	4691
861.388	4717
861.521	5269
861.653	4698
861.786	4675
861.918	4717
862.05	4782
862.183	4850
862.315	4858
862.447	4892
862.58	4858
862.712	4767
862.844	4740
862.976	4847
863.108	4870
863.24	5216
863.372	4835
863.504	4866
863.636	4858
863.768	4934
863.9	4946
864.032	4968
864.164	4900
864.296	5052
864.428	5086
864.559	5113
864.691	5109
864.823	5117
864.954	5090
865.086	5109
865.217	5124
865.349	5113
865.48	5201
865.612	5136
865.743	5231
865.875	5166
866.006	5216
866.137	5261
866.269	5231
866.4	5258
866.531	5227
866.662	5235
866.793	5220
866.924	5235
867.055	5326
867.186	5334
867.317	5303
867.448	5299
867.579	5383
867.71	5372
867.841	5379
867.972	5478
868.103	5493
868.233	5459
868.364	5486
868.495	5566
868.625	5646
868.756	5745
868.886	5672
869.017	5699
869.147	5790
869.278	5885
869.408	5748
869.539	5794
869.669	5946
869.799	5920
869.929	5920
870.06	5950
870.19	6125
870.32	6213
870.45	6232
870.58	6277
870.71	6467
870.84	6414
870.97	6486
871.1	6380
871.23	6654
871.36	6654
871.489	6601
871.619	6726
871.749	6791
871.879	6852
872.008	6993
872.138	6977
872.267	6951
872.397	6985
872.526	7000
872.656	7057
872.785	7160
872.915	7377
873.044	7533
873.173	7544
873.303	7662
873.432	7746
873.561	7868
873.69	7925
873.819	7978
873.948	8111
874.077	8271
874.206	8286
874.335	8457
874.464	8697
874.593	8823
874.722	8967
874.851	9104
874.979	9214
875.108	9298
875.237	9447
875.365	9450
875.494	9637
875.623	9789
875.751	9793
875.88	9972
876.008	10067
876.136	10322
876.265	10580
876.393	10706
876.521	10744
876.65	10824
876.778	10915
876.906	10858
877.034	10991
877.162	11109
877.29	11109
877.418	11212
877.546	11299
877.674	11402
877.802	11444
877.93	11547
878.058	11478
878.185	11493
878.313	11649
878.441	11714
878.568	11657
878.696	11752
878.824	11790
878.951	11901
879.079	12019
879.206	12038
879.333	12064
879.461	12015
879.588	12125
879.715	12026
879.842	12232
879.97	12030
880.097	11961
880.224	11931
880.351	11874
880.478	11912
880.605	11855
880.732	11756
880.859	11973
880.986	11847
881.112	11863
881.239	11722
881.366	11558
881.493	11630
881.619	11558
881.746	11543
881.872	11532
881.999	11554
882.125	11520
882.252	11535
882.378	11497
882.505	11528
882.631	11326
882.757	11356
882.883	11258
883.01	11292
883.136	11159
883.262	11124
883.388	11170
883.514	11162
883.64	11124
883.766	11025
883.892	10976
884.018	10984
884.143	11147
884.269	11083
884.395	10869
884.52	10740
884.646	10752
884.772	10679
884.897	10626
885.023	10584
885.148	10763
885.274	10786
885.399	10721
885.524	10618
885.65	10550
885.775	10558
885.9	10535
886.025	10641
886.15	10618
886.275	10455
886.4	10390
886.525	10398
886.65	10398
886.775	10318
886.9	10531
887.025	10554
887.149	10352
887.274	10204
887.399	10162
887.523	10147
887.648	10082
887.773	10078
887.897	10204
888.021	10238
888.146	10181
888.27	10223
888.395	10219
888.519	10196
888.643	10177
888.767	10112
888.891	10131
889.015	9972
889.139	10067
889.263	9907
889.387	9960
889.511	10101
889.635	10059
889.759	9926
889.883	9934
890.006	10021
890.13	10082
890.254	9964
890.377	9987
890.501	9869
890.624	9895
890.748	9835
890.871	9774
890.995	9694
891.118	9728
891.241	9698
891.364	9663
891.488	9759
891.611	9728
891.734	9755
891.857	9690
891.98	9633
892.103	9736
892.226	9690
892.349	9614
892.471	9454
892.594	9534
892.717	9538
892.839	9511
892.962	9576
893.085	9682
893.207	9614
893.33	9466
893.452	9557
893.575	9557
893.697	9488
893.819	9622
893.941	9667
894.064	9526
894.186	9435
894.308	9401
894.43	9561
894.552	9515
894.674	9507
894.796	9450
894.918	9302
895.04	9302
895.161	9355
895.283	9294
895.405	9184
895.526	9256
895.648	9245
895.769	9233
895.891	9199
896.012	9302
896.134	9203
896.255	9173
896.376	9097
896.498	9142
896.619	9165
896.74	9089
896.861	9138
896.982	9253
897.103	9291
897.224	9135
897.345	9036
897.466	9005
897.587	9013
897.708	9039
897.828	9009
897.949	8937
898.07	8880
898.19	8956
898.311	9058
898.431	8910
898.552	8895
898.672	8906
898.792	9009
898.913	8891
899.033	8796
899.153	8746
899.273	8625
899.393	8746
899.513	8739
899.633	8735
899.753	8727
899.873	8667
899.993	8708
900.113	8655
900.232	8651
900.352	8670
900.472	8663
900.591	8571
900.711	8610
900.83	8560
900.95	8594
901.069	8663
901.189	8571
901.308	8427
901.427	8396
901.546	8438
901.665	8465
901.784	8530
901.904	8313
902.023	8374
902.141	8233
902.26	8202
902.379	8263
902.498	8195
902.617	8252
902.735	8339
902.854	8309
902.973	8286
903.091	8123
903.21	8157
903.328	8149
903.446	8130
903.565	8103
903.683	8100
903.801	8100
903.919	8069
904.038	8164
904.156	8046
904.274	8092
904.392	8027
904.51	7932
904.627	8058
904.745	8073
904.863	8096
904.981	7917
905.098	7833
905.216	7871
905.334	7879
905.451	7906
905.569	7852
905.686	7898
905.803	7909
905.921	7830
906.038	7849
906.155	7807
906.272	7670
906.389	7738
906.506	7601
906.623	7605
906.74	7540
906.857	7491
906.974	7525
907.091	7639
907.208	7685
907.324	7575
907.441	7597
907.557	7472
907.674	7434
907.79	7354
907.907	7426
908.023	7415
908.139	7381
908.256	7358
908.372	7339
908.488	7350
908.604	7225
908.72	7259
908.836	7301
908.952	7247
909.068	7217
909.184	7327
909.3	7247
909.415	7312
909.531	7190
909.647	7099
909.762	7110
909.878	7110
909.993	7080
910.108	7023
910.224	7118
910.339	7061
910.454	6993
910.57	6977
910.685	6916
910.8	7168
910.915	7110
911.03	7012
911.145	6920
911.259	6844
911.374	6905
911.489	6810
911.604	6738
911.718	6730
911.833	6726
911.947	6642
912.062	6589
912.176	6722
912.291	6707
912.405	6677
912.519	6825
912.633	6814
912.748	6719
912.862	6700
912.976	6612
913.09	6517
913.204	6585
913.318	6570
913.431	6616
913.545	6684
913.659	6677
913.772	6601
913.886	6582
914	6528
914.113	6559
914.226	6642
914.34	6559
914.453	6490
914.566	6570
914.68	6528
914.793	6517
914.906	6361
915.019	6372
915.132	6361
915.245	6429
915.358	6414
915.47	6353
915.583	6460
915.696	6502
915.809	6589
915.921	6551
916.034	6407
916.146	6399
916.259	6353
916.371	6486
916.483	6422
916.595	6369
916.708	6384
916.82	6376
916.932	6376
917.044	6372
917.156	6410
917.268	6277
917.38	6380
917.491	6357
917.603	6327
917.715	6369
917.826	6426
917.938	6285
918.049	6213
918.161	6323
918.272	6460
918.384	6395
918.495	6308
918.606	6266
918.717	6209
918.828	6247
918.939	6304
919.05	6152
919.161	6194
919.272	6121
919.383	6144
919.494	6289
919.604	6422
919.715	6273
919.826	6190
919.936	6285
920.047	6311
920.157	6235
920.267	6399
920.378	6308
920.488	6308
920.598	6490
920.708	6521
920.818	6464
920.928	6395
921.038	6593
921.148	6513
921.258	6323
921.368	6258
921.477	6262
921.587	6171
921.697	6133
921.806	6140
921.916	6083
922.025	5946
922.134	5885
922.244	5912
922.353	5969
922.462	5840
922.571	5786
922.68	5680
922.789	5699
922.898	5691
923.007	5615
923.116	5680
923.224	5668
923.333	5665
923.442	5619
923.55	5539
923.659	5558
923.767	5592
923.876	5520
923.984	5604
924.092	5524
924.201	5577
924.309	5497
924.417	5516
924.525	5414
924.633	5501
924.741	6243
924.849	5387
924.956	5490
925.064	5357
925.172	5250
925.279	5311
925.387	5379
925.494	5383
925.602	5425
925.709	5376
925.816	5288
925.924	5349
926.031	5334
926.138	5311
926.245	5322
926.352	5197
926.459	5288
926.566	5349
926.673	5170
926.779	5140
926.886	5113
926.993	5041
927.099	5014
927.206	4946
927.312	4968
927.419	4968
927.525	4965
927.631	5018
927.737	4881
927.843	4824
927.95	4710
928.056	4831
928.162	4782
928.267	4843
928.373	5204
928.479	4843
928.585	4660
928.69	4733
928.796	4767
928.901	4694
929.007	4596
929.112	4653
929.218	4611
929.323	4599
929.428	4542
929.533	4634
929.638	4478
929.743	4508
929.848	4538
929.953	4504
930.058	4424
930.163	4344
930.267	4310
930.372	4383
930.477	4272
930.581	4432
930.685	4371
930.79	4299
930.894	4314
930.998	4196
931.103	4367
931.207	4105
931.311	4059
931.415	4036
931.519	3964
931.623	3937
