Data from glass_V78500241_2202.txt Node
Date: Wed Sep 01 19:29:45 CST 2021
User: usil
Spectrometer: V785-0024
Trigger mode: 0
Integration Time (sec): 4.000000E-1
Scans to average: 1
Nonlinearity correction enabled: false
Boxcar width: 0
Storing dark spectrum: false
XAxis mode: Wavelengths
Number of Pixels in Spectrum: 1024
>>>>>Begin Spectral Data<<<<<
801.071	3705
801.214	3747
801.356	3660
801.499	3774
801.641	3736
801.783	3789
801.926	3865
802.068	3800
802.211	3831
802.353	3968
802.496	3827
802.638	3842
802.78	3911
802.923	3915
803.065	3911
803.208	3861
803.35	3850
803.492	3896
803.635	3926
803.777	3781
803.919	3873
804.061	4128
804.204	3934
804.346	3949
804.488	3941
804.63	4032
804.773	3949
804.915	3956
805.057	4116
805.199	4032
805.341	4040
805.483	4112
805.626	4109
805.768	4090
805.91	4158
806.052	4192
806.194	4223
806.336	4375
806.478	4196
806.62	4192
806.762	4200
806.904	4242
807.046	4299
807.188	4227
807.33	4211
807.472	4227
807.614	4192
807.756	4276
807.898	4192
808.04	4200
808.182	4295
808.324	4306
808.465	4360
808.607	4440
808.749	4402
808.891	4459
809.033	4455
809.174	4383
809.316	4246
809.458	4257
809.6	4128
809.741	4116
809.883	4173
810.025	4211
810.166	4230
810.308	4207
810.45	4276
810.591	4246
810.733	4306
810.875	4512
811.016	4843
811.158	5113
811.299	5265
811.441	5246
811.582	5071
811.724	4721
811.865	4447
812.007	4436
812.148	4417
812.29	4459
812.431	4417
812.573	4447
812.714	4383
812.855	4394
812.997	4432
813.138	4485
813.279	4398
813.421	4394
813.562	4409
813.703	4306
813.845	4306
813.986	4219
814.127	4185
814.268	4257
814.41	4303
814.551	4276
814.692	4291
814.833	4272
814.974	4284
815.115	4299
815.256	4238
815.397	4234
815.539	4257
815.68	4185
815.821	4196
815.962	4329
816.103	4284
816.244	4257
816.385	4219
816.526	4261
816.666	4234
816.807	4086
816.948	4124
817.089	4166
817.23	4124
817.371	4059
817.512	4044
817.653	4059
817.793	3968
817.934	4059
818.075	4112
818.216	4097
818.356	4055
818.497	3979
818.638	3850
818.778	3930
818.919	3915
819.06	3857
819.2	3907
819.341	3816
819.481	3827
819.622	3884
819.762	3972
819.903	3949
820.043	3861
820.184	3835
820.324	3816
820.465	3854
820.605	3918
820.746	3838
820.886	3808
821.026	3880
821.167	3918
821.307	3930
821.447	3991
821.588	3949
821.728	3926
821.868	3899
822.008	3854
822.149	3960
822.289	3941
822.429	3755
822.569	3751
822.709	3785
822.849	3671
822.99	3705
823.13	3728
823.27	3740
823.41	3690
823.55	3682
823.69	3747
823.83	3698
823.97	3694
824.11	3564
824.25	3610
824.389	3637
824.529	3667
824.669	3652
824.809	3682
824.949	3759
825.089	3709
825.228	3679
825.368	3587
825.508	3553
825.648	3542
825.787	3564
825.927	3606
826.067	3599
826.206	3656
826.346	3759
826.485	3793
826.625	3903
826.765	4010
826.904	3789
827.044	3580
827.183	3507
827.323	3447
827.462	3450
827.601	3412
827.741	3378
827.88	3477
828.02	3359
828.159	3428
828.298	3454
828.437	3553
828.577	3435
828.716	3625
828.855	3507
828.994	3382
829.134	3367
829.273	3374
829.412	3313
829.551	3325
829.69	3344
829.829	3431
829.968	3507
830.107	3420
830.246	3439
830.385	3359
830.524	3340
830.663	3268
830.802	3218
830.941	3199
831.08	3180
831.219	3256
831.357	3253
831.496	3382
831.635	3233
831.774	3184
831.913	3169
832.051	3157
832.19	3173
832.329	3203
832.467	3138
832.606	3089
832.744	3138
832.883	3169
833.022	3218
833.16	3249
833.299	3298
833.437	3329
833.576	3359
833.714	3389
833.852	3447
833.991	3462
834.129	3481
834.267	3382
834.406	3428
834.544	3431
834.682	3416
834.821	3416
834.959	3519
835.097	3409
835.235	3603
835.373	3481
835.511	3511
835.65	3439
835.788	3454
835.926	3401
836.064	3378
836.202	3370
836.34	3538
836.478	3618
836.615	3515
836.753	3618
836.891	3641
837.029	3538
837.167	3572
837.305	3557
837.443	3557
837.58	3500
837.718	3557
837.856	3519
837.993	3564
838.131	3587
838.269	3564
838.406	3603
838.544	3564
838.681	3481
838.819	3454
838.956	3344
839.094	3420
839.231	3473
839.369	3485
839.506	3751
839.643	3614
839.781	3488
839.918	3481
840.055	3523
840.193	3526
840.33	3496
840.467	3584
840.604	3580
840.742	3823
840.879	3561
841.016	3599
841.153	3618
841.29	3743
841.427	3743
841.564	3728
841.701	3736
841.838	3679
841.975	3698
842.112	3747
842.249	3633
842.385	3606
842.522	3804
842.659	3663
842.796	3648
842.933	3690
843.069	3682
843.206	3690
843.343	3800
843.479	3785
843.616	3816
843.752	3686
843.889	3633
844.025	3861
844.162	3717
844.298	3800
844.435	3766
844.571	3778
844.708	3896
844.844	3975
844.98	3975
845.117	4013
845.253	3972
845.389	3930
845.525	3937
845.661	3979
845.798	3922
845.934	4036
846.07	3941
846.206	4032
846.342	4124
846.478	4071
846.614	3983
846.75	3915
846.886	3899
847.022	4048
847.158	4010
847.294	3953
847.429	3987
847.565	4021
847.701	4234
847.837	3899
847.972	3865
848.108	3998
848.244	3979
848.379	3838
848.515	3800
848.65	3812
848.786	3842
848.921	3838
849.057	3892
849.192	3945
849.328	3869
849.463	3922
849.598	3876
849.734	3842
849.869	3819
850.004	3804
850.14	3770
850.275	3724
850.41	3675
850.545	3762
850.68	3819
850.815	3819
850.95	3770
851.085	3953
851.22	3884
851.355	3789
851.49	3793
851.625	3785
851.76	3770
851.895	3759
852.03	3740
852.165	3819
852.299	3854
852.434	3911
852.569	3808
852.703	3865
852.838	3956
852.973	3983
853.107	4025
853.242	3896
853.376	3838
853.511	3778
853.645	3838
853.78	3972
853.914	3854
854.048	3865
854.183	3892
854.317	3922
854.451	4048
854.585	3949
854.72	3937
854.854	4048
854.988	3945
855.122	3975
855.256	3899
855.39	4006
855.524	4101
855.658	4128
855.792	4109
855.926	4101
856.06	4162
856.194	4211
856.327	4124
856.461	4101
856.595	4128
856.729	4162
856.862	4276
856.996	4219
857.13	4299
857.263	4303
857.397	4337
857.53	4265
857.664	4341
857.797	4409
857.931	4417
858.064	4409
858.197	4447
858.331	4413
858.464	4360
858.597	4337
858.731	4424
858.864	4451
858.997	4451
859.13	4516
859.263	4558
859.396	4584
859.529	4538
859.662	4504
859.795	4493
859.928	4588
860.061	4698
860.194	4725
860.327	4656
860.46	4618
860.592	4687
860.725	4767
860.858	4752
860.99	4691
861.123	4694
861.256	4675
861.388	4790
861.521	5376
861.653	4702
861.786	4698
861.918	4729
862.05	4771
862.183	4843
862.315	4877
862.447	4972
862.58	4870
862.712	4809
862.844	4774
862.976	4896
863.108	4873
863.24	5159
863.372	4824
863.504	4896
863.636	4908
863.768	4949
863.9	4942
864.032	4904
864.164	4942
864.296	5033
864.428	5060
864.559	5052
864.691	5124
864.823	5151
864.954	5094
865.086	5121
865.217	5121
865.349	5083
865.48	5159
865.612	5185
865.743	5269
865.875	5170
866.006	5159
866.137	5246
866.269	5193
866.4	5250
866.531	5292
866.662	5197
866.793	5265
866.924	5265
867.055	5299
867.186	5368
867.317	5273
867.448	5261
867.579	5372
867.71	5376
867.841	5436
867.972	5471
868.103	5425
868.233	5490
868.364	5497
868.495	5520
868.625	5630
868.756	5718
868.886	5619
869.017	5767
869.147	5802
869.278	5901
869.408	5798
869.539	5863
869.669	5878
869.799	5874
869.929	5931
870.06	5992
870.19	6182
870.32	6159
870.45	6311
870.58	6296
870.71	6403
870.84	6464
870.97	6452
871.1	6452
871.23	6696
871.36	6665
871.489	6646
871.619	6745
871.749	6818
871.879	6833
872.008	6947
872.138	6977
872.267	7050
872.397	7012
872.526	6981
872.656	7015
872.785	7213
872.915	7373
873.044	7495
873.173	7472
873.303	7662
873.432	7746
873.561	7822
873.69	7856
873.819	8035
873.948	8161
874.077	8237
874.206	8362
874.335	8412
874.464	8667
874.593	8872
874.722	8937
874.851	9119
874.979	9218
875.108	9447
875.237	9348
875.365	9473
875.494	9656
875.623	9831
875.751	9819
875.88	9964
876.008	10120
876.136	10204
876.265	10588
876.393	10653
876.521	10710
876.65	10790
876.778	10908
876.906	10881
877.034	10991
877.162	11064
877.29	11162
877.418	11246
877.546	11341
877.674	11459
877.802	11417
877.93	11570
878.058	11535
878.185	11611
878.313	11691
878.441	11779
878.568	11695
878.696	11771
878.824	11855
878.951	11889
879.079	11996
879.206	12152
879.333	12106
879.461	11920
879.588	12072
879.715	12064
879.842	12167
879.97	12068
880.097	11798
880.224	11889
880.351	11912
880.478	11863
880.605	11847
880.732	11817
880.859	11961
880.986	11726
881.112	11817
881.239	11714
881.366	11623
881.493	11638
881.619	11547
881.746	11551
881.872	11539
881.999	11440
882.125	11505
882.252	11528
882.378	11505
882.505	11653
882.631	11376
882.757	11235
882.883	11376
883.01	11246
883.136	11269
883.262	11048
883.388	11045
883.514	11178
883.64	11143
883.766	11094
883.892	10995
884.018	10991
884.143	11071
884.269	11193
884.395	10911
884.52	10801
884.646	10790
884.772	10683
884.897	10641
885.023	10736
885.148	10778
885.274	10809
885.399	10637
885.524	10691
885.65	10558
885.775	10550
885.9	10569
886.025	10569
886.15	10546
886.275	10462
886.4	10322
886.525	10375
886.65	10371
886.775	10409
886.9	10424
887.025	10527
887.149	10348
887.274	10257
887.399	10200
887.523	10139
887.648	10116
887.773	10135
887.897	10280
888.021	10223
888.146	10090
888.27	10166
888.395	10280
888.519	10166
888.643	10188
888.767	10211
888.891	10044
889.015	10021
889.139	10002
889.263	9960
889.387	10124
889.511	10059
889.635	10078
889.759	9915
889.883	9975
890.006	9934
890.13	10101
890.254	9968
890.377	9941
890.501	9838
890.624	9865
890.748	9953
890.871	9781
890.995	9747
891.118	9720
891.241	9808
891.364	9713
891.488	9781
891.611	9694
891.734	9732
891.857	9781
891.98	9770
892.103	9648
892.226	9755
892.349	9656
892.471	9606
892.594	9625
892.717	9652
892.839	9618
892.962	9542
893.085	9656
893.207	9572
893.33	9496
893.452	9591
893.575	9580
893.697	9534
893.819	9625
893.941	9603
894.064	9637
894.186	9401
894.308	9363
894.43	9549
894.552	9568
894.674	9534
894.796	9424
894.918	9389
895.04	9313
895.161	9310
895.283	9340
895.405	9249
895.526	9302
895.648	9256
895.769	9169
895.891	9291
896.012	9226
896.134	9203
896.255	9127
896.376	9032
896.498	9165
896.619	9112
896.74	9108
896.861	9070
896.982	9279
897.103	9351
897.224	9058
897.345	9032
897.466	9005
897.587	9077
897.708	9127
897.828	9032
897.949	8960
898.07	8941
898.19	8914
898.311	9066
898.431	8975
898.552	8899
898.672	9005
898.792	8883
898.913	8948
899.033	8853
899.153	8800
899.273	8670
899.393	8708
899.513	8796
899.633	8746
899.753	8792
899.873	8670
899.993	8739
900.113	8769
900.232	8670
900.352	8610
900.472	8613
900.591	8533
900.711	8636
900.83	8533
900.95	8640
901.069	8705
901.189	8610
901.308	8423
901.427	8427
901.546	8476
901.665	8396
901.784	8480
901.904	8465
902.023	8263
902.141	8259
902.26	8187
902.379	8240
902.498	8210
902.617	8221
902.735	8286
902.854	8206
902.973	8244
903.091	8176
903.21	8142
903.328	8092
903.446	8100
903.565	8073
903.683	8043
903.801	8027
903.919	8138
904.038	8096
904.156	8084
904.274	8065
904.392	8031
904.51	7989
904.627	8069
904.745	8130
904.863	8077
904.981	7951
905.098	7913
905.216	7837
905.334	7917
905.451	7887
905.569	7841
905.686	7906
905.803	7868
905.921	7712
906.038	7849
906.155	7742
906.272	7628
906.389	7727
906.506	7704
906.623	7605
906.74	7624
906.857	7556
906.974	7521
907.091	7696
907.208	7715
907.324	7582
907.441	7529
907.557	7487
907.674	7457
907.79	7411
907.907	7381
908.023	7445
908.139	7422
908.256	7324
908.372	7373
908.488	7324
908.604	7228
908.72	7266
908.836	7266
908.952	7251
909.068	7244
909.184	7278
909.3	7305
909.415	7247
909.531	7270
909.647	7072
909.762	7091
909.878	7095
909.993	7141
910.108	7099
910.224	7065
910.339	7091
910.454	7042
910.57	6993
910.685	6947
910.8	7179
910.915	7099
911.03	7042
911.145	6894
911.259	6856
911.374	6875
911.489	6840
911.604	6821
911.718	6711
911.833	6760
911.947	6677
912.062	6654
912.176	6707
912.291	6703
912.405	6673
912.519	6833
912.633	6821
912.748	6692
912.862	6726
912.976	6642
913.09	6555
913.204	6608
913.318	6642
913.431	6673
913.545	6753
913.659	6635
913.772	6650
913.886	6589
914	6570
914.113	6616
914.226	6635
914.34	6681
914.453	6528
914.566	6563
914.68	6532
914.793	6517
914.906	6426
915.019	6410
915.132	6376
915.245	6418
915.358	6422
915.47	6395
915.583	6437
915.696	6456
915.809	6513
915.921	6517
916.034	6395
916.146	6395
916.259	6361
916.371	6498
916.483	6429
916.595	6407
916.708	6380
916.82	6395
916.932	6369
917.044	6418
917.156	6372
917.268	6270
917.38	6296
917.491	6296
917.603	6311
917.715	6399
917.826	6376
917.938	6365
918.049	6254
918.161	6380
918.272	6346
918.384	6494
918.495	6353
918.606	6239
918.717	6228
918.828	6281
918.939	6235
919.05	6186
919.161	6254
919.272	6087
919.383	6140
919.494	6281
919.604	6410
919.715	6323
919.826	6201
919.936	6201
920.047	6331
920.157	6292
920.267	6418
920.378	6334
920.488	6292
920.598	6490
920.708	6555
920.818	6384
920.928	6441
921.038	6585
921.148	6578
921.258	6380
921.368	6277
921.477	6209
921.587	6182
921.697	6038
921.806	6163
921.916	6049
922.025	5969
922.134	5889
922.244	5866
922.353	5942
922.462	5878
922.571	5813
922.68	5726
922.789	5634
922.898	5741
923.007	5611
923.116	5710
923.224	5688
923.333	5653
923.442	5619
923.55	5554
923.659	5562
923.767	5562
923.876	5509
923.984	5611
924.092	5512
924.201	5547
924.309	5539
924.417	5520
924.525	5501
924.633	5516
924.741	6224
924.849	5372
924.956	5455
925.064	5303
925.172	5315
925.279	5284
925.387	5337
925.494	5307
925.602	5387
925.709	5357
925.816	5288
925.924	5311
926.031	5398
926.138	5360
926.245	5315
926.352	5216
926.459	5318
926.566	5284
926.673	5147
926.779	5166
926.886	5140
926.993	5014
927.099	4965
927.206	4968
927.312	4938
927.419	4991
927.525	4938
927.631	4980
927.737	4915
927.843	4820
927.95	4809
928.056	4820
928.162	4831
928.267	4847
928.373	5322
928.479	4828
928.585	4694
928.69	4725
928.796	4801
928.901	4675
929.007	4554
929.112	4641
929.218	4626
929.323	4588
929.428	4538
929.533	4618
929.638	4508
929.743	4519
929.848	4561
929.953	4478
930.058	4455
930.163	4287
930.267	4261
930.372	4421
930.477	4253
930.581	4470
930.685	4348
930.79	4287
930.894	4295
930.998	4238
931.103	4363
931.207	4093
931.311	4074
931.415	4063
931.519	3907
931.623	3922
