Data from glass_V78500241_20.txt Node
Date: Wed Sep 01 19:14:38 CST 2021
User: usil
Spectrometer: V785-0024
Trigger mode: 0
Integration Time (sec): 4.000000E-1
Scans to average: 1
Nonlinearity correction enabled: false
Boxcar width: 0
Storing dark spectrum: false
XAxis mode: Wavelengths
Number of Pixels in Spectrum: 1024
>>>>>Begin Spectral Data<<<<<
801.071	3797
801.214	3808
801.356	3709
801.499	3774
801.641	3747
801.783	3774
801.926	3899
802.068	3857
802.211	3831
802.353	3922
802.496	3831
802.638	3873
802.78	3892
802.923	3953
803.065	3907
803.208	3884
803.35	3876
803.492	3930
803.635	3926
803.777	3804
803.919	3918
804.061	4173
804.204	3983
804.346	3956
804.488	3934
804.63	4010
804.773	3953
804.915	4021
805.057	4188
805.199	4055
805.341	4147
805.483	4181
805.626	4150
805.768	4128
805.91	4253
806.052	4249
806.194	4238
806.336	4352
806.478	4261
806.62	4188
806.762	4185
806.904	4291
807.046	4310
807.188	4253
807.33	4158
807.472	4246
807.614	4234
807.756	4242
807.898	4227
808.04	4230
808.182	4348
808.324	4322
808.465	4375
808.607	4466
808.749	4481
808.891	4538
809.033	4508
809.174	4424
809.316	4329
809.458	4246
809.6	4147
809.741	4112
809.883	4131
810.025	4230
810.166	4192
810.308	4242
810.45	4284
810.591	4284
810.733	4318
810.875	4546
811.016	4835
811.158	5178
811.299	5307
811.441	5307
811.582	5064
811.724	4702
811.865	4474
812.007	4523
812.148	4432
812.29	4424
812.431	4447
812.573	4375
812.714	4421
812.855	4383
812.997	4455
813.138	4519
813.279	4440
813.421	4375
813.562	4466
813.703	4371
813.845	4360
813.986	4276
814.127	4257
814.268	4268
814.41	4322
814.551	4272
814.692	4356
814.833	4303
814.974	4329
815.115	4325
815.256	4284
815.397	4261
815.539	4272
815.68	4284
815.821	4257
815.962	4322
816.103	4303
816.244	4272
816.385	4272
816.526	4291
816.666	4265
816.807	4097
816.948	4173
817.089	4215
817.23	4124
817.371	4063
817.512	4074
817.653	4093
817.793	4071
817.934	4040
818.075	4143
818.216	4109
818.356	4116
818.497	4006
818.638	3915
818.778	3915
818.919	3899
819.06	3873
819.2	3934
819.341	3899
819.481	3816
819.622	3937
819.762	4040
819.903	3960
820.043	3857
820.184	3857
820.324	3831
820.465	3953
820.605	3880
820.746	3888
820.886	3808
821.026	3922
821.167	3922
821.307	3998
821.447	3968
821.588	4025
821.728	3964
821.868	3979
822.008	3899
822.149	3972
822.289	3930
822.429	3762
822.569	3778
822.709	3835
822.849	3740
822.99	3755
823.13	3762
823.27	3804
823.41	3740
823.55	3766
823.69	3736
823.83	3740
823.97	3732
824.11	3599
824.25	3614
824.389	3648
824.529	3690
824.669	3652
824.809	3747
824.949	3751
825.089	3747
825.228	3736
825.368	3595
825.508	3564
825.648	3610
825.787	3644
825.927	3614
826.067	3690
826.206	3682
826.346	3819
826.485	3888
826.625	3899
826.765	3987
826.904	3846
827.044	3561
827.183	3534
827.323	3492
827.462	3507
827.601	3458
827.741	3450
827.88	3469
828.02	3386
828.159	3435
828.298	3504
828.437	3530
828.577	3428
828.716	3660
828.855	3530
828.994	3370
829.134	3397
829.273	3382
829.412	3393
829.551	3389
829.69	3374
829.829	3435
829.968	3507
830.107	3431
830.246	3466
830.385	3393
830.524	3386
830.663	3332
830.802	3264
830.941	3222
831.08	3165
831.219	3272
831.357	3325
831.496	3405
831.635	3256
831.774	3184
831.913	3203
832.051	3150
832.19	3165
832.329	3214
832.467	3150
832.606	3112
832.744	3157
832.883	3203
833.022	3192
833.16	3249
833.299	3325
833.437	3355
833.576	3428
833.714	3409
833.852	3412
833.991	3492
834.129	3458
834.267	3424
834.406	3405
834.544	3435
834.682	3458
834.821	3420
834.959	3587
835.097	3424
835.235	3545
835.373	3469
835.511	3496
835.65	3500
835.788	3492
835.926	3409
836.064	3382
836.202	3416
836.34	3637
836.478	3618
836.615	3595
836.753	3584
836.891	3679
837.029	3656
837.167	3622
837.305	3576
837.443	3545
837.58	3492
837.718	3603
837.856	3568
837.993	3561
838.131	3603
838.269	3610
838.406	3595
838.544	3610
838.681	3466
838.819	3450
838.956	3416
839.094	3401
839.231	3469
839.369	3523
839.506	3793
839.643	3629
839.781	3469
839.918	3515
840.055	3534
840.193	3538
840.33	3504
840.467	3561
840.604	3625
840.742	3819
840.879	3599
841.016	3606
841.153	3656
841.29	3740
841.427	3720
841.564	3728
841.701	3755
841.838	3709
841.975	3701
842.112	3778
842.249	3644
842.385	3637
842.522	3876
842.659	3690
842.796	3690
842.933	3724
843.069	3747
843.206	3724
843.343	3812
843.479	3838
843.616	3812
843.752	3701
843.889	3736
844.025	3892
844.162	3736
844.298	3888
844.435	3812
844.571	3831
844.708	3922
844.844	4006
844.98	4017
845.117	3998
845.253	3930
845.389	3884
845.525	3991
845.661	3998
845.798	3968
845.934	4029
846.07	4032
846.206	4055
846.342	4154
846.478	4097
846.614	4017
846.75	3937
846.886	3934
847.022	4063
847.158	3975
847.294	3991
847.429	4051
847.565	4010
847.701	4272
847.837	3903
847.972	3850
848.108	3975
848.244	3987
848.379	3892
848.515	3876
848.65	3812
848.786	3854
848.921	3854
849.057	3953
849.192	3960
849.328	3922
849.463	3934
849.598	3892
849.734	3915
849.869	3861
850.004	3816
850.14	3827
850.275	3808
850.41	3759
850.545	3770
850.68	3842
850.815	3785
850.95	3819
851.085	3975
851.22	3911
851.355	3884
851.49	3781
851.625	3819
851.76	3808
851.895	3774
852.03	3740
852.165	3812
852.299	3819
852.434	3968
852.569	3903
852.703	3869
852.838	3987
852.973	3994
853.107	3998
853.242	3884
853.376	3869
853.511	3789
853.645	3850
853.78	3998
853.914	3911
854.048	3937
854.183	3911
854.317	3934
854.451	4112
854.585	4010
854.72	3945
854.854	4044
854.988	3983
855.122	4040
855.256	3903
855.39	4044
855.524	4147
855.658	4109
855.792	4059
855.926	4150
856.06	4200
856.194	4234
856.327	4166
856.461	4139
856.595	4192
856.729	4196
856.862	4303
856.996	4188
857.13	4329
857.263	4322
857.397	4440
857.53	4325
857.664	4325
857.797	4409
857.931	4424
858.064	4398
858.197	4478
858.331	4402
858.464	4428
858.597	4402
858.731	4455
858.864	4474
858.997	4443
859.13	4599
859.263	4512
859.396	4618
859.529	4546
859.662	4554
859.795	4565
859.928	4607
860.061	4733
860.194	4755
860.327	4683
860.46	4664
860.592	4725
860.725	4782
860.858	4793
860.99	4694
861.123	4733
861.256	4736
861.388	4797
861.521	5455
861.653	4752
861.786	4740
861.918	4774
862.05	4744
862.183	4889
862.315	4847
862.447	4949
862.58	4911
862.712	4805
862.844	4790
862.976	4923
863.108	4885
863.24	5239
863.372	4850
863.504	4877
863.636	4915
863.768	4991
863.9	4995
864.032	4965
864.164	4972
864.296	5045
864.428	5083
864.559	5067
864.691	5132
864.823	5151
864.954	5105
865.086	5151
865.217	5117
865.349	5136
865.48	5170
865.612	5201
865.743	5254
865.875	5242
866.006	5204
866.137	5223
866.269	5239
866.4	5239
866.531	5254
866.662	5227
866.793	5258
866.924	5337
867.055	5383
867.186	5391
867.317	5299
867.448	5341
867.579	5383
867.71	5395
867.841	5383
867.972	5532
868.103	5490
868.233	5444
868.364	5509
868.495	5589
868.625	5733
868.756	5813
868.886	5748
869.017	5729
869.147	5870
869.278	5923
869.408	5859
869.539	5817
869.669	5927
869.799	5916
869.929	5958
870.06	6015
870.19	6209
870.32	6175
870.45	6235
870.58	6346
870.71	6433
870.84	6464
870.97	6448
871.1	6456
871.23	6642
871.36	6722
871.489	6700
871.619	6772
871.749	6863
871.879	6920
872.008	6958
872.138	6958
872.267	7023
872.397	6973
872.526	7069
872.656	7103
872.785	7251
872.915	7373
873.044	7540
873.173	7609
873.303	7693
873.432	7765
873.561	7890
873.69	7894
873.819	8050
873.948	8214
874.077	8244
874.206	8400
874.335	8488
874.464	8648
874.593	8838
874.722	8960
874.851	9104
874.979	9298
875.108	9386
875.237	9424
875.365	9542
875.494	9644
875.623	9812
875.751	9819
875.88	10006
876.008	10204
876.136	10265
876.265	10542
876.393	10721
876.521	10687
876.65	10774
876.778	10873
876.906	10942
877.034	10965
877.162	11105
877.29	11079
877.418	11269
877.546	11429
877.674	11501
877.802	11486
877.93	11562
878.058	11562
878.185	11589
878.313	11691
878.441	11741
878.568	11684
878.696	11840
878.824	11828
878.951	11916
879.079	12019
879.206	12133
879.333	12110
879.461	12011
879.588	12091
879.715	12049
879.842	12213
879.97	12087
880.097	11859
880.224	11878
880.351	11950
880.478	11882
880.605	11851
880.732	11912
880.859	12026
880.986	11855
881.112	11901
881.239	11707
881.366	11646
881.493	11653
881.619	11539
881.746	11562
881.872	11528
881.999	11520
882.125	11589
882.252	11600
882.378	11558
882.505	11547
882.631	11391
882.757	11299
882.883	11421
883.01	11292
883.136	11223
883.262	11140
883.388	11132
883.514	11246
883.64	11299
883.766	11178
883.892	11006
884.018	11029
884.143	11083
884.269	11166
884.395	10854
884.52	10790
884.646	10752
884.772	10672
884.897	10615
885.023	10694
885.148	10710
885.274	10736
885.399	10645
885.524	10569
885.65	10588
885.775	10694
885.9	10603
886.025	10592
886.15	10611
886.275	10542
886.4	10386
886.525	10398
886.65	10421
886.775	10310
886.9	10516
887.025	10573
887.149	10382
887.274	10215
887.399	10207
887.523	10207
887.648	10135
887.773	10090
887.897	10257
888.021	10223
888.146	10162
888.27	10284
888.395	10166
888.519	10246
888.643	10234
888.767	10234
888.891	10116
889.015	10044
889.139	10185
889.263	9964
889.387	10025
889.511	10139
889.635	10067
889.759	9953
889.883	10010
890.006	10063
890.13	10074
890.254	9915
890.377	9953
890.501	9857
890.624	9911
890.748	9895
890.871	9816
890.995	9873
891.118	9827
891.241	9819
891.364	9804
891.488	9835
891.611	9675
891.734	9785
891.857	9819
891.98	9736
892.103	9819
892.226	9770
892.349	9724
892.471	9469
892.594	9496
892.717	9595
892.839	9511
892.962	9625
893.085	9614
893.207	9614
893.33	9485
893.452	9545
893.575	9599
893.697	9557
893.819	9603
893.941	9625
894.064	9564
894.186	9435
894.308	9378
894.43	9576
894.552	9652
894.674	9534
894.796	9405
894.918	9363
895.04	9401
895.161	9405
895.283	9336
895.405	9222
895.526	9237
895.648	9268
895.769	9306
895.891	9226
896.012	9298
896.134	9218
896.255	9207
896.376	9184
896.498	9241
896.619	9169
896.74	9036
896.861	9077
896.982	9218
897.103	9313
897.224	9161
897.345	9051
897.466	9020
897.587	8971
897.708	9085
897.828	9039
897.949	8979
898.07	8880
898.19	9017
898.311	9001
898.431	8914
898.552	8971
898.672	8975
898.792	8956
898.913	8861
899.033	8864
899.153	8743
899.273	8693
899.393	8800
899.513	8834
899.633	8689
899.753	8800
899.873	8693
899.993	8781
900.113	8667
900.232	8739
900.352	8670
900.472	8552
900.591	8602
900.711	8598
900.83	8610
900.95	8705
901.069	8758
901.189	8568
901.308	8457
901.427	8336
901.546	8454
901.665	8511
901.784	8461
901.904	8412
902.023	8370
902.141	8176
902.26	8229
902.379	8282
902.498	8240
902.617	8267
902.735	8286
902.854	8256
902.973	8282
903.091	8199
903.21	8183
903.328	8195
903.446	8100
903.565	8134
903.683	8123
903.801	8008
903.919	8062
904.038	8126
904.156	7989
904.274	8092
904.392	8073
904.51	8001
904.627	8081
904.745	8096
904.863	8115
904.981	7978
905.098	7837
905.216	7875
905.334	7913
905.451	7917
905.569	7807
905.686	7986
905.803	7932
905.921	7841
906.038	7887
906.155	7803
906.272	7784
906.389	7708
906.506	7681
906.623	7666
906.74	7605
906.857	7578
906.974	7616
907.091	7727
907.208	7689
907.324	7677
907.441	7556
907.557	7537
907.674	7441
907.79	7445
907.907	7403
908.023	7438
908.139	7426
908.256	7365
908.372	7415
908.488	7377
908.604	7274
908.72	7251
908.836	7327
908.952	7259
909.068	7259
909.184	7362
909.3	7240
909.415	7274
909.531	7270
909.647	7149
909.762	7072
909.878	7072
909.993	7080
910.108	7164
910.224	7126
910.339	7099
910.454	7004
910.57	7046
910.685	6981
910.8	7179
910.915	7095
911.03	7038
911.145	6932
911.259	6848
911.374	6970
911.489	6829
911.604	6840
911.718	6722
911.833	6798
911.947	6654
912.062	6593
912.176	6719
912.291	6726
912.405	6707
912.519	6825
912.633	6833
912.748	6753
912.862	6684
912.976	6650
913.09	6540
913.204	6597
913.318	6589
913.431	6711
913.545	6707
913.659	6688
913.772	6684
913.886	6559
914	6555
914.113	6646
914.226	6654
914.34	6612
914.453	6570
914.566	6631
914.68	6574
914.793	6547
914.906	6403
915.019	6399
915.132	6418
915.245	6441
915.358	6467
915.47	6536
915.583	6475
915.696	6448
915.809	6483
915.921	6578
916.034	6467
916.146	6437
916.259	6426
916.371	6464
916.483	6494
916.595	6353
916.708	6429
916.82	6365
916.932	6365
917.044	6407
917.156	6475
917.268	6273
917.38	6327
917.491	6346
917.603	6361
917.715	6410
917.826	6445
917.938	6315
918.049	6254
918.161	6388
918.272	6429
918.384	6422
918.495	6346
918.606	6262
918.717	6194
918.828	6251
918.939	6289
919.05	6251
919.161	6247
919.272	6095
919.383	6205
919.494	6281
919.604	6369
919.715	6308
919.826	6247
919.936	6331
920.047	6399
920.157	6315
920.267	6403
920.378	6327
920.488	6304
920.598	6471
920.708	6623
920.818	6464
920.928	6475
921.038	6654
921.148	6589
921.258	6357
921.368	6300
921.477	6277
921.587	6201
921.697	6095
921.806	6136
921.916	6110
922.025	5980
922.134	5935
922.244	5920
922.353	5965
922.462	5885
922.571	5798
922.68	5699
922.789	5707
922.898	5695
923.007	5630
923.116	5688
923.224	5638
923.333	5680
923.442	5585
923.55	5562
923.659	5604
923.767	5627
923.876	5547
923.984	5638
924.092	5497
924.201	5570
924.309	5562
924.417	5570
924.525	5497
924.633	5547
924.741	6258
924.849	5433
924.956	5490
925.064	5391
925.172	5345
925.279	5345
925.387	5353
925.494	5387
925.602	5440
925.709	5337
925.816	5311
925.924	5307
926.031	5395
926.138	5379
926.245	5326
926.352	5208
926.459	5326
926.566	5318
926.673	5261
926.779	5117
926.886	5117
926.993	5098
927.099	4980
927.206	4972
927.312	4984
927.419	5052
927.525	5025
927.631	4972
927.737	4892
927.843	4908
927.95	4801
928.056	4805
928.162	4839
928.267	4900
928.373	5334
928.479	4824
928.585	4691
928.69	4816
928.796	4763
928.901	4691
929.007	4599
929.112	4653
929.218	4615
929.323	4668
929.428	4596
929.533	4714
929.638	4504
929.743	4580
929.848	4565
929.953	4550
930.058	4440
930.163	4360
930.267	4375
930.372	4413
930.477	4322
930.581	4504
930.685	4398
930.79	4276
930.894	4280
930.998	4227
931.103	4379
931.207	4128
931.311	4128
931.415	4048
931.519	3903
931.623	3953
