Data from glass_V78500241_2820.txt Node
Date: Wed Sep 01 19:34:02 CST 2021
User: usil
Spectrometer: V785-0024
Trigger mode: 0
Integration Time (sec): 4.000000E-1
Scans to average: 1
Nonlinearity correction enabled: false
Boxcar width: 0
Storing dark spectrum: false
XAxis mode: Wavelengths
Number of Pixels in Spectrum: 1024
>>>>>Begin Spectral Data<<<<<
801.071	3705
801.214	3698
801.356	3679
801.499	3728
801.641	3705
801.783	3762
801.926	3850
802.068	3831
802.211	3880
802.353	3861
802.496	3838
802.638	3842
802.78	3842
802.923	3850
803.065	3926
803.208	3842
803.35	3880
803.492	3892
803.635	3884
803.777	3755
803.919	3922
804.061	4147
804.204	3949
804.346	3956
804.488	3945
804.63	4010
804.773	3922
804.915	4040
805.057	4093
805.199	4048
805.341	4063
805.483	4101
805.626	4112
805.768	4120
805.91	4173
806.052	4219
806.194	4185
806.336	4344
806.478	4207
806.62	4173
806.762	4131
806.904	4219
807.046	4371
807.188	4154
807.33	4177
807.472	4177
807.614	4162
807.756	4219
807.898	4181
808.04	4196
808.182	4272
808.324	4284
808.465	4314
808.607	4440
808.749	4417
808.891	4436
809.033	4504
809.174	4356
809.316	4223
809.458	4227
809.6	4173
809.741	4116
809.883	4139
810.025	4196
810.166	4227
810.308	4207
810.45	4238
810.591	4230
810.733	4284
810.875	4531
811.016	4816
811.158	5128
811.299	5261
811.441	5277
811.582	5041
811.724	4698
811.865	4474
812.007	4436
812.148	4405
812.29	4421
812.431	4421
812.573	4367
812.714	4314
812.855	4379
812.997	4409
813.138	4455
813.279	4402
813.421	4341
813.562	4417
813.703	4310
813.845	4341
813.986	4249
814.127	4188
814.268	4223
814.41	4249
814.551	4253
814.692	4337
814.833	4265
814.974	4276
815.115	4356
815.256	4257
815.397	4177
815.539	4257
815.68	4196
815.821	4211
815.962	4299
816.103	4261
816.244	4173
816.385	4215
816.526	4268
816.666	4230
816.807	4120
816.948	4154
817.089	4154
817.23	4131
817.371	4040
817.512	4044
817.653	4040
817.793	4013
817.934	4006
818.075	4097
818.216	4097
818.356	4082
818.497	4025
818.638	3892
818.778	3880
818.919	3876
819.06	3827
819.2	3884
819.341	3800
819.481	3819
819.622	3892
819.762	4002
819.903	3930
820.043	3831
820.184	3800
820.324	3819
820.465	3865
820.605	3854
820.746	3831
820.886	3762
821.026	3884
821.167	3922
821.307	3937
821.447	3956
821.588	3937
821.728	3911
821.868	3888
822.008	3823
822.149	3899
822.289	3945
822.429	3755
822.569	3819
822.709	3766
822.849	3671
822.99	3694
823.13	3728
823.27	3789
823.41	3732
823.55	3694
823.69	3690
823.83	3728
823.97	3648
824.11	3591
824.25	3595
824.389	3614
824.529	3622
824.669	3580
824.809	3713
824.949	3751
825.089	3724
825.228	3660
825.368	3564
825.508	3515
825.648	3523
825.787	3606
825.927	3587
826.067	3591
826.206	3671
826.346	3759
826.485	3812
826.625	3831
826.765	3975
826.904	3816
827.044	3606
827.183	3553
827.323	3393
827.462	3466
827.601	3416
827.741	3386
827.88	3431
828.02	3374
828.159	3416
828.298	3409
828.437	3500
828.577	3447
828.716	3580
828.855	3500
828.994	3359
829.134	3363
829.273	3367
829.412	3359
829.551	3321
829.69	3340
829.829	3447
829.968	3519
830.107	3382
830.246	3450
830.385	3401
830.524	3363
830.663	3272
830.802	3241
830.941	3173
831.08	3192
831.219	3226
831.357	3218
831.496	3378
831.635	3233
831.774	3199
831.913	3211
832.051	3142
832.19	3161
832.329	3195
832.467	3116
832.606	3062
832.744	3192
832.883	3180
833.022	3173
833.16	3237
833.299	3302
833.437	3367
833.576	3382
833.714	3386
833.852	3405
833.991	3412
834.129	3431
834.267	3435
834.406	3367
834.544	3420
834.682	3416
834.821	3401
834.959	3530
835.097	3409
835.235	3523
835.373	3477
835.511	3462
835.65	3458
835.788	3428
835.926	3382
836.064	3351
836.202	3416
836.34	3538
836.478	3599
836.615	3500
836.753	3599
836.891	3618
837.029	3591
837.167	3542
837.305	3534
837.443	3500
837.58	3485
837.718	3587
837.856	3542
837.993	3507
838.131	3549
838.269	3542
838.406	3572
838.544	3561
838.681	3416
838.819	3439
838.956	3321
839.094	3340
839.231	3473
839.369	3496
839.506	3743
839.643	3633
839.781	3492
839.918	3435
840.055	3523
840.193	3504
840.33	3492
840.467	3580
840.604	3564
840.742	3816
840.879	3519
841.016	3511
841.153	3584
841.29	3747
841.427	3690
841.564	3663
841.701	3732
841.838	3705
841.975	3629
842.112	3652
842.249	3641
842.385	3618
842.522	3816
842.659	3660
842.796	3679
842.933	3717
843.069	3690
843.206	3713
843.343	3740
843.479	3778
843.616	3819
843.752	3644
843.889	3690
844.025	3827
844.162	3686
844.298	3831
844.435	3789
844.571	3804
844.708	3903
844.844	3956
844.98	4048
845.117	3987
845.253	3915
845.389	3880
845.525	3941
845.661	3953
845.798	3922
845.934	3998
846.07	3907
846.206	4013
846.342	4093
846.478	4021
846.614	3960
846.75	3945
846.886	3922
847.022	4021
847.158	3937
847.294	3953
847.429	4044
847.565	3979
847.701	4204
847.837	3846
847.972	3842
848.108	3953
848.244	3979
848.379	3869
848.515	3785
848.65	3823
848.786	3857
848.921	3846
849.057	3896
849.192	3945
849.328	3873
849.463	3903
849.598	3869
849.734	3888
849.869	3835
850.004	3762
850.14	3793
850.275	3770
850.41	3762
850.545	3740
850.68	3743
850.815	3797
850.95	3740
851.085	3941
851.22	3854
851.355	3778
851.49	3759
851.625	3770
851.76	3770
851.895	3728
852.03	3690
852.165	3778
852.299	3846
852.434	3880
852.569	3850
852.703	3873
852.838	3911
852.973	3994
853.107	3941
853.242	3903
853.376	3857
853.511	3740
853.645	3759
853.78	3968
853.914	3918
854.048	3892
854.183	3865
854.317	3972
854.451	4025
854.585	3979
854.72	3857
854.854	4036
854.988	3930
855.122	3972
855.256	3930
855.39	3994
855.524	4090
855.658	4063
855.792	4071
855.926	4116
856.06	4128
856.194	4215
856.327	4078
856.461	4090
856.595	4109
856.729	4101
856.862	4261
856.996	4242
857.13	4261
857.263	4344
857.397	4337
857.53	4238
857.664	4276
857.797	4383
857.931	4386
858.064	4325
858.197	4394
858.331	4390
858.464	4386
858.597	4310
858.731	4432
858.864	4413
858.997	4436
859.13	4504
859.263	4588
859.396	4550
859.529	4516
859.662	4550
859.795	4508
859.928	4565
860.061	4721
860.194	4714
860.327	4630
860.46	4672
860.592	4725
860.725	4771
860.858	4744
860.99	4694
861.123	4683
861.256	4679
861.388	4755
861.521	5254
861.653	4694
861.786	4706
861.918	4714
862.05	4812
862.183	4805
862.315	4850
862.447	4900
862.58	4896
862.712	4771
862.844	4744
862.976	4828
863.108	4858
863.24	5159
863.372	4816
863.504	4896
863.636	4900
863.768	4938
863.9	4953
864.032	4889
864.164	4934
864.296	5010
864.428	5075
864.559	5124
864.691	5105
864.823	5128
864.954	5037
865.086	5124
865.217	5102
865.349	5098
865.48	5151
865.612	5109
865.743	5235
865.875	5193
866.006	5151
866.137	5227
866.269	5193
866.4	5250
866.531	5204
866.662	5261
866.793	5265
866.924	5254
867.055	5303
867.186	5379
867.317	5299
867.448	5258
867.579	5341
867.71	5372
867.841	5364
867.972	5395
868.103	5452
868.233	5463
868.364	5440
868.495	5524
868.625	5653
868.756	5775
868.886	5676
869.017	5703
869.147	5870
869.278	5824
869.408	5790
869.539	5824
869.669	5923
869.799	5866
869.929	5996
870.06	5973
870.19	6197
870.32	6110
870.45	6273
870.58	6350
870.71	6410
870.84	6483
870.97	6403
871.1	6445
871.23	6639
871.36	6662
871.489	6639
871.619	6700
871.749	6787
871.879	6791
872.008	6958
872.138	6916
872.267	6962
872.397	6932
872.526	7034
872.656	7053
872.785	7145
872.915	7377
873.044	7476
873.173	7548
873.303	7624
873.432	7795
873.561	7841
873.69	7856
873.819	7967
873.948	8199
874.077	8237
874.206	8343
874.335	8419
874.464	8629
874.593	8838
874.722	8929
874.851	9077
874.979	9226
875.108	9378
875.237	9416
875.365	9439
875.494	9671
875.623	9781
875.751	9884
875.88	9937
876.008	10181
876.136	10272
876.265	10478
876.393	10630
876.521	10729
876.65	10790
876.778	10843
876.906	10976
877.034	10980
877.162	10987
877.29	11162
877.418	11242
877.546	11353
877.674	11436
877.802	11512
877.93	11482
878.058	11463
878.185	11543
878.313	11649
878.441	11653
878.568	11642
878.696	11790
878.824	11832
878.951	11946
879.079	11961
879.206	12110
879.333	11973
879.461	11965
879.588	12095
879.715	12167
879.842	12197
879.97	12079
880.097	11813
880.224	11771
880.351	11843
880.478	11931
880.605	11870
880.732	11840
880.859	11935
880.986	11821
881.112	11794
881.239	11684
881.366	11630
881.493	11676
881.619	11535
881.746	11512
881.872	11535
881.999	11482
882.125	11421
882.252	11474
882.378	11528
882.505	11478
882.631	11356
882.757	11326
882.883	11356
883.01	11254
883.136	11193
883.262	11140
883.388	11079
883.514	11280
883.64	11124
883.766	11064
883.892	10919
884.018	10965
884.143	11128
884.269	11117
884.395	10835
884.52	10793
884.646	10782
884.772	10721
884.897	10687
885.023	10740
885.148	10714
885.274	10664
885.399	10698
885.524	10603
885.65	10599
885.775	10603
885.9	10554
886.025	10569
886.15	10527
886.275	10402
886.4	10363
886.525	10382
886.65	10337
886.775	10344
886.9	10443
887.025	10531
887.149	10265
887.274	10242
887.399	10196
887.523	10105
887.648	10158
887.773	10093
887.897	10223
888.021	10211
888.146	10158
888.27	10158
888.395	10162
888.519	10181
888.643	10200
888.767	10204
888.891	10101
889.015	10021
889.139	9983
889.263	9930
889.387	10048
889.511	10059
889.635	10093
889.759	9934
889.883	9934
890.006	10090
890.13	10112
890.254	9899
890.377	9922
890.501	9880
890.624	9854
890.748	9819
890.871	9781
890.995	9759
891.118	9781
891.241	9717
891.364	9736
891.488	9846
891.611	9641
891.734	9740
891.857	9671
891.98	9656
892.103	9755
892.226	9732
892.349	9614
892.471	9526
892.594	9580
892.717	9526
892.839	9580
892.962	9610
893.085	9633
893.207	9580
893.33	9500
893.452	9466
893.575	9622
893.697	9435
893.819	9553
893.941	9625
894.064	9511
894.186	9454
894.308	9344
894.43	9504
894.552	9553
894.674	9523
894.796	9439
894.918	9355
895.04	9355
895.161	9393
895.283	9336
895.405	9192
895.526	9195
895.648	9218
895.769	9211
895.891	9268
896.012	9249
896.134	9241
896.255	9142
896.376	9077
896.498	9157
896.619	9070
896.74	9066
896.861	9104
896.982	9264
897.103	9272
897.224	9154
897.345	9089
897.466	8998
897.587	8948
897.708	9119
897.828	9074
897.949	8933
898.07	8876
898.19	8826
898.311	9089
898.431	8902
898.552	8849
898.672	8986
898.792	8956
898.913	8906
899.033	8785
899.153	8773
899.273	8621
899.393	8625
899.513	8689
899.633	8705
899.753	8727
899.873	8667
899.993	8720
900.113	8663
900.232	8659
900.352	8598
900.472	8587
900.591	8545
900.711	8644
900.83	8552
900.95	8617
901.069	8636
901.189	8518
901.308	8434
901.427	8423
901.546	8389
901.665	8442
901.784	8389
901.904	8385
902.023	8279
902.141	8282
902.26	8206
902.379	8237
902.498	8206
902.617	8221
902.735	8298
902.854	8275
902.973	8286
903.091	8191
903.21	8092
903.328	8153
903.446	8111
903.565	8031
903.683	8096
903.801	8027
903.919	8096
904.038	8077
904.156	8073
904.274	8176
904.392	8008
904.51	8027
904.627	7997
904.745	8039
904.863	8058
904.981	7879
905.098	7852
905.216	7879
905.334	7856
905.451	7849
905.569	7917
905.686	7970
905.803	7928
905.921	7788
906.038	7799
906.155	7761
906.272	7662
906.389	7674
906.506	7685
906.623	7590
906.74	7586
906.857	7597
906.974	7529
907.091	7666
907.208	7746
907.324	7590
907.441	7476
907.557	7388
907.674	7502
907.79	7407
907.907	7362
908.023	7403
908.139	7407
908.256	7373
908.372	7270
908.488	7331
908.604	7270
908.72	7270
908.836	7266
908.952	7297
909.068	7209
909.184	7266
909.3	7274
909.415	7259
909.531	7282
909.647	7160
909.762	7107
909.878	7095
909.993	7110
910.108	7095
910.224	7012
910.339	7069
910.454	7008
910.57	7008
910.685	6932
910.8	7129
910.915	7072
911.03	6981
911.145	6867
911.259	6878
911.374	6833
911.489	6825
911.604	6757
911.718	6696
911.833	6688
911.947	6669
912.062	6608
912.176	6662
912.291	6677
912.405	6650
912.519	6806
912.633	6852
912.748	6635
912.862	6677
912.976	6631
913.09	6494
913.204	6604
913.318	6650
913.431	6646
913.545	6597
913.659	6677
913.772	6642
913.886	6555
914	6635
914.113	6593
914.226	6650
914.34	6578
914.453	6479
914.566	6540
914.68	6452
914.793	6540
914.906	6372
915.019	6292
915.132	6323
915.245	6410
915.358	6441
915.47	6414
915.583	6460
915.696	6452
915.809	6502
915.921	6479
916.034	6414
916.146	6365
916.259	6350
916.371	6414
916.483	6448
916.595	6353
916.708	6395
916.82	6376
916.932	6372
917.044	6308
917.156	6437
917.268	6346
917.38	6319
917.491	6251
917.603	6296
917.715	6342
917.826	6452
917.938	6327
918.049	6216
918.161	6311
918.272	6410
918.384	6395
918.495	6285
918.606	6300
918.717	6224
918.828	6216
918.939	6270
919.05	6152
919.161	6251
919.272	6129
919.383	6106
919.494	6201
919.604	6422
919.715	6258
919.826	6155
919.936	6232
920.047	6369
920.157	6216
920.267	6464
920.378	6292
920.488	6258
920.598	6369
920.708	6494
920.818	6452
920.928	6486
921.038	6601
921.148	6536
921.258	6346
921.368	6273
921.477	6155
921.587	6152
921.697	6087
921.806	6148
921.916	6030
922.025	5958
922.134	5878
922.244	5889
922.353	5893
922.462	5836
922.571	5874
922.68	5695
922.789	5688
922.898	5672
923.007	5657
923.116	5703
923.224	5703
923.333	5646
923.442	5528
923.55	5551
923.659	5627
923.767	5642
923.876	5570
923.984	5596
924.092	5535
924.201	5532
924.309	5562
924.417	5551
924.525	5505
924.633	5444
924.741	6232
924.849	5379
924.956	5414
925.064	5318
925.172	5334
925.279	5284
925.387	5353
925.494	5296
925.602	5429
925.709	5326
925.816	5273
925.924	5284
926.031	5322
926.138	5311
926.245	5303
926.352	5185
926.459	5330
926.566	5296
926.673	5185
926.779	5193
926.886	5128
926.993	5048
927.099	4991
927.206	4896
927.312	4984
927.419	4984
927.525	4976
927.631	4995
927.737	4889
927.843	4866
927.95	4763
928.056	4820
928.162	4816
928.267	4816
928.373	5250
928.479	4866
928.585	4637
928.69	4725
928.796	4778
928.901	4687
929.007	4580
929.112	4664
929.218	4618
929.323	4615
929.428	4531
929.533	4672
929.638	4519
929.743	4516
929.848	4485
929.953	4500
930.058	4417
930.163	4306
930.267	4329
930.372	4466
930.477	4291
930.581	4390
930.685	4318
930.79	4246
930.894	4261
930.998	4246
931.103	4352
931.207	4131
931.311	4074
931.415	4071
931.519	3915
931.623	3937
