Data from glass_V78500241_1416.txt Node
Date: Wed Sep 01 19:24:18 CST 2021
User: usil
Spectrometer: V785-0024
Trigger mode: 0
Integration Time (sec): 4.000000E-1
Scans to average: 1
Nonlinearity correction enabled: false
Boxcar width: 0
Storing dark spectrum: false
XAxis mode: Wavelengths
Number of Pixels in Spectrum: 1024
>>>>>Begin Spectral Data<<<<<
801.071	3740
801.214	3743
801.356	3694
801.499	3694
801.641	3724
801.783	3747
801.926	3884
802.068	3869
802.211	3892
802.353	3876
802.496	3854
802.638	3907
802.78	3911
802.923	3911
803.065	3903
803.208	3835
803.35	3842
803.492	3892
803.635	3956
803.777	3778
803.919	3911
804.061	4101
804.204	3956
804.346	3987
804.488	3922
804.63	4017
804.773	3979
804.915	4029
805.057	4105
805.199	4067
805.341	4078
805.483	4135
805.626	4116
805.768	4120
805.91	4242
806.052	4223
806.194	4162
806.336	4360
806.478	4185
806.62	4173
806.762	4147
806.904	4249
807.046	4322
807.188	4211
807.33	4196
807.472	4253
807.614	4139
807.756	4306
807.898	4246
808.04	4211
808.182	4303
808.324	4360
808.465	4383
808.607	4443
808.749	4481
808.891	4466
809.033	4512
809.174	4421
809.316	4253
809.458	4238
809.6	4154
809.741	4147
809.883	4188
810.025	4200
810.166	4219
810.308	4249
810.45	4249
810.591	4215
810.733	4280
810.875	4481
811.016	4835
811.158	5124
811.299	5307
811.441	5246
811.582	5105
811.724	4702
811.865	4443
812.007	4432
812.148	4436
812.29	4367
812.431	4424
812.573	4417
812.714	4333
812.855	4409
812.997	4402
813.138	4519
813.279	4405
813.421	4344
813.562	4379
813.703	4344
813.845	4333
813.986	4257
814.127	4261
814.268	4246
814.41	4284
814.551	4276
814.692	4295
814.833	4276
814.974	4306
815.115	4318
815.256	4257
815.397	4265
815.539	4303
815.68	4192
815.821	4238
815.962	4314
816.103	4276
816.244	4215
816.385	4188
816.526	4246
816.666	4234
816.807	4112
816.948	4173
817.089	4150
817.23	4105
817.371	4051
817.512	4029
817.653	4082
817.793	4059
817.934	4040
818.075	4139
818.216	4044
818.356	4048
818.497	3964
818.638	3903
818.778	3888
818.919	3896
819.06	3850
819.2	3968
819.341	3899
819.481	3827
819.622	3869
819.762	4021
819.903	3934
820.043	3831
820.184	3819
820.324	3846
820.465	3861
820.605	3846
820.746	3842
820.886	3789
821.026	3937
821.167	3915
821.307	3991
821.447	3983
821.588	3956
821.728	3926
821.868	3899
822.008	3880
822.149	3953
822.289	3911
822.429	3793
822.569	3778
822.709	3819
822.849	3701
822.99	3705
823.13	3804
823.27	3797
823.41	3713
823.55	3709
823.69	3709
823.83	3766
823.97	3705
824.11	3622
824.25	3591
824.389	3656
824.529	3637
824.669	3652
824.809	3713
824.949	3740
825.089	3759
825.228	3724
825.368	3580
825.508	3568
825.648	3572
825.787	3580
825.927	3610
826.067	3644
826.206	3667
826.346	3781
826.485	3804
826.625	3865
826.765	3926
826.904	3804
827.044	3606
827.183	3549
827.323	3409
827.462	3504
827.601	3454
827.741	3420
827.88	3443
828.02	3325
828.159	3462
828.298	3488
828.437	3564
828.577	3447
828.716	3618
828.855	3485
828.994	3401
829.134	3378
829.273	3374
829.412	3355
829.551	3359
829.69	3401
829.829	3409
829.968	3542
830.107	3431
830.246	3409
830.385	3397
830.524	3332
830.663	3294
830.802	3230
830.941	3237
831.08	3176
831.219	3306
831.357	3287
831.496	3389
831.635	3230
831.774	3195
831.913	3203
832.051	3146
832.19	3169
832.329	3188
832.467	3173
832.606	3123
832.744	3165
832.883	3188
833.022	3176
833.16	3260
833.299	3313
833.437	3329
833.576	3382
833.714	3420
833.852	3409
833.991	3424
834.129	3462
834.267	3439
834.406	3401
834.544	3420
834.682	3454
834.821	3454
834.959	3591
835.097	3412
835.235	3519
835.373	3515
835.511	3504
835.65	3431
835.788	3454
835.926	3405
836.064	3370
836.202	3409
836.34	3572
836.478	3606
836.615	3515
836.753	3591
836.891	3641
837.029	3606
837.167	3603
837.305	3572
837.443	3526
837.58	3504
837.718	3603
837.856	3561
837.993	3576
838.131	3591
838.269	3625
838.406	3610
838.544	3584
838.681	3469
838.819	3450
838.956	3370
839.094	3386
839.231	3428
839.369	3500
839.506	3728
839.643	3622
839.781	3504
839.918	3462
840.055	3553
840.193	3526
840.33	3530
840.467	3538
840.604	3606
840.742	3804
840.879	3553
841.016	3542
841.153	3587
841.29	3774
841.427	3743
841.564	3728
841.701	3755
841.838	3663
841.975	3682
842.112	3713
842.249	3660
842.385	3629
842.522	3816
842.659	3720
842.796	3682
842.933	3686
843.069	3724
843.206	3732
843.343	3827
843.479	3774
843.616	3835
843.752	3625
843.889	3629
844.025	3876
844.162	3682
844.298	3835
844.435	3785
844.571	3800
844.708	3892
844.844	3998
844.98	3998
845.117	3983
845.253	3945
845.389	3876
845.525	3979
845.661	3956
845.798	3953
845.934	4006
846.07	3915
846.206	4029
846.342	4082
846.478	4055
846.614	4013
846.75	3922
846.886	3930
847.022	4036
847.158	3949
847.294	4013
847.429	4029
847.565	4044
847.701	4242
847.837	3880
847.972	3888
848.108	3968
848.244	3979
848.379	3907
848.515	3876
848.65	3823
848.786	3922
848.921	3831
849.057	3903
849.192	3918
849.328	3934
849.463	3956
849.598	3903
849.734	3831
849.869	3804
850.004	3778
850.14	3816
850.275	3793
850.41	3755
850.545	3793
850.68	3774
850.815	3755
850.95	3743
851.085	3941
851.22	3831
851.355	3869
851.49	3793
851.625	3800
851.76	3755
851.895	3766
852.03	3728
852.165	3793
852.299	3861
852.434	3941
852.569	3884
852.703	3838
852.838	3915
852.973	3960
853.107	4017
853.242	3899
853.376	3892
853.511	3732
853.645	3835
853.78	3972
853.914	3896
854.048	3880
854.183	3892
854.317	3953
854.451	4063
854.585	3964
854.72	3907
854.854	4086
854.988	3926
855.122	4010
855.256	3930
855.39	4013
855.524	4109
855.658	4124
855.792	4097
855.926	4166
856.06	4169
856.194	4200
856.327	4162
856.461	4169
856.595	4150
856.729	4147
856.862	4306
856.996	4223
857.13	4299
857.263	4280
857.397	4356
857.53	4325
857.664	4325
857.797	4402
857.931	4417
858.064	4417
858.197	4470
858.331	4375
858.464	4428
858.597	4360
858.731	4436
858.864	4421
858.997	4466
859.13	4546
859.263	4554
859.396	4588
859.529	4512
859.662	4565
859.795	4538
859.928	4592
860.061	4698
860.194	4721
860.327	4653
860.46	4630
860.592	4717
860.725	4763
860.858	4790
860.99	4698
861.123	4656
861.256	4702
861.388	4763
861.521	5296
861.653	4729
861.786	4725
861.918	4759
862.05	4740
862.183	4854
862.315	4889
862.447	4934
862.58	4911
862.712	4786
862.844	4778
862.976	4866
863.108	4885
863.24	5178
863.372	4862
863.504	4904
863.636	4953
863.768	4946
863.9	4915
864.032	4930
864.164	5029
864.296	5025
864.428	5079
864.559	5094
864.691	5098
864.823	5128
864.954	5124
865.086	5124
865.217	5128
865.349	5128
865.48	5216
865.612	5170
865.743	5273
865.875	5204
866.006	5155
866.137	5258
866.269	5280
866.4	5296
866.531	5258
866.662	5250
866.793	5250
866.924	5296
867.055	5360
867.186	5330
867.317	5318
867.448	5315
867.579	5372
867.71	5406
867.841	5368
867.972	5474
868.103	5463
868.233	5497
868.364	5551
868.495	5573
868.625	5638
868.756	5779
868.886	5668
869.017	5691
869.147	5893
869.278	5866
869.408	5779
869.539	5863
869.669	5965
869.799	5942
869.929	5980
870.06	6019
870.19	6159
870.32	6171
870.45	6251
870.58	6308
870.71	6426
870.84	6426
870.97	6418
871.1	6395
871.23	6658
871.36	6719
871.489	6582
871.619	6791
871.749	6791
871.879	6913
872.008	7004
872.138	6970
872.267	6928
872.397	6958
872.526	7034
872.656	7110
872.785	7190
872.915	7327
873.044	7464
873.173	7559
873.303	7624
873.432	7685
873.561	7879
873.69	7940
873.819	8073
873.948	8149
874.077	8252
874.206	8366
874.335	8419
874.464	8594
874.593	8819
874.722	8941
874.851	9085
874.979	9306
875.108	9340
875.237	9428
875.365	9431
875.494	9698
875.623	9842
875.751	9892
875.88	9998
876.008	10120
876.136	10310
876.265	10462
876.393	10759
876.521	10733
876.65	10824
876.778	10801
876.906	10911
877.034	11041
877.162	11090
877.29	11166
877.418	11277
877.546	11337
877.674	11433
877.802	11471
877.93	11543
878.058	11547
878.185	11505
878.313	11627
878.441	11714
878.568	11805
878.696	11771
878.824	11817
878.951	11904
879.079	12079
879.206	12182
879.333	12041
879.461	12007
879.588	11992
879.715	12102
879.842	12178
879.97	12011
880.097	11885
880.224	11942
880.351	11855
880.478	11916
880.605	11859
880.732	11874
880.859	12045
880.986	11901
881.112	11832
881.239	11745
881.366	11726
881.493	11688
881.619	11528
881.746	11653
881.872	11562
881.999	11425
882.125	11410
882.252	11474
882.378	11570
882.505	11558
882.631	11368
882.757	11269
882.883	11288
883.01	11231
883.136	11159
883.262	11147
883.388	11086
883.514	11140
883.64	11193
883.766	11147
883.892	10934
884.018	11025
884.143	11029
884.269	11064
884.395	10759
884.52	10763
884.646	10767
884.772	10736
884.897	10653
885.023	10725
885.148	10771
885.274	10771
885.399	10702
885.524	10618
885.65	10565
885.775	10706
885.9	10512
886.025	10645
886.15	10527
886.275	10493
886.4	10436
886.525	10382
886.65	10333
886.775	10253
886.9	10436
887.025	10447
887.149	10367
887.274	10196
887.399	10196
887.523	10185
887.648	10166
887.773	10101
887.897	10230
888.021	10291
888.146	10116
888.27	10196
888.395	10200
888.519	10230
888.643	10200
888.767	10150
888.891	10093
889.015	10010
889.139	10078
889.263	10021
889.387	10021
889.511	10147
889.635	10029
889.759	10025
889.883	10006
890.006	10109
890.13	10032
890.254	9987
890.377	9937
890.501	9831
890.624	9903
890.748	9903
890.871	9823
890.995	9827
891.118	9720
891.241	9774
891.364	9736
891.488	9835
891.611	9633
891.734	9774
891.857	9751
891.98	9717
892.103	9759
892.226	9720
892.349	9690
892.471	9523
892.594	9534
892.717	9698
892.839	9584
892.962	9584
893.085	9698
893.207	9614
893.33	9519
893.452	9485
893.575	9652
893.697	9488
893.819	9652
893.941	9595
894.064	9587
894.186	9428
894.308	9367
894.43	9542
894.552	9614
894.674	9523
894.796	9370
894.918	9367
895.04	9397
895.161	9488
895.283	9329
895.405	9294
895.526	9370
895.648	9260
895.769	9256
895.891	9260
896.012	9283
896.134	9241
896.255	9192
896.376	9169
896.498	9207
896.619	9112
896.74	9085
896.861	9116
896.982	9237
897.103	9272
897.224	9135
897.345	9051
897.466	8960
897.587	9028
897.708	9112
897.828	9043
897.949	8979
898.07	8883
898.19	8868
898.311	8963
898.431	8914
898.552	8952
898.672	8967
898.792	8906
898.913	8891
899.033	8815
899.153	8716
899.273	8663
899.393	8727
899.513	8766
899.633	8735
899.753	8769
899.873	8788
899.993	8716
900.113	8758
900.232	8720
900.352	8663
900.472	8613
900.591	8564
900.711	8674
900.83	8598
900.95	8689
901.069	8651
901.189	8564
901.308	8400
901.427	8415
901.546	8393
901.665	8518
901.784	8442
901.904	8317
902.023	8313
902.141	8187
902.26	8202
902.379	8355
902.498	8229
902.617	8256
902.735	8309
902.854	8347
902.973	8294
903.091	8142
903.21	8096
903.328	8199
903.446	8153
903.565	8065
903.683	8081
903.801	8050
903.919	8164
904.038	8183
904.156	7982
904.274	8130
904.392	8005
904.51	8008
904.627	7978
904.745	8081
904.863	8115
904.981	7868
905.098	7841
905.216	7849
905.334	7970
905.451	7928
905.569	7871
905.686	7932
905.803	7951
905.921	7780
906.038	7822
906.155	7772
906.272	7738
906.389	7712
906.506	7594
906.623	7632
906.74	7636
906.857	7571
906.974	7559
907.091	7700
907.208	7769
907.324	7624
907.441	7578
907.557	7514
907.674	7415
907.79	7430
907.907	7346
908.023	7434
908.139	7449
908.256	7407
908.372	7365
908.488	7316
908.604	7301
908.72	7274
908.836	7183
908.952	7259
909.068	7190
909.184	7297
909.3	7240
909.415	7278
909.531	7266
909.647	7080
909.762	7095
909.878	7091
909.993	7099
910.108	7107
910.224	7050
910.339	7179
910.454	7095
910.57	6985
910.685	6916
910.8	7072
910.915	7034
911.03	7042
911.145	6958
911.259	6909
911.374	6882
911.489	6852
911.604	6818
911.718	6753
911.833	6795
911.947	6627
912.062	6578
912.176	6707
912.291	6795
912.405	6745
912.519	6852
912.633	6772
912.748	6715
912.862	6707
912.976	6589
913.09	6475
913.204	6574
913.318	6597
913.431	6650
913.545	6734
913.659	6757
913.772	6642
913.886	6570
914	6566
914.113	6620
914.226	6612
914.34	6646
914.453	6471
914.566	6627
914.68	6464
914.793	6521
914.906	6494
915.019	6399
915.132	6380
915.245	6418
915.358	6506
915.47	6448
915.583	6456
915.696	6498
915.809	6502
915.921	6544
916.034	6418
916.146	6380
916.259	6380
916.371	6433
916.483	6464
916.595	6350
916.708	6448
916.82	6391
916.932	6422
917.044	6380
917.156	6391
917.268	6273
917.38	6311
917.491	6369
917.603	6353
917.715	6403
917.826	6391
917.938	6296
918.049	6277
918.161	6315
918.272	6391
918.384	6475
918.495	6323
918.606	6220
918.717	6273
918.828	6270
918.939	6296
919.05	6186
919.161	6220
919.272	6178
919.383	6140
919.494	6300
919.604	6407
919.715	6266
919.826	6224
919.936	6247
920.047	6285
920.157	6262
920.267	6410
920.378	6369
920.488	6232
920.598	6399
920.708	6555
920.818	6483
920.928	6456
921.038	6616
921.148	6536
921.258	6384
921.368	6281
921.477	6186
921.587	6205
921.697	6102
921.806	6152
921.916	6049
922.025	5942
922.134	5916
922.244	5904
922.353	5897
922.462	5863
922.571	5760
922.68	5741
922.789	5684
922.898	5733
923.007	5665
923.116	5748
923.224	5699
923.333	5638
923.442	5581
923.55	5570
923.659	5608
923.767	5623
923.876	5532
923.984	5589
924.092	5528
924.201	5554
924.309	5520
924.417	5554
924.525	5471
924.633	5509
924.741	6125
924.849	5406
924.956	5520
925.064	5349
925.172	5334
925.279	5288
925.387	5379
925.494	5349
925.602	5429
925.709	5357
925.816	5288
925.924	5334
926.031	5341
926.138	5303
926.245	5349
926.352	5246
926.459	5299
926.566	5292
926.673	5265
926.779	5132
926.886	5102
926.993	5064
927.099	5045
927.206	4991
927.312	5003
927.419	5010
927.525	5025
927.631	4972
927.737	4896
927.843	4858
927.95	4759
928.056	4824
928.162	4850
928.267	4812
928.373	5242
928.479	4915
928.585	4641
928.69	4778
928.796	4801
928.901	4702
929.007	4584
929.112	4664
929.218	4607
929.323	4637
929.428	4561
929.533	4672
929.638	4523
929.743	4561
929.848	4558
929.953	4561
930.058	4432
930.163	4379
930.267	4325
930.372	4447
930.477	4295
930.581	4462
930.685	4363
930.79	4227
930.894	4265
930.998	4227
931.103	4348
931.207	4143
931.311	4071
931.415	4006
931.519	3949
931.623	3899
