Data from glass_V78500241_382.txt Node
Date: Wed Sep 01 19:17:08 CST 2021
User: usil
Spectrometer: V785-0024
Trigger mode: 0
Integration Time (sec): 4.000000E-1
Scans to average: 1
Nonlinearity correction enabled: false
Boxcar width: 0
Storing dark spectrum: false
XAxis mode: Wavelengths
Number of Pixels in Spectrum: 1024
>>>>>Begin Spectral Data<<<<<
801.071	3755
801.214	3747
801.356	3717
801.499	3755
801.641	3743
801.783	3774
801.926	3842
802.068	3884
802.211	3869
802.353	3880
802.496	3846
802.638	3918
802.78	3911
802.923	3926
803.065	3934
803.208	3880
803.35	3903
803.492	3865
803.635	3903
803.777	3831
803.919	3896
804.061	4169
804.204	4006
804.346	4002
804.488	3956
804.63	4017
804.773	3987
804.915	4040
805.057	4162
805.199	4063
805.341	4090
805.483	4173
805.626	4188
805.768	4143
805.91	4211
806.052	4230
806.194	4249
806.336	4360
806.478	4211
806.62	4200
806.762	4177
806.904	4295
807.046	4352
807.188	4204
807.33	4227
807.472	4268
807.614	4207
807.756	4295
807.898	4272
808.04	4219
808.182	4295
808.324	4363
808.465	4375
808.607	4459
808.749	4504
808.891	4462
809.033	4497
809.174	4394
809.316	4310
809.458	4272
809.6	4124
809.741	4185
809.883	4181
810.025	4234
810.166	4261
810.308	4230
810.45	4299
810.591	4276
810.733	4314
810.875	4523
811.016	4858
811.158	5086
811.299	5261
811.441	5265
811.582	5041
811.724	4740
811.865	4497
812.007	4493
812.148	4527
812.29	4462
812.431	4405
812.573	4398
812.714	4390
812.855	4443
812.997	4462
813.138	4508
813.279	4443
813.421	4394
813.562	4421
813.703	4360
813.845	4367
813.986	4310
814.127	4276
814.268	4265
814.41	4333
814.551	4249
814.692	4314
814.833	4287
814.974	4318
815.115	4348
815.256	4295
815.397	4215
815.539	4261
815.68	4215
815.821	4227
815.962	4360
816.103	4234
816.244	4253
816.385	4238
816.526	4306
816.666	4177
816.807	4090
816.948	4166
817.089	4215
817.23	4135
817.371	4044
817.512	4055
817.653	4101
817.793	4051
817.934	4074
818.075	4139
818.216	4093
818.356	4093
818.497	4036
818.638	3972
818.778	3934
818.919	3930
819.06	3907
819.2	3930
819.341	3884
819.481	3838
819.622	3907
819.762	4055
819.903	3975
820.043	3865
820.184	3850
820.324	3846
820.465	3934
820.605	3865
820.746	3876
820.886	3800
821.026	3937
821.167	3911
821.307	3979
821.447	3998
821.588	3949
821.728	3922
821.868	3991
822.008	3865
822.149	3934
822.289	3972
822.429	3819
822.569	3789
822.709	3831
822.849	3709
822.99	3751
823.13	3759
823.27	3819
823.41	3728
823.55	3740
823.69	3751
823.83	3720
823.97	3690
824.11	3625
824.25	3644
824.389	3682
824.529	3679
824.669	3660
824.809	3663
824.949	3781
825.089	3720
825.228	3690
825.368	3633
825.508	3576
825.648	3587
825.787	3618
825.927	3629
826.067	3660
826.206	3637
826.346	3797
826.485	3869
826.625	3892
826.765	3930
826.904	3804
827.044	3652
827.183	3549
827.323	3443
827.462	3526
827.601	3431
827.741	3454
827.88	3477
828.02	3401
828.159	3458
828.298	3469
828.437	3545
828.577	3511
828.716	3660
828.855	3458
828.994	3397
829.134	3389
829.273	3397
829.412	3344
829.551	3351
829.69	3420
829.829	3447
829.968	3538
830.107	3477
830.246	3485
830.385	3382
830.524	3382
830.663	3291
830.802	3245
830.941	3214
831.08	3195
831.219	3302
831.357	3279
831.496	3374
831.635	3214
831.774	3207
831.913	3245
832.051	3131
832.19	3146
832.329	3199
832.467	3150
832.606	3097
832.744	3214
832.883	3169
833.022	3222
833.16	3294
833.299	3321
833.437	3348
833.576	3397
833.714	3378
833.852	3412
833.991	3466
834.129	3530
834.267	3466
834.406	3382
834.544	3439
834.682	3435
834.821	3412
834.959	3618
835.097	3450
835.235	3561
835.373	3504
835.511	3530
835.65	3435
835.788	3519
835.926	3409
836.064	3386
836.202	3378
836.34	3606
836.478	3603
836.615	3572
836.753	3595
836.891	3663
837.029	3618
837.167	3595
837.305	3557
837.443	3549
837.58	3504
837.718	3625
837.856	3584
837.993	3542
838.131	3564
838.269	3599
838.406	3610
838.544	3580
838.681	3488
838.819	3492
838.956	3397
839.094	3389
839.231	3469
839.369	3538
839.506	3781
839.643	3675
839.781	3526
839.918	3462
840.055	3557
840.193	3553
840.33	3549
840.467	3568
840.604	3599
840.742	3819
840.879	3530
841.016	3545
841.153	3603
841.29	3732
841.427	3701
841.564	3717
841.701	3774
841.838	3713
841.975	3701
842.112	3724
842.249	3625
842.385	3648
842.522	3861
842.659	3694
842.796	3705
842.933	3743
843.069	3728
843.206	3728
843.343	3850
843.479	3743
843.616	3857
843.752	3675
843.889	3705
844.025	3846
844.162	3717
844.298	3816
844.435	3808
844.571	3816
844.708	3922
844.844	3979
844.98	4013
845.117	4006
845.253	3922
845.389	3934
845.525	3991
845.661	4029
845.798	3937
845.934	3979
846.07	3975
846.206	4090
846.342	4128
846.478	4059
846.614	4010
846.75	3937
846.886	3922
847.022	4048
847.158	4029
847.294	4055
847.429	4067
847.565	4013
847.701	4234
847.837	3915
847.972	3903
848.108	3987
848.244	4013
848.379	3903
848.515	3808
848.65	3835
848.786	3846
848.921	3857
849.057	3960
849.192	3949
849.328	3907
849.463	3937
849.598	3884
849.734	3873
849.869	3842
850.004	3800
850.14	3838
850.275	3831
850.41	3770
850.545	3774
850.68	3800
850.815	3774
850.95	3857
851.085	3918
851.22	3857
851.355	3819
851.49	3800
851.625	3762
851.76	3831
851.895	3770
852.03	3717
852.165	3770
852.299	3842
852.434	3880
852.569	3880
852.703	3896
852.838	3964
852.973	4036
853.107	4002
853.242	3869
853.376	3865
853.511	3789
853.645	3854
853.78	3975
853.914	3922
854.048	3945
854.183	3903
854.317	3979
854.451	4090
854.585	3968
854.72	3991
854.854	4048
854.988	3934
855.122	4078
855.256	3975
855.39	4044
855.524	4147
855.658	4086
855.792	4139
855.926	4154
856.06	4150
856.194	4196
856.327	4169
856.461	4143
856.595	4177
856.729	4249
856.862	4257
856.996	4265
857.13	4310
857.263	4337
857.397	4390
857.53	4276
857.664	4337
857.797	4390
857.931	4413
858.064	4436
858.197	4432
858.331	4432
858.464	4402
858.597	4386
858.731	4409
858.864	4489
858.997	4447
859.13	4519
859.263	4531
859.396	4630
859.529	4527
859.662	4538
859.795	4523
859.928	4611
860.061	4717
860.194	4759
860.327	4641
860.46	4668
860.592	4771
860.725	4824
860.858	4790
860.99	4691
861.123	4744
861.256	4687
861.388	4835
861.521	5315
861.653	4759
861.786	4733
861.918	4774
862.05	4835
862.183	4839
862.315	4889
862.447	4892
862.58	4839
862.712	4763
862.844	4733
862.976	4862
863.108	4889
863.24	5337
863.372	4816
863.504	4885
863.636	4904
863.768	4968
863.9	4968
864.032	4938
864.164	4984
864.296	5018
864.428	5143
864.559	5109
864.691	5124
864.823	5136
864.954	5170
865.086	5132
865.217	5098
865.349	5113
865.48	5155
865.612	5265
865.743	5296
865.875	5197
866.006	5189
866.137	5239
866.269	5212
866.4	5220
866.531	5216
866.662	5258
866.793	5277
866.924	5360
867.055	5318
867.186	5345
867.317	5391
867.448	5292
867.579	5345
867.71	5383
867.841	5387
867.972	5444
868.103	5486
868.233	5509
868.364	5532
868.495	5535
868.625	5691
868.756	5874
868.886	5653
869.017	5775
869.147	5882
869.278	5931
869.408	5847
869.539	5859
869.669	5984
869.799	5931
869.929	5992
870.06	5996
870.19	6213
870.32	6205
870.45	6262
870.58	6357
870.71	6399
870.84	6509
870.97	6426
871.1	6490
871.23	6642
871.36	6738
871.489	6677
871.619	6768
871.749	6768
871.879	6897
872.008	6993
872.138	6996
872.267	7061
872.397	7050
872.526	6981
872.656	7080
872.785	7194
872.915	7407
873.044	7575
873.173	7590
873.303	7647
873.432	7769
873.561	7936
873.69	7947
873.819	8046
873.948	8153
874.077	8279
874.206	8309
874.335	8461
874.464	8693
874.593	8887
874.722	8910
874.851	9146
874.979	9268
875.108	9355
875.237	9428
875.365	9428
875.494	9629
875.623	9804
875.751	9861
875.88	9975
876.008	10150
876.136	10261
876.265	10497
876.393	10721
876.521	10683
876.65	10850
876.778	10896
876.906	10938
877.034	10976
877.162	11132
877.29	11261
877.418	11349
877.546	11364
877.674	11463
877.802	11532
877.93	11493
878.058	11592
878.185	11585
878.313	11649
878.441	11790
878.568	11745
878.696	11794
878.824	11889
878.951	11996
879.079	11999
879.206	12121
879.333	12083
879.461	12041
879.588	12060
879.715	12015
879.842	12285
879.97	12034
880.097	11805
880.224	11790
880.351	11901
880.478	12022
880.605	11802
880.732	11824
880.859	12026
880.986	11805
881.112	11847
881.239	11790
881.366	11642
881.493	11707
881.619	11547
881.746	11649
881.872	11630
881.999	11509
882.125	11501
882.252	11512
882.378	11493
882.505	11543
882.631	11322
882.757	11273
882.883	11379
883.01	11356
883.136	11151
883.262	11094
883.388	11102
883.514	11216
883.64	11235
883.766	11117
883.892	10942
884.018	11018
884.143	11105
884.269	11067
884.395	10843
884.52	10831
884.646	10790
884.772	10637
884.897	10649
885.023	10668
885.148	10725
885.274	10809
885.399	10660
885.524	10596
885.65	10500
885.775	10554
885.9	10470
886.025	10592
886.15	10546
886.275	10424
886.4	10440
886.525	10478
886.65	10348
886.775	10348
886.9	10489
887.025	10577
887.149	10409
887.274	10310
887.399	10135
887.523	10234
887.648	10200
887.773	10147
887.897	10227
888.021	10287
888.146	10139
888.27	10265
888.395	10291
888.519	10143
888.643	10192
888.767	10272
888.891	10116
889.015	10021
889.139	10082
889.263	9960
889.387	10067
889.511	10090
889.635	10109
889.759	9953
889.883	9975
890.006	9994
890.13	10078
890.254	10025
890.377	9979
890.501	9831
890.624	9991
890.748	9915
890.871	9819
890.995	9812
891.118	9660
891.241	9797
891.364	9789
891.488	9865
891.611	9705
891.734	9770
891.857	9835
891.98	9762
892.103	9823
892.226	9751
892.349	9622
892.471	9511
892.594	9553
892.717	9686
892.839	9553
892.962	9656
893.085	9599
893.207	9644
893.33	9553
893.452	9530
893.575	9530
893.697	9428
893.819	9587
893.941	9686
894.064	9564
894.186	9462
894.308	9473
894.43	9500
894.552	9637
894.674	9580
894.796	9325
894.918	9405
895.04	9344
895.161	9348
895.283	9313
895.405	9291
895.526	9344
895.648	9279
895.769	9256
895.891	9253
896.012	9268
896.134	9264
896.255	9157
896.376	9173
896.498	9173
896.619	9165
896.74	9119
896.861	9055
896.982	9237
897.103	9386
897.224	9176
897.345	9089
897.466	9028
897.587	9028
897.708	9062
897.828	9047
897.949	8963
898.07	8887
898.19	8941
898.311	9062
898.431	8941
898.552	8944
898.672	8990
898.792	8952
898.913	8933
899.033	8887
899.153	8762
899.273	8659
899.393	8716
899.513	8746
899.633	8762
899.753	8777
899.873	8693
899.993	8739
900.113	8659
900.232	8693
900.352	8697
900.472	8606
900.591	8507
900.711	8617
900.83	8659
900.95	8674
901.069	8739
901.189	8564
901.308	8484
901.427	8389
901.546	8404
901.665	8503
901.784	8511
901.904	8400
902.023	8290
902.141	8317
902.26	8206
902.379	8339
902.498	8244
902.617	8237
902.735	8298
902.854	8336
902.973	8210
903.091	8103
903.21	8081
903.328	8103
903.446	8202
903.565	8130
903.683	8103
903.801	8077
903.919	8153
904.038	8138
904.156	8012
904.274	8100
904.392	8016
904.51	8012
904.627	8016
904.745	8077
904.863	8016
904.981	7951
905.098	7856
905.216	7959
905.334	7902
905.451	7936
905.569	7909
905.686	7951
905.803	7944
905.921	7868
906.038	7909
906.155	7792
906.272	7757
906.389	7761
906.506	7651
906.623	7620
906.74	7609
906.857	7571
906.974	7636
907.091	7658
907.208	7765
907.324	7689
907.441	7590
907.557	7464
907.674	7480
907.79	7407
907.907	7350
908.023	7403
908.139	7457
908.256	7411
908.372	7350
908.488	7381
908.604	7251
908.72	7251
908.836	7339
908.952	7232
909.068	7297
909.184	7362
909.3	7270
909.415	7308
909.531	7297
909.647	7095
909.762	7179
909.878	7050
909.993	7164
910.108	7084
910.224	7122
910.339	7149
910.454	7050
910.57	7004
910.685	6951
910.8	7217
910.915	7160
911.03	7023
911.145	6962
911.259	6905
911.374	6939
911.489	6818
911.604	6821
911.718	6665
911.833	6722
911.947	6700
912.062	6604
912.176	6696
912.291	6719
912.405	6719
912.519	6818
912.633	6825
912.748	6764
912.862	6703
912.976	6616
913.09	6521
913.204	6627
913.318	6639
913.431	6730
913.545	6707
913.659	6741
913.772	6650
913.886	6547
914	6578
914.113	6563
914.226	6688
914.34	6608
914.453	6494
914.566	6627
914.68	6483
914.793	6566
914.906	6418
915.019	6464
915.132	6372
915.245	6471
915.358	6479
915.47	6452
915.583	6479
915.696	6540
915.809	6498
915.921	6582
916.034	6479
916.146	6403
916.259	6414
916.371	6498
916.483	6426
916.595	6414
916.708	6456
916.82	6369
916.932	6418
917.044	6422
917.156	6422
917.268	6277
917.38	6350
917.491	6331
917.603	6410
917.715	6361
917.826	6441
917.938	6338
918.049	6289
918.161	6281
918.272	6426
918.384	6460
918.495	6338
918.606	6243
918.717	6216
918.828	6270
918.939	6327
919.05	6239
919.161	6273
919.272	6106
919.383	6178
919.494	6319
919.604	6429
919.715	6296
919.826	6235
919.936	6266
920.047	6327
920.157	6258
920.267	6502
920.378	6365
920.488	6319
920.598	6429
920.708	6601
920.818	6494
920.928	6498
921.038	6608
921.148	6620
921.258	6346
921.368	6369
921.477	6194
921.587	6155
921.697	6117
921.806	6235
921.916	6155
922.025	5939
922.134	5920
922.244	5885
922.353	5977
922.462	5847
922.571	5844
922.68	5684
922.789	5668
922.898	5767
923.007	5600
923.116	5718
923.224	5653
923.333	5729
923.442	5608
923.55	5646
923.659	5646
923.767	5623
923.876	5592
923.984	5600
924.092	5520
924.201	5585
924.309	5558
924.417	5554
924.525	5490
924.633	5551
924.741	6235
924.849	5376
924.956	5543
925.064	5398
925.172	5292
925.279	5326
925.387	5349
925.494	5360
925.602	5429
925.709	5436
925.816	5303
925.924	5299
926.031	5379
926.138	5372
926.245	5349
926.352	5223
926.459	5269
926.566	5318
926.673	5220
926.779	5193
926.886	5083
926.993	5006
927.099	4972
927.206	5018
927.312	4923
927.419	4972
927.525	4995
927.631	4991
927.737	4915
927.843	4873
927.95	4774
928.056	4805
928.162	4900
928.267	4866
928.373	5258
928.479	4889
928.585	4698
928.69	4755
928.796	4850
928.901	4729
929.007	4626
929.112	4679
929.218	4630
929.323	4573
929.428	4641
929.533	4660
929.638	4561
929.743	4599
929.848	4565
929.953	4516
930.058	4504
930.163	4363
930.267	4371
930.372	4462
930.477	4375
930.581	4459
930.685	4322
930.79	4261
930.894	4306
930.998	4284
931.103	4383
931.207	4166
931.311	4112
931.415	4032
931.519	3945
931.623	3915
