Data from glass_V78500241_1749.txt Node
Date: Wed Sep 01 19:26:37 CST 2021
User: usil
Spectrometer: V785-0024
Trigger mode: 0
Integration Time (sec): 4.000000E-1
Scans to average: 1
Nonlinearity correction enabled: false
Boxcar width: 0
Storing dark spectrum: false
XAxis mode: Wavelengths
Number of Pixels in Spectrum: 1024
>>>>>Begin Spectral Data<<<<<
801.071	3698
801.214	3736
801.356	3698
801.499	3720
801.641	3720
801.783	3766
801.926	3892
802.068	3861
802.211	3865
802.353	3899
802.496	3842
802.638	3911
802.78	3880
802.923	3922
803.065	3873
803.208	3876
803.35	3835
803.492	3884
803.635	3915
803.777	3800
803.919	3896
804.061	4128
804.204	3949
804.346	3922
804.488	3899
804.63	4067
804.773	4013
804.915	4036
805.057	4124
805.199	4006
805.341	4074
805.483	4166
805.626	4082
805.768	4090
805.91	4215
806.052	4261
806.194	4185
806.336	4386
806.478	4207
806.62	4139
806.762	4158
806.904	4219
807.046	4360
807.188	4192
807.33	4158
807.472	4207
807.614	4181
807.756	4265
807.898	4246
808.04	4242
808.182	4322
808.324	4310
808.465	4367
808.607	4447
808.749	4455
808.891	4447
809.033	4462
809.174	4394
809.316	4276
809.458	4223
809.6	4135
809.741	4128
809.883	4097
810.025	4200
810.166	4192
810.308	4223
810.45	4261
810.591	4268
810.733	4242
810.875	4512
811.016	4847
811.158	5178
811.299	5261
811.441	5288
811.582	5075
811.724	4679
811.865	4481
812.007	4485
812.148	4409
812.29	4417
812.431	4394
812.573	4428
812.714	4402
812.855	4409
812.997	4344
813.138	4504
813.279	4413
813.421	4375
813.562	4360
813.703	4367
813.845	4344
813.986	4284
814.127	4261
814.268	4207
814.41	4230
814.551	4227
814.692	4322
814.833	4230
814.974	4329
815.115	4348
815.256	4257
815.397	4219
815.539	4219
815.68	4185
815.821	4192
815.962	4246
816.103	4303
816.244	4223
816.385	4227
816.526	4276
816.666	4219
816.807	4074
816.948	4188
817.089	4154
817.23	4116
817.371	4029
817.512	4044
817.653	4124
817.793	3998
817.934	4029
818.075	4135
818.216	4105
818.356	4105
818.497	4040
818.638	3873
818.778	3884
818.919	3869
819.06	3850
819.2	3975
819.341	3846
819.481	3854
819.622	3949
819.762	4032
819.903	3915
820.043	3827
820.184	3865
820.324	3869
820.465	3896
820.605	3854
820.746	3888
820.886	3808
821.026	3941
821.167	3892
821.307	3972
821.447	3968
821.588	3945
821.728	3945
821.868	3941
822.008	3835
822.149	3956
822.289	3934
822.429	3778
822.569	3770
822.709	3819
822.849	3713
822.99	3690
823.13	3740
823.27	3797
823.41	3728
823.55	3728
823.69	3701
823.83	3717
823.97	3667
824.11	3667
824.25	3603
824.389	3622
824.529	3652
824.669	3622
824.809	3705
824.949	3747
825.089	3755
825.228	3740
825.368	3599
825.508	3561
825.648	3572
825.787	3599
825.927	3675
826.067	3648
826.206	3686
826.346	3819
826.485	3835
826.625	3835
826.765	3945
826.904	3857
827.044	3610
827.183	3538
827.323	3447
827.462	3523
827.601	3420
827.741	3450
827.88	3454
828.02	3393
828.159	3450
828.298	3477
828.437	3481
828.577	3485
828.716	3523
828.855	3481
828.994	3355
829.134	3367
829.273	3393
829.412	3355
829.551	3370
829.69	3374
829.829	3420
829.968	3492
830.107	3439
830.246	3428
830.385	3393
830.524	3348
830.663	3313
830.802	3268
830.941	3207
831.08	3241
831.219	3279
831.357	3245
831.496	3382
831.635	3222
831.774	3218
831.913	3165
832.051	3123
832.19	3127
832.329	3173
832.467	3135
832.606	3097
832.744	3150
832.883	3184
833.022	3192
833.16	3279
833.299	3321
833.437	3321
833.576	3340
833.714	3389
833.852	3450
833.991	3485
834.129	3481
834.267	3401
834.406	3428
834.544	3397
834.682	3367
834.821	3424
834.959	3587
835.097	3469
835.235	3519
835.373	3462
835.511	3473
835.65	3477
835.788	3469
835.926	3348
836.064	3367
836.202	3405
836.34	3580
836.478	3599
836.615	3568
836.753	3584
836.891	3606
837.029	3660
837.167	3610
837.305	3553
837.443	3542
837.58	3534
837.718	3625
837.856	3568
837.993	3507
838.131	3580
838.269	3557
838.406	3599
838.544	3542
838.681	3466
838.819	3428
838.956	3397
839.094	3416
839.231	3431
839.369	3523
839.506	3724
839.643	3633
839.781	3492
839.918	3454
840.055	3507
840.193	3511
840.33	3515
840.467	3557
840.604	3599
840.742	3819
840.879	3568
841.016	3606
841.153	3553
841.29	3789
841.427	3705
841.564	3732
841.701	3789
841.838	3736
841.975	3720
842.112	3694
842.249	3644
842.385	3663
842.522	3804
842.659	3698
842.796	3709
842.933	3690
843.069	3705
843.206	3724
843.343	3861
843.479	3759
843.616	3827
843.752	3656
843.889	3690
844.025	3850
844.162	3720
844.298	3850
844.435	3823
844.571	3804
844.708	3960
844.844	4013
844.98	4040
845.117	4017
845.253	3937
845.389	3934
845.525	3922
845.661	3994
845.798	3892
845.934	3994
846.07	3960
846.206	4040
846.342	4082
846.478	4078
846.614	4017
846.75	3896
846.886	3922
847.022	4040
847.158	3983
847.294	3972
847.429	4048
847.565	4017
847.701	4227
847.837	3857
847.972	3831
848.108	4017
848.244	3941
848.379	3876
848.515	3778
848.65	3850
848.786	3854
848.921	3903
849.057	3926
849.192	3964
849.328	3873
849.463	3941
849.598	3899
849.734	3854
849.869	3842
850.004	3766
850.14	3785
850.275	3762
850.41	3762
850.545	3762
850.68	3781
850.815	3778
850.95	3793
851.085	3930
851.22	3816
851.355	3831
851.49	3789
851.625	3778
851.76	3778
851.895	3732
852.03	3717
852.165	3751
852.299	3896
852.434	3896
852.569	3880
852.703	3888
852.838	3903
852.973	3983
853.107	4017
853.242	3899
853.376	3892
853.511	3785
853.645	3838
853.78	3964
853.914	3922
854.048	3873
854.183	3899
854.317	3979
854.451	4101
854.585	3949
854.72	3915
854.854	4063
854.988	3937
855.122	4048
855.256	3930
855.39	3983
855.524	4071
855.658	4124
855.792	4109
855.926	4101
856.06	4181
856.194	4185
856.327	4143
856.461	4131
856.595	4135
856.729	4169
856.862	4291
856.996	4242
857.13	4284
857.263	4333
857.397	4360
857.53	4299
857.664	4352
857.797	4386
857.931	4383
858.064	4398
858.197	4409
858.331	4405
858.464	4379
858.597	4344
858.731	4413
858.864	4443
858.997	4462
859.13	4508
859.263	4523
859.396	4565
859.529	4508
859.662	4546
859.795	4504
859.928	4596
860.061	4736
860.194	4771
860.327	4649
860.46	4634
860.592	4774
860.725	4736
860.858	4736
860.99	4702
861.123	4702
861.256	4729
861.388	4774
861.521	5398
861.653	4740
861.786	4725
861.918	4801
862.05	4828
862.183	4831
862.315	4911
862.447	4927
862.58	4843
862.712	4778
862.844	4763
862.976	4835
863.108	4870
863.24	5280
863.372	4847
863.504	4885
863.636	4942
863.768	5006
863.9	4968
864.032	4949
864.164	4942
864.296	4995
864.428	5079
864.559	5132
864.691	5121
864.823	5117
864.954	5086
865.086	5124
865.217	5105
865.349	5079
865.48	5181
865.612	5178
865.743	5284
865.875	5201
866.006	5151
866.137	5246
866.269	5284
866.4	5299
866.531	5239
866.662	5223
866.793	5277
866.924	5311
867.055	5349
867.186	5322
867.317	5288
867.448	5334
867.579	5421
867.71	5395
867.841	5406
867.972	5459
868.103	5448
868.233	5429
868.364	5478
868.495	5535
868.625	5608
868.756	5786
868.886	5665
869.017	5718
869.147	5878
869.278	5863
869.408	5817
869.539	5813
869.669	5904
869.799	5836
869.929	5969
870.06	5969
870.19	6186
870.32	6194
870.45	6285
870.58	6380
870.71	6456
870.84	6467
870.97	6410
871.1	6407
871.23	6612
871.36	6741
871.489	6681
871.619	6707
871.749	6837
871.879	6882
872.008	7004
872.138	6928
872.267	7027
872.397	7057
872.526	7050
872.656	7129
872.785	7221
872.915	7403
873.044	7491
873.173	7582
873.303	7674
873.432	7719
873.561	7871
873.69	7894
873.819	8046
873.948	8096
874.077	8286
874.206	8336
874.335	8473
874.464	8686
874.593	8906
874.722	8899
874.851	9077
874.979	9207
875.108	9405
875.237	9424
875.365	9481
875.494	9641
875.623	9838
875.751	9835
875.88	10006
876.008	10082
876.136	10299
876.265	10523
876.393	10714
876.521	10736
876.65	10850
876.778	10869
876.906	10961
877.034	11033
877.162	11098
877.29	11197
877.418	11231
877.546	11345
877.674	11471
877.802	11512
877.93	11551
878.058	11581
878.185	11611
878.313	11710
878.441	11760
878.568	11668
878.696	11741
878.824	11923
878.951	11908
879.079	11961
879.206	12102
879.333	12064
879.461	12068
879.588	12117
879.715	12155
879.842	12273
879.97	12079
880.097	11809
880.224	11923
880.351	11901
880.478	11832
880.605	11855
880.732	11737
880.859	11954
880.986	11927
881.112	11817
881.239	11771
881.366	11653
881.493	11547
881.619	11558
881.746	11532
881.872	11524
881.999	11482
882.125	11429
882.252	11497
882.378	11608
882.505	11554
882.631	11345
882.757	11364
882.883	11269
883.01	11208
883.136	11185
883.262	11147
883.388	11079
883.514	11143
883.64	11109
883.766	11033
883.892	10995
884.018	10953
884.143	11052
884.269	11067
884.395	10866
884.52	10790
884.646	10721
884.772	10653
884.897	10630
885.023	10725
885.148	10637
885.274	10698
885.399	10702
885.524	10630
885.65	10542
885.775	10588
885.9	10618
886.025	10584
886.15	10588
886.275	10459
886.4	10360
886.525	10405
886.65	10398
886.775	10325
886.9	10500
887.025	10558
887.149	10402
887.274	10257
887.399	10192
887.523	10185
887.648	10097
887.773	10150
887.897	10249
888.021	10196
888.146	10120
888.27	10177
888.395	10299
888.519	10196
888.643	10143
888.767	10215
888.891	10036
889.015	10040
889.139	10074
889.263	10048
889.387	10097
889.511	10154
889.635	10059
889.759	9998
889.883	9964
890.006	9983
890.13	10067
890.254	9987
890.377	9911
890.501	9888
890.624	9899
890.748	9907
890.871	9762
890.995	9812
891.118	9694
891.241	9778
891.364	9747
891.488	9819
891.611	9789
891.734	9682
891.857	9709
891.98	9698
892.103	9732
892.226	9698
892.349	9587
892.471	9500
892.594	9648
892.717	9644
892.839	9644
892.962	9644
893.085	9663
893.207	9580
893.33	9576
893.452	9545
893.575	9606
893.697	9515
893.819	9610
893.941	9599
894.064	9660
894.186	9435
894.308	9473
894.43	9523
894.552	9504
894.674	9568
894.796	9370
894.918	9382
895.04	9302
895.161	9374
895.283	9344
895.405	9260
895.526	9249
895.648	9249
895.769	9214
895.891	9260
896.012	9230
896.134	9241
896.255	9214
896.376	9070
896.498	9112
896.619	9066
896.74	9104
896.861	9047
896.982	9298
897.103	9298
897.224	9180
897.345	9051
897.466	9036
897.587	9047
897.708	9108
897.828	9032
897.949	9009
898.07	8807
898.19	8906
898.311	9081
898.431	9001
898.552	8872
898.672	8948
898.792	8914
898.913	8845
899.033	8819
899.153	8807
899.273	8682
899.393	8739
899.513	8815
899.633	8735
899.753	8746
899.873	8769
899.993	8689
900.113	8762
900.232	8648
900.352	8640
900.472	8594
900.591	8594
900.711	8644
900.83	8545
900.95	8587
901.069	8663
901.189	8564
901.308	8404
901.427	8377
901.546	8469
901.665	8476
901.784	8484
901.904	8385
902.023	8393
902.141	8279
902.26	8176
902.379	8358
902.498	8259
902.617	8237
902.735	8298
902.854	8290
902.973	8294
903.091	8073
903.21	8142
903.328	8176
903.446	8077
903.565	8065
903.683	8088
903.801	8054
903.919	8153
904.038	8168
904.156	8062
904.274	8096
904.392	8008
904.51	7986
904.627	8012
904.745	8081
904.863	8092
904.981	7967
905.098	7906
905.216	7837
905.334	7902
905.451	7875
905.569	7883
905.686	7932
905.803	7883
905.921	7750
906.038	7849
906.155	7849
906.272	7719
906.389	7655
906.506	7647
906.623	7636
906.74	7605
906.857	7563
906.974	7552
907.091	7636
907.208	7719
907.324	7681
907.441	7556
907.557	7441
907.674	7445
907.79	7419
907.907	7392
908.023	7464
908.139	7457
908.256	7445
908.372	7362
908.488	7381
908.604	7297
908.72	7282
908.836	7339
908.952	7232
909.068	7225
909.184	7289
909.3	7221
909.415	7297
909.531	7335
909.647	7031
909.762	7122
909.878	7084
909.993	7084
910.108	7107
910.224	7095
910.339	7019
910.454	7034
910.57	7076
910.685	6981
910.8	7133
910.915	7107
911.03	7023
911.145	6890
911.259	6890
911.374	6913
911.489	6787
911.604	6791
911.718	6783
911.833	6757
911.947	6646
912.062	6551
912.176	6681
912.291	6665
912.405	6741
912.519	6764
912.633	6802
912.748	6741
912.862	6719
912.976	6620
913.09	6532
913.204	6623
913.318	6574
913.431	6631
913.545	6722
913.659	6722
913.772	6677
913.886	6536
914	6517
914.113	6620
914.226	6608
914.34	6627
914.453	6490
914.566	6654
914.68	6574
914.793	6464
914.906	6407
915.019	6388
915.132	6395
915.245	6418
915.358	6448
915.47	6407
915.583	6456
915.696	6483
915.809	6509
915.921	6532
916.034	6384
916.146	6422
916.259	6407
916.371	6467
916.483	6464
916.595	6353
916.708	6399
916.82	6388
916.932	6388
917.044	6346
917.156	6350
917.268	6346
917.38	6365
917.491	6292
917.603	6315
917.715	6372
917.826	6395
917.938	6399
918.049	6270
918.161	6372
918.272	6388
918.384	6441
918.495	6346
918.606	6270
918.717	6266
918.828	6262
918.939	6304
919.05	6220
919.161	6251
919.272	6159
919.383	6140
919.494	6289
919.604	6426
919.715	6308
919.826	6213
919.936	6213
920.047	6334
920.157	6251
920.267	6407
920.378	6331
920.488	6296
920.598	6433
920.708	6540
920.818	6460
920.928	6502
921.038	6604
921.148	6547
921.258	6365
921.368	6300
921.477	6205
921.587	6117
921.697	6057
921.806	6148
921.916	6022
922.025	5999
922.134	5923
922.244	5889
922.353	5961
922.462	5824
922.571	5783
922.68	5748
922.789	5684
922.898	5703
923.007	5615
923.116	5786
923.224	5642
923.333	5646
923.442	5623
923.55	5566
923.659	5642
923.767	5623
923.876	5535
923.984	5634
924.092	5516
924.201	5554
924.309	5543
924.417	5539
924.525	5436
924.633	5429
924.741	6304
924.849	5429
924.956	5444
925.064	5398
925.172	5322
925.279	5292
925.387	5337
925.494	5349
925.602	5429
925.709	5406
925.816	5311
925.924	5322
926.031	5360
926.138	5311
926.245	5326
926.352	5216
926.459	5296
926.566	5330
926.673	5212
926.779	5159
926.886	5102
926.993	5037
927.099	5041
927.206	4995
927.312	4999
927.419	5029
927.525	4938
927.631	4987
927.737	4923
927.843	4919
927.95	4748
928.056	4831
928.162	4881
928.267	4854
928.373	5353
928.479	4812
928.585	4683
928.69	4771
928.796	4790
928.901	4698
929.007	4596
929.112	4714
929.218	4607
929.323	4603
929.428	4603
929.533	4649
929.638	4516
929.743	4493
929.848	4512
929.953	4527
930.058	4413
930.163	4363
930.267	4367
930.372	4443
930.477	4310
930.581	4478
930.685	4394
930.79	4280
930.894	4280
930.998	4253
931.103	4413
931.207	4063
931.311	4071
931.415	4032
931.519	3949
931.623	3949
