Data from glass_V78500241_529.txt Node
Date: Wed Sep 01 19:18:10 CST 2021
User: usil
Spectrometer: V785-0024
Trigger mode: 0
Integration Time (sec): 4.000000E-1
Scans to average: 1
Nonlinearity correction enabled: false
Boxcar width: 0
Storing dark spectrum: false
XAxis mode: Wavelengths
Number of Pixels in Spectrum: 1024
>>>>>Begin Spectral Data<<<<<
801.071	3785
801.214	3762
801.356	3709
801.499	3762
801.641	3762
801.783	3846
801.926	3907
802.068	3850
802.211	3865
802.353	3892
802.496	3850
802.638	3884
802.78	3911
802.923	3975
803.065	3930
803.208	3808
803.35	3880
803.492	3915
803.635	3899
803.777	3823
803.919	3926
804.061	4135
804.204	3991
804.346	3972
804.488	3934
804.63	3987
804.773	4021
804.915	4013
805.057	4143
805.199	4036
805.341	4097
805.483	4147
805.626	4112
805.768	4169
805.91	4219
806.052	4257
806.194	4234
806.336	4344
806.478	4192
806.62	4166
806.762	4188
806.904	4272
807.046	4352
807.188	4223
807.33	4162
807.472	4284
807.614	4219
807.756	4310
807.898	4196
808.04	4265
808.182	4337
808.324	4383
808.465	4371
808.607	4436
808.749	4466
808.891	4478
809.033	4573
809.174	4383
809.316	4287
809.458	4257
809.6	4188
809.741	4177
809.883	4147
810.025	4257
810.166	4211
810.308	4246
810.45	4246
810.591	4242
810.733	4272
810.875	4478
811.016	4843
811.158	5181
811.299	5261
811.441	5284
811.582	5064
811.724	4733
811.865	4523
812.007	4462
812.148	4470
812.29	4413
812.431	4424
812.573	4424
812.714	4337
812.855	4405
812.997	4466
813.138	4474
813.279	4424
813.421	4447
813.562	4421
813.703	4371
813.845	4310
813.986	4291
814.127	4268
814.268	4265
814.41	4310
814.551	4276
814.692	4371
814.833	4299
814.974	4333
815.115	4333
815.256	4246
815.397	4238
815.539	4306
815.68	4188
815.821	4207
815.962	4329
816.103	4314
816.244	4261
816.385	4215
816.526	4303
816.666	4257
816.807	4090
816.948	4169
817.089	4181
817.23	4128
817.371	4051
817.512	4048
817.653	4086
817.793	4055
817.934	4071
818.075	4128
818.216	4093
818.356	4109
818.497	4013
818.638	3987
818.778	3949
818.919	3918
819.06	3876
819.2	3945
819.341	3876
819.481	3865
819.622	3979
819.762	4025
819.903	3956
820.043	3854
820.184	3842
820.324	3857
820.465	3918
820.605	3869
820.746	3850
820.886	3823
821.026	3949
821.167	3953
821.307	3979
821.447	4025
821.588	3922
821.728	3964
821.868	3956
822.008	3896
822.149	3884
822.289	3926
822.429	3812
822.569	3751
822.709	3808
822.849	3747
822.99	3736
823.13	3778
823.27	3816
823.41	3701
823.55	3713
823.69	3747
823.83	3709
823.97	3701
824.11	3587
824.25	3591
824.389	3660
824.529	3660
824.669	3667
824.809	3732
824.949	3762
825.089	3743
825.228	3686
825.368	3599
825.508	3584
825.648	3599
825.787	3587
825.927	3675
826.067	3641
826.206	3682
826.346	3778
826.485	3838
826.625	3850
826.765	3941
826.904	3869
827.044	3595
827.183	3549
827.323	3428
827.462	3492
827.601	3428
827.741	3454
827.88	3447
828.02	3359
828.159	3443
828.298	3469
828.437	3526
828.577	3439
828.716	3584
828.855	3500
828.994	3382
829.134	3397
829.273	3401
829.412	3412
829.551	3363
829.69	3409
829.829	3473
829.968	3504
830.107	3416
830.246	3454
830.385	3431
830.524	3386
830.663	3313
830.802	3302
830.941	3222
831.08	3188
831.219	3249
831.357	3294
831.496	3393
831.635	3233
831.774	3173
831.913	3226
832.051	3119
832.19	3150
832.329	3249
832.467	3150
832.606	3093
832.744	3173
832.883	3214
833.022	3233
833.16	3275
833.299	3321
833.437	3367
833.576	3363
833.714	3386
833.852	3420
833.991	3439
834.129	3496
834.267	3443
834.406	3431
834.544	3447
834.682	3416
834.821	3450
834.959	3557
835.097	3469
835.235	3568
835.373	3507
835.511	3526
835.65	3428
835.788	3466
835.926	3389
836.064	3389
836.202	3389
836.34	3576
836.478	3610
836.615	3538
836.753	3618
836.891	3686
837.029	3591
837.167	3580
837.305	3530
837.443	3538
837.58	3523
837.718	3610
837.856	3568
837.993	3564
838.131	3606
838.269	3610
838.406	3618
838.544	3576
838.681	3485
838.819	3439
838.956	3409
839.094	3405
839.231	3454
839.369	3564
839.506	3740
839.643	3644
839.781	3549
839.918	3481
840.055	3545
840.193	3538
840.33	3530
840.467	3599
840.604	3610
840.742	3812
840.879	3553
841.016	3595
841.153	3648
841.29	3740
841.427	3724
841.564	3747
841.701	3789
841.838	3713
841.975	3701
842.112	3747
842.249	3641
842.385	3641
842.522	3850
842.659	3709
842.796	3701
842.933	3728
843.069	3732
843.206	3705
843.343	3781
843.479	3846
843.616	3819
843.752	3694
843.889	3690
844.025	3892
844.162	3690
844.298	3838
844.435	3816
844.571	3774
844.708	3911
844.844	3972
844.98	4044
845.117	4006
845.253	3949
845.389	3915
845.525	3968
845.661	3975
845.798	3964
845.934	4002
846.07	3983
846.206	4093
846.342	4147
846.478	4063
846.614	4013
846.75	3945
846.886	3945
847.022	4021
847.158	4002
847.294	4017
847.429	4051
847.565	3960
847.701	4227
847.837	3888
847.972	3857
848.108	3975
848.244	3949
848.379	3857
848.515	3850
848.65	3819
848.786	3831
848.921	3876
849.057	3964
849.192	3960
849.328	3949
849.463	3960
849.598	3888
849.734	3899
849.869	3876
850.004	3808
850.14	3861
850.275	3778
850.41	3686
850.545	3751
850.68	3842
850.815	3812
850.95	3808
851.085	3934
851.22	3892
851.355	3838
851.49	3816
851.625	3808
851.76	3823
851.895	3759
852.03	3732
852.165	3812
852.299	3831
852.434	3945
852.569	3880
852.703	3930
852.838	3915
852.973	4002
853.107	3983
853.242	3918
853.376	3854
853.511	3785
853.645	3842
853.78	3972
853.914	3934
854.048	3922
854.183	3911
854.317	3964
854.451	4086
854.585	3987
854.72	3937
854.854	4055
854.988	3915
855.122	3972
855.256	3907
855.39	4017
855.524	4177
855.658	4131
855.792	4109
855.926	4154
856.06	4147
856.194	4265
856.327	4162
856.461	4124
856.595	4162
856.729	4211
856.862	4284
856.996	4242
857.13	4280
857.263	4344
857.397	4394
857.53	4284
857.664	4325
857.797	4394
857.931	4405
858.064	4367
858.197	4493
858.331	4398
858.464	4417
858.597	4375
858.731	4398
858.864	4443
858.997	4470
859.13	4546
859.263	4584
859.396	4615
859.529	4489
859.662	4538
859.795	4554
859.928	4599
860.061	4706
860.194	4774
860.327	4675
860.46	4698
860.592	4702
860.725	4786
860.858	4820
860.99	4706
861.123	4714
861.256	4691
861.388	4793
861.521	5471
861.653	4778
861.786	4714
861.918	4759
862.05	4786
862.183	4862
862.315	4892
862.447	4976
862.58	4900
862.712	4805
862.844	4782
862.976	4904
863.108	4877
863.24	5166
863.372	4801
863.504	4980
863.636	4927
863.768	4987
863.9	4953
864.032	4957
864.164	4961
864.296	5025
864.428	5056
864.559	5102
864.691	5140
864.823	5102
864.954	5166
865.086	5121
865.217	5121
865.349	5071
865.48	5258
865.612	5185
865.743	5299
865.875	5246
866.006	5239
866.137	5258
866.269	5235
866.4	5220
866.531	5311
866.662	5269
866.793	5292
866.924	5337
867.055	5387
867.186	5391
867.317	5337
867.448	5311
867.579	5364
867.71	5357
867.841	5391
867.972	5474
868.103	5471
868.233	5486
868.364	5509
868.495	5589
868.625	5665
868.756	5756
868.886	5665
869.017	5733
869.147	5870
869.278	5863
869.408	5786
869.539	5813
869.669	5927
869.799	5939
869.929	5996
870.06	6003
870.19	6190
870.32	6216
870.45	6346
870.58	6388
870.71	6399
870.84	6475
870.97	6380
871.1	6414
871.23	6604
871.36	6707
871.489	6662
871.619	6700
871.749	6798
871.879	6867
872.008	7038
872.138	6947
872.267	7034
872.397	7046
872.526	6989
872.656	7118
872.785	7247
872.915	7426
873.044	7521
873.173	7586
873.303	7651
873.432	7799
873.561	7909
873.69	7894
873.819	8058
873.948	8202
874.077	8275
874.206	8339
874.335	8552
874.464	8682
874.593	8857
874.722	8929
874.851	9157
874.979	9184
875.108	9405
875.237	9428
875.365	9469
875.494	9694
875.623	9823
875.751	9831
875.88	10017
876.008	10227
876.136	10265
876.265	10626
876.393	10630
876.521	10725
876.65	10820
876.778	10805
876.906	10915
877.034	11083
877.162	11155
877.29	11155
877.418	11231
877.546	11391
877.674	11448
877.802	11467
877.93	11551
878.058	11627
878.185	11486
878.313	11619
878.441	11779
878.568	11665
878.696	11741
878.824	11828
878.951	11942
879.079	12022
879.206	12121
879.333	12030
879.461	12091
879.588	12110
879.715	12079
879.842	12209
879.97	12087
880.097	11866
880.224	11870
880.351	11882
880.478	11805
880.605	11901
880.732	11832
880.859	11977
880.986	11794
881.112	11783
881.239	11733
881.366	11714
881.493	11573
881.619	11592
881.746	11520
881.872	11532
881.999	11524
882.125	11532
882.252	11592
882.378	11528
882.505	11573
882.631	11383
882.757	11299
882.883	11322
883.01	11299
883.136	11143
883.262	11189
883.388	11014
883.514	11250
883.64	11178
883.766	11136
883.892	10976
884.018	10991
884.143	11079
884.269	11094
884.395	10820
884.52	10778
884.646	10774
884.772	10736
884.897	10771
885.023	10736
885.148	10752
885.274	10759
885.399	10714
885.524	10675
885.65	10546
885.775	10634
885.9	10569
886.025	10615
886.15	10573
886.275	10493
886.4	10413
886.525	10382
886.65	10318
886.775	10341
886.9	10390
887.025	10546
887.149	10314
887.274	10314
887.399	10192
887.523	10112
887.648	10219
887.773	10131
887.897	10280
888.021	10234
888.146	10173
888.27	10227
888.395	10246
888.519	10135
888.643	10253
888.767	10173
888.891	10071
889.015	9911
889.139	10071
889.263	9968
889.387	10093
889.511	10139
889.635	10105
889.759	9972
889.883	9979
890.006	10044
890.13	10173
890.254	9945
890.377	10044
890.501	9953
890.624	9831
890.748	9888
890.871	9774
890.995	9785
891.118	9724
891.241	9797
891.364	9766
891.488	9793
891.611	9736
891.734	9755
891.857	9747
891.98	9720
892.103	9816
892.226	9740
892.349	9591
892.471	9511
892.594	9660
892.717	9656
892.839	9576
892.962	9671
893.085	9675
893.207	9561
893.33	9454
893.452	9553
893.575	9641
893.697	9481
893.819	9606
893.941	9622
894.064	9637
894.186	9374
894.308	9466
894.43	9553
894.552	9603
894.674	9469
894.796	9386
894.918	9359
895.04	9367
895.161	9378
895.283	9393
895.405	9294
895.526	9249
895.648	9226
895.769	9283
895.891	9226
896.012	9310
896.134	9146
896.255	9142
896.376	9192
896.498	9173
896.619	9176
896.74	9077
896.861	9104
896.982	9214
897.103	9344
897.224	9169
897.345	9100
897.466	9058
897.587	8998
897.708	9131
897.828	9074
897.949	8941
898.07	8876
898.19	8933
898.311	9009
898.431	8857
898.552	8849
898.672	8960
898.792	8986
898.913	8834
899.033	8868
899.153	8705
899.273	8674
899.393	8610
899.513	8705
899.633	8758
899.753	8720
899.873	8708
899.993	8766
900.113	8739
900.232	8743
900.352	8663
900.472	8549
900.591	8587
900.711	8610
900.83	8602
900.95	8705
901.069	8674
901.189	8613
901.308	8518
901.427	8419
901.546	8499
901.665	8461
901.784	8492
901.904	8343
902.023	8370
902.141	8282
902.26	8248
902.379	8279
902.498	8282
902.617	8202
902.735	8339
902.854	8301
902.973	8244
903.091	8065
903.21	8103
903.328	8214
903.446	8107
903.565	8100
903.683	8107
903.801	8058
903.919	8103
904.038	8164
904.156	8081
904.274	8084
904.392	8027
904.51	8096
904.627	8062
904.745	8031
904.863	8126
904.981	7963
905.098	7879
905.216	7925
905.334	7849
905.451	7947
905.569	7879
905.686	7879
905.803	7898
905.921	7811
906.038	7928
906.155	7799
906.272	7784
906.389	7693
906.506	7548
906.623	7636
906.74	7636
906.857	7594
906.974	7586
907.091	7666
907.208	7723
907.324	7689
907.441	7624
907.557	7491
907.674	7457
907.79	7472
907.907	7464
908.023	7422
908.139	7411
908.256	7400
908.372	7445
908.488	7365
908.604	7320
908.72	7263
908.836	7282
908.952	7187
909.068	7183
909.184	7305
909.3	7320
909.415	7324
909.531	7240
909.647	7122
909.762	7107
909.878	7107
909.993	7171
910.108	7103
910.224	7061
910.339	7061
910.454	7031
910.57	6943
910.685	6920
910.8	7194
910.915	7133
911.03	7038
911.145	6935
911.259	6890
911.374	6856
911.489	6867
911.604	6772
911.718	6760
911.833	6745
911.947	6662
912.062	6608
912.176	6703
912.291	6658
912.405	6726
912.519	6802
912.633	6871
912.748	6787
912.862	6707
912.976	6639
913.09	6578
913.204	6585
913.318	6574
913.431	6684
913.545	6616
913.659	6722
913.772	6639
913.886	6627
914	6566
914.113	6623
914.226	6612
914.34	6570
914.453	6536
914.566	6612
914.68	6585
914.793	6536
914.906	6407
915.019	6414
915.132	6388
915.245	6426
915.358	6464
915.47	6471
915.583	6448
915.696	6483
915.809	6585
915.921	6582
916.034	6456
916.146	6475
916.259	6384
916.371	6467
916.483	6467
916.595	6441
916.708	6395
916.82	6437
916.932	6429
917.044	6407
917.156	6399
917.268	6292
917.38	6388
917.491	6304
917.603	6388
917.715	6334
917.826	6475
917.938	6357
918.049	6327
918.161	6369
918.272	6399
918.384	6410
918.495	6350
918.606	6296
918.717	6224
918.828	6258
918.939	6277
919.05	6205
919.161	6220
919.272	6178
919.383	6186
919.494	6304
919.604	6388
919.715	6334
919.826	6235
919.936	6258
920.047	6350
920.157	6262
920.267	6445
920.378	6334
920.488	6273
920.598	6502
920.708	6589
920.818	6467
920.928	6494
921.038	6627
921.148	6536
921.258	6376
921.368	6258
921.477	6209
921.587	6209
921.697	6114
921.806	6228
921.916	6110
922.025	5980
922.134	5980
922.244	5916
922.353	5977
922.462	5889
922.571	5786
922.68	5710
922.789	5707
922.898	5680
923.007	5627
923.116	5756
923.224	5630
923.333	5676
923.442	5573
923.55	5570
923.659	5611
923.767	5604
923.876	5532
923.984	5630
924.092	5512
924.201	5611
924.309	5585
924.417	5615
924.525	5524
924.633	5497
924.741	6304
924.849	5383
924.956	5524
925.064	5368
925.172	5364
925.279	5326
925.387	5337
925.494	5292
925.602	5421
925.709	5448
925.816	5315
925.924	5364
926.031	5353
926.138	5330
926.245	5292
926.352	5242
926.459	5307
926.566	5341
926.673	5227
926.779	5159
926.886	5113
926.993	5033
927.099	5006
927.206	5025
927.312	4946
927.419	5010
927.525	4995
927.631	5003
927.737	4919
927.843	4828
927.95	4763
928.056	4885
928.162	4858
928.267	4850
928.373	5296
928.479	4839
928.585	4706
928.69	4759
928.796	4763
928.901	4668
929.007	4637
929.112	4675
929.218	4679
929.323	4626
929.428	4554
929.533	4675
929.638	4554
929.743	4527
929.848	4554
929.953	4474
930.058	4421
930.163	4299
930.267	4360
930.372	4459
930.477	4295
930.581	4451
930.685	4398
930.79	4284
930.894	4280
930.998	4230
931.103	4371
931.207	4154
931.311	4059
931.415	4040
931.519	3937
931.623	3956
