Data from glass_V78500241_112.txt Node
Date: Wed Sep 01 19:15:16 CST 2021
User: usil
Spectrometer: V785-0024
Trigger mode: 0
Integration Time (sec): 4.000000E-1
Scans to average: 1
Nonlinearity correction enabled: false
Boxcar width: 0
Storing dark spectrum: false
XAxis mode: Wavelengths
Number of Pixels in Spectrum: 1024
>>>>>Begin Spectral Data<<<<<
801.071	3762
801.214	3804
801.356	3732
801.499	3728
801.641	3728
801.783	3835
801.926	3873
802.068	3846
802.211	3884
802.353	3888
802.496	3899
802.638	3865
802.78	3907
802.923	3941
803.065	3880
803.208	3884
803.35	3850
803.492	3896
803.635	3922
803.777	3812
803.919	3888
804.061	4143
804.204	3968
804.346	3960
804.488	3960
804.63	4006
804.773	3979
804.915	4017
805.057	4173
805.199	4078
805.341	4135
805.483	4150
805.626	4150
805.768	4154
805.91	4249
806.052	4276
806.194	4253
806.336	4363
806.478	4207
806.62	4185
806.762	4188
806.904	4287
807.046	4356
807.188	4249
807.33	4207
807.472	4257
807.614	4223
807.756	4303
807.898	4223
808.04	4318
808.182	4303
808.324	4325
808.465	4337
808.607	4489
808.749	4451
808.891	4474
809.033	4531
809.174	4451
809.316	4295
809.458	4295
809.6	4131
809.741	4135
809.883	4169
810.025	4207
810.166	4227
810.308	4211
810.45	4257
810.591	4287
810.733	4272
810.875	4512
811.016	4843
811.158	5109
811.299	5231
811.441	5315
811.582	5045
811.724	4679
811.865	4493
812.007	4485
812.148	4447
812.29	4443
812.431	4443
812.573	4424
812.714	4436
812.855	4440
812.997	4462
813.138	4485
813.279	4451
813.421	4390
813.562	4432
813.703	4348
813.845	4333
813.986	4219
814.127	4272
814.268	4246
814.41	4303
814.551	4295
814.692	4356
814.833	4284
814.974	4322
815.115	4310
815.256	4272
815.397	4238
815.539	4261
815.68	4207
815.821	4192
815.962	4303
816.103	4356
816.244	4253
816.385	4223
816.526	4295
816.666	4219
816.807	4112
816.948	4223
817.089	4192
817.23	4112
817.371	4055
817.512	4101
817.653	4082
817.793	4044
817.934	4025
818.075	4135
818.216	4112
818.356	4074
818.497	4048
818.638	3896
818.778	3922
818.919	3934
819.06	3861
819.2	3956
819.341	3892
819.481	3850
819.622	3907
819.762	4055
819.903	3968
820.043	3896
820.184	3819
820.324	3823
820.465	3911
820.605	3899
820.746	3888
820.886	3819
821.026	3972
821.167	3960
821.307	4006
821.447	4002
821.588	3975
821.728	3979
821.868	3941
822.008	3865
822.149	3915
822.289	3934
822.429	3800
822.569	3778
822.709	3812
822.849	3728
822.99	3717
823.13	3759
823.27	3819
823.41	3743
823.55	3724
823.69	3728
823.83	3732
823.97	3705
824.11	3637
824.25	3625
824.389	3644
824.529	3709
824.669	3644
824.809	3717
824.949	3747
825.089	3698
825.228	3751
825.368	3603
825.508	3572
825.648	3591
825.787	3622
825.927	3671
826.067	3679
826.206	3667
826.346	3785
826.485	3838
826.625	3915
826.765	3956
826.904	3846
827.044	3637
827.183	3584
827.323	3439
827.462	3488
827.601	3424
827.741	3393
827.88	3458
828.02	3401
828.159	3450
828.298	3530
828.437	3523
828.577	3488
828.716	3595
828.855	3507
828.994	3389
829.134	3370
829.273	3382
829.412	3389
829.551	3340
829.69	3405
829.829	3435
829.968	3553
830.107	3443
830.246	3492
830.385	3386
830.524	3401
830.663	3310
830.802	3264
830.941	3199
831.08	3222
831.219	3287
831.357	3279
831.496	3447
831.635	3253
831.774	3199
831.913	3199
832.051	3135
832.19	3188
832.329	3233
832.467	3169
832.606	3157
832.744	3184
832.883	3180
833.022	3211
833.16	3294
833.299	3306
833.437	3329
833.576	3367
833.714	3386
833.852	3447
833.991	3492
834.129	3515
834.267	3435
834.406	3405
834.544	3428
834.682	3424
834.821	3416
834.959	3625
835.097	3462
835.235	3545
835.373	3545
835.511	3473
835.65	3477
835.788	3507
835.926	3401
836.064	3393
836.202	3401
836.34	3572
836.478	3641
836.615	3572
836.753	3648
836.891	3610
837.029	3584
837.167	3580
837.305	3587
837.443	3564
837.58	3530
837.718	3584
837.856	3580
837.993	3557
838.131	3599
838.269	3591
838.406	3553
838.544	3606
838.681	3492
838.819	3477
838.956	3367
839.094	3405
839.231	3477
839.369	3523
839.506	3728
839.643	3660
839.781	3542
839.918	3466
840.055	3545
840.193	3584
840.33	3545
840.467	3553
840.604	3610
840.742	3812
840.879	3557
841.016	3587
841.153	3576
841.29	3804
841.427	3751
841.564	3743
841.701	3770
841.838	3698
841.975	3694
842.112	3724
842.249	3663
842.385	3652
842.522	3804
842.659	3686
842.796	3713
842.933	3732
843.069	3720
843.206	3713
843.343	3819
843.479	3789
843.616	3823
843.752	3698
843.889	3671
844.025	3846
844.162	3732
844.298	3827
844.435	3842
844.571	3781
844.708	3945
844.844	4036
844.98	4063
845.117	4067
845.253	3983
845.389	3892
845.525	3994
845.661	4006
845.798	3915
845.934	3987
846.07	3922
846.206	4063
846.342	4177
846.478	4048
846.614	3899
846.75	3975
846.886	3915
847.022	4040
847.158	3949
847.294	4017
847.429	4063
847.565	3998
847.701	4265
847.837	3922
847.972	3896
848.108	4002
848.244	4021
848.379	3850
848.515	3800
848.65	3846
848.786	3846
848.921	3884
849.057	3949
849.192	3994
849.328	3937
849.463	3911
849.598	3861
849.734	3903
849.869	3865
850.004	3774
850.14	3861
850.275	3869
850.41	3759
850.545	3800
850.68	3797
850.815	3831
850.95	3876
851.085	3979
851.22	3915
851.355	3846
851.49	3781
851.625	3778
851.76	3797
851.895	3800
852.03	3732
852.165	3823
852.299	3869
852.434	3949
852.569	3880
852.703	3937
852.838	3964
852.973	4029
853.107	4006
853.242	3892
853.376	3896
853.511	3751
853.645	3842
853.78	3975
853.914	3884
854.048	3960
854.183	3911
854.317	3975
854.451	4097
854.585	3991
854.72	3987
854.854	4063
854.988	3968
855.122	3975
855.256	3899
855.39	4002
855.524	4124
855.658	4101
855.792	4158
855.926	4135
856.06	4169
856.194	4230
856.327	4158
856.461	4124
856.595	4177
856.729	4227
856.862	4341
856.996	4280
857.13	4261
857.263	4306
857.397	4398
857.53	4329
857.664	4394
857.797	4405
857.931	4409
858.064	4398
858.197	4455
858.331	4413
858.464	4409
858.597	4371
858.731	4466
858.864	4470
858.997	4447
859.13	4542
859.263	4569
859.396	4584
859.529	4542
859.662	4531
859.795	4558
859.928	4592
860.061	4694
860.194	4752
860.327	4691
860.46	4706
860.592	4740
860.725	4778
860.858	4786
860.99	4694
861.123	4752
861.256	4675
861.388	4778
861.521	5516
861.653	4729
861.786	4759
861.918	4759
862.05	4778
862.183	4862
862.315	4881
862.447	4927
862.58	4908
862.712	4778
862.844	4786
862.976	4968
863.108	4892
863.24	5231
863.372	4862
863.504	4889
863.636	4923
863.768	5045
863.9	4915
864.032	4991
864.164	4957
864.296	5025
864.428	5090
864.559	5140
864.691	5136
864.823	5098
864.954	5174
865.086	5193
865.217	5136
865.349	5136
865.48	5216
865.612	5181
865.743	5307
865.875	5193
866.006	5189
866.137	5250
866.269	5265
866.4	5277
866.531	5261
866.662	5254
866.793	5284
866.924	5277
867.055	5387
867.186	5357
867.317	5341
867.448	5322
867.579	5372
867.71	5387
867.841	5398
867.972	5474
868.103	5490
868.233	5490
868.364	5486
868.495	5577
868.625	5672
868.756	5809
868.886	5623
869.017	5764
869.147	5878
869.278	5851
869.408	5851
869.539	5855
869.669	5920
869.799	5893
869.929	5969
870.06	6019
870.19	6213
870.32	6232
870.45	6292
870.58	6296
870.71	6418
870.84	6483
870.97	6422
871.1	6464
871.23	6681
871.36	6719
871.489	6673
871.619	6753
871.749	6791
871.879	6878
872.008	6985
872.138	7008
872.267	7012
872.397	6993
872.526	7008
872.656	7141
872.785	7217
872.915	7430
873.044	7529
873.173	7597
873.303	7636
873.432	7742
873.561	7875
873.69	7894
873.819	8027
873.948	8172
874.077	8221
874.206	8389
874.335	8480
874.464	8693
874.593	8864
874.722	8914
874.851	9142
874.979	9253
875.108	9355
875.237	9389
875.365	9454
875.494	9740
875.623	9797
875.751	9819
875.88	9945
876.008	10173
876.136	10287
876.265	10478
876.393	10755
876.521	10729
876.65	10839
876.778	10896
876.906	10854
877.034	10942
877.162	11090
877.29	11136
877.418	11341
877.546	11334
877.674	11478
877.802	11482
877.93	11448
878.058	11562
878.185	11509
878.313	11680
878.441	11840
878.568	11573
878.696	11855
878.824	11889
878.951	11950
879.079	12041
879.206	12121
879.333	12049
879.461	11939
879.588	12053
879.715	12072
879.842	12251
879.97	12117
880.097	11851
880.224	11874
880.351	11908
880.478	11912
880.605	11904
880.732	11863
880.859	11988
880.986	11767
881.112	11798
881.239	11707
881.366	11661
881.493	11630
881.619	11516
881.746	11539
881.872	11509
881.999	11512
882.125	11444
882.252	11551
882.378	11474
882.505	11604
882.631	11402
882.757	11315
882.883	11402
883.01	11284
883.136	11254
883.262	11033
883.388	11159
883.514	11140
883.64	11212
883.766	11117
883.892	11029
884.018	11098
884.143	11113
884.269	11083
884.395	10858
884.52	10885
884.646	10744
884.772	10755
884.897	10660
885.023	10725
885.148	10778
885.274	10816
885.399	10710
885.524	10656
885.65	10630
885.775	10615
885.9	10535
886.025	10577
886.15	10546
886.275	10470
886.4	10333
886.525	10417
886.65	10382
886.775	10394
886.9	10489
887.025	10580
887.149	10379
887.274	10322
887.399	10207
887.523	10154
887.648	10120
887.773	10158
887.897	10268
888.021	10204
888.146	10124
888.27	10230
888.395	10227
888.519	10173
888.643	10166
888.767	10196
888.891	10116
889.015	9964
889.139	10036
889.263	9991
889.387	10093
889.511	10124
889.635	10109
889.759	10044
889.883	10010
890.006	10051
890.13	10109
890.254	9937
890.377	9903
890.501	9850
890.624	9827
890.748	9850
890.871	9823
890.995	9778
891.118	9694
891.241	9743
891.364	9797
891.488	9838
891.611	9789
891.734	9743
891.857	9751
891.98	9736
892.103	9778
892.226	9663
892.349	9637
892.471	9515
892.594	9663
892.717	9644
892.839	9599
892.962	9610
893.085	9724
893.207	9603
893.33	9485
893.452	9549
893.575	9629
893.697	9538
893.819	9667
893.941	9595
894.064	9584
894.186	9454
894.308	9428
894.43	9561
894.552	9587
894.674	9587
894.796	9336
894.918	9344
895.04	9424
895.161	9306
895.283	9386
895.405	9256
895.526	9355
895.648	9256
895.769	9241
895.891	9230
896.012	9306
896.134	9214
896.255	9150
896.376	9085
896.498	9211
896.619	9165
896.74	9074
896.861	9150
896.982	9260
897.103	9268
897.224	9184
897.345	9074
897.466	9020
897.587	9051
897.708	9138
897.828	9013
897.949	8910
898.07	8811
898.19	8933
898.311	9036
898.431	8899
898.552	8887
898.672	8933
898.792	8929
898.913	8883
899.033	8826
899.153	8754
899.273	8762
899.393	8754
899.513	8773
899.633	8705
899.753	8796
899.873	8674
899.993	8746
900.113	8708
900.232	8705
900.352	8670
900.472	8610
900.591	8602
900.711	8568
900.83	8583
900.95	8705
901.069	8659
901.189	8621
901.308	8412
901.427	8374
901.546	8442
901.665	8473
901.784	8526
901.904	8355
902.023	8412
902.141	8157
902.26	8225
902.379	8282
902.498	8180
902.617	8244
902.735	8271
902.854	8290
902.973	8294
903.091	8187
903.21	8123
903.328	8210
903.446	8084
903.565	8046
903.683	8145
903.801	8077
903.919	8161
904.038	8161
904.156	8001
904.274	8084
904.392	8012
904.51	7986
904.627	8050
904.745	8119
904.863	8088
904.981	7875
905.098	7864
905.216	7883
905.334	7890
905.451	7932
905.569	7841
905.686	7921
905.803	7883
905.921	7864
906.038	7883
906.155	7818
906.272	7772
906.389	7742
906.506	7624
906.623	7643
906.74	7651
906.857	7559
906.974	7552
907.091	7734
907.208	7719
907.324	7670
907.441	7578
907.557	7544
907.674	7460
907.79	7441
907.907	7537
908.023	7472
908.139	7464
908.256	7415
908.372	7407
908.488	7369
908.604	7331
908.72	7228
908.836	7282
908.952	7213
909.068	7266
909.184	7339
909.3	7236
909.415	7301
909.531	7293
909.647	7137
909.762	7187
909.878	7069
909.993	7145
910.108	7065
910.224	7099
910.339	7152
910.454	7008
910.57	6973
910.685	7015
910.8	7129
910.915	7088
911.03	7072
911.145	6943
911.259	6878
911.374	6924
911.489	6916
911.604	6776
911.718	6734
911.833	6749
911.947	6646
912.062	6623
912.176	6696
912.291	6741
912.405	6692
912.519	6814
912.633	6787
912.748	6768
912.862	6715
912.976	6547
913.09	6551
913.204	6589
913.318	6662
913.431	6677
913.545	6646
913.659	6700
913.772	6681
913.886	6551
914	6521
914.113	6593
914.226	6741
914.34	6642
914.453	6506
914.566	6589
914.68	6585
914.793	6563
914.906	6448
915.019	6422
915.132	6395
915.245	6369
915.358	6528
915.47	6418
915.583	6456
915.696	6467
915.809	6540
915.921	6547
916.034	6490
916.146	6410
916.259	6437
916.371	6506
916.483	6471
916.595	6433
916.708	6490
916.82	6467
916.932	6391
917.044	6365
917.156	6429
917.268	6369
917.38	6384
917.491	6319
917.603	6338
917.715	6380
917.826	6422
917.938	6361
918.049	6232
918.161	6369
918.272	6437
918.384	6414
918.495	6372
918.606	6273
918.717	6232
918.828	6304
918.939	6331
919.05	6216
919.161	6281
919.272	6133
919.383	6167
919.494	6247
919.604	6429
919.715	6258
919.826	6243
919.936	6235
920.047	6369
920.157	6232
920.267	6471
920.378	6369
920.488	6315
920.598	6490
920.708	6551
920.818	6471
920.928	6486
921.038	6627
921.148	6616
921.258	6357
921.368	6327
921.477	6239
921.587	6163
921.697	6068
921.806	6216
921.916	6163
922.025	5878
922.134	5931
922.244	5920
922.353	5973
922.462	5863
922.571	5893
922.68	5737
922.789	5691
922.898	5691
923.007	5649
923.116	5718
923.224	5642
923.333	5691
923.442	5638
923.55	5589
923.659	5573
923.767	5699
923.876	5566
923.984	5646
924.092	5528
924.201	5585
924.309	5516
924.417	5577
924.525	5452
924.633	5474
924.741	6117
924.849	5368
924.956	5505
925.064	5326
925.172	5349
925.279	5387
925.387	5383
925.494	5364
925.602	5433
925.709	5406
925.816	5303
925.924	5311
926.031	5383
926.138	5250
926.245	5284
926.352	5227
926.459	5315
926.566	5277
926.673	5231
926.779	5140
926.886	5109
926.993	5060
927.099	5037
927.206	4991
927.312	4991
927.419	5014
927.525	4999
927.631	5029
927.737	4866
927.843	4885
927.95	4733
928.056	4809
928.162	4850
928.267	4908
928.373	5334
928.479	4889
928.585	4714
928.69	4782
928.796	4812
928.901	4660
929.007	4599
929.112	4611
929.218	4626
929.323	4615
929.428	4569
929.533	4698
929.638	4558
929.743	4531
929.848	4611
929.953	4538
930.058	4478
930.163	4318
930.267	4363
930.372	4440
930.477	4310
930.581	4535
930.685	4402
930.79	4246
930.894	4295
930.998	4227
931.103	4402
931.207	4131
931.311	4063
931.415	4063
931.519	3941
931.623	3987
