Data from glass_V78500241_1695.txt Node
Date: Wed Sep 01 19:26:15 CST 2021
User: usil
Spectrometer: V785-0024
Trigger mode: 0
Integration Time (sec): 4.000000E-1
Scans to average: 1
Nonlinearity correction enabled: false
Boxcar width: 0
Storing dark spectrum: false
XAxis mode: Wavelengths
Number of Pixels in Spectrum: 1024
>>>>>Begin Spectral Data<<<<<
801.071	3770
801.214	3698
801.356	3701
801.499	3774
801.641	3720
801.783	3759
801.926	3880
802.068	3827
802.211	3892
802.353	3907
802.496	3831
802.638	3880
802.78	3899
802.923	3903
803.065	3892
803.208	3896
803.35	3842
803.492	3903
803.635	3953
803.777	3884
803.919	3880
804.061	4177
804.204	3964
804.346	3975
804.488	3941
804.63	4059
804.773	3964
804.915	4010
805.057	4124
805.199	4074
805.341	4071
805.483	4109
805.626	4158
805.768	4093
805.91	4196
806.052	4219
806.194	4215
806.336	4371
806.478	4192
806.62	4162
806.762	4166
806.904	4257
807.046	4337
807.188	4200
807.33	4192
807.472	4211
807.614	4177
807.756	4276
807.898	4238
808.04	4219
808.182	4299
808.324	4322
808.465	4360
808.607	4421
808.749	4443
808.891	4478
809.033	4485
809.174	4375
809.316	4280
809.458	4257
809.6	4158
809.741	4147
809.883	4154
810.025	4230
810.166	4219
810.308	4223
810.45	4249
810.591	4253
810.733	4310
810.875	4516
811.016	4812
811.158	5113
811.299	5250
811.441	5296
811.582	5086
811.724	4691
811.865	4466
812.007	4489
812.148	4432
812.29	4421
812.431	4432
812.573	4421
812.714	4337
812.855	4443
812.997	4344
813.138	4500
813.279	4432
813.421	4360
813.562	4360
813.703	4333
813.845	4325
813.986	4265
814.127	4253
814.268	4234
814.41	4299
814.551	4280
814.692	4284
814.833	4238
814.974	4310
815.115	4314
815.256	4272
815.397	4227
815.539	4249
815.68	4219
815.821	4207
815.962	4348
816.103	4261
816.244	4219
816.385	4196
816.526	4268
816.666	4219
816.807	4101
816.948	4147
817.089	4139
817.23	4120
817.371	4063
817.512	4086
817.653	4074
817.793	4006
817.934	4051
818.075	4093
818.216	4063
818.356	4112
818.497	4013
818.638	3892
818.778	3907
818.919	3918
819.06	3842
819.2	3869
819.341	3869
819.481	3778
819.622	3911
819.762	3983
819.903	3918
820.043	3819
820.184	3819
820.324	3812
820.465	3850
820.605	3850
820.746	3846
820.886	3800
821.026	3884
821.167	3911
821.307	3983
821.447	3964
821.588	3994
821.728	3941
821.868	3987
822.008	3899
822.149	3918
822.289	3926
822.429	3797
822.569	3766
822.709	3766
822.849	3690
822.99	3762
823.13	3762
823.27	3770
823.41	3709
823.55	3694
823.69	3728
823.83	3740
823.97	3671
824.11	3629
824.25	3591
824.389	3584
824.529	3671
824.669	3667
824.809	3682
824.949	3778
825.089	3732
825.228	3667
825.368	3595
825.508	3572
825.648	3557
825.787	3584
825.927	3629
826.067	3614
826.206	3686
826.346	3804
826.485	3861
826.625	3876
826.765	3964
826.904	3766
827.044	3561
827.183	3519
827.323	3431
827.462	3469
827.601	3439
827.741	3431
827.88	3424
828.02	3359
828.159	3435
828.298	3511
828.437	3542
828.577	3447
828.716	3545
828.855	3530
828.994	3378
829.134	3340
829.273	3439
829.412	3348
829.551	3325
829.69	3348
829.829	3409
829.968	3511
830.107	3454
830.246	3447
830.385	3382
830.524	3363
830.663	3287
830.802	3245
830.941	3214
831.08	3218
831.219	3287
831.357	3287
831.496	3412
831.635	3253
831.774	3188
831.913	3180
832.051	3123
832.19	3142
832.329	3207
832.467	3123
832.606	3093
832.744	3192
832.883	3176
833.022	3165
833.16	3249
833.299	3283
833.437	3340
833.576	3378
833.714	3378
833.852	3428
833.991	3435
834.129	3454
834.267	3477
834.406	3412
834.544	3443
834.682	3450
834.821	3416
834.959	3576
835.097	3401
835.235	3538
835.373	3492
835.511	3485
835.65	3477
835.788	3496
835.926	3378
836.064	3393
836.202	3412
836.34	3568
836.478	3610
836.615	3553
836.753	3610
836.891	3656
837.029	3622
837.167	3523
837.305	3542
837.443	3519
837.58	3526
837.718	3584
837.856	3564
837.993	3534
838.131	3591
838.269	3568
838.406	3603
838.544	3584
838.681	3496
838.819	3462
838.956	3370
839.094	3397
839.231	3428
839.369	3485
839.506	3720
839.643	3595
839.781	3469
839.918	3435
840.055	3504
840.193	3507
840.33	3584
840.467	3561
840.604	3584
840.742	3838
840.879	3599
841.016	3564
841.153	3572
841.29	3751
841.427	3694
841.564	3701
841.701	3747
841.838	3667
841.975	3682
842.112	3732
842.249	3629
842.385	3618
842.522	3835
842.659	3679
842.796	3679
842.933	3713
843.069	3755
843.206	3698
843.343	3812
843.479	3774
843.616	3823
843.752	3663
843.889	3701
844.025	3804
844.162	3732
844.298	3861
844.435	3774
844.571	3747
844.708	3888
844.844	3983
844.98	4025
845.117	4002
845.253	3876
845.389	3934
845.525	3934
845.661	3998
845.798	3953
845.934	4006
846.07	3903
846.206	4082
846.342	4109
846.478	4025
846.614	4006
846.75	3953
846.886	3911
847.022	4010
847.158	4006
847.294	4032
847.429	4017
847.565	3979
847.701	4246
847.837	3876
847.972	3850
848.108	4036
848.244	3922
848.379	3865
848.515	3812
848.65	3842
848.786	3831
848.921	3850
849.057	3937
849.192	3953
849.328	3896
849.463	3884
849.598	3880
849.734	3857
849.869	3873
850.004	3781
850.14	3770
850.275	3778
850.41	3778
850.545	3766
850.68	3785
850.815	3778
850.95	3797
851.085	3949
851.22	3869
851.355	3846
851.49	3800
851.625	3770
851.76	3789
851.895	3762
852.03	3717
852.165	3808
852.299	3804
852.434	3873
852.569	3873
852.703	3903
852.838	3937
852.973	3998
853.107	3983
853.242	3888
853.376	3827
853.511	3762
853.645	3812
853.78	3949
853.914	3934
854.048	3926
854.183	3884
854.317	3911
854.451	4078
854.585	4002
854.72	3953
854.854	4082
854.988	3892
855.122	3991
855.256	3964
855.39	3972
855.524	4082
855.658	4071
855.792	4124
855.926	4109
856.06	4188
856.194	4219
856.327	4105
856.461	4109
856.595	4131
856.729	4166
856.862	4265
856.996	4211
857.13	4272
857.263	4344
857.397	4306
857.53	4314
857.664	4367
857.797	4386
857.931	4421
858.064	4356
858.197	4440
858.331	4329
858.464	4409
858.597	4333
858.731	4443
858.864	4462
858.997	4447
859.13	4493
859.263	4519
859.396	4569
859.529	4531
859.662	4573
859.795	4493
859.928	4634
860.061	4733
860.194	4694
860.327	4626
860.46	4660
860.592	4679
860.725	4752
860.858	4752
860.99	4660
861.123	4672
861.256	4706
861.388	4774
861.521	5398
861.653	4729
861.786	4714
861.918	4736
862.05	4778
862.183	4824
862.315	4885
862.447	4938
862.58	4862
862.712	4805
862.844	4729
862.976	4938
863.108	4873
863.24	5284
863.372	4812
863.504	4873
863.636	4934
863.768	4946
863.9	4949
864.032	4930
864.164	4980
864.296	5041
864.428	5098
864.559	5151
864.691	5166
864.823	5105
864.954	5094
865.086	5124
865.217	5136
865.349	5159
865.48	5151
865.612	5155
865.743	5311
865.875	5170
866.006	5178
866.137	5189
866.269	5235
866.4	5212
866.531	5242
866.662	5258
866.793	5231
866.924	5280
867.055	5345
867.186	5315
867.317	5372
867.448	5250
867.579	5322
867.71	5402
867.841	5379
867.972	5471
868.103	5455
868.233	5490
868.364	5455
868.495	5554
868.625	5680
868.756	5790
868.886	5722
869.017	5745
869.147	5824
869.278	5855
869.408	5821
869.539	5790
869.669	5897
869.799	5923
869.929	5984
870.06	6038
870.19	6190
870.32	6190
870.45	6243
870.58	6273
870.71	6395
870.84	6483
870.97	6369
871.1	6391
871.23	6620
871.36	6711
871.489	6642
871.619	6719
871.749	6734
871.879	6878
872.008	6993
872.138	6973
872.267	7019
872.397	6989
872.526	7057
872.656	7038
872.785	7141
872.915	7369
873.044	7533
873.173	7518
873.303	7693
873.432	7761
873.561	7814
873.69	7879
873.819	7986
873.948	8218
874.077	8259
874.206	8309
874.335	8431
874.464	8701
874.593	8845
874.722	8982
874.851	9135
874.979	9249
875.108	9393
875.237	9397
875.365	9469
875.494	9641
875.623	9827
875.751	9759
875.88	9991
876.008	10120
876.136	10253
876.265	10497
876.393	10710
876.521	10660
876.65	10790
876.778	10942
876.906	10889
877.034	11014
877.162	11170
877.29	11143
877.418	11307
877.546	11360
877.674	11391
877.802	11436
877.93	11512
878.058	11589
878.185	11608
878.313	11661
878.441	11802
878.568	11726
878.696	11775
878.824	11889
878.951	11908
879.079	11984
879.206	12038
879.333	12114
879.461	12011
879.588	12053
879.715	12011
879.842	12144
879.97	12114
880.097	11920
880.224	11870
880.351	11863
880.478	11935
880.605	11863
880.732	11843
880.859	12022
880.986	11824
881.112	11912
881.239	11756
881.366	11718
881.493	11630
881.619	11649
881.746	11558
881.872	11562
881.999	11585
882.125	11543
882.252	11482
882.378	11463
882.505	11562
882.631	11353
882.757	11273
882.883	11296
883.01	11322
883.136	11250
883.262	11132
883.388	11193
883.514	11189
883.64	11151
883.766	11071
883.892	10984
884.018	10991
884.143	11121
884.269	11010
884.395	10881
884.52	10786
884.646	10797
884.772	10660
884.897	10611
885.023	10710
885.148	10767
885.274	10801
885.399	10706
885.524	10660
885.65	10546
885.775	10630
885.9	10512
886.025	10599
886.15	10580
886.275	10405
886.4	10428
886.525	10360
886.65	10394
886.775	10329
886.9	10493
887.025	10527
887.149	10348
887.274	10257
887.399	10219
887.523	10211
887.648	10120
887.773	10173
887.897	10227
888.021	10200
888.146	10067
888.27	10204
888.395	10249
888.519	10177
888.643	10131
888.767	10074
888.891	10067
889.015	10029
889.139	10097
889.263	10021
889.387	10063
889.511	10109
889.635	10040
889.759	9987
889.883	9945
890.006	9998
890.13	10131
890.254	9880
890.377	9949
890.501	9804
890.624	9949
890.748	9934
890.871	9816
890.995	9675
891.118	9732
891.241	9850
891.364	9709
891.488	9892
891.611	9686
891.734	9766
891.857	9800
891.98	9663
892.103	9736
892.226	9720
892.349	9728
892.471	9526
892.594	9629
892.717	9633
892.839	9549
892.962	9637
893.085	9572
893.207	9553
893.33	9568
893.452	9466
893.575	9591
893.697	9523
893.819	9622
893.941	9542
894.064	9557
894.186	9450
894.308	9401
894.43	9515
894.552	9584
894.674	9469
894.796	9443
894.918	9435
895.04	9378
895.161	9370
895.283	9348
895.405	9253
895.526	9256
895.648	9321
895.769	9222
895.891	9233
896.012	9264
896.134	9237
896.255	9180
896.376	9142
896.498	9097
896.619	9116
896.74	9055
896.861	9055
896.982	9260
897.103	9283
897.224	9127
897.345	9104
897.466	8998
897.587	8998
897.708	9028
897.828	8998
897.949	8929
898.07	8857
898.19	8941
898.311	9024
898.431	8921
898.552	8895
898.672	9005
898.792	8929
898.913	8933
899.033	8750
899.153	8716
899.273	8663
899.393	8724
899.513	8750
899.633	8697
899.753	8769
899.873	8697
899.993	8781
900.113	8644
900.232	8705
900.352	8644
900.472	8590
900.591	8556
900.711	8632
900.83	8518
900.95	8667
901.069	8792
901.189	8579
901.308	8400
901.427	8427
901.546	8431
901.665	8431
901.784	8454
901.904	8404
902.023	8343
902.141	8100
902.26	8168
902.379	8290
902.498	8187
902.617	8279
902.735	8282
902.854	8256
902.973	8332
903.091	8062
903.21	8199
903.328	8195
903.446	8142
903.565	8096
903.683	8115
903.801	8035
903.919	8119
904.038	8126
904.156	8008
904.274	8035
904.392	8012
904.51	8050
904.627	8062
904.745	8096
904.863	8111
904.981	7932
905.098	7852
905.216	7845
905.334	7982
905.451	7868
905.569	7795
905.686	7928
905.803	7951
905.921	7761
906.038	7959
906.155	7852
906.272	7658
906.389	7746
906.506	7590
906.623	7738
906.74	7582
906.857	7533
906.974	7533
907.091	7647
907.208	7704
907.324	7681
907.441	7590
907.557	7457
907.674	7453
907.79	7415
907.907	7430
908.023	7457
908.139	7449
908.256	7422
908.372	7354
908.488	7335
908.604	7274
908.72	7240
908.836	7278
908.952	7202
909.068	7282
909.184	7285
909.3	7293
909.415	7247
909.531	7225
909.647	7133
909.762	7103
909.878	7057
909.993	7190
910.108	7076
910.224	7053
910.339	7118
910.454	6985
910.57	6981
910.685	6943
910.8	7168
910.915	7069
911.03	7034
911.145	6939
911.259	6875
911.374	6863
911.489	6878
911.604	6791
911.718	6684
911.833	6703
911.947	6669
912.062	6578
912.176	6681
912.291	6757
912.405	6650
912.519	6772
912.633	6863
912.748	6700
912.862	6696
912.976	6528
913.09	6589
913.204	6601
913.318	6639
913.431	6696
913.545	6650
913.659	6734
913.772	6681
913.886	6570
914	6536
914.113	6612
914.226	6707
914.34	6604
914.453	6559
914.566	6563
914.68	6513
914.793	6490
914.906	6407
915.019	6452
915.132	6369
915.245	6437
915.358	6475
915.47	6486
915.583	6464
915.696	6475
915.809	6574
915.921	6574
916.034	6331
916.146	6361
916.259	6388
916.371	6464
916.483	6429
916.595	6414
916.708	6437
916.82	6384
916.932	6418
917.044	6403
917.156	6407
917.268	6353
917.38	6304
917.491	6323
917.603	6350
917.715	6460
917.826	6448
917.938	6315
918.049	6224
918.161	6331
918.272	6418
918.384	6445
918.495	6334
918.606	6224
918.717	6224
918.828	6331
918.939	6327
919.05	6163
919.161	6232
919.272	6140
919.383	6159
919.494	6327
919.604	6448
919.715	6304
919.826	6228
919.936	6311
920.047	6346
920.157	6308
920.267	6456
920.378	6391
920.488	6334
920.598	6475
920.708	6566
920.818	6437
920.928	6464
921.038	6585
921.148	6589
921.258	6372
921.368	6346
921.477	6201
921.587	6239
921.697	6117
921.806	6171
921.916	6129
922.025	5984
922.134	5866
922.244	5878
922.353	5961
922.462	5805
922.571	5794
922.68	5688
922.789	5676
922.898	5646
923.007	5684
923.116	5737
923.224	5657
923.333	5726
923.442	5619
923.55	5619
923.659	5596
923.767	5638
923.876	5539
923.984	5566
924.092	5448
924.201	5520
924.309	5600
924.417	5554
924.525	5505
924.633	5539
924.741	6258
924.849	5398
924.956	5497
925.064	5379
925.172	5345
925.279	5261
925.387	5387
925.494	5326
925.602	5459
925.709	5364
925.816	5277
925.924	5318
926.031	5368
926.138	5288
926.245	5311
926.352	5273
926.459	5311
926.566	5341
926.673	5235
926.779	5075
926.886	5105
926.993	4976
927.099	5041
927.206	4999
927.312	4938
927.419	4987
927.525	4995
927.631	5014
927.737	4900
927.843	4839
927.95	4767
928.056	4793
928.162	4831
928.267	4904
928.373	5345
928.479	4877
928.585	4630
928.69	4835
928.796	4740
928.901	4706
929.007	4603
929.112	4668
929.218	4660
929.323	4599
929.428	4550
929.533	4653
929.638	4500
929.743	4546
929.848	4558
929.953	4504
930.058	4497
930.163	4314
930.267	4337
930.372	4409
930.477	4306
930.581	4497
930.685	4363
930.79	4268
930.894	4318
930.998	4246
931.103	4405
931.207	4109
931.311	4086
931.415	4036
931.519	3953
931.623	3930
