Data from glass_V78500241_1323.txt Node
Date: Wed Sep 01 19:23:40 CST 2021
User: usil
Spectrometer: V785-0024
Trigger mode: 0
Integration Time (sec): 4.000000E-1
Scans to average: 1
Nonlinearity correction enabled: false
Boxcar width: 0
Storing dark spectrum: false
XAxis mode: Wavelengths
Number of Pixels in Spectrum: 1024
>>>>>Begin Spectral Data<<<<<
801.071	3755
801.214	3740
801.356	3686
801.499	3724
801.641	3724
801.783	3774
801.926	3884
802.068	3819
802.211	3854
802.353	3876
802.496	3838
802.638	3896
802.78	3896
802.923	3926
803.065	3911
803.208	3892
803.35	3892
803.492	3896
803.635	3876
803.777	3800
803.919	3892
804.061	4158
804.204	3972
804.346	3968
804.488	3911
804.63	4063
804.773	3994
804.915	4032
805.057	4128
805.199	4002
805.341	4097
805.483	4131
805.626	4090
805.768	4109
805.91	4204
806.052	4230
806.194	4177
806.336	4344
806.478	4204
806.62	4166
806.762	4211
806.904	4265
807.046	4348
807.188	4207
807.33	4185
807.472	4310
807.614	4158
807.756	4276
807.898	4185
808.04	4200
808.182	4280
808.324	4249
808.465	4352
808.607	4405
808.749	4447
808.891	4481
809.033	4531
809.174	4363
809.316	4295
809.458	4234
809.6	4177
809.741	4128
809.883	4158
810.025	4234
810.166	4234
810.308	4234
810.45	4249
810.591	4242
810.733	4272
810.875	4512
811.016	4870
811.158	5181
811.299	5318
811.441	5280
811.582	5041
811.724	4725
811.865	4489
812.007	4493
812.148	4447
812.29	4443
812.431	4478
812.573	4417
812.714	4383
812.855	4386
812.997	4428
813.138	4443
813.279	4455
813.421	4413
813.562	4375
813.703	4280
813.845	4363
813.986	4257
814.127	4215
814.268	4234
814.41	4303
814.551	4287
814.692	4333
814.833	4272
814.974	4306
815.115	4371
815.256	4268
815.397	4306
815.539	4207
815.68	4204
815.821	4249
815.962	4341
816.103	4284
816.244	4246
816.385	4265
816.526	4329
816.666	4188
816.807	4071
816.948	4230
817.089	4158
817.23	4128
817.371	4063
817.512	4093
817.653	4093
817.793	4032
817.934	4044
818.075	4143
818.216	4109
818.356	4074
818.497	3953
818.638	3922
818.778	3911
818.919	3911
819.06	3892
819.2	3907
819.341	3869
819.481	3865
819.622	3949
819.762	3991
819.903	3953
820.043	3842
820.184	3838
820.324	3835
820.465	3873
820.605	3899
820.746	3880
820.886	3816
821.026	3941
821.167	3918
821.307	3968
821.447	3956
821.588	3975
821.728	3975
821.868	3941
822.008	3846
822.149	3899
822.289	3865
822.429	3808
822.569	3740
822.709	3812
822.849	3713
822.99	3663
823.13	3724
823.27	3785
823.41	3736
823.55	3740
823.69	3728
823.83	3709
823.97	3698
824.11	3591
824.25	3580
824.389	3622
824.529	3694
824.669	3652
824.809	3724
824.949	3743
825.089	3743
825.228	3686
825.368	3595
825.508	3576
825.648	3549
825.787	3595
825.927	3625
826.067	3622
826.206	3660
826.346	3804
826.485	3823
826.625	3903
826.765	4006
826.904	3884
827.044	3671
827.183	3572
827.323	3450
827.462	3485
827.601	3416
827.741	3431
827.88	3477
828.02	3363
828.159	3462
828.298	3454
828.437	3507
828.577	3496
828.716	3618
828.855	3507
828.994	3412
829.134	3363
829.273	3367
829.412	3374
829.551	3367
829.69	3363
829.829	3405
829.968	3519
830.107	3462
830.246	3450
830.385	3393
830.524	3344
830.663	3317
830.802	3245
830.941	3188
831.08	3211
831.219	3218
831.357	3287
831.496	3416
831.635	3237
831.774	3195
831.913	3146
832.051	3138
832.19	3161
832.329	3222
832.467	3119
832.606	3116
832.744	3195
832.883	3173
833.022	3222
833.16	3283
833.299	3245
833.437	3306
833.576	3363
833.714	3386
833.852	3439
833.991	3450
834.129	3416
834.267	3458
834.406	3389
834.544	3397
834.682	3409
834.821	3389
834.959	3553
835.097	3443
835.235	3481
835.373	3500
835.511	3530
835.65	3435
835.788	3530
835.926	3405
836.064	3382
836.202	3393
836.34	3561
836.478	3614
836.615	3561
836.753	3584
836.891	3622
837.029	3660
837.167	3557
837.305	3557
837.443	3576
837.58	3507
837.718	3648
837.856	3523
837.993	3534
838.131	3584
838.269	3564
838.406	3545
838.544	3538
838.681	3409
838.819	3473
838.956	3378
839.094	3370
839.231	3454
839.369	3530
839.506	3701
839.643	3610
839.781	3523
839.918	3443
840.055	3492
840.193	3534
840.33	3523
840.467	3576
840.604	3622
840.742	3774
840.879	3534
841.016	3576
841.153	3599
841.29	3686
841.427	3740
841.564	3747
841.701	3755
841.838	3736
841.975	3698
842.112	3690
842.249	3610
842.385	3656
842.522	3831
842.659	3698
842.796	3648
842.933	3724
843.069	3720
843.206	3694
843.343	3816
843.479	3751
843.616	3819
843.752	3709
843.889	3698
844.025	3850
844.162	3690
844.298	3865
844.435	3766
844.571	3812
844.708	3880
844.844	3968
844.98	4021
845.117	4032
845.253	3945
845.389	3884
845.525	3998
845.661	4006
845.798	3922
845.934	4044
846.07	3934
846.206	4017
846.342	4112
846.478	4067
846.614	3949
846.75	3945
846.886	3892
847.022	4048
847.158	3945
847.294	4040
847.429	4006
847.565	4010
847.701	4253
847.837	3960
847.972	3888
848.108	3983
848.244	3983
848.379	3823
848.515	3808
848.65	3789
848.786	3823
848.921	3888
849.057	3937
849.192	3934
849.328	3899
849.463	3918
849.598	3941
849.734	3869
849.869	3857
850.004	3804
850.14	3812
850.275	3774
850.41	3793
850.545	3728
850.68	3762
850.815	3816
850.95	3800
851.085	3911
851.22	3861
851.355	3861
851.49	3804
851.625	3797
851.76	3789
851.895	3736
852.03	3728
852.165	3789
852.299	3804
852.434	3880
852.569	3835
852.703	3857
852.838	3869
852.973	4017
853.107	4021
853.242	3892
853.376	3850
853.511	3728
853.645	3827
853.78	3994
853.914	3922
854.048	3903
854.183	3884
854.317	4010
854.451	4116
854.585	3949
854.72	3926
854.854	4063
854.988	3930
855.122	4021
855.256	3918
855.39	4021
855.524	4128
855.658	4139
855.792	4093
855.926	4150
856.06	4207
856.194	4173
856.327	4124
856.461	4105
856.595	4154
856.729	4162
856.862	4379
856.996	4234
857.13	4306
857.263	4363
857.397	4379
857.53	4295
857.664	4344
857.797	4379
857.931	4440
858.064	4375
858.197	4512
858.331	4402
858.464	4371
858.597	4352
858.731	4451
858.864	4443
858.997	4459
859.13	4546
859.263	4531
859.396	4550
859.529	4481
859.662	4535
859.795	4493
859.928	4630
860.061	4691
860.194	4729
860.327	4668
860.46	4634
860.592	4740
860.725	4771
860.858	4793
860.99	4675
861.123	4721
861.256	4733
861.388	4820
861.521	5417
861.653	4717
861.786	4721
861.918	4752
862.05	4850
862.183	4835
862.315	4892
862.447	4896
862.58	4892
862.712	4854
862.844	4744
862.976	4927
863.108	4873
863.24	5242
863.372	4831
863.504	4911
863.636	4927
863.768	4949
863.9	4972
864.032	4972
864.164	4999
864.296	5086
864.428	5079
864.559	5124
864.691	5117
864.823	5132
864.954	5109
865.086	5136
865.217	5140
865.349	5098
865.48	5117
865.612	5189
865.743	5258
865.875	5193
866.006	5185
866.137	5254
866.269	5216
866.4	5231
866.531	5239
866.662	5246
866.793	5235
866.924	5277
867.055	5318
867.186	5292
867.317	5341
867.448	5284
867.579	5372
867.71	5391
867.841	5345
867.972	5490
868.103	5467
868.233	5493
868.364	5486
868.495	5532
868.625	5684
868.756	5805
868.886	5657
869.017	5760
869.147	5912
869.278	5866
869.408	5805
869.539	5874
869.669	5923
869.799	5904
869.929	6011
870.06	6022
870.19	6194
870.32	6125
870.45	6262
870.58	6311
870.71	6422
870.84	6498
870.97	6426
871.1	6471
871.23	6635
871.36	6745
871.489	6692
871.619	6734
871.749	6833
871.879	6825
872.008	6973
872.138	6981
872.267	7027
872.397	7012
872.526	6993
872.656	7118
872.785	7255
872.915	7384
873.044	7495
873.173	7605
873.303	7655
873.432	7814
873.561	7883
873.69	7879
873.819	8065
873.948	8119
874.077	8248
874.206	8347
874.335	8377
874.464	8606
874.593	8853
874.722	8956
874.851	9154
874.979	9237
875.108	9374
875.237	9378
875.365	9466
875.494	9682
875.623	9884
875.751	9884
875.88	10021
876.008	10097
876.136	10238
876.265	10603
876.393	10672
876.521	10687
876.65	10767
876.778	10881
876.906	10873
877.034	11022
877.162	11124
877.29	11162
877.418	11250
877.546	11387
877.674	11573
877.802	11436
877.93	11520
878.058	11608
878.185	11589
878.313	11665
878.441	11786
878.568	11764
878.696	11783
878.824	11813
878.951	11977
879.079	11988
879.206	12121
879.333	12076
879.461	12022
879.588	12079
879.715	12133
879.842	12228
879.97	12034
880.097	11843
880.224	11897
880.351	11843
880.478	11923
880.605	11775
880.732	11824
880.859	11965
880.986	11756
881.112	11832
881.239	11809
881.366	11672
881.493	11600
881.619	11566
881.746	11585
881.872	11516
881.999	11524
882.125	11471
882.252	11585
882.378	11532
882.505	11638
882.631	11429
882.757	11296
882.883	11417
883.01	11307
883.136	11261
883.262	11132
883.388	11045
883.514	11220
883.64	11227
883.766	11140
883.892	10965
884.018	11014
884.143	11033
884.269	11128
884.395	10877
884.52	10801
884.646	10767
884.772	10759
884.897	10660
885.023	10683
885.148	10755
885.274	10774
885.399	10683
885.524	10668
885.65	10634
885.775	10683
885.9	10607
886.025	10527
886.15	10542
886.275	10432
886.4	10360
886.525	10394
886.65	10322
886.775	10367
886.9	10493
887.025	10584
887.149	10398
887.274	10249
887.399	10234
887.523	10265
887.648	10120
887.773	10185
887.897	10215
888.021	10246
888.146	10162
888.27	10249
888.395	10230
888.519	10124
888.643	10253
888.767	10154
888.891	10105
889.015	9979
889.139	10097
889.263	9983
889.387	10086
889.511	10090
889.635	10093
889.759	9972
889.883	9972
890.006	9945
890.13	10071
890.254	10006
890.377	9983
890.501	9865
890.624	9831
890.748	9941
890.871	9831
890.995	9694
891.118	9698
891.241	9724
891.364	9778
891.488	9869
891.611	9747
891.734	9701
891.857	9705
891.98	9736
892.103	9770
892.226	9679
892.349	9717
892.471	9557
892.594	9614
892.717	9599
892.839	9610
892.962	9618
893.085	9728
893.207	9526
893.33	9492
893.452	9504
893.575	9561
893.697	9450
893.819	9633
893.941	9614
894.064	9572
894.186	9538
894.308	9462
894.43	9473
894.552	9622
894.674	9507
894.796	9336
894.918	9450
895.04	9336
895.161	9363
895.283	9313
895.405	9275
895.526	9222
895.648	9287
895.769	9264
895.891	9302
896.012	9260
896.134	9203
896.255	9127
896.376	9173
896.498	9150
896.619	9013
896.74	9074
896.861	9157
896.982	9310
897.103	9325
897.224	9142
897.345	9085
897.466	9070
897.587	9013
897.708	9100
897.828	9055
897.949	9005
898.07	8872
898.19	8929
898.311	8952
898.431	8864
898.552	8960
898.672	8963
898.792	8921
898.913	8914
899.033	8823
899.153	8724
899.273	8640
899.393	8792
899.513	8705
899.633	8777
899.753	8769
899.873	8705
899.993	8777
900.113	8663
900.232	8708
900.352	8701
900.472	8644
900.591	8522
900.711	8629
900.83	8514
900.95	8636
901.069	8716
901.189	8530
901.308	8446
901.427	8419
901.546	8423
901.665	8427
901.784	8518
901.904	8442
902.023	8317
902.141	8229
902.26	8237
902.379	8343
902.498	8218
902.617	8244
902.735	8351
902.854	8271
902.973	8240
903.091	8176
903.21	8153
903.328	8210
903.446	8142
903.565	8062
903.683	8096
903.801	8073
903.919	8180
904.038	8138
904.156	8020
904.274	8058
904.392	8058
904.51	8111
904.627	8058
904.745	8084
904.863	8103
904.981	7963
905.098	7852
905.216	7921
905.334	7913
905.451	7947
905.569	7864
905.686	7917
905.803	7898
905.921	7803
906.038	7826
906.155	7799
906.272	7738
906.389	7734
906.506	7658
906.623	7674
906.74	7628
906.857	7540
906.974	7563
907.091	7731
907.208	7643
907.324	7605
907.441	7586
907.557	7438
907.674	7407
907.79	7369
907.907	7350
908.023	7499
908.139	7434
908.256	7445
908.372	7388
908.488	7301
908.604	7350
908.72	7179
908.836	7198
908.952	7259
909.068	7282
909.184	7327
909.3	7289
909.415	7285
909.531	7270
909.647	7141
909.762	7076
909.878	7080
909.993	7175
910.108	7061
910.224	7084
910.339	7110
910.454	7065
910.57	6989
910.685	6905
910.8	7149
910.915	7149
911.03	7012
911.145	6916
911.259	6863
911.374	6894
911.489	6825
911.604	6776
911.718	6772
911.833	6730
911.947	6673
912.062	6532
912.176	6738
912.291	6741
912.405	6665
912.519	6791
912.633	6882
912.748	6741
912.862	6711
912.976	6506
913.09	6544
913.204	6555
913.318	6654
913.431	6696
913.545	6650
913.659	6696
913.772	6642
913.886	6525
914	6547
914.113	6623
914.226	6635
914.34	6665
914.453	6536
914.566	6681
914.68	6475
914.793	6502
914.906	6422
915.019	6357
915.132	6403
915.245	6426
915.358	6445
915.47	6486
915.583	6464
915.696	6448
915.809	6506
915.921	6544
916.034	6486
916.146	6357
916.259	6365
916.371	6498
916.483	6395
916.595	6357
916.708	6395
916.82	6410
916.932	6407
917.044	6384
917.156	6403
917.268	6357
917.38	6327
917.491	6338
917.603	6331
917.715	6399
917.826	6418
917.938	6357
918.049	6315
918.161	6308
918.272	6395
918.384	6448
918.495	6334
918.606	6258
918.717	6216
918.828	6262
918.939	6315
919.05	6182
919.161	6254
919.272	6057
919.383	6110
919.494	6266
919.604	6464
919.715	6308
919.826	6224
919.936	6205
920.047	6270
920.157	6289
920.267	6486
920.378	6342
920.488	6270
920.598	6479
920.708	6540
920.818	6460
920.928	6483
921.038	6604
921.148	6582
921.258	6342
921.368	6346
921.477	6243
921.587	6171
921.697	6129
921.806	6152
921.916	6079
922.025	5958
922.134	5931
922.244	5901
922.353	6007
922.462	5855
922.571	5764
922.68	5714
922.789	5733
922.898	5745
923.007	5657
923.116	5699
923.224	5657
923.333	5703
923.442	5619
923.55	5604
923.659	5592
923.767	5585
923.876	5543
923.984	5634
924.092	5493
924.201	5562
924.309	5528
924.417	5562
924.525	5486
924.633	5474
924.741	6281
924.849	5421
924.956	5474
925.064	5429
925.172	5326
925.279	5330
925.387	5318
925.494	5337
925.602	5440
925.709	5360
925.816	5250
925.924	5337
926.031	5315
926.138	5277
926.245	5322
926.352	5208
926.459	5307
926.566	5326
926.673	5235
926.779	5151
926.886	5109
926.993	4987
927.099	5037
927.206	4904
927.312	4953
927.419	4995
927.525	5022
927.631	5014
927.737	4873
927.843	4870
927.95	4740
928.056	4877
928.162	4786
928.267	4854
928.373	5337
928.479	4805
928.585	4683
928.69	4767
928.796	4831
928.901	4702
929.007	4656
929.112	4710
929.218	4641
929.323	4637
929.428	4577
929.533	4641
929.638	4531
929.743	4584
929.848	4580
929.953	4538
930.058	4462
930.163	4379
930.267	4303
930.372	4474
930.477	4287
930.581	4478
930.685	4344
930.79	4249
930.894	4276
930.998	4280
931.103	4409
931.207	4207
931.311	4109
931.415	4029
931.519	3941
931.623	3937
