Data from glass_V78500241_1179.txt Node
Date: Wed Sep 01 19:22:40 CST 2021
User: usil
Spectrometer: V785-0024
Trigger mode: 0
Integration Time (sec): 4.000000E-1
Scans to average: 1
Nonlinearity correction enabled: false
Boxcar width: 0
Storing dark spectrum: false
XAxis mode: Wavelengths
Number of Pixels in Spectrum: 1024
>>>>>Begin Spectral Data<<<<<
801.071	3732
801.214	3751
801.356	3720
801.499	3778
801.641	3728
801.783	3819
801.926	3846
802.068	3846
802.211	3854
802.353	3896
802.496	3842
802.638	3892
802.78	3926
802.923	3945
803.065	3865
803.208	3873
803.35	3857
803.492	3842
803.635	3899
803.777	3800
803.919	3941
804.061	4120
804.204	3975
804.346	3956
804.488	3960
804.63	4059
804.773	4010
804.915	4044
805.057	4173
805.199	4029
805.341	4109
805.483	4120
805.626	4128
805.768	4166
805.91	4215
806.052	4272
806.194	4215
806.336	4341
806.478	4200
806.62	4181
806.762	4188
806.904	4280
807.046	4337
807.188	4147
807.33	4188
807.472	4242
807.614	4249
807.756	4215
807.898	4257
808.04	4211
808.182	4265
808.324	4352
808.465	4409
808.607	4478
808.749	4512
808.891	4489
809.033	4508
809.174	4443
809.316	4272
809.458	4223
809.6	4169
809.741	4169
809.883	4154
810.025	4223
810.166	4227
810.308	4200
810.45	4261
810.591	4200
810.733	4276
810.875	4554
811.016	4809
811.158	5151
811.299	5280
811.441	5303
811.582	5003
811.724	4736
811.865	4462
812.007	4493
812.148	4417
812.29	4413
812.431	4417
812.573	4409
812.714	4356
812.855	4440
812.997	4424
813.138	4466
813.279	4394
813.421	4417
813.562	4421
813.703	4322
813.845	4348
813.986	4272
814.127	4242
814.268	4299
814.41	4299
814.551	4253
814.692	4329
814.833	4261
814.974	4310
815.115	4322
815.256	4303
815.397	4215
815.539	4253
815.68	4211
815.821	4223
815.962	4306
816.103	4253
816.244	4238
816.385	4257
816.526	4257
816.666	4211
816.807	4120
816.948	4188
817.089	4215
817.23	4131
817.371	4036
817.512	4093
817.653	4086
817.793	4040
817.934	4051
818.075	4063
818.216	4131
818.356	4048
818.497	4025
818.638	3922
818.778	3888
818.919	3907
819.06	3873
819.2	3949
819.341	3873
819.481	3857
819.622	3926
819.762	4017
819.903	3979
820.043	3831
820.184	3808
820.324	3804
820.465	3857
820.605	3884
820.746	3880
820.886	3827
821.026	3926
821.167	3953
821.307	3998
821.447	3994
821.588	3972
821.728	4010
821.868	3937
822.008	3873
822.149	3915
822.289	3915
822.429	3800
822.569	3751
822.709	3812
822.849	3701
822.99	3747
823.13	3808
823.27	3766
823.41	3713
823.55	3724
823.69	3705
823.83	3743
823.97	3652
824.11	3637
824.25	3606
824.389	3686
824.529	3644
824.669	3637
824.809	3698
824.949	3755
825.089	3717
825.228	3720
825.368	3603
825.508	3553
825.648	3606
825.787	3595
825.927	3629
826.067	3663
826.206	3667
826.346	3793
826.485	3850
826.625	3907
826.765	3930
826.904	3835
827.044	3622
827.183	3564
827.323	3435
827.462	3481
827.601	3443
827.741	3443
827.88	3447
828.02	3397
828.159	3481
828.298	3500
828.437	3534
828.577	3504
828.716	3595
828.855	3542
828.994	3389
829.134	3367
829.273	3454
829.412	3367
829.551	3340
829.69	3348
829.829	3458
829.968	3564
830.107	3477
830.246	3405
830.385	3348
830.524	3351
830.663	3291
830.802	3264
830.941	3230
831.08	3211
831.219	3291
831.357	3253
831.496	3435
831.635	3260
831.774	3195
831.913	3203
832.051	3131
832.19	3157
832.329	3188
832.467	3150
832.606	3104
832.744	3176
832.883	3180
833.022	3192
833.16	3275
833.299	3283
833.437	3329
833.576	3374
833.714	3382
833.852	3424
833.991	3428
834.129	3492
834.267	3431
834.406	3370
834.544	3435
834.682	3397
834.821	3393
834.959	3622
835.097	3420
835.235	3538
835.373	3526
835.511	3492
835.65	3443
835.788	3511
835.926	3416
836.064	3397
836.202	3420
836.34	3591
836.478	3618
836.615	3526
836.753	3606
836.891	3694
837.029	3679
837.167	3591
837.305	3572
837.443	3530
837.58	3492
837.718	3660
837.856	3584
837.993	3534
838.131	3599
838.269	3618
838.406	3603
838.544	3618
838.681	3477
838.819	3462
838.956	3420
839.094	3382
839.231	3458
839.369	3557
839.506	3743
839.643	3629
839.781	3511
839.918	3549
840.055	3519
840.193	3530
840.33	3519
840.467	3568
840.604	3603
840.742	3812
840.879	3564
841.016	3599
841.153	3599
841.29	3747
841.427	3766
841.564	3736
841.701	3762
841.838	3717
841.975	3751
842.112	3785
842.249	3644
842.385	3686
842.522	3819
842.659	3705
842.796	3732
842.933	3713
843.069	3724
843.206	3698
843.343	3808
843.479	3797
843.616	3838
843.752	3732
843.889	3644
844.025	3861
844.162	3736
844.298	3808
844.435	3838
844.571	3797
844.708	3907
844.844	3972
844.98	4078
845.117	4029
845.253	3922
845.389	3880
845.525	3987
845.661	3953
845.798	3880
845.934	4010
846.07	3926
846.206	4044
846.342	4131
846.478	4078
846.614	3953
846.75	3930
846.886	3949
847.022	4017
847.158	3968
847.294	4021
847.429	4032
847.565	4002
847.701	4272
847.837	3903
847.972	3861
848.108	3922
848.244	4021
848.379	3854
848.515	3850
848.65	3804
848.786	3850
848.921	3911
849.057	3907
849.192	3964
849.328	3896
849.463	3930
849.598	3888
849.734	3854
849.869	3842
850.004	3759
850.14	3842
850.275	3778
850.41	3736
850.545	3774
850.68	3812
850.815	3816
850.95	3808
851.085	3964
851.22	3941
851.355	3823
851.49	3766
851.625	3797
851.76	3766
851.895	3740
852.03	3724
852.165	3831
852.299	3861
852.434	3918
852.569	3857
852.703	3888
852.838	3922
852.973	3998
853.107	4002
853.242	3876
853.376	3854
853.511	3762
853.645	3819
853.78	3994
853.914	3918
854.048	3911
854.183	3899
854.317	3972
854.451	4154
854.585	3964
854.72	3934
854.854	4059
854.988	3911
855.122	4074
855.256	3915
855.39	4055
855.524	4074
855.658	4112
855.792	4101
855.926	4131
856.06	4150
856.194	4196
856.327	4124
856.461	4131
856.595	4192
856.729	4192
856.862	4310
856.996	4280
857.13	4322
857.263	4314
857.397	4383
857.53	4268
857.664	4344
857.797	4398
857.931	4440
858.064	4428
858.197	4424
858.331	4379
858.464	4352
858.597	4344
858.731	4421
858.864	4459
858.997	4455
859.13	4516
859.263	4519
859.396	4580
859.529	4546
859.662	4542
859.795	4531
859.928	4611
860.061	4717
860.194	4744
860.327	4645
860.46	4656
860.592	4725
860.725	4786
860.858	4759
860.99	4698
861.123	4721
861.256	4710
861.388	4740
861.521	5357
861.653	4717
861.786	4752
861.918	4755
862.05	4767
862.183	4870
862.315	4930
862.447	4942
862.58	4904
862.712	4797
862.844	4763
862.976	4828
863.108	4858
863.24	5143
863.372	4835
863.504	4934
863.636	4934
863.768	4923
863.9	5018
864.032	4980
864.164	4972
864.296	4995
864.428	5071
864.559	5071
864.691	5124
864.823	5105
864.954	5136
865.086	5178
865.217	5143
865.349	5117
865.48	5181
865.612	5204
865.743	5299
865.875	5208
866.006	5185
866.137	5273
866.269	5296
866.4	5258
866.531	5246
866.662	5216
866.793	5235
866.924	5246
867.055	5349
867.186	5315
867.317	5311
867.448	5292
867.579	5353
867.71	5383
867.841	5433
867.972	5421
868.103	5429
868.233	5524
868.364	5520
868.495	5592
868.625	5684
868.756	5786
868.886	5611
869.017	5775
869.147	5882
869.278	5840
869.408	5824
869.539	5813
869.669	5950
869.799	5904
869.929	5965
870.06	6011
870.19	6155
870.32	6228
870.45	6243
870.58	6346
870.71	6437
870.84	6475
870.97	6437
871.1	6426
871.23	6604
871.36	6703
871.489	6650
871.619	6776
871.749	6776
871.879	6882
872.008	6977
872.138	6989
872.267	7023
872.397	7057
872.526	7019
872.656	7088
872.785	7156
872.915	7411
873.044	7476
873.173	7597
873.303	7658
873.432	7727
873.561	7818
873.69	7913
873.819	8039
873.948	8191
874.077	8271
874.206	8377
874.335	8446
874.464	8659
874.593	8952
874.722	8944
874.851	9097
874.979	9237
875.108	9405
875.237	9435
875.365	9462
875.494	9656
875.623	9785
875.751	9854
875.88	9991
876.008	10067
876.136	10215
876.265	10462
876.393	10653
876.521	10702
876.65	10805
876.778	10961
876.906	10881
877.034	10949
877.162	11094
877.29	11067
877.418	11284
877.546	11318
877.674	11448
877.802	11474
877.93	11592
878.058	11505
878.185	11558
878.313	11649
878.441	11775
878.568	11672
878.696	11726
878.824	11843
878.951	11904
879.079	12041
879.206	12125
879.333	12026
879.461	11958
879.588	12007
879.715	12083
879.842	12258
879.97	12053
880.097	11984
880.224	11939
880.351	11923
880.478	11904
880.605	11775
880.732	11783
880.859	11954
880.986	11840
881.112	11916
881.239	11672
881.366	11661
881.493	11532
881.619	11577
881.746	11566
881.872	11532
881.999	11543
882.125	11520
882.252	11596
882.378	11566
882.505	11512
882.631	11414
882.757	11292
882.883	11345
883.01	11299
883.136	11178
883.262	11124
883.388	11124
883.514	11159
883.64	11239
883.766	11162
883.892	11037
884.018	10972
884.143	11010
884.269	11094
884.395	10869
884.52	10797
884.646	10831
884.772	10778
884.897	10683
885.023	10729
885.148	10683
885.274	10771
885.399	10755
885.524	10660
885.65	10584
885.775	10637
885.9	10592
886.025	10622
886.15	10558
886.275	10497
886.4	10424
886.525	10440
886.65	10428
886.775	10322
886.9	10447
887.025	10538
887.149	10375
887.274	10268
887.399	10234
887.523	10211
887.648	10173
887.773	10188
887.897	10219
888.021	10261
888.146	10173
888.27	10242
888.395	10257
888.519	10109
888.643	10253
888.767	10150
888.891	10139
889.015	10025
889.139	10051
889.263	9918
889.387	10086
889.511	10097
889.635	10086
889.759	9945
889.883	10006
890.006	10002
890.13	10135
890.254	9892
890.377	9972
890.501	9857
890.624	9876
890.748	9945
890.871	9831
890.995	9759
891.118	9759
891.241	9816
891.364	9778
891.488	9755
891.611	9713
891.734	9686
891.857	9816
891.98	9663
892.103	9850
892.226	9728
892.349	9648
892.471	9561
892.594	9644
892.717	9633
892.839	9526
892.962	9576
893.085	9686
893.207	9603
893.33	9534
893.452	9473
893.575	9587
893.697	9553
893.819	9584
893.941	9610
894.064	9660
894.186	9454
894.308	9454
894.43	9561
894.552	9599
894.674	9568
894.796	9363
894.918	9416
895.04	9336
895.161	9370
895.283	9294
895.405	9268
895.526	9351
895.648	9355
895.769	9298
895.891	9195
896.012	9306
896.134	9214
896.255	9154
896.376	9154
896.498	9226
896.619	9127
896.74	9112
896.861	9085
896.982	9302
897.103	9291
897.224	9188
897.345	9036
897.466	8967
897.587	9062
897.708	9028
897.828	9009
897.949	8952
898.07	8933
898.19	8937
898.311	9020
898.431	8906
898.552	8906
898.672	9017
898.792	8979
898.913	8929
899.033	8807
899.153	8758
899.273	8663
899.393	8716
899.513	8731
899.633	8708
899.753	8750
899.873	8659
899.993	8746
900.113	8701
900.232	8735
900.352	8613
900.472	8621
900.591	8575
900.711	8640
900.83	8526
900.95	8667
901.069	8773
901.189	8556
901.308	8454
901.427	8400
901.546	8332
901.665	8488
901.784	8522
901.904	8355
902.023	8381
902.141	8229
902.26	8202
902.379	8256
902.498	8187
902.617	8275
902.735	8393
902.854	8225
902.973	8279
903.091	8134
903.21	8221
903.328	8119
903.446	8191
903.565	8088
903.683	8115
903.801	8050
903.919	8119
904.038	8096
904.156	8077
904.274	8081
904.392	7986
904.51	7997
904.627	8115
904.745	8123
904.863	8081
904.981	7986
905.098	7845
905.216	7947
905.334	7917
905.451	7925
905.569	7940
905.686	7944
905.803	7993
905.921	7807
906.038	7906
906.155	7845
906.272	7761
906.389	7753
906.506	7666
906.623	7658
906.74	7632
906.857	7521
906.974	7590
907.091	7601
907.208	7708
907.324	7651
907.441	7590
907.557	7430
907.674	7499
907.79	7377
907.907	7403
908.023	7434
908.139	7434
908.256	7365
908.372	7346
908.488	7384
908.604	7198
908.72	7228
908.836	7274
908.952	7297
909.068	7213
909.184	7297
909.3	7251
909.415	7312
909.531	7270
909.647	7152
909.762	7156
909.878	7110
909.993	7084
910.108	7164
910.224	7107
910.339	7129
910.454	7069
910.57	7057
910.685	6954
910.8	7164
910.915	7091
911.03	7072
911.145	6916
911.259	6897
911.374	6867
911.489	6833
911.604	6848
911.718	6715
911.833	6745
911.947	6703
912.062	6673
912.176	6745
912.291	6688
912.405	6696
912.519	6825
912.633	6867
912.748	6753
912.862	6715
912.976	6608
913.09	6521
913.204	6601
913.318	6608
913.431	6738
913.545	6688
913.659	6760
913.772	6681
913.886	6585
914	6566
914.113	6608
914.226	6642
914.34	6616
914.453	6486
914.566	6601
914.68	6521
914.793	6528
914.906	6407
915.019	6365
915.132	6357
915.245	6376
915.358	6467
915.47	6471
915.583	6452
915.696	6521
915.809	6517
915.921	6528
916.034	6445
916.146	6452
916.259	6365
916.371	6467
916.483	6479
916.595	6380
916.708	6403
916.82	6448
916.932	6388
917.044	6395
917.156	6414
917.268	6273
917.38	6357
917.491	6323
917.603	6365
917.715	6407
917.826	6418
917.938	6346
918.049	6266
918.161	6331
918.272	6384
918.384	6445
918.495	6353
918.606	6281
918.717	6209
918.828	6266
918.939	6292
919.05	6251
919.161	6235
919.272	6182
919.383	6197
919.494	6277
919.604	6441
919.715	6319
919.826	6239
919.936	6243
920.047	6334
920.157	6281
920.267	6456
920.378	6296
920.488	6270
920.598	6471
920.708	6528
920.818	6456
920.928	6456
921.038	6623
921.148	6570
921.258	6342
921.368	6308
921.477	6190
921.587	6216
921.697	6041
921.806	6209
921.916	6057
922.025	5999
922.134	5927
922.244	5912
922.353	5980
922.462	5855
922.571	5851
922.68	5718
922.789	5688
922.898	5767
923.007	5668
923.116	5646
923.224	5680
923.333	5756
923.442	5642
923.55	5554
923.659	5577
923.767	5661
923.876	5600
923.984	5642
924.092	5501
924.201	5581
924.309	5547
924.417	5570
924.525	5490
924.633	5474
924.741	6296
924.849	5357
924.956	5505
925.064	5330
925.172	5311
925.279	5353
925.387	5368
925.494	5341
925.602	5448
925.709	5410
925.816	5318
925.924	5402
926.031	5391
926.138	5292
926.245	5337
926.352	5220
926.459	5345
926.566	5368
926.673	5258
926.779	5151
926.886	5124
926.993	5052
927.099	5037
927.206	4972
927.312	4938
927.419	4976
927.525	4972
927.631	5022
927.737	4915
927.843	4850
927.95	4801
928.056	4847
928.162	4801
928.267	4908
928.373	5326
928.479	4809
928.585	4653
928.69	4824
928.796	4744
928.901	4698
929.007	4596
929.112	4694
929.218	4649
929.323	4618
929.428	4592
929.533	4626
929.638	4523
929.743	4542
929.848	4558
929.953	4519
930.058	4432
930.163	4356
930.267	4363
930.372	4470
930.477	4284
930.581	4485
930.685	4352
930.79	4272
930.894	4295
930.998	4287
931.103	4417
931.207	4166
931.311	4135
931.415	4063
931.519	3945
931.623	3964
