Data from glass_V78500241_913.txt Node
Date: Wed Sep 01 19:20:49 CST 2021
User: usil
Spectrometer: V785-0024
Trigger mode: 0
Integration Time (sec): 4.000000E-1
Scans to average: 1
Nonlinearity correction enabled: false
Boxcar width: 0
Storing dark spectrum: false
XAxis mode: Wavelengths
Number of Pixels in Spectrum: 1024
>>>>>Begin Spectral Data<<<<<
801.071	3732
801.214	3781
801.356	3724
801.499	3778
801.641	3709
801.783	3819
801.926	3850
802.068	3835
802.211	3865
802.353	3922
802.496	3873
802.638	3899
802.78	3896
802.923	3934
803.065	3884
803.208	3865
803.35	3888
803.492	3960
803.635	3930
803.777	3797
803.919	3892
804.061	4169
804.204	3972
804.346	3953
804.488	3934
804.63	4074
804.773	3991
804.915	4036
805.057	4150
805.199	4025
805.341	4128
805.483	4135
805.626	4143
805.768	4074
805.91	4188
806.052	4223
806.194	4238
806.336	4409
806.478	4223
806.62	4112
806.762	4200
806.904	4284
807.046	4363
807.188	4181
807.33	4166
807.472	4227
807.614	4227
807.756	4276
807.898	4196
808.04	4204
808.182	4329
808.324	4310
808.465	4428
808.607	4466
808.749	4459
808.891	4489
809.033	4546
809.174	4375
809.316	4234
809.458	4230
809.6	4135
809.741	4158
809.883	4173
810.025	4223
810.166	4185
810.308	4253
810.45	4242
810.591	4242
810.733	4272
810.875	4554
811.016	4850
811.158	5193
811.299	5368
811.441	5292
811.582	5113
811.724	4717
811.865	4421
812.007	4512
812.148	4394
812.29	4478
812.431	4394
812.573	4402
812.714	4398
812.855	4390
812.997	4432
813.138	4478
813.279	4409
813.421	4398
813.562	4348
813.703	4344
813.845	4371
813.986	4268
814.127	4265
814.268	4299
814.41	4272
814.551	4280
814.692	4352
814.833	4280
814.974	4314
815.115	4325
815.256	4253
815.397	4268
815.539	4253
815.68	4192
815.821	4211
815.962	4299
816.103	4261
816.244	4276
816.385	4280
816.526	4299
816.666	4253
816.807	4112
816.948	4192
817.089	4185
817.23	4150
817.371	4029
817.512	4078
817.653	4063
817.793	4097
817.934	4097
818.075	4078
818.216	4116
818.356	4078
818.497	4013
818.638	3918
818.778	3896
818.919	3934
819.06	3884
819.2	3903
819.341	3857
819.481	3892
819.622	3915
819.762	4051
819.903	3922
820.043	3896
820.184	3899
820.324	3865
820.465	3857
820.605	3854
820.746	3854
820.886	3838
821.026	3918
821.167	3911
821.307	3975
821.447	3979
821.588	4002
821.728	3991
821.868	3934
822.008	3892
822.149	3922
822.289	3934
822.429	3823
822.569	3762
822.709	3804
822.849	3751
822.99	3724
823.13	3762
823.27	3781
823.41	3709
823.55	3770
823.69	3740
823.83	3720
823.97	3728
824.11	3614
824.25	3595
824.389	3701
824.529	3641
824.669	3625
824.809	3728
824.949	3740
825.089	3732
825.228	3713
825.368	3622
825.508	3568
825.648	3603
825.787	3625
825.927	3663
826.067	3622
826.206	3648
826.346	3816
826.485	3819
826.625	3873
826.765	3960
826.904	3816
827.044	3660
827.183	3564
827.323	3462
827.462	3523
827.601	3443
827.741	3439
827.88	3443
828.02	3397
828.159	3447
828.298	3504
828.437	3561
828.577	3462
828.716	3610
828.855	3526
828.994	3389
829.134	3389
829.273	3355
829.412	3378
829.551	3386
829.69	3382
829.829	3416
829.968	3519
830.107	3450
830.246	3458
830.385	3340
830.524	3321
830.663	3329
830.802	3272
830.941	3218
831.08	3237
831.219	3279
831.357	3264
831.496	3416
831.635	3233
831.774	3211
831.913	3203
832.051	3135
832.19	3131
832.329	3237
832.467	3150
832.606	3123
832.744	3161
832.883	3192
833.022	3230
833.16	3287
833.299	3313
833.437	3359
833.576	3382
833.714	3386
833.852	3416
833.991	3450
834.129	3481
834.267	3420
834.406	3420
834.544	3477
834.682	3393
834.821	3424
834.959	3568
835.097	3416
835.235	3530
835.373	3435
835.511	3538
835.65	3469
835.788	3534
835.926	3397
836.064	3393
836.202	3409
836.34	3568
836.478	3652
836.615	3591
836.753	3652
836.891	3618
837.029	3644
837.167	3576
837.305	3591
837.443	3542
837.58	3523
837.718	3618
837.856	3553
837.993	3580
838.131	3587
838.269	3603
838.406	3591
838.544	3580
838.681	3511
838.819	3466
838.956	3416
839.094	3420
839.231	3439
839.369	3553
839.506	3751
839.643	3625
839.781	3534
839.918	3500
840.055	3534
840.193	3523
840.33	3500
840.467	3553
840.604	3633
840.742	3819
840.879	3561
841.016	3542
841.153	3614
841.29	3762
841.427	3724
841.564	3690
841.701	3759
841.838	3713
841.975	3698
842.112	3736
842.249	3663
842.385	3663
842.522	3800
842.659	3698
842.796	3701
842.933	3728
843.069	3762
843.206	3743
843.343	3850
843.479	3804
843.616	3857
843.752	3732
843.889	3720
844.025	3831
844.162	3728
844.298	3838
844.435	3808
844.571	3774
844.708	3892
844.844	3994
844.98	4025
845.117	3994
845.253	3937
845.389	3899
845.525	3972
845.661	3975
845.798	3949
845.934	3991
846.07	3975
846.206	4051
846.342	4120
846.478	4074
846.614	3941
846.75	3968
846.886	3899
847.022	4074
847.158	3911
847.294	4097
847.429	4055
847.565	4013
847.701	4230
847.837	3896
847.972	3850
848.108	3994
848.244	4025
848.379	3861
848.515	3804
848.65	3861
848.786	3907
848.921	3903
849.057	3926
849.192	3953
849.328	3876
849.463	3937
849.598	3892
849.734	3930
849.869	3823
850.004	3778
850.14	3789
850.275	3812
850.41	3717
850.545	3789
850.68	3789
850.815	3793
850.95	3789
851.085	3953
851.22	3892
851.355	3819
851.49	3766
851.625	3823
851.76	3781
851.895	3732
852.03	3751
852.165	3789
852.299	3850
852.434	3888
852.569	3873
852.703	3880
852.838	3915
852.973	3994
853.107	4010
853.242	3937
853.376	3899
853.511	3751
853.645	3842
853.78	3975
853.914	3915
854.048	3911
854.183	3896
854.317	3987
854.451	4059
854.585	3964
854.72	3979
854.854	4063
854.988	3964
855.122	3953
855.256	3930
855.39	4059
855.524	4135
855.658	4120
855.792	4150
855.926	4143
856.06	4173
856.194	4223
856.327	4139
856.461	4154
856.595	4154
856.729	4158
856.862	4295
856.996	4253
857.13	4314
857.263	4295
857.397	4322
857.53	4337
857.664	4394
857.797	4386
857.931	4424
858.064	4405
858.197	4478
858.331	4413
858.464	4356
858.597	4337
858.731	4421
858.864	4466
858.997	4447
859.13	4527
859.263	4531
859.396	4584
859.529	4493
859.662	4596
859.795	4535
859.928	4603
860.061	4656
860.194	4759
860.327	4660
860.46	4649
860.592	4725
860.725	4736
860.858	4820
860.99	4736
861.123	4733
861.256	4721
861.388	4763
861.521	5577
861.653	4759
861.786	4664
861.918	4725
862.05	4801
862.183	4828
862.315	4892
862.447	4919
862.58	4892
862.712	4786
862.844	4774
862.976	4885
863.108	4904
863.24	5189
863.372	4847
863.504	4923
863.636	4892
863.768	4972
863.9	4980
864.032	4911
864.164	4995
864.296	5067
864.428	5178
864.559	5060
864.691	5121
864.823	5166
864.954	5117
865.086	5124
865.217	5128
865.349	5109
865.48	5132
865.612	5193
865.743	5322
865.875	5212
866.006	5235
866.137	5265
866.269	5273
866.4	5254
866.531	5216
866.662	5261
866.793	5292
866.924	5269
867.055	5341
867.186	5372
867.317	5368
867.448	5337
867.579	5364
867.71	5372
867.841	5402
867.972	5448
868.103	5414
868.233	5543
868.364	5493
868.495	5554
868.625	5615
868.756	5779
868.886	5729
869.017	5729
869.147	5817
869.278	5904
869.408	5885
869.539	5824
869.669	5916
869.799	5817
869.929	5988
870.06	6026
870.19	6201
870.32	6178
870.45	6285
870.58	6334
870.71	6426
870.84	6509
870.97	6494
871.1	6426
871.23	6604
871.36	6730
871.489	6677
871.619	6726
871.749	6814
871.879	6894
872.008	6958
872.138	6939
872.267	7012
872.397	7015
872.526	7080
872.656	7122
872.785	7247
872.915	7411
873.044	7563
873.173	7613
873.303	7681
873.432	7780
873.561	7887
873.69	7932
873.819	8039
873.948	8115
874.077	8210
874.206	8328
874.335	8438
874.464	8674
874.593	8868
874.722	8902
874.851	9127
874.979	9272
875.108	9329
875.237	9428
875.365	9454
875.494	9679
875.623	9827
875.751	9869
875.88	10048
876.008	10204
876.136	10230
876.265	10474
876.393	10649
876.521	10710
876.65	10812
876.778	10892
876.906	10949
877.034	10991
877.162	11052
877.29	11140
877.418	11254
877.546	11372
877.674	11467
877.802	11512
877.93	11493
878.058	11585
878.185	11634
878.313	11714
878.441	11718
878.568	11688
878.696	11771
878.824	11889
878.951	11946
879.079	12064
879.206	12114
879.333	12019
879.461	11992
879.588	12057
879.715	12049
879.842	12190
879.97	12072
880.097	11798
880.224	11878
880.351	11874
880.478	11882
880.605	11939
880.732	11805
880.859	11996
880.986	11737
881.112	11889
881.239	11688
881.366	11745
881.493	11592
881.619	11501
881.746	11505
881.872	11512
881.999	11592
882.125	11573
882.252	11528
882.378	11535
882.505	11619
882.631	11353
882.757	11318
882.883	11250
883.01	11204
883.136	11170
883.262	11098
883.388	11105
883.514	11109
883.64	11189
883.766	11147
883.892	11037
884.018	10946
884.143	11052
884.269	11170
884.395	10877
884.52	10759
884.646	10820
884.772	10771
884.897	10694
885.023	10714
885.148	10736
885.274	10752
885.399	10672
885.524	10580
885.65	10542
885.775	10596
885.9	10470
886.025	10653
886.15	10558
886.275	10519
886.4	10284
886.525	10481
886.65	10344
886.775	10295
886.9	10485
887.025	10546
887.149	10318
887.274	10230
887.399	10242
887.523	10257
887.648	10124
887.773	10177
887.897	10223
888.021	10215
888.146	10101
888.27	10253
888.395	10268
888.519	10230
888.643	10196
888.767	10238
888.891	10188
889.015	10074
889.139	10063
889.263	9911
889.387	10040
889.511	10071
889.635	10128
889.759	9918
889.883	10006
890.006	9994
890.13	10143
890.254	9991
890.377	9983
890.501	9850
890.624	9953
890.748	9831
890.871	9785
890.995	9785
891.118	9778
891.241	9720
891.364	9819
891.488	9838
891.611	9823
891.734	9720
891.857	9747
891.98	9599
892.103	9701
892.226	9717
892.349	9724
892.471	9481
892.594	9629
892.717	9614
892.839	9618
892.962	9622
893.085	9667
893.207	9549
893.33	9515
893.452	9458
893.575	9625
893.697	9523
893.819	9641
893.941	9644
894.064	9656
894.186	9447
894.308	9393
894.43	9500
894.552	9568
894.674	9622
894.796	9374
894.918	9420
895.04	9355
895.161	9389
895.283	9382
895.405	9279
895.526	9329
895.648	9245
895.769	9249
895.891	9306
896.012	9264
896.134	9222
896.255	9188
896.376	9119
896.498	9180
896.619	9226
896.74	9135
896.861	9135
896.982	9291
897.103	9329
897.224	9165
897.345	9070
897.466	9100
897.587	9009
897.708	9127
897.828	9039
897.949	8979
898.07	8933
898.19	8906
898.311	9028
898.431	8982
898.552	8872
898.672	8986
898.792	8918
898.913	8880
899.033	8872
899.153	8720
899.273	8651
899.393	8720
899.513	8720
899.633	8762
899.753	8724
899.873	8682
899.993	8819
900.113	8708
900.232	8785
900.352	8724
900.472	8689
900.591	8560
900.711	8526
900.83	8575
900.95	8659
901.069	8689
901.189	8602
901.308	8476
901.427	8377
901.546	8427
901.665	8518
901.784	8530
901.904	8419
902.023	8385
902.141	8202
902.26	8240
902.379	8248
902.498	8199
902.617	8271
902.735	8294
902.854	8282
902.973	8263
903.091	8096
903.21	8221
903.328	8164
903.446	8145
903.565	8111
903.683	8119
903.801	8054
903.919	8119
904.038	8115
904.156	8142
904.274	8119
904.392	8050
904.51	8008
904.627	8130
904.745	8100
904.863	8111
904.981	7921
905.098	7883
905.216	7883
905.334	7906
905.451	7932
905.569	7894
905.686	7906
905.803	7951
905.921	7772
906.038	7894
906.155	7803
906.272	7746
906.389	7742
906.506	7601
906.623	7670
906.74	7643
906.857	7540
906.974	7586
907.091	7670
907.208	7715
907.324	7605
907.441	7594
907.557	7457
907.674	7457
907.79	7422
907.907	7434
908.023	7426
908.139	7460
908.256	7419
908.372	7422
908.488	7358
908.604	7289
908.72	7225
908.836	7259
908.952	7266
909.068	7251
909.184	7350
909.3	7225
909.415	7282
909.531	7274
909.647	7114
909.762	7122
909.878	7110
909.993	7118
910.108	7129
910.224	7057
910.339	7118
910.454	7069
910.57	7034
910.685	6977
910.8	7164
910.915	7126
911.03	7023
911.145	6905
911.259	6863
911.374	6951
911.489	6878
911.604	6821
911.718	6833
911.833	6722
911.947	6631
912.062	6696
912.176	6795
912.291	6745
912.405	6696
912.519	6802
912.633	6901
912.748	6741
912.862	6677
912.976	6597
913.09	6513
913.204	6570
913.318	6551
913.431	6707
913.545	6707
913.659	6696
913.772	6669
913.886	6540
914	6601
914.113	6662
914.226	6719
914.34	6601
914.453	6502
914.566	6574
914.68	6547
914.793	6570
914.906	6448
915.019	6369
915.132	6346
915.245	6391
915.358	6490
915.47	6483
915.583	6525
915.696	6540
915.809	6506
915.921	6559
916.034	6403
916.146	6391
916.259	6369
916.371	6441
916.483	6429
916.595	6391
916.708	6426
916.82	6388
916.932	6418
917.044	6342
917.156	6372
917.268	6346
917.38	6357
917.491	6327
917.603	6376
917.715	6410
917.826	6422
917.938	6304
918.049	6228
918.161	6308
918.272	6441
918.384	6452
918.495	6380
918.606	6285
918.717	6175
918.828	6292
918.939	6327
919.05	6228
919.161	6270
919.272	6072
919.383	6159
919.494	6331
919.604	6388
919.715	6331
919.826	6273
919.936	6201
920.047	6350
920.157	6319
920.267	6464
920.378	6342
920.488	6308
920.598	6452
920.708	6582
920.818	6475
920.928	6528
921.038	6585
921.148	6623
921.258	6357
921.368	6289
921.477	6197
921.587	6197
921.697	6133
921.806	6194
921.916	6076
922.025	5908
922.134	5984
922.244	5893
922.353	5977
922.462	5809
922.571	5870
922.68	5737
922.789	5703
922.898	5691
923.007	5646
923.116	5771
923.224	5726
923.333	5688
923.442	5589
923.55	5562
923.659	5592
923.767	5646
923.876	5520
923.984	5630
924.092	5547
924.201	5554
924.309	5589
924.417	5577
924.525	5490
924.633	5547
924.741	6110
924.849	5372
924.956	5509
925.064	5372
925.172	5303
925.279	5318
925.387	5315
925.494	5337
925.602	5440
925.709	5398
925.816	5292
925.924	5364
926.031	5349
926.138	5280
926.245	5330
926.352	5273
926.459	5318
926.566	5334
926.673	5223
926.779	5128
926.886	5113
926.993	5014
927.099	5018
927.206	4991
927.312	4995
927.419	5029
927.525	4965
927.631	4972
927.737	4934
927.843	4809
927.95	4752
928.056	4809
928.162	4793
928.267	4900
928.373	5395
928.479	4877
928.585	4641
928.69	4782
928.796	4759
928.901	4702
929.007	4603
929.112	4698
929.218	4622
929.323	4622
929.428	4599
929.533	4687
929.638	4538
929.743	4535
929.848	4550
929.953	4535
930.058	4470
930.163	4356
930.267	4314
930.372	4398
930.477	4299
930.581	4459
930.685	4371
930.79	4284
930.894	4284
930.998	4287
931.103	4405
931.207	4150
931.311	4051
931.415	4025
931.519	3930
931.623	3945
