Data from glass_V78500241_1658.txt Node
Date: Wed Sep 01 19:25:59 CST 2021
User: usil
Spectrometer: V785-0024
Trigger mode: 0
Integration Time (sec): 4.000000E-1
Scans to average: 1
Nonlinearity correction enabled: false
Boxcar width: 0
Storing dark spectrum: false
XAxis mode: Wavelengths
Number of Pixels in Spectrum: 1024
>>>>>Begin Spectral Data<<<<<
801.071	3747
801.214	3774
801.356	3671
801.499	3747
801.641	3759
801.783	3743
801.926	3842
802.068	3842
802.211	3857
802.353	3884
802.496	3865
802.638	3873
802.78	3842
802.923	3922
803.065	3896
803.208	3857
803.35	3896
803.492	3876
803.635	3915
803.777	3793
803.919	3903
804.061	4173
804.204	3987
804.346	3964
804.488	3892
804.63	4036
804.773	3991
804.915	4010
805.057	4166
805.199	4029
805.341	4116
805.483	4173
805.626	4135
805.768	4124
805.91	4272
806.052	4223
806.194	4223
806.336	4371
806.478	4223
806.62	4158
806.762	4192
806.904	4253
807.046	4322
807.188	4211
807.33	4143
807.472	4242
807.614	4150
807.756	4246
807.898	4200
808.04	4196
808.182	4234
808.324	4329
808.465	4386
808.607	4443
808.749	4485
808.891	4436
809.033	4508
809.174	4402
809.316	4291
809.458	4200
809.6	4131
809.741	4196
809.883	4162
810.025	4227
810.166	4207
810.308	4234
810.45	4246
810.591	4192
810.733	4295
810.875	4478
811.016	4816
811.158	5105
811.299	5288
811.441	5277
811.582	5056
811.724	4714
811.865	4428
812.007	4432
812.148	4451
812.29	4436
812.431	4394
812.573	4383
812.714	4337
812.855	4409
812.997	4413
813.138	4497
813.279	4409
813.421	4394
813.562	4356
813.703	4360
813.845	4337
813.986	4246
814.127	4246
814.268	4276
814.41	4246
814.551	4272
814.692	4333
814.833	4246
814.974	4314
815.115	4333
815.256	4238
815.397	4306
815.539	4238
815.68	4177
815.821	4219
815.962	4348
816.103	4291
816.244	4230
816.385	4227
816.526	4325
816.666	4177
816.807	4090
816.948	4230
817.089	4154
817.23	4139
817.371	4059
817.512	4040
817.653	4090
817.793	4109
817.934	4021
818.075	4071
818.216	4101
818.356	4090
818.497	4010
818.638	3903
818.778	3941
818.919	3888
819.06	3842
819.2	3934
819.341	3865
819.481	3857
819.622	3884
819.762	4017
819.903	3972
820.043	3880
820.184	3850
820.324	3819
820.465	3918
820.605	3873
820.746	3880
820.886	3800
821.026	3922
821.167	3873
821.307	3949
821.447	4013
821.588	3964
821.728	3960
821.868	3918
822.008	3911
822.149	3915
822.289	3949
822.429	3774
822.569	3766
822.709	3812
822.849	3679
822.99	3709
823.13	3751
823.27	3804
823.41	3713
823.55	3705
823.69	3724
823.83	3732
823.97	3648
824.11	3618
824.25	3603
824.389	3644
824.529	3660
824.669	3629
824.809	3679
824.949	3720
825.089	3724
825.228	3720
825.368	3587
825.508	3542
825.648	3584
825.787	3591
825.927	3603
826.067	3580
826.206	3663
826.346	3797
826.485	3842
826.625	3873
826.765	3911
826.904	3831
827.044	3599
827.183	3545
827.323	3420
827.462	3519
827.601	3412
827.741	3439
827.88	3450
828.02	3370
828.159	3481
828.298	3431
828.437	3557
828.577	3485
828.716	3610
828.855	3515
828.994	3409
829.134	3424
829.273	3359
829.412	3389
829.551	3306
829.69	3359
829.829	3435
829.968	3500
830.107	3412
830.246	3447
830.385	3405
830.524	3336
830.663	3306
830.802	3249
830.941	3199
831.08	3199
831.219	3283
831.357	3287
831.496	3405
831.635	3222
831.774	3230
831.913	3188
832.051	3127
832.19	3150
832.329	3214
832.467	3119
832.606	3131
832.744	3131
832.883	3180
833.022	3233
833.16	3256
833.299	3298
833.437	3336
833.576	3382
833.714	3409
833.852	3382
833.991	3431
834.129	3473
834.267	3431
834.406	3370
834.544	3435
834.682	3462
834.821	3382
834.959	3549
835.097	3370
835.235	3587
835.373	3447
835.511	3515
835.65	3481
835.788	3469
835.926	3409
836.064	3348
836.202	3420
836.34	3622
836.478	3587
836.615	3530
836.753	3614
836.891	3622
837.029	3564
837.167	3572
837.305	3542
837.443	3511
837.58	3519
837.718	3587
837.856	3576
837.993	3572
838.131	3599
838.269	3568
838.406	3603
838.544	3584
838.681	3447
838.819	3450
838.956	3344
839.094	3424
839.231	3405
839.369	3507
839.506	3728
839.643	3625
839.781	3507
839.918	3488
840.055	3500
840.193	3526
840.33	3523
840.467	3564
840.604	3610
840.742	3785
840.879	3603
841.016	3614
841.153	3580
841.29	3774
841.427	3701
841.564	3747
841.701	3724
841.838	3686
841.975	3682
842.112	3743
842.249	3671
842.385	3591
842.522	3789
842.659	3663
842.796	3667
842.933	3740
843.069	3701
843.206	3705
843.343	3800
843.479	3797
843.616	3869
843.752	3656
843.889	3675
844.025	3835
844.162	3736
844.298	3854
844.435	3732
844.571	3770
844.708	3915
844.844	3983
844.98	4017
845.117	4029
845.253	3941
845.389	3911
845.525	4002
845.661	3956
845.798	3922
845.934	4006
846.07	3991
846.206	4048
846.342	4090
846.478	4067
846.614	3998
846.75	3930
846.886	3903
847.022	4078
847.158	3972
847.294	3949
847.429	3987
847.565	3979
847.701	4219
847.837	3857
847.972	3846
848.108	3987
848.244	3941
848.379	3861
848.515	3861
848.65	3781
848.786	3797
848.921	3842
849.057	3907
849.192	3941
849.328	3884
849.463	3941
849.598	3819
849.734	3861
849.869	3797
850.004	3804
850.14	3850
850.275	3797
850.41	3724
850.545	3755
850.68	3759
850.815	3823
850.95	3823
851.085	3918
851.22	3861
851.355	3823
851.49	3793
851.625	3781
851.76	3812
851.895	3751
852.03	3713
852.165	3804
852.299	3835
852.434	3884
852.569	3861
852.703	3854
852.838	3949
852.973	3998
853.107	4025
853.242	3896
853.376	3854
853.511	3793
853.645	3800
853.78	3968
853.914	3896
854.048	3865
854.183	3857
854.317	3930
854.451	4105
854.585	3956
854.72	3926
854.854	4082
854.988	3956
855.122	4013
855.256	3918
855.39	4006
855.524	4071
855.658	4124
855.792	4067
855.926	4150
856.06	4158
856.194	4211
856.327	4116
856.461	4139
856.595	4158
856.729	4154
856.862	4314
856.996	4246
857.13	4291
857.263	4379
857.397	4417
857.53	4261
857.664	4367
857.797	4402
857.931	4428
858.064	4428
858.197	4462
858.331	4383
858.464	4394
858.597	4348
858.731	4409
858.864	4485
858.997	4421
859.13	4531
859.263	4523
859.396	4546
859.529	4500
859.662	4527
859.795	4508
859.928	4630
860.061	4687
860.194	4744
860.327	4645
860.46	4668
860.592	4767
860.725	4725
860.858	4774
860.99	4706
861.123	4702
861.256	4706
861.388	4801
861.521	5398
861.653	4706
861.786	4702
861.918	4744
862.05	4801
862.183	4805
862.315	4881
862.447	4904
862.58	4870
862.712	4797
862.844	4805
862.976	4892
863.108	4854
863.24	5239
863.372	4786
863.504	4892
863.636	4896
863.768	4949
863.9	4930
864.032	4915
864.164	4915
864.296	5033
864.428	5102
864.559	5109
864.691	5143
864.823	5090
864.954	5109
865.086	5113
865.217	5147
865.349	5079
865.48	5121
865.612	5216
865.743	5341
865.875	5174
866.006	5185
866.137	5265
866.269	5204
866.4	5246
866.531	5265
866.662	5261
866.793	5284
866.924	5246
867.055	5330
867.186	5284
867.317	5315
867.448	5296
867.579	5417
867.71	5417
867.841	5406
867.972	5459
868.103	5429
868.233	5452
868.364	5554
868.495	5566
868.625	5634
868.756	5802
868.886	5623
869.017	5741
869.147	5809
869.278	5847
869.408	5764
869.539	5840
869.669	5927
869.799	5878
869.929	5984
870.06	6026
870.19	6178
870.32	6213
870.45	6273
870.58	6338
870.71	6357
870.84	6467
870.97	6433
871.1	6460
871.23	6635
871.36	6707
871.489	6654
871.619	6715
871.749	6814
871.879	6848
872.008	7004
872.138	6973
872.267	7015
872.397	6989
872.526	6973
872.656	7076
872.785	7244
872.915	7388
873.044	7578
873.173	7540
873.303	7616
873.432	7689
873.561	7833
873.69	7906
873.819	7970
873.948	8126
874.077	8225
874.206	8366
874.335	8400
874.464	8629
874.593	8792
874.722	8944
874.851	9127
874.979	9176
875.108	9294
875.237	9488
875.365	9500
875.494	9675
875.623	9743
875.751	9831
875.88	10029
876.008	10071
876.136	10299
876.265	10527
876.393	10755
876.521	10717
876.65	10858
876.778	10930
876.906	10869
877.034	10965
877.162	11090
877.29	11147
877.418	11299
877.546	11296
877.674	11512
877.802	11520
877.93	11528
878.058	11665
878.185	11532
878.313	11680
878.441	11783
878.568	11668
878.696	11783
878.824	11874
878.951	11942
879.079	11996
879.206	12247
879.333	12076
879.461	11965
879.588	12072
879.715	12030
879.842	12201
879.97	12053
880.097	11866
880.224	11893
880.351	11908
880.478	11882
880.605	11828
880.732	11824
880.859	11958
880.986	11847
881.112	11851
881.239	11843
881.366	11653
881.493	11646
881.619	11501
881.746	11558
881.872	11615
881.999	11459
882.125	11482
882.252	11619
882.378	11554
882.505	11512
882.631	11383
882.757	11395
882.883	11337
883.01	11258
883.136	11147
883.262	11052
883.388	11037
883.514	11155
883.64	11117
883.766	11147
883.892	10987
884.018	10946
884.143	11132
884.269	11056
884.395	10824
884.52	10698
884.646	10793
884.772	10843
884.897	10687
885.023	10679
885.148	10790
885.274	10763
885.399	10714
885.524	10653
885.65	10618
885.775	10577
885.9	10535
886.025	10611
886.15	10519
886.275	10466
886.4	10360
886.525	10379
886.65	10371
886.775	10363
886.9	10538
887.025	10538
887.149	10409
887.274	10242
887.399	10200
887.523	10207
887.648	10150
887.773	10109
887.897	10215
888.021	10238
888.146	10143
888.27	10253
888.395	10242
888.519	10234
888.643	10177
888.767	10112
888.891	10078
889.015	10071
889.139	10105
889.263	9960
889.387	9994
889.511	10078
889.635	10147
889.759	9922
889.883	10029
890.006	10063
890.13	10093
890.254	9876
890.377	9998
890.501	9850
890.624	9895
890.748	9911
890.871	9789
890.995	9675
891.118	9652
891.241	9690
891.364	9785
891.488	9812
891.611	9751
891.734	9694
891.857	9797
891.98	9740
892.103	9778
892.226	9751
892.349	9751
892.471	9549
892.594	9591
892.717	9595
892.839	9641
892.962	9603
893.085	9698
893.207	9595
893.33	9466
893.452	9614
893.575	9610
893.697	9469
893.819	9633
893.941	9564
894.064	9591
894.186	9443
894.308	9428
894.43	9534
894.552	9553
894.674	9549
894.796	9370
894.918	9443
895.04	9420
895.161	9439
895.283	9389
895.405	9245
895.526	9291
895.648	9218
895.769	9302
895.891	9230
896.012	9336
896.134	9237
896.255	9176
896.376	9104
896.498	9154
896.619	9176
896.74	9081
896.861	9112
896.982	9207
897.103	9329
897.224	9157
897.345	9062
897.466	8933
897.587	9020
897.708	9093
897.828	9070
897.949	8990
898.07	8823
898.19	8921
898.311	9024
898.431	8929
898.552	8891
898.672	9051
898.792	8941
898.913	8963
899.033	8796
899.153	8792
899.273	8697
899.393	8724
899.513	8788
899.633	8766
899.753	8804
899.873	8708
899.993	8762
900.113	8670
900.232	8762
900.352	8670
900.472	8549
900.591	8533
900.711	8530
900.83	8541
900.95	8640
901.069	8659
901.189	8507
901.308	8465
901.427	8396
901.546	8419
901.665	8408
901.784	8495
901.904	8415
902.023	8305
902.141	8263
902.26	8202
902.379	8320
902.498	8290
902.617	8233
902.735	8309
902.854	8279
902.973	8282
903.091	8130
903.21	8138
903.328	8119
903.446	8180
903.565	8111
903.683	8107
903.801	8008
903.919	8088
904.038	8123
904.156	8001
904.274	8046
904.392	7986
904.51	8050
904.627	7955
904.745	8092
904.863	8153
904.981	7902
905.098	7955
905.216	7849
905.334	7902
905.451	7917
905.569	7868
905.686	7909
905.803	7868
905.921	7719
906.038	7864
906.155	7772
906.272	7807
906.389	7696
906.506	7670
906.623	7605
906.74	7590
906.857	7491
906.974	7571
907.091	7704
907.208	7780
907.324	7620
907.441	7582
907.557	7464
907.674	7438
907.79	7419
907.907	7381
908.023	7552
908.139	7491
908.256	7373
908.372	7411
908.488	7343
908.604	7244
908.72	7202
908.836	7255
908.952	7232
909.068	7285
909.184	7251
909.3	7217
909.415	7274
909.531	7270
909.647	7110
909.762	7095
909.878	7088
909.993	7152
910.108	7050
910.224	7072
910.339	7129
910.454	7019
910.57	7038
910.685	6928
910.8	7168
910.915	7141
911.03	7012
911.145	6913
911.259	6859
911.374	6909
911.489	6863
911.604	6798
911.718	6757
911.833	6734
911.947	6726
912.062	6620
912.176	6722
912.291	6650
912.405	6726
912.519	6791
912.633	6821
912.748	6688
912.862	6696
912.976	6578
913.09	6536
913.204	6536
913.318	6654
913.431	6669
913.545	6684
913.659	6677
913.772	6635
913.886	6544
914	6517
914.113	6639
914.226	6681
914.34	6635
914.453	6551
914.566	6616
914.68	6513
914.793	6513
914.906	6369
915.019	6475
915.132	6346
915.245	6418
915.358	6475
915.47	6437
915.583	6460
915.696	6414
915.809	6494
915.921	6563
916.034	6414
916.146	6437
916.259	6395
916.371	6433
916.483	6456
916.595	6380
916.708	6403
916.82	6391
916.932	6357
917.044	6369
917.156	6407
917.268	6361
917.38	6308
917.491	6296
917.603	6304
917.715	6429
917.826	6452
917.938	6369
918.049	6205
918.161	6365
918.272	6380
918.384	6486
918.495	6311
918.606	6254
918.717	6152
918.828	6270
918.939	6235
919.05	6194
919.161	6285
919.272	6152
919.383	6167
919.494	6315
919.604	6441
919.715	6311
919.826	6197
919.936	6296
920.047	6357
920.157	6270
920.267	6448
920.378	6350
920.488	6247
920.598	6483
920.708	6544
920.818	6445
920.928	6475
921.038	6536
921.148	6540
921.258	6357
921.368	6315
921.477	6235
921.587	6239
921.697	6083
921.806	6216
921.916	6133
922.025	5935
922.134	5904
922.244	5901
922.353	5920
922.462	5844
922.571	5771
922.68	5733
922.789	5668
922.898	5668
923.007	5619
923.116	5707
923.224	5688
923.333	5684
923.442	5615
923.55	5604
923.659	5611
923.767	5623
923.876	5535
923.984	5596
924.092	5516
924.201	5535
924.309	5543
924.417	5554
924.525	5524
924.633	5524
924.741	6167
924.849	5334
924.956	5471
925.064	5326
925.172	5292
925.279	5372
925.387	5345
925.494	5357
925.602	5444
925.709	5330
925.816	5269
925.924	5337
926.031	5318
926.138	5311
926.245	5364
926.352	5242
926.459	5311
926.566	5345
926.673	5220
926.779	5155
926.886	5140
926.993	5086
927.099	5003
927.206	4965
927.312	4965
927.419	4957
927.525	4942
927.631	5052
927.737	4862
927.843	4889
927.95	4790
928.056	4809
928.162	4862
928.267	4866
928.373	5337
928.479	4820
928.585	4691
928.69	4797
928.796	4790
928.901	4702
929.007	4618
929.112	4664
929.218	4622
929.323	4626
929.428	4603
929.533	4691
929.638	4504
929.743	4527
929.848	4523
929.953	4504
930.058	4440
930.163	4280
930.267	4352
930.372	4405
930.477	4306
930.581	4443
930.685	4344
930.79	4272
930.894	4325
930.998	4299
931.103	4417
931.207	4135
931.311	4074
931.415	4044
931.519	3941
931.623	3926
