Data from glass_V78500241_1087.txt Node
Date: Wed Sep 01 19:22:02 CST 2021
User: usil
Spectrometer: V785-0024
Trigger mode: 0
Integration Time (sec): 4.000000E-1
Scans to average: 1
Nonlinearity correction enabled: false
Boxcar width: 0
Storing dark spectrum: false
XAxis mode: Wavelengths
Number of Pixels in Spectrum: 1024
>>>>>Begin Spectral Data<<<<<
801.071	3743
801.214	3781
801.356	3740
801.499	3766
801.641	3720
801.783	3797
801.926	3827
802.068	3842
802.211	3880
802.353	3865
802.496	3846
802.638	3911
802.78	3888
802.923	3949
803.065	3884
803.208	3850
803.35	3865
803.492	3903
803.635	3903
803.777	3800
803.919	3888
804.061	4139
804.204	3968
804.346	3953
804.488	3964
804.63	4006
804.773	3960
804.915	4010
805.057	4135
805.199	4048
805.341	4093
805.483	4150
805.626	4116
805.768	4105
805.91	4200
806.052	4238
806.194	4177
806.336	4352
806.478	4204
806.62	4215
806.762	4211
806.904	4268
807.046	4333
807.188	4215
807.33	4173
807.472	4200
807.614	4204
807.756	4261
807.898	4230
808.04	4223
808.182	4303
808.324	4276
808.465	4363
808.607	4478
808.749	4383
808.891	4497
809.033	4489
809.174	4462
809.316	4249
809.458	4207
809.6	4200
809.741	4162
809.883	4158
810.025	4215
810.166	4188
810.308	4185
810.45	4261
810.591	4272
810.733	4306
810.875	4550
811.016	4843
811.158	5117
811.299	5284
811.441	5280
811.582	5075
811.724	4748
811.865	4405
812.007	4470
812.148	4409
812.29	4455
812.431	4386
812.573	4409
812.714	4379
812.855	4436
812.997	4451
813.138	4462
813.279	4390
813.421	4409
813.562	4421
813.703	4325
813.845	4287
813.986	4265
814.127	4204
814.268	4295
814.41	4238
814.551	4249
814.692	4348
814.833	4257
814.974	4295
815.115	4337
815.256	4268
815.397	4242
815.539	4257
815.68	4204
815.821	4204
815.962	4344
816.103	4310
816.244	4215
816.385	4196
816.526	4276
816.666	4230
816.807	4109
816.948	4154
817.089	4169
817.23	4131
817.371	4006
817.512	4063
817.653	4109
817.793	4044
817.934	4063
818.075	4112
818.216	4071
818.356	4093
818.497	3987
818.638	3899
818.778	3911
818.919	3934
819.06	3861
819.2	3892
819.341	3835
819.481	3865
819.622	3934
819.762	4025
819.903	3945
820.043	3896
820.184	3842
820.324	3831
820.465	3873
820.605	3835
820.746	3857
820.886	3819
821.026	3983
821.167	3941
821.307	3991
821.447	4017
821.588	3956
821.728	3975
821.868	3941
822.008	3915
822.149	3911
822.289	3937
822.429	3781
822.569	3770
822.709	3846
822.849	3740
822.99	3728
823.13	3789
823.27	3781
823.41	3751
823.55	3728
823.69	3705
823.83	3743
823.97	3637
824.11	3599
824.25	3576
824.389	3656
824.529	3713
824.669	3648
824.809	3717
824.949	3797
825.089	3728
825.228	3720
825.368	3587
825.508	3595
825.648	3576
825.787	3633
825.927	3679
826.067	3606
826.206	3679
826.346	3789
826.485	3842
826.625	3884
826.765	3915
826.904	3865
827.044	3622
827.183	3519
827.323	3420
827.462	3500
827.601	3374
827.741	3405
827.88	3405
828.02	3382
828.159	3416
828.298	3473
828.437	3538
828.577	3496
828.716	3580
828.855	3526
828.994	3344
829.134	3359
829.273	3412
829.412	3370
829.551	3348
829.69	3382
829.829	3454
829.968	3500
830.107	3450
830.246	3473
830.385	3389
830.524	3386
830.663	3321
830.802	3249
830.941	3180
831.08	3161
831.219	3291
831.357	3268
831.496	3428
831.635	3272
831.774	3184
831.913	3199
832.051	3097
832.19	3135
832.329	3207
832.467	3146
832.606	3150
832.744	3195
832.883	3199
833.022	3199
833.16	3275
833.299	3310
833.437	3332
833.576	3374
833.714	3420
833.852	3428
833.991	3420
834.129	3511
834.267	3473
834.406	3393
834.544	3447
834.682	3428
834.821	3435
834.959	3572
835.097	3409
835.235	3481
835.373	3500
835.511	3507
835.65	3469
835.788	3523
835.926	3405
836.064	3367
836.202	3412
836.34	3572
836.478	3576
836.615	3587
836.753	3629
836.891	3656
837.029	3648
837.167	3614
837.305	3580
837.443	3523
837.58	3519
837.718	3614
837.856	3549
837.993	3568
838.131	3641
838.269	3587
838.406	3591
838.544	3587
838.681	3485
838.819	3466
838.956	3378
839.094	3363
839.231	3447
839.369	3500
839.506	3755
839.643	3641
839.781	3485
839.918	3492
840.055	3595
840.193	3549
840.33	3530
840.467	3530
840.604	3652
840.742	3800
840.879	3591
841.016	3545
841.153	3587
841.29	3732
841.427	3751
841.564	3736
841.701	3732
841.838	3736
841.975	3656
842.112	3762
842.249	3705
842.385	3648
842.522	3857
842.659	3709
842.796	3682
842.933	3709
843.069	3751
843.206	3698
843.343	3789
843.479	3797
843.616	3831
843.752	3675
843.889	3698
844.025	3892
844.162	3709
844.298	3861
844.435	3778
844.571	3797
844.708	3915
844.844	3953
844.98	4059
845.117	4025
845.253	3903
845.389	3918
845.525	3998
845.661	3964
845.798	3907
845.934	4036
846.07	3968
846.206	4048
846.342	4120
846.478	4059
846.614	3945
846.75	3975
846.886	3922
847.022	4040
847.158	3964
847.294	4002
847.429	4059
847.565	3968
847.701	4265
847.837	3857
847.972	3869
848.108	3983
848.244	3964
848.379	3808
848.515	3827
848.65	3793
848.786	3850
848.921	3876
849.057	3934
849.192	3972
849.328	3911
849.463	3907
849.598	3899
849.734	3876
849.869	3865
850.004	3781
850.14	3804
850.275	3774
850.41	3743
850.545	3736
850.68	3778
850.815	3800
850.95	3781
851.085	3956
851.22	3838
851.355	3880
851.49	3770
851.625	3804
851.76	3804
851.895	3728
852.03	3713
852.165	3800
852.299	3835
852.434	3956
852.569	3903
852.703	3896
852.838	3953
852.973	3972
853.107	4010
853.242	3903
853.376	3854
853.511	3762
853.645	3835
853.78	3991
853.914	3907
854.048	3918
854.183	3896
854.317	3987
854.451	4071
854.585	3972
854.72	3949
854.854	4116
854.988	3953
855.122	4021
855.256	3941
855.39	4044
855.524	4128
855.658	4082
855.792	4128
855.926	4116
856.06	4177
856.194	4211
856.327	4173
856.461	4135
856.595	4147
856.729	4211
856.862	4276
856.996	4291
857.13	4295
857.263	4344
857.397	4375
857.53	4322
857.664	4318
857.797	4417
857.931	4424
858.064	4413
858.197	4462
858.331	4390
858.464	4371
858.597	4356
858.731	4440
858.864	4466
858.997	4481
859.13	4535
859.263	4577
859.396	4626
859.529	4535
859.662	4538
859.795	4546
859.928	4634
860.061	4691
860.194	4733
860.327	4675
860.46	4698
860.592	4740
860.725	4767
860.858	4774
860.99	4691
861.123	4683
861.256	4694
861.388	4748
861.521	5387
861.653	4736
861.786	4698
861.918	4736
862.05	4790
862.183	4889
862.315	4938
862.447	4919
862.58	4900
862.712	4752
862.844	4771
862.976	4843
863.108	4847
863.24	5132
863.372	4809
863.504	4915
863.636	4904
863.768	5025
863.9	4961
864.032	4995
864.164	5006
864.296	5006
864.428	5060
864.559	5109
864.691	5117
864.823	5132
864.954	5102
865.086	5136
865.217	5128
865.349	5067
865.48	5151
865.612	5201
865.743	5353
865.875	5223
866.006	5239
866.137	5189
866.269	5242
866.4	5292
866.531	5250
866.662	5258
866.793	5227
866.924	5265
867.055	5364
867.186	5322
867.317	5322
867.448	5341
867.579	5433
867.71	5334
867.841	5387
867.972	5463
868.103	5459
868.233	5497
868.364	5505
868.495	5551
868.625	5653
868.756	5760
868.886	5638
869.017	5722
869.147	5851
869.278	5885
869.408	5767
869.539	5855
869.669	5916
869.799	5908
869.929	5988
870.06	6053
870.19	6159
870.32	6129
870.45	6285
870.58	6334
870.71	6456
870.84	6464
870.97	6448
871.1	6441
871.23	6604
871.36	6741
871.489	6650
871.619	6688
871.749	6821
871.879	6909
872.008	7057
872.138	6920
872.267	7004
872.397	7042
872.526	7122
872.656	7118
872.785	7175
872.915	7373
873.044	7518
873.173	7620
873.303	7681
873.432	7734
873.561	7921
873.69	7963
873.819	8012
873.948	8168
874.077	8195
874.206	8351
874.335	8480
874.464	8667
874.593	8792
874.722	8914
874.851	9176
874.979	9192
875.108	9386
875.237	9351
875.365	9496
875.494	9614
875.623	9915
875.751	9831
875.88	10074
876.008	10192
876.136	10284
876.265	10569
876.393	10675
876.521	10755
876.65	10816
876.778	10831
876.906	10942
877.034	11018
877.162	11121
877.29	11086
877.418	11288
877.546	11360
877.674	11463
877.802	11509
877.93	11551
878.058	11589
878.185	11497
878.313	11619
878.441	11840
878.568	11824
878.696	11794
878.824	11752
878.951	11954
879.079	12045
879.206	12095
879.333	11988
879.461	12022
879.588	11999
879.715	11984
879.842	12277
879.97	12057
880.097	11893
880.224	11809
880.351	11893
880.478	11927
880.605	11821
880.732	11813
880.859	11870
880.986	11836
881.112	11870
881.239	11718
881.366	11813
881.493	11600
881.619	11573
881.746	11486
881.872	11528
881.999	11490
882.125	11482
882.252	11577
882.378	11486
882.505	11581
882.631	11516
882.757	11315
882.883	11341
883.01	11292
883.136	11212
883.262	11143
883.388	11140
883.514	11235
883.64	11178
883.766	11162
883.892	10984
884.018	11014
884.143	11083
884.269	11003
884.395	10896
884.52	10752
884.646	10721
884.772	10668
884.897	10687
885.023	10664
885.148	10805
885.274	10793
885.399	10740
885.524	10694
885.65	10584
885.775	10599
885.9	10558
886.025	10645
886.15	10573
886.275	10409
886.4	10386
886.525	10428
886.65	10352
886.775	10344
886.9	10481
887.025	10504
887.149	10390
887.274	10238
887.399	10234
887.523	10177
887.648	10101
887.773	10082
887.897	10280
888.021	10272
888.146	10196
888.27	10200
888.395	10196
888.519	10150
888.643	10135
888.767	10234
888.891	10055
889.015	9987
889.139	10097
889.263	10013
889.387	10059
889.511	10204
889.635	10074
889.759	9994
889.883	9972
890.006	9968
890.13	10101
890.254	9991
890.377	9979
890.501	9873
890.624	9907
890.748	9895
890.871	9819
890.995	9816
891.118	9724
891.241	9755
891.364	9720
891.488	9808
891.611	9743
891.734	9671
891.857	9778
891.98	9694
892.103	9823
892.226	9709
892.349	9679
892.471	9534
892.594	9682
892.717	9538
892.839	9603
892.962	9610
893.085	9751
893.207	9584
893.33	9526
893.452	9545
893.575	9523
893.697	9580
893.819	9564
893.941	9660
894.064	9614
894.186	9428
894.308	9462
894.43	9519
894.552	9595
894.674	9534
894.796	9450
894.918	9329
895.04	9351
895.161	9393
895.283	9298
895.405	9245
895.526	9386
895.648	9207
895.769	9260
895.891	9184
896.012	9272
896.134	9218
896.255	9226
896.376	9062
896.498	9161
896.619	9207
896.74	9081
896.861	9169
896.982	9275
897.103	9302
897.224	9214
897.345	9097
897.466	9028
897.587	9013
897.708	9161
897.828	9058
897.949	8948
898.07	8868
898.19	8910
898.311	8986
898.431	8944
898.552	8910
898.672	8956
898.792	8967
898.913	8906
899.033	8811
899.153	8769
899.273	8682
899.393	8697
899.513	8769
899.633	8735
899.753	8754
899.873	8746
899.993	8800
900.113	8686
900.232	8693
900.352	8678
900.472	8648
900.591	8610
900.711	8648
900.83	8545
900.95	8564
901.069	8701
901.189	8511
901.308	8461
901.427	8362
901.546	8514
901.665	8419
901.784	8568
901.904	8442
902.023	8343
902.141	8259
902.26	8206
902.379	8317
902.498	8229
902.617	8237
902.735	8351
902.854	8286
902.973	8343
903.091	8123
903.21	8103
903.328	8210
903.446	8187
903.565	8107
903.683	8126
903.801	8062
903.919	8088
904.038	8191
904.156	8111
904.274	8142
904.392	8016
904.51	7986
904.627	8111
904.745	8176
904.863	8046
904.981	7917
905.098	7868
905.216	7841
905.334	7879
905.451	7932
905.569	7875
905.686	7944
905.803	7989
905.921	7765
906.038	7849
906.155	7799
906.272	7795
906.389	7700
906.506	7590
906.623	7670
906.74	7643
906.857	7525
906.974	7655
907.091	7677
907.208	7696
907.324	7597
907.441	7578
907.557	7457
907.674	7457
907.79	7403
907.907	7449
908.023	7499
908.139	7426
908.256	7335
908.372	7358
908.488	7365
908.604	7289
908.72	7274
908.836	7308
908.952	7251
909.068	7274
909.184	7331
909.3	7282
909.415	7270
909.531	7255
909.647	7133
909.762	7152
909.878	7069
909.993	7141
910.108	7183
910.224	7088
910.339	7141
910.454	7095
910.57	7023
910.685	6932
910.8	7179
910.915	7103
911.03	7019
911.145	6905
911.259	6886
911.374	6947
911.489	6848
911.604	6852
911.718	6741
911.833	6741
911.947	6639
912.062	6589
912.176	6760
912.291	6749
912.405	6779
912.519	6852
912.633	6833
912.748	6741
912.862	6722
912.976	6646
913.09	6540
913.204	6616
913.318	6620
913.431	6677
913.545	6719
913.659	6798
913.772	6627
913.886	6563
914	6544
914.113	6631
914.226	6566
914.34	6673
914.453	6532
914.566	6593
914.68	6506
914.793	6536
914.906	6479
915.019	6388
915.132	6357
915.245	6445
915.358	6467
915.47	6426
915.583	6502
915.696	6452
915.809	6536
915.921	6536
916.034	6486
916.146	6426
916.259	6391
916.371	6460
916.483	6418
916.595	6380
916.708	6395
916.82	6483
916.932	6410
917.044	6407
917.156	6391
917.268	6311
917.38	6331
917.491	6426
917.603	6365
917.715	6376
917.826	6334
917.938	6338
918.049	6205
918.161	6357
918.272	6418
918.384	6399
918.495	6308
918.606	6262
918.717	6235
918.828	6277
918.939	6300
919.05	6205
919.161	6243
919.272	6098
919.383	6175
919.494	6277
919.604	6460
919.715	6262
919.826	6201
919.936	6266
920.047	6338
920.157	6251
920.267	6456
920.378	6346
920.488	6361
920.598	6506
920.708	6570
920.818	6475
920.928	6483
921.038	6612
921.148	6582
921.258	6350
921.368	6311
921.477	6228
921.587	6194
921.697	6079
921.806	6133
921.916	6095
922.025	5980
922.134	5927
922.244	5904
922.353	5977
922.462	5897
922.571	5752
922.68	5710
922.789	5623
922.898	5680
923.007	5634
923.116	5665
923.224	5680
923.333	5691
923.442	5596
923.55	5600
923.659	5577
923.767	5676
923.876	5524
923.984	5608
924.092	5532
924.201	5619
924.309	5558
924.417	5512
924.525	5528
924.633	5524
924.741	6338
924.849	5387
924.956	5482
925.064	5341
925.172	5280
925.279	5292
925.387	5387
925.494	5299
925.602	5433
925.709	5402
925.816	5269
925.924	5307
926.031	5387
926.138	5299
926.245	5360
926.352	5197
926.459	5303
926.566	5315
926.673	5235
926.779	5151
926.886	5197
926.993	5033
927.099	4991
927.206	5022
927.312	4999
927.419	5117
927.525	5045
927.631	4991
927.737	4919
927.843	4892
927.95	4755
928.056	4843
928.162	4831
928.267	4839
928.373	5334
928.479	4866
928.585	4698
928.69	4778
928.796	4809
928.901	4706
929.007	4573
929.112	4702
929.218	4656
929.323	4622
929.428	4599
929.533	4675
929.638	4538
929.743	4523
929.848	4569
929.953	4527
930.058	4451
930.163	4322
930.267	4341
930.372	4440
930.477	4322
930.581	4538
930.685	4367
930.79	4246
930.894	4310
930.998	4257
931.103	4390
931.207	4150
931.311	4040
931.415	4051
931.519	3979
931.623	3896
