Data from glass_V78500241_863.txt Node
Date: Wed Sep 01 19:20:28 CST 2021
User: usil
Spectrometer: V785-0024
Trigger mode: 0
Integration Time (sec): 4.000000E-1
Scans to average: 1
Nonlinearity correction enabled: false
Boxcar width: 0
Storing dark spectrum: false
XAxis mode: Wavelengths
Number of Pixels in Spectrum: 1024
>>>>>Begin Spectral Data<<<<<
801.071	3728
801.214	3789
801.356	3728
801.499	3717
801.641	3728
801.783	3762
801.926	3838
802.068	3831
802.211	3835
802.353	3911
802.496	3876
802.638	3899
802.78	3964
802.923	3968
803.065	3964
803.208	3880
803.35	3896
803.492	3869
803.635	3907
803.777	3793
803.919	3888
804.061	4162
804.204	3991
804.346	3937
804.488	3972
804.63	4071
804.773	3953
804.915	3964
805.057	4169
805.199	4071
805.341	4090
805.483	4169
805.626	4128
805.768	4166
805.91	4272
806.052	4207
806.194	4227
806.336	4352
806.478	4207
806.62	4192
806.762	4211
806.904	4249
807.046	4352
807.188	4238
807.33	4177
807.472	4287
807.614	4196
807.756	4280
807.898	4230
808.04	4230
808.182	4310
808.324	4348
808.465	4375
808.607	4436
808.749	4428
808.891	4493
809.033	4497
809.174	4402
809.316	4261
809.458	4246
809.6	4177
809.741	4131
809.883	4200
810.025	4272
810.166	4291
810.308	4246
810.45	4230
810.591	4246
810.733	4314
810.875	4546
811.016	4858
811.158	5147
811.299	5204
811.441	5265
811.582	5075
811.724	4725
811.865	4455
812.007	4500
812.148	4485
812.29	4409
812.431	4436
812.573	4402
812.714	4390
812.855	4436
812.997	4409
813.138	4440
813.279	4451
813.421	4375
813.562	4383
813.703	4337
813.845	4371
813.986	4287
814.127	4234
814.268	4295
814.41	4265
814.551	4230
814.692	4344
814.833	4249
814.974	4314
815.115	4322
815.256	4249
815.397	4242
815.539	4265
815.68	4207
815.821	4200
815.962	4291
816.103	4265
816.244	4246
816.385	4257
816.526	4287
816.666	4211
816.807	4139
816.948	4169
817.089	4173
817.23	4169
817.371	4093
817.512	4040
817.653	4128
817.793	4090
817.934	4086
818.075	4071
818.216	4063
818.356	4105
818.497	4010
818.638	3934
818.778	3918
818.919	3865
819.06	3884
819.2	3930
819.341	3899
819.481	3846
819.622	3918
819.762	3991
819.903	3956
820.043	3850
820.184	3842
820.324	3823
820.465	3896
820.605	3888
820.746	3854
820.886	3800
821.026	3956
821.167	3896
821.307	3998
821.447	4021
821.588	4006
821.728	3979
821.868	3934
822.008	3838
822.149	3873
822.289	3926
822.429	3774
822.569	3755
822.709	3838
822.849	3682
822.99	3759
823.13	3724
823.27	3797
823.41	3713
823.55	3705
823.69	3713
823.83	3766
823.97	3701
824.11	3606
824.25	3610
824.389	3622
824.529	3679
824.669	3629
824.809	3728
824.949	3793
825.089	3781
825.228	3724
825.368	3629
825.508	3599
825.648	3549
825.787	3603
825.927	3637
826.067	3652
826.206	3690
826.346	3819
826.485	3823
826.625	3873
826.765	3945
826.904	3857
827.044	3595
827.183	3526
827.323	3435
827.462	3519
827.601	3412
827.741	3454
827.88	3458
828.02	3412
828.159	3481
828.298	3500
828.437	3561
828.577	3481
828.716	3591
828.855	3492
828.994	3386
829.134	3348
829.273	3393
829.412	3401
829.551	3363
829.69	3359
829.829	3420
829.968	3515
830.107	3428
830.246	3435
830.385	3374
830.524	3351
830.663	3287
830.802	3260
830.941	3169
831.08	3222
831.219	3287
831.357	3287
831.496	3420
831.635	3214
831.774	3176
831.913	3199
832.051	3150
832.19	3169
832.329	3253
832.467	3169
832.606	3104
832.744	3176
832.883	3157
833.022	3211
833.16	3268
833.299	3310
833.437	3344
833.576	3363
833.714	3401
833.852	3466
833.991	3409
834.129	3504
834.267	3492
834.406	3401
834.544	3431
834.682	3416
834.821	3443
834.959	3526
835.097	3481
835.235	3553
835.373	3481
835.511	3519
835.65	3485
835.788	3481
835.926	3420
836.064	3409
836.202	3409
836.34	3580
836.478	3622
836.615	3534
836.753	3606
836.891	3663
837.029	3610
837.167	3633
837.305	3519
837.443	3572
837.58	3511
837.718	3591
837.856	3599
837.993	3576
838.131	3587
838.269	3580
838.406	3534
838.544	3599
838.681	3477
838.819	3454
838.956	3378
839.094	3420
839.231	3409
839.369	3553
839.506	3759
839.643	3675
839.781	3538
839.918	3473
840.055	3572
840.193	3545
840.33	3557
840.467	3580
840.604	3610
840.742	3789
840.879	3561
841.016	3584
841.153	3584
841.29	3736
841.427	3743
841.564	3713
841.701	3736
841.838	3713
841.975	3717
842.112	3713
842.249	3644
842.385	3641
842.522	3762
842.659	3732
842.796	3690
842.933	3713
843.069	3720
843.206	3720
843.343	3819
843.479	3823
843.616	3800
843.752	3660
843.889	3679
844.025	3884
844.162	3728
844.298	3861
844.435	3827
844.571	3812
844.708	3892
844.844	4017
844.98	4021
845.117	4029
845.253	3937
845.389	3926
845.525	4013
845.661	3975
845.798	3941
845.934	4002
846.07	3953
846.206	4055
846.342	4109
846.478	4097
846.614	3979
846.75	3907
846.886	3922
847.022	4078
847.158	3972
847.294	3998
847.429	4055
847.565	4013
847.701	4219
847.837	3934
847.972	3880
848.108	4006
848.244	4013
848.379	3873
848.515	3789
848.65	3797
848.786	3880
848.921	3926
849.057	3941
849.192	3968
849.328	3888
849.463	3903
849.598	3937
849.734	3857
849.869	3800
850.004	3781
850.14	3869
850.275	3781
850.41	3751
850.545	3747
850.68	3812
850.815	3808
850.95	3812
851.085	3941
851.22	3888
851.355	3865
851.49	3789
851.625	3789
851.76	3827
851.895	3770
852.03	3774
852.165	3766
852.299	3846
852.434	3915
852.569	3876
852.703	3869
852.838	3953
852.973	4029
853.107	4044
853.242	3918
853.376	3903
853.511	3812
853.645	3842
853.78	3968
853.914	3892
854.048	3934
854.183	3930
854.317	3953
854.451	4040
854.585	3964
854.72	3956
854.854	4048
854.988	3937
855.122	4010
855.256	3964
855.39	4059
855.524	4120
855.658	4093
855.792	4090
855.926	4131
856.06	4196
856.194	4261
856.327	4128
856.461	4093
856.595	4169
856.729	4147
856.862	4306
856.996	4276
857.13	4280
857.263	4291
857.397	4348
857.53	4280
857.664	4375
857.797	4421
857.931	4398
858.064	4417
858.197	4504
858.331	4352
858.464	4413
858.597	4363
858.731	4421
858.864	4470
858.997	4485
859.13	4596
859.263	4516
859.396	4596
859.529	4542
859.662	4546
859.795	4519
859.928	4561
860.061	4672
860.194	4733
860.327	4656
860.46	4656
860.592	4782
860.725	4778
860.858	4820
860.99	4672
861.123	4721
861.256	4683
861.388	4748
861.521	5433
861.653	4702
861.786	4714
861.918	4752
862.05	4790
862.183	4866
862.315	4866
862.447	4900
862.58	4938
862.712	4809
862.844	4778
862.976	4858
863.108	4889
863.24	5250
863.372	4854
863.504	4892
863.636	4896
863.768	4968
863.9	4946
864.032	4919
864.164	4984
864.296	5033
864.428	5105
864.559	5162
864.691	5105
864.823	5098
864.954	5075
865.086	5178
865.217	5121
865.349	5113
865.48	5193
865.612	5235
865.743	5353
865.875	5212
866.006	5197
866.137	5212
866.269	5242
866.4	5246
866.531	5216
866.662	5284
866.793	5292
866.924	5326
867.055	5379
867.186	5303
867.317	5364
867.448	5345
867.579	5417
867.71	5398
867.841	5372
867.972	5482
868.103	5490
868.233	5505
868.364	5471
868.495	5516
868.625	5668
868.756	5760
868.886	5623
869.017	5726
869.147	5916
869.278	5923
869.408	5828
869.539	5866
869.669	5935
869.799	5920
869.929	6022
870.06	6011
870.19	6190
870.32	6220
870.45	6262
870.58	6380
870.71	6426
870.84	6456
870.97	6479
871.1	6407
871.23	6639
871.36	6726
871.489	6646
871.619	6726
871.749	6806
871.879	6875
872.008	7034
872.138	6973
872.267	6954
872.397	6996
872.526	7076
872.656	7137
872.785	7225
872.915	7362
873.044	7578
873.173	7533
873.303	7594
873.432	7742
873.561	7856
873.69	7928
873.819	8024
873.948	8153
874.077	8279
874.206	8332
874.335	8427
874.464	8659
874.593	8883
874.722	8967
874.851	9077
874.979	9207
875.108	9382
875.237	9439
875.365	9519
875.494	9652
875.623	9895
875.751	9903
875.88	9998
876.008	10120
876.136	10261
876.265	10573
876.393	10660
876.521	10702
876.65	10786
876.778	10869
876.906	10904
877.034	10968
877.162	11181
877.29	11083
877.418	11315
877.546	11349
877.674	11433
877.802	11509
877.93	11539
878.058	11558
878.185	11543
878.313	11623
878.441	11688
878.568	11627
878.696	11779
878.824	11935
878.951	11988
879.079	12007
879.206	12159
879.333	12038
879.461	12041
879.588	12083
879.715	12060
879.842	12186
879.97	12038
880.097	11874
880.224	11893
880.351	11878
880.478	11828
880.605	11855
880.732	11912
880.859	11950
880.986	11775
881.112	11843
881.239	11737
881.366	11668
881.493	11657
881.619	11596
881.746	11596
881.872	11547
881.999	11592
882.125	11570
882.252	11482
882.378	11547
882.505	11615
882.631	11337
882.757	11349
882.883	11318
883.01	11250
883.136	11170
883.262	11109
883.388	11075
883.514	11197
883.64	11136
883.766	11113
883.892	10995
884.018	10984
884.143	11056
884.269	11102
884.395	10869
884.52	10809
884.646	10706
884.772	10664
884.897	10637
885.023	10778
885.148	10786
885.274	10763
885.399	10721
885.524	10596
885.65	10615
885.775	10580
885.9	10535
886.025	10599
886.15	10592
886.275	10447
886.4	10375
886.525	10428
886.65	10356
886.775	10299
886.9	10538
887.025	10497
887.149	10306
887.274	10207
887.399	10242
887.523	10211
887.648	10139
887.773	10124
887.897	10295
888.021	10169
888.146	10230
888.27	10215
888.395	10166
888.519	10101
888.643	10162
888.767	10253
888.891	10112
889.015	10044
889.139	10017
889.263	10025
889.387	10150
889.511	10196
889.635	10051
889.759	9964
889.883	10071
890.006	10006
890.13	10074
890.254	9930
890.377	10025
890.501	9842
890.624	9854
890.748	9918
890.871	9838
890.995	9766
891.118	9781
891.241	9816
891.364	9690
891.488	9846
891.611	9675
891.734	9785
891.857	9819
891.98	9743
892.103	9827
892.226	9785
892.349	9720
892.471	9572
892.594	9553
892.717	9671
892.839	9595
892.962	9694
893.085	9694
893.207	9591
893.33	9557
893.452	9545
893.575	9622
893.697	9435
893.819	9671
893.941	9671
894.064	9557
894.186	9454
894.308	9416
894.43	9496
894.552	9523
894.674	9477
894.796	9405
894.918	9428
895.04	9340
895.161	9363
895.283	9374
895.405	9306
895.526	9298
895.648	9272
895.769	9264
895.891	9291
896.012	9329
896.134	9233
896.255	9192
896.376	9135
896.498	9203
896.619	9192
896.74	9100
896.861	9119
896.982	9207
897.103	9245
897.224	9154
897.345	9070
897.466	8967
897.587	9055
897.708	9135
897.828	9043
897.949	8937
898.07	8811
898.19	8906
898.311	8982
898.431	8864
898.552	8891
898.672	9009
898.792	8933
898.913	8902
899.033	8845
899.153	8731
899.273	8640
899.393	8708
899.513	8705
899.633	8773
899.753	8705
899.873	8750
899.993	8712
900.113	8667
900.232	8659
900.352	8689
900.472	8648
900.591	8545
900.711	8686
900.83	8583
900.95	8667
901.069	8693
901.189	8549
901.308	8446
901.427	8309
901.546	8457
901.665	8423
901.784	8526
901.904	8400
902.023	8374
902.141	8202
902.26	8229
902.379	8301
902.498	8233
902.617	8229
902.735	8298
902.854	8259
902.973	8290
903.091	8202
903.21	8126
903.328	8157
903.446	8126
903.565	8062
903.683	8123
903.801	8005
903.919	8172
904.038	8111
904.156	8027
904.274	8096
904.392	8016
904.51	8043
904.627	8065
904.745	8077
904.863	8039
904.981	7967
905.098	7936
905.216	7951
905.334	7898
905.451	7928
905.569	7814
905.686	7890
905.803	7959
905.921	7772
906.038	7830
906.155	7852
906.272	7731
906.389	7738
906.506	7658
906.623	7624
906.74	7632
906.857	7597
906.974	7601
907.091	7681
907.208	7731
907.324	7651
907.441	7571
907.557	7525
907.674	7472
907.79	7457
907.907	7400
908.023	7483
908.139	7457
908.256	7377
908.372	7358
908.488	7358
908.604	7255
908.72	7259
908.836	7263
908.952	7278
909.068	7270
909.184	7324
909.3	7236
909.415	7301
909.531	7327
909.647	7171
909.762	7129
909.878	7149
909.993	7126
910.108	7114
910.224	7050
910.339	7126
910.454	7038
910.57	6973
910.685	6977
910.8	7190
910.915	7118
911.03	7053
911.145	6875
911.259	6875
911.374	6920
911.489	6859
911.604	6814
911.718	6764
911.833	6738
911.947	6700
912.062	6612
912.176	6719
912.291	6692
912.405	6707
912.519	6844
912.633	6806
912.748	6722
912.862	6719
912.976	6631
913.09	6502
913.204	6608
913.318	6612
913.431	6700
913.545	6677
913.659	6741
913.772	6608
913.886	6597
914	6566
914.113	6604
914.226	6692
914.34	6593
914.453	6506
914.566	6604
914.68	6585
914.793	6540
914.906	6483
915.019	6403
915.132	6426
915.245	6418
915.358	6460
915.47	6490
915.583	6494
915.696	6460
915.809	6532
915.921	6570
916.034	6414
916.146	6437
916.259	6414
916.371	6502
916.483	6475
916.595	6353
916.708	6422
916.82	6361
916.932	6418
917.044	6395
917.156	6410
917.268	6304
917.38	6399
917.491	6273
917.603	6353
917.715	6464
917.826	6441
917.938	6323
918.049	6270
918.161	6365
918.272	6445
918.384	6422
918.495	6361
918.606	6258
918.717	6270
918.828	6327
918.939	6296
919.05	6232
919.161	6266
919.272	6079
919.383	6129
919.494	6289
919.604	6441
919.715	6270
919.826	6254
919.936	6243
920.047	6304
920.157	6270
920.267	6448
920.378	6410
920.488	6281
920.598	6475
920.708	6528
920.818	6509
920.928	6467
921.038	6566
921.148	6597
921.258	6369
921.368	6277
921.477	6228
921.587	6186
921.697	6083
921.806	6175
921.916	6148
922.025	5992
922.134	5931
922.244	5878
922.353	6011
922.462	5828
922.571	5809
922.68	5718
922.789	5661
922.898	5707
923.007	5592
923.116	5745
923.224	5707
923.333	5688
923.442	5604
923.55	5543
923.659	5577
923.767	5638
923.876	5539
923.984	5619
924.092	5520
924.201	5581
924.309	5551
924.417	5585
924.525	5478
924.633	5524
924.741	6148
924.849	5421
924.956	5478
925.064	5326
925.172	5337
925.279	5299
925.387	5391
925.494	5364
925.602	5406
925.709	5372
925.816	5288
925.924	5349
926.031	5360
926.138	5296
926.245	5341
926.352	5261
926.459	5326
926.566	5341
926.673	5204
926.779	5105
926.886	5083
926.993	5102
927.099	5006
927.206	4965
927.312	4995
927.419	4995
927.525	5014
927.631	4968
927.737	4911
927.843	4911
927.95	4805
928.056	4866
928.162	4858
928.267	4850
928.373	5387
928.479	4881
928.585	4668
928.69	4763
928.796	4801
928.901	4725
929.007	4588
929.112	4653
929.218	4641
929.323	4637
929.428	4527
929.533	4710
929.638	4523
929.743	4516
929.848	4588
929.953	4516
930.058	4451
930.163	4341
930.267	4371
930.372	4466
930.477	4295
930.581	4462
930.685	4363
930.79	4242
930.894	4249
930.998	4253
931.103	4386
931.207	4097
931.311	4128
931.415	4067
931.519	3937
931.623	3972
