Data from glass_V78500241_1401.txt Node
Date: Wed Sep 01 19:24:12 CST 2021
User: usil
Spectrometer: V785-0024
Trigger mode: 0
Integration Time (sec): 4.000000E-1
Scans to average: 1
Nonlinearity correction enabled: false
Boxcar width: 0
Storing dark spectrum: false
XAxis mode: Wavelengths
Number of Pixels in Spectrum: 1024
>>>>>Begin Spectral Data<<<<<
801.071	3751
801.214	3743
801.356	3694
801.499	3732
801.641	3709
801.783	3732
801.926	3873
802.068	3831
802.211	3838
802.353	3899
802.496	3823
802.638	3857
802.78	3918
802.923	3937
803.065	3941
803.208	3896
803.35	3869
803.492	3930
803.635	3907
803.777	3785
803.919	3888
804.061	4143
804.204	3998
804.346	3945
804.488	3922
804.63	4074
804.773	3987
804.915	4029
805.057	4158
805.199	4051
805.341	4093
805.483	4192
805.626	4135
805.768	4078
805.91	4227
806.052	4227
806.194	4207
806.336	4318
806.478	4204
806.62	4200
806.762	4169
806.904	4234
807.046	4375
807.188	4181
807.33	4177
807.472	4227
807.614	4227
807.756	4268
807.898	4162
808.04	4223
808.182	4287
808.324	4337
808.465	4367
808.607	4466
808.749	4455
808.891	4421
809.033	4485
809.174	4386
809.316	4242
809.458	4257
809.6	4177
809.741	4131
809.883	4097
810.025	4204
810.166	4215
810.308	4204
810.45	4276
810.591	4265
810.733	4303
810.875	4500
811.016	4812
811.158	5121
811.299	5277
811.441	5296
811.582	5048
811.724	4714
811.865	4478
812.007	4447
812.148	4390
812.29	4481
812.431	4394
812.573	4417
812.714	4375
812.855	4474
812.997	4417
813.138	4474
813.279	4440
813.421	4417
813.562	4379
813.703	4329
813.845	4356
813.986	4295
814.127	4242
814.268	4318
814.41	4318
814.551	4280
814.692	4314
814.833	4261
814.974	4325
815.115	4348
815.256	4261
815.397	4204
815.539	4246
815.68	4185
815.821	4215
815.962	4284
816.103	4303
816.244	4211
816.385	4249
816.526	4238
816.666	4242
816.807	4105
816.948	4143
817.089	4207
817.23	4093
817.371	4044
817.512	4059
817.653	4074
817.793	4067
817.934	4071
818.075	4105
818.216	4101
818.356	4071
818.497	3979
818.638	3888
818.778	3880
818.919	3915
819.06	3865
819.2	3926
819.341	3880
819.481	3838
819.622	3930
819.762	4029
819.903	3937
820.043	3869
820.184	3850
820.324	3797
820.465	3926
820.605	3922
820.746	3876
820.886	3835
821.026	3941
821.167	3865
821.307	3994
821.447	3926
821.588	3934
821.728	4021
821.868	3949
822.008	3888
822.149	3949
822.289	3934
822.429	3774
822.569	3759
822.709	3804
822.849	3663
822.99	3732
823.13	3728
823.27	3793
823.41	3717
823.55	3740
823.69	3705
823.83	3728
823.97	3717
824.11	3606
824.25	3587
824.389	3663
824.529	3660
824.669	3667
824.809	3740
824.949	3740
825.089	3717
825.228	3732
825.368	3564
825.508	3561
825.648	3572
825.787	3610
825.927	3629
826.067	3644
826.206	3648
826.346	3793
826.485	3831
826.625	3880
826.765	3968
826.904	3835
827.044	3610
827.183	3557
827.323	3439
827.462	3500
827.601	3454
827.741	3409
827.88	3439
828.02	3374
828.159	3466
828.298	3473
828.437	3519
828.577	3450
828.716	3568
828.855	3439
828.994	3401
829.134	3386
829.273	3389
829.412	3325
829.551	3291
829.69	3336
829.829	3458
829.968	3481
830.107	3428
830.246	3454
830.385	3405
830.524	3370
830.663	3336
830.802	3275
830.941	3192
831.08	3222
831.219	3306
831.357	3279
831.496	3378
831.635	3237
831.774	3173
831.913	3207
832.051	3119
832.19	3142
832.329	3214
832.467	3127
832.606	3188
832.744	3176
832.883	3180
833.022	3214
833.16	3275
833.299	3317
833.437	3344
833.576	3344
833.714	3382
833.852	3458
833.991	3428
834.129	3473
834.267	3424
834.406	3393
834.544	3481
834.682	3435
834.821	3401
834.959	3603
835.097	3386
835.235	3511
835.373	3523
835.511	3500
835.65	3447
835.788	3469
835.926	3397
836.064	3405
836.202	3393
836.34	3572
836.478	3606
836.615	3526
836.753	3603
836.891	3656
837.029	3629
837.167	3580
837.305	3591
837.443	3511
837.58	3519
837.718	3614
837.856	3545
837.993	3534
838.131	3633
838.269	3595
838.406	3576
838.544	3591
838.681	3466
838.819	3439
838.956	3378
839.094	3420
839.231	3420
839.369	3530
839.506	3740
839.643	3606
839.781	3485
839.918	3477
840.055	3519
840.193	3561
840.33	3519
840.467	3564
840.604	3614
840.742	3797
840.879	3557
841.016	3576
841.153	3580
841.29	3743
841.427	3762
841.564	3656
841.701	3713
841.838	3736
841.975	3682
842.112	3709
842.249	3625
842.385	3633
842.522	3831
842.659	3686
842.796	3698
842.933	3755
843.069	3667
843.206	3736
843.343	3816
843.479	3789
843.616	3831
843.752	3713
843.889	3732
844.025	3846
844.162	3713
844.298	3846
844.435	3789
844.571	3819
844.708	3873
844.844	4002
844.98	4051
845.117	3998
845.253	3884
845.389	3926
845.525	3949
845.661	3937
845.798	3934
845.934	3983
846.07	3949
846.206	4032
846.342	4139
846.478	4048
846.614	3987
846.75	3960
846.886	3899
847.022	4067
847.158	3972
847.294	3987
847.429	4044
847.565	3949
847.701	4249
847.837	3922
847.972	3850
848.108	3945
848.244	3994
848.379	3869
848.515	3861
848.65	3861
848.786	3865
848.921	3861
849.057	3956
849.192	3949
849.328	3937
849.463	3949
849.598	3892
849.734	3854
849.869	3850
850.004	3781
850.14	3816
850.275	3831
850.41	3747
850.545	3762
850.68	3751
850.815	3812
850.95	3751
851.085	3911
851.22	3873
851.355	3857
851.49	3785
851.625	3800
851.76	3774
851.895	3740
852.03	3755
852.165	3804
852.299	3823
852.434	3953
852.569	3899
852.703	3922
852.838	3941
852.973	3994
853.107	4013
853.242	3827
853.376	3819
853.511	3770
853.645	3850
853.78	3979
853.914	3918
854.048	3873
854.183	3899
854.317	3922
854.451	4029
854.585	3960
854.72	3953
854.854	4078
854.988	3941
855.122	3979
855.256	3903
855.39	4025
855.524	4109
855.658	4086
855.792	4090
855.926	4150
856.06	4147
856.194	4230
856.327	4112
856.461	4097
856.595	4166
856.729	4154
856.862	4284
856.996	4223
857.13	4280
857.263	4341
857.397	4379
857.53	4284
857.664	4371
857.797	4402
857.931	4447
858.064	4375
858.197	4451
858.331	4394
858.464	4413
858.597	4333
858.731	4417
858.864	4459
858.997	4443
859.13	4481
859.263	4538
859.396	4584
859.529	4512
859.662	4554
859.795	4500
859.928	4599
860.061	4740
860.194	4717
860.327	4717
860.46	4660
860.592	4736
860.725	4771
860.858	4733
860.99	4740
861.123	4729
861.256	4748
861.388	4797
861.521	5296
861.653	4733
861.786	4664
861.918	4752
862.05	4786
862.183	4809
862.315	4900
862.447	4927
862.58	4900
862.712	4782
862.844	4774
862.976	4816
863.108	4866
863.24	5193
863.372	4881
863.504	4930
863.636	4938
863.768	4980
863.9	4949
864.032	4919
864.164	4995
864.296	5029
864.428	5121
864.559	5083
864.691	5140
864.823	5151
864.954	5090
865.086	5147
865.217	5094
865.349	5121
865.48	5204
865.612	5174
865.743	5364
865.875	5178
866.006	5181
866.137	5220
866.269	5220
866.4	5250
866.531	5288
866.662	5265
866.793	5296
866.924	5269
867.055	5307
867.186	5368
867.317	5277
867.448	5326
867.579	5406
867.71	5368
867.841	5414
867.972	5444
868.103	5455
868.233	5539
868.364	5474
868.495	5570
868.625	5615
868.756	5783
868.886	5665
869.017	5760
869.147	5805
869.278	5885
869.408	5817
869.539	5805
869.669	5927
869.799	5931
869.929	5958
870.06	6003
870.19	6190
870.32	6194
870.45	6292
870.58	6365
870.71	6448
870.84	6456
870.97	6429
871.1	6426
871.23	6646
871.36	6658
871.489	6654
871.619	6806
871.749	6810
871.879	6852
872.008	6970
872.138	6951
872.267	7031
872.397	6996
872.526	7050
872.656	7088
872.785	7175
872.915	7327
873.044	7540
873.173	7563
873.303	7693
873.432	7795
873.561	7887
873.69	7921
873.819	7967
873.948	8096
874.077	8176
874.206	8381
874.335	8503
874.464	8731
874.593	8834
874.722	8941
874.851	9089
874.979	9176
875.108	9382
875.237	9359
875.365	9454
875.494	9694
875.623	9884
875.751	9888
875.88	9949
876.008	10097
876.136	10291
876.265	10481
876.393	10767
876.521	10710
876.65	10839
876.778	10957
876.906	10934
877.034	11052
877.162	11083
877.29	11086
877.418	11311
877.546	11372
877.674	11467
877.802	11436
877.93	11570
878.058	11589
878.185	11573
878.313	11596
878.441	11714
878.568	11691
878.696	11824
878.824	11790
878.951	11950
879.079	12057
879.206	12114
879.333	12129
879.461	12022
879.588	12102
879.715	12038
879.842	12232
879.97	12110
880.097	11965
880.224	11813
880.351	11897
880.478	11889
880.605	11863
880.732	11821
880.859	12011
880.986	11802
881.112	11870
881.239	11710
881.366	11634
881.493	11585
881.619	11509
881.746	11551
881.872	11570
881.999	11539
882.125	11478
882.252	11634
882.378	11486
882.505	11581
882.631	11421
882.757	11296
882.883	11391
883.01	11345
883.136	11220
883.262	11128
883.388	11094
883.514	11261
883.64	11147
883.766	11197
883.892	11037
884.018	10938
884.143	11003
884.269	11075
884.395	10858
884.52	10679
884.646	10782
884.772	10687
884.897	10653
885.023	10660
885.148	10733
885.274	10790
885.399	10725
885.524	10599
885.65	10584
885.775	10577
885.9	10462
886.025	10531
886.15	10653
886.275	10474
886.4	10333
886.525	10462
886.65	10409
886.775	10390
886.9	10478
887.025	10489
887.149	10363
887.274	10238
887.399	10238
887.523	10177
887.648	10124
887.773	10234
887.897	10272
888.021	10272
888.146	10124
888.27	10211
888.395	10284
888.519	10215
888.643	10158
888.767	10265
888.891	10135
889.015	10025
889.139	10063
889.263	10032
889.387	9983
889.511	10128
889.635	10090
889.759	10006
889.883	9953
890.006	9994
890.13	10166
890.254	9949
890.377	9998
890.501	9888
890.624	9850
890.748	9838
890.871	9789
890.995	9713
891.118	9682
891.241	9793
891.364	9740
891.488	9895
891.611	9728
891.734	9732
891.857	9778
891.98	9736
892.103	9724
892.226	9835
892.349	9759
892.471	9519
892.594	9641
892.717	9564
892.839	9538
892.962	9622
893.085	9644
893.207	9545
893.33	9507
893.452	9504
893.575	9599
893.697	9492
893.819	9561
893.941	9622
894.064	9545
894.186	9454
894.308	9507
894.43	9576
894.552	9576
894.674	9469
894.796	9424
894.918	9359
895.04	9256
895.161	9416
895.283	9412
895.405	9256
895.526	9268
895.648	9184
895.769	9317
895.891	9332
896.012	9264
896.134	9226
896.255	9173
896.376	9100
896.498	9108
896.619	9108
896.74	9077
896.861	9097
896.982	9211
897.103	9348
897.224	9135
897.345	9104
897.466	9005
897.587	9005
897.708	9154
897.828	9127
897.949	8933
898.07	8921
898.19	8963
898.311	8967
898.431	8902
898.552	8933
898.672	8982
898.792	8895
898.913	8895
899.033	8823
899.153	8727
899.273	8663
899.393	8739
899.513	8746
899.633	8735
899.753	8716
899.873	8693
899.993	8735
900.113	8739
900.232	8705
900.352	8674
900.472	8632
900.591	8568
900.711	8587
900.83	8564
900.95	8689
901.069	8682
901.189	8526
901.308	8480
901.427	8381
901.546	8446
901.665	8434
901.784	8492
901.904	8389
902.023	8320
902.141	8206
902.26	8210
902.379	8271
902.498	8225
902.617	8259
902.735	8324
902.854	8229
902.973	8233
903.091	8092
903.21	8187
903.328	8134
903.446	8050
903.565	8096
903.683	8123
903.801	8035
903.919	8115
904.038	8157
904.156	8008
904.274	8100
904.392	8058
904.51	8077
904.627	8081
904.745	8073
904.863	8073
904.981	7967
905.098	7868
905.216	7883
905.334	7898
905.451	7856
905.569	7940
905.686	7932
905.803	7917
905.921	7772
906.038	7894
906.155	7852
906.272	7685
906.389	7715
906.506	7670
906.623	7582
906.74	7540
906.857	7563
906.974	7502
907.091	7628
907.208	7712
907.324	7628
907.441	7575
907.557	7384
907.674	7476
907.79	7422
907.907	7419
908.023	7460
908.139	7468
908.256	7381
908.372	7392
908.488	7274
908.604	7297
908.72	7209
908.836	7293
908.952	7285
909.068	7297
909.184	7278
909.3	7244
909.415	7274
909.531	7316
909.647	7053
909.762	7179
909.878	7160
909.993	7084
910.108	7141
910.224	7103
910.339	7129
910.454	7114
910.57	6947
910.685	6977
910.8	7217
910.915	7156
911.03	7069
911.145	6867
911.259	6920
911.374	6935
911.489	6825
911.604	6798
911.718	6798
911.833	6726
911.947	6688
912.062	6623
912.176	6677
912.291	6703
912.405	6711
912.519	6825
912.633	6844
912.748	6711
912.862	6696
912.976	6616
913.09	6555
913.204	6559
913.318	6574
913.431	6639
913.545	6715
913.659	6719
913.772	6662
913.886	6525
914	6555
914.113	6604
914.226	6688
914.34	6601
914.453	6479
914.566	6555
914.68	6608
914.793	6563
914.906	6445
915.019	6441
915.132	6342
915.245	6399
915.358	6494
915.47	6467
915.583	6426
915.696	6479
915.809	6616
915.921	6509
916.034	6464
916.146	6361
916.259	6429
916.371	6464
916.483	6471
916.595	6391
916.708	6395
916.82	6445
916.932	6391
917.044	6467
917.156	6388
917.268	6304
917.38	6319
917.491	6247
917.603	6342
917.715	6315
917.826	6426
917.938	6353
918.049	6300
918.161	6315
918.272	6429
918.384	6426
918.495	6361
918.606	6258
918.717	6197
918.828	6266
918.939	6273
919.05	6235
919.161	6224
919.272	6136
919.383	6159
919.494	6304
919.604	6422
919.715	6308
919.826	6224
919.936	6262
920.047	6365
920.157	6285
920.267	6471
920.378	6334
920.488	6266
920.598	6467
920.708	6589
920.818	6483
920.928	6486
921.038	6604
921.148	6551
921.258	6365
921.368	6304
921.477	6220
921.587	6243
921.697	5999
921.806	6155
921.916	6076
922.025	5980
922.134	5889
922.244	5836
922.353	5969
922.462	5855
922.571	5783
922.68	5741
922.789	5657
922.898	5661
923.007	5600
923.116	5722
923.224	5672
923.333	5691
923.442	5589
923.55	5562
923.659	5547
923.767	5604
923.876	5543
923.984	5566
924.092	5440
924.201	5528
924.309	5543
924.417	5581
924.525	5474
924.633	5486
924.741	6239
924.849	5334
924.956	5478
925.064	5345
925.172	5326
925.279	5315
925.387	5395
925.494	5318
925.602	5406
925.709	5395
925.816	5254
925.924	5345
926.031	5349
926.138	5307
926.245	5318
926.352	5220
926.459	5322
926.566	5311
926.673	5216
926.779	5117
926.886	5166
926.993	5033
927.099	5010
927.206	4938
927.312	4889
927.419	4965
927.525	5025
927.631	4965
927.737	4881
927.843	4854
927.95	4774
928.056	4809
928.162	4870
928.267	4831
928.373	5227
928.479	4850
928.585	4691
928.69	4733
928.796	4793
928.901	4717
929.007	4611
929.112	4675
929.218	4603
929.323	4599
929.428	4573
929.533	4649
929.638	4504
929.743	4519
929.848	4542
929.953	4481
930.058	4500
930.163	4333
930.267	4367
930.372	4405
930.477	4287
930.581	4519
930.685	4348
930.79	4249
930.894	4310
930.998	4223
931.103	4314
931.207	4109
931.311	4071
931.415	4063
931.519	3915
931.623	3934
