Data from glass_V78500241_1039.txt Node
Date: Wed Sep 01 19:21:42 CST 2021
User: usil
Spectrometer: V785-0024
Trigger mode: 0
Integration Time (sec): 4.000000E-1
Scans to average: 1
Nonlinearity correction enabled: false
Boxcar width: 0
Storing dark spectrum: false
XAxis mode: Wavelengths
Number of Pixels in Spectrum: 1024
>>>>>Begin Spectral Data<<<<<
801.071	3747
801.214	3781
801.356	3709
801.499	3724
801.641	3732
801.783	3797
801.926	3934
802.068	3869
802.211	3861
802.353	3880
802.496	3816
802.638	3896
802.78	3899
802.923	3876
803.065	3896
803.208	3827
803.35	3884
803.492	3903
803.635	3918
803.777	3831
803.919	3922
804.061	4131
804.204	3972
804.346	3983
804.488	3922
804.63	4051
804.773	4017
804.915	4010
805.057	4166
805.199	4017
805.341	4078
805.483	4101
805.626	4112
805.768	4124
805.91	4268
806.052	4230
806.194	4204
806.336	4356
806.478	4215
806.62	4192
806.762	4181
806.904	4318
807.046	4322
807.188	4253
807.33	4196
807.472	4284
807.614	4162
807.756	4249
807.898	4219
808.04	4227
808.182	4276
808.324	4352
808.465	4417
808.607	4459
808.749	4470
808.891	4470
809.033	4523
809.174	4417
809.316	4272
809.458	4253
809.6	4112
809.741	4204
809.883	4128
810.025	4230
810.166	4227
810.308	4215
810.45	4223
810.591	4207
810.733	4318
810.875	4542
811.016	4835
811.158	5140
811.299	5288
811.441	5292
811.582	5025
811.724	4649
811.865	4440
812.007	4478
812.148	4436
812.29	4405
812.431	4466
812.573	4379
812.714	4398
812.855	4432
812.997	4398
813.138	4462
813.279	4436
813.421	4398
813.562	4371
813.703	4337
813.845	4344
813.986	4295
814.127	4230
814.268	4268
814.41	4303
814.551	4249
814.692	4360
814.833	4287
814.974	4295
815.115	4299
815.256	4246
815.397	4253
815.539	4261
815.68	4173
815.821	4207
815.962	4329
816.103	4280
816.244	4238
816.385	4204
816.526	4314
816.666	4253
816.807	4139
816.948	4173
817.089	4215
817.23	4124
817.371	4067
817.512	4090
817.653	4082
817.793	4029
817.934	4055
818.075	4063
818.216	4090
818.356	4109
818.497	4032
818.638	3903
818.778	3892
818.919	3888
819.06	3892
819.2	3934
819.341	3838
819.481	3861
819.622	3907
819.762	4044
819.903	3941
820.043	3892
820.184	3842
820.324	3808
820.465	3861
820.605	3861
820.746	3892
820.886	3797
821.026	3960
821.167	3972
821.307	3972
821.447	3991
821.588	3994
821.728	3953
821.868	3918
822.008	3903
822.149	3888
822.289	3934
822.429	3823
822.569	3774
822.709	3812
822.849	3679
822.99	3720
823.13	3774
823.27	3850
823.41	3701
823.55	3755
823.69	3736
823.83	3759
823.97	3686
824.11	3625
824.25	3625
824.389	3641
824.529	3701
824.669	3675
824.809	3682
824.949	3743
825.089	3736
825.228	3686
825.368	3595
825.508	3553
825.648	3561
825.787	3584
825.927	3629
826.067	3648
826.206	3694
826.346	3835
826.485	3873
826.625	3892
826.765	3926
826.904	3835
827.044	3644
827.183	3557
827.323	3492
827.462	3469
827.601	3454
827.741	3450
827.88	3420
828.02	3378
828.159	3504
828.298	3496
828.437	3526
828.577	3481
828.716	3595
828.855	3511
828.994	3378
829.134	3359
829.273	3443
829.412	3367
829.551	3325
829.69	3389
829.829	3447
829.968	3530
830.107	3443
830.246	3428
830.385	3397
830.524	3363
830.663	3325
830.802	3249
830.941	3214
831.08	3203
831.219	3264
831.357	3275
831.496	3412
831.635	3275
831.774	3199
831.913	3256
832.051	3138
832.19	3146
832.329	3214
832.467	3131
832.606	3138
832.744	3180
832.883	3230
833.022	3176
833.16	3302
833.299	3321
833.437	3355
833.576	3401
833.714	3374
833.852	3431
833.991	3462
834.129	3507
834.267	3450
834.406	3409
834.544	3424
834.682	3439
834.821	3405
834.959	3553
835.097	3447
835.235	3545
835.373	3488
835.511	3500
835.65	3492
835.788	3458
835.926	3409
836.064	3420
836.202	3420
836.34	3614
836.478	3610
836.615	3549
836.753	3595
836.891	3644
837.029	3663
837.167	3587
837.305	3580
837.443	3576
837.58	3492
837.718	3599
837.856	3545
837.993	3523
838.131	3614
838.269	3580
838.406	3606
838.544	3576
838.681	3458
838.819	3424
838.956	3359
839.094	3386
839.231	3450
839.369	3515
839.506	3717
839.643	3663
839.781	3469
839.918	3481
840.055	3568
840.193	3549
840.33	3557
840.467	3549
840.604	3622
840.742	3842
840.879	3572
841.016	3564
841.153	3603
841.29	3778
841.427	3709
841.564	3736
841.701	3736
841.838	3705
841.975	3682
842.112	3751
842.249	3679
842.385	3644
842.522	3816
842.659	3671
842.796	3698
842.933	3709
843.069	3717
843.206	3740
843.343	3823
843.479	3808
843.616	3793
843.752	3663
843.889	3709
844.025	3884
844.162	3698
844.298	3861
844.435	3816
844.571	3740
844.708	3888
844.844	3960
844.98	4071
845.117	4029
845.253	3930
845.389	3941
845.525	3983
845.661	3956
845.798	3987
845.934	4017
846.07	3991
846.206	4051
846.342	4128
846.478	4067
846.614	3987
846.75	3960
846.886	3934
847.022	4059
847.158	3994
847.294	4006
847.429	4044
847.565	4013
847.701	4242
847.837	3880
847.972	3854
848.108	3972
848.244	3991
848.379	3857
848.515	3854
848.65	3835
848.786	3869
848.921	3865
849.057	3998
849.192	4002
849.328	3911
849.463	3918
849.598	3911
849.734	3896
849.869	3854
850.004	3812
850.14	3812
850.275	3804
850.41	3762
850.545	3778
850.68	3785
850.815	3800
850.95	3827
851.085	3972
851.22	3835
851.355	3838
851.49	3808
851.625	3774
851.76	3808
851.895	3740
852.03	3740
852.165	3766
852.299	3846
852.434	3926
852.569	3850
852.703	3857
852.838	3915
852.973	4036
853.107	3991
853.242	3937
853.376	3850
853.511	3819
853.645	3888
853.78	3991
853.914	3915
854.048	3861
854.183	3918
854.317	3975
854.451	4051
854.585	3987
854.72	3956
854.854	4051
854.988	3911
855.122	4010
855.256	3903
855.39	4036
855.524	4086
855.658	4101
855.792	4147
855.926	4139
856.06	4177
856.194	4207
856.327	4162
856.461	4120
856.595	4143
856.729	4188
856.862	4249
856.996	4299
857.13	4287
857.263	4284
857.397	4352
857.53	4287
857.664	4303
857.797	4413
857.931	4455
858.064	4375
858.197	4459
858.331	4428
858.464	4440
858.597	4344
858.731	4417
858.864	4497
858.997	4478
859.13	4531
859.263	4592
859.396	4538
859.529	4512
859.662	4550
859.795	4523
859.928	4596
860.061	4748
860.194	4725
860.327	4691
860.46	4698
860.592	4771
860.725	4786
860.858	4752
860.99	4706
861.123	4668
861.256	4687
861.388	4824
861.521	5501
861.653	4778
861.786	4755
861.918	4729
862.05	4790
862.183	4847
862.315	4911
862.447	4991
862.58	4885
862.712	4835
862.844	4755
862.976	4892
863.108	4843
863.24	5242
863.372	4850
863.504	4923
863.636	4923
863.768	4995
863.9	4972
864.032	4987
864.164	4976
864.296	5025
864.428	5117
864.559	5128
864.691	5147
864.823	5121
864.954	5140
865.086	5174
865.217	5128
865.349	5121
865.48	5212
865.612	5235
865.743	5258
865.875	5216
866.006	5185
866.137	5261
866.269	5265
866.4	5258
866.531	5258
866.662	5258
866.793	5292
866.924	5341
867.055	5376
867.186	5349
867.317	5315
867.448	5322
867.579	5357
867.71	5357
867.841	5387
867.972	5463
868.103	5520
868.233	5497
868.364	5520
868.495	5551
868.625	5657
868.756	5748
868.886	5684
869.017	5798
869.147	5802
869.278	5851
869.408	5805
869.539	5851
869.669	5916
869.799	5931
869.929	5961
870.06	5988
870.19	6194
870.32	6213
870.45	6266
870.58	6311
870.71	6452
870.84	6422
870.97	6418
871.1	6521
871.23	6654
871.36	6703
871.489	6658
871.619	6753
871.749	6806
871.879	6844
872.008	7023
872.138	6954
872.267	7000
872.397	7008
872.526	7114
872.656	7099
872.785	7236
872.915	7415
873.044	7460
873.173	7590
873.303	7655
873.432	7784
873.561	7936
873.69	7856
873.819	7993
873.948	8176
874.077	8164
874.206	8305
874.335	8450
874.464	8712
874.593	8807
874.722	8994
874.851	9085
874.979	9279
875.108	9435
875.237	9462
875.365	9519
875.494	9648
875.623	9857
875.751	9819
875.88	10036
876.008	10177
876.136	10284
876.265	10550
876.393	10698
876.521	10812
876.65	10812
876.778	10862
876.906	10934
877.034	10965
877.162	11121
877.29	11162
877.418	11189
877.546	11356
877.674	11433
877.802	11467
877.93	11600
878.058	11592
878.185	11623
878.313	11611
878.441	11710
878.568	11691
878.696	11798
878.824	11824
878.951	11942
879.079	12026
879.206	12045
879.333	12076
879.461	12003
879.588	12125
879.715	12163
879.842	12133
879.97	12030
880.097	11916
880.224	11908
880.351	11878
880.478	11916
880.605	11923
880.732	11805
880.859	12015
880.986	11863
881.112	11817
881.239	11680
881.366	11649
881.493	11653
881.619	11448
881.746	11493
881.872	11478
881.999	11478
882.125	11452
882.252	11630
882.378	11562
882.505	11497
882.631	11440
882.757	11353
882.883	11376
883.01	11269
883.136	11299
883.262	11037
883.388	11067
883.514	11147
883.64	11151
883.766	10987
883.892	11052
884.018	10984
884.143	11048
884.269	11094
884.395	10839
884.52	10710
884.646	10866
884.772	10660
884.897	10714
885.023	10721
885.148	10759
885.274	10729
885.399	10698
885.524	10603
885.65	10603
885.775	10584
885.9	10531
886.025	10668
886.15	10596
886.275	10538
886.4	10417
886.525	10356
886.65	10455
886.775	10329
886.9	10516
887.025	10531
887.149	10337
887.274	10196
887.399	10200
887.523	10227
887.648	10143
887.773	10097
887.897	10265
888.021	10223
888.146	10074
888.27	10181
888.395	10265
888.519	10207
888.643	10131
888.767	10280
888.891	10078
889.015	10017
889.139	10093
889.263	10055
889.387	10044
889.511	10082
889.635	10044
889.759	10055
889.883	9994
890.006	10010
890.13	10086
890.254	9903
890.377	9934
890.501	9873
890.624	9819
890.748	9979
890.871	9842
890.995	9778
891.118	9686
891.241	9869
891.364	9732
891.488	9842
891.611	9762
891.734	9629
891.857	9751
891.98	9831
892.103	9869
892.226	9720
892.349	9629
892.471	9625
892.594	9591
892.717	9671
892.839	9633
892.962	9519
893.085	9652
893.207	9622
893.33	9469
893.452	9591
893.575	9584
893.697	9511
893.819	9614
893.941	9614
894.064	9625
894.186	9428
894.308	9424
894.43	9587
894.552	9572
894.674	9519
894.796	9431
894.918	9412
895.04	9325
895.161	9431
895.283	9332
895.405	9226
895.526	9237
895.648	9336
895.769	9245
895.891	9287
896.012	9325
896.134	9184
896.255	9131
896.376	9142
896.498	9089
896.619	9211
896.74	9074
896.861	9138
896.982	9329
897.103	9408
897.224	9176
897.345	9039
897.466	9036
897.587	8967
897.708	9081
897.828	9062
897.949	8982
898.07	8914
898.19	8975
898.311	9013
898.431	8887
898.552	8948
898.672	8982
898.792	8906
898.913	8921
899.033	8796
899.153	8766
899.273	8739
899.393	8689
899.513	8727
899.633	8720
899.753	8693
899.873	8701
899.993	8781
900.113	8731
900.232	8735
900.352	8697
900.472	8670
900.591	8640
900.711	8594
900.83	8537
900.95	8766
901.069	8697
901.189	8560
901.308	8457
901.427	8419
901.546	8412
901.665	8488
901.784	8526
901.904	8419
902.023	8358
902.141	8218
902.26	8221
902.379	8271
902.498	8134
902.617	8199
902.735	8328
902.854	8275
902.973	8282
903.091	8138
903.21	8111
903.328	8168
903.446	8157
903.565	8157
903.683	8100
903.801	8062
903.919	8180
904.038	8153
904.156	7978
904.274	8130
904.392	8054
904.51	8088
904.627	8012
904.745	8062
904.863	8088
904.981	8005
905.098	7856
905.216	7818
905.334	7944
905.451	7864
905.569	7894
905.686	7951
905.803	7849
905.921	7795
906.038	7898
906.155	7795
906.272	7731
906.389	7712
906.506	7674
906.623	7636
906.74	7628
906.857	7548
906.974	7616
907.091	7757
907.208	7666
907.324	7658
907.441	7552
907.557	7518
907.674	7464
907.79	7403
907.907	7445
908.023	7506
908.139	7396
908.256	7422
908.372	7392
908.488	7460
908.604	7259
908.72	7285
908.836	7282
908.952	7274
909.068	7305
909.184	7327
909.3	7282
909.415	7327
909.531	7270
909.647	7145
909.762	7053
909.878	7122
909.993	7187
910.108	7179
910.224	7099
910.339	7160
910.454	7046
910.57	7031
910.685	6954
910.8	7202
910.915	7149
911.03	6993
911.145	6916
911.259	6890
911.374	6909
911.489	6856
911.604	6764
911.718	6730
911.833	6688
911.947	6703
912.062	6646
912.176	6711
912.291	6677
912.405	6768
912.519	6886
912.633	6840
912.748	6749
912.862	6692
912.976	6578
913.09	6574
913.204	6646
913.318	6627
913.431	6734
913.545	6627
913.659	6707
913.772	6665
913.886	6589
914	6620
914.113	6601
914.226	6696
914.34	6601
914.453	6479
914.566	6608
914.68	6563
914.793	6525
914.906	6399
915.019	6426
915.132	6380
915.245	6403
915.358	6426
915.47	6456
915.583	6467
915.696	6494
915.809	6578
915.921	6525
916.034	6460
916.146	6403
916.259	6403
916.371	6502
916.483	6467
916.595	6456
916.708	6418
916.82	6437
916.932	6426
917.044	6384
917.156	6410
917.268	6308
917.38	6365
917.491	6369
917.603	6338
917.715	6433
917.826	6441
917.938	6334
918.049	6239
918.161	6338
918.272	6384
918.384	6467
918.495	6338
918.606	6300
918.717	6182
918.828	6277
918.939	6254
919.05	6235
919.161	6258
919.272	6079
919.383	6155
919.494	6350
919.604	6437
919.715	6319
919.826	6197
919.936	6289
920.047	6338
920.157	6353
920.267	6490
920.378	6296
920.488	6357
920.598	6407
920.708	6585
920.818	6445
920.928	6494
921.038	6593
921.148	6544
921.258	6350
921.368	6292
921.477	6220
921.587	6205
921.697	6171
921.806	6209
921.916	6121
922.025	5939
922.134	5958
922.244	5844
922.353	5984
922.462	5901
922.571	5798
922.68	5703
922.789	5714
922.898	5691
923.007	5672
923.116	5767
923.224	5707
923.333	5684
923.442	5623
923.55	5554
923.659	5615
923.767	5615
923.876	5573
923.984	5642
924.092	5501
924.201	5573
924.309	5581
924.417	5497
924.525	5478
924.633	5509
924.741	6251
924.849	5372
924.956	5512
925.064	5353
925.172	5326
925.279	5299
925.387	5357
925.494	5349
925.602	5429
925.709	5429
925.816	5265
925.924	5368
926.031	5364
926.138	5284
926.245	5349
926.352	5208
926.459	5357
926.566	5372
926.673	5239
926.779	5132
926.886	5166
926.993	5014
927.099	5075
927.206	4976
927.312	4965
927.419	5033
927.525	5022
927.631	4961
927.737	4873
927.843	4873
927.95	4763
928.056	4847
928.162	4790
928.267	4858
928.373	5402
928.479	4843
928.585	4702
928.69	4793
928.796	4748
928.901	4733
929.007	4592
929.112	4641
929.218	4641
929.323	4672
929.428	4561
929.533	4637
929.638	4500
929.743	4531
929.848	4535
929.953	4531
930.058	4459
930.163	4322
930.267	4333
930.372	4436
930.477	4356
930.581	4447
930.685	4363
930.79	4257
930.894	4303
930.998	4261
931.103	4398
931.207	4124
931.311	4097
931.415	3998
931.519	3934
931.623	3941
