Data from glass_V78500241_1777.txt Node
Date: Wed Sep 01 19:26:49 CST 2021
User: usil
Spectrometer: V785-0024
Trigger mode: 0
Integration Time (sec): 4.000000E-1
Scans to average: 1
Nonlinearity correction enabled: false
Boxcar width: 0
Storing dark spectrum: false
XAxis mode: Wavelengths
Number of Pixels in Spectrum: 1024
>>>>>Begin Spectral Data<<<<<
801.071	3778
801.214	3720
801.356	3755
801.499	3762
801.641	3705
801.783	3781
801.926	3854
802.068	3812
802.211	3892
802.353	3880
802.496	3823
802.638	3892
802.78	3869
802.923	3915
803.065	3941
803.208	3819
803.35	3865
803.492	3869
803.635	3918
803.777	3827
803.919	3937
804.061	4131
804.204	3960
804.346	3972
804.488	3869
804.63	3994
804.773	3926
804.915	4059
805.057	4166
805.199	4013
805.341	4048
805.483	4090
805.626	4135
805.768	4116
805.91	4211
806.052	4207
806.194	4207
806.336	4344
806.478	4223
806.62	4162
806.762	4154
806.904	4265
807.046	4329
807.188	4185
807.33	4185
807.472	4253
807.614	4158
807.756	4249
807.898	4219
808.04	4219
808.182	4268
808.324	4318
808.465	4375
808.607	4489
808.749	4489
808.891	4478
809.033	4535
809.174	4402
809.316	4234
809.458	4257
809.6	4177
809.741	4162
809.883	4158
810.025	4177
810.166	4188
810.308	4227
810.45	4276
810.591	4238
810.733	4291
810.875	4478
811.016	4763
811.158	5151
811.299	5303
811.441	5261
811.582	5109
811.724	4702
811.865	4447
812.007	4432
812.148	4402
812.29	4432
812.431	4398
812.573	4394
812.714	4337
812.855	4367
812.997	4432
813.138	4443
813.279	4398
813.421	4405
813.562	4360
813.703	4295
813.845	4322
813.986	4268
814.127	4257
814.268	4261
814.41	4268
814.551	4261
814.692	4341
814.833	4291
814.974	4230
815.115	4325
815.256	4257
815.397	4276
815.539	4291
815.68	4124
815.821	4223
815.962	4325
816.103	4268
816.244	4211
816.385	4219
816.526	4268
816.666	4200
816.807	4082
816.948	4147
817.089	4135
817.23	4124
817.371	4078
817.512	4025
817.653	4082
817.793	4021
817.934	4021
818.075	4090
818.216	4078
818.356	4097
818.497	3964
818.638	3907
818.778	3918
818.919	3892
819.06	3941
819.2	3899
819.341	3846
819.481	3842
819.622	3915
819.762	4032
819.903	3918
820.043	3838
820.184	3846
820.324	3827
820.465	3888
820.605	3846
820.746	3880
820.886	3804
821.026	3930
821.167	3918
821.307	4006
821.447	3930
821.588	3934
821.728	3968
821.868	3953
822.008	3861
822.149	3907
822.289	3934
822.429	3800
822.569	3740
822.709	3793
822.849	3686
822.99	3713
823.13	3770
823.27	3808
823.41	3717
823.55	3774
823.69	3675
823.83	3762
823.97	3679
824.11	3587
824.25	3603
824.389	3606
824.529	3644
824.669	3660
824.809	3701
824.949	3736
825.089	3736
825.228	3728
825.368	3587
825.508	3515
825.648	3595
825.787	3614
825.927	3660
826.067	3629
826.206	3671
826.346	3812
826.485	3793
826.625	3888
826.765	3968
826.904	3816
827.044	3629
827.183	3504
827.323	3469
827.462	3477
827.601	3397
827.741	3378
827.88	3443
828.02	3378
828.159	3420
828.298	3458
828.437	3545
828.577	3488
828.716	3591
828.855	3511
828.994	3393
829.134	3351
829.273	3374
829.412	3363
829.551	3325
829.69	3386
829.829	3405
829.968	3473
830.107	3439
830.246	3462
830.385	3405
830.524	3420
830.663	3310
830.802	3237
830.941	3161
831.08	3184
831.219	3260
831.357	3291
831.496	3458
831.635	3226
831.774	3184
831.913	3230
832.051	3135
832.19	3154
832.329	3230
832.467	3150
832.606	3093
832.744	3176
832.883	3173
833.022	3203
833.16	3256
833.299	3325
833.437	3344
833.576	3374
833.714	3428
833.852	3443
833.991	3439
834.129	3447
834.267	3435
834.406	3386
834.544	3450
834.682	3431
834.821	3401
834.959	3599
835.097	3401
835.235	3553
835.373	3485
835.511	3500
835.65	3443
835.788	3477
835.926	3397
836.064	3420
836.202	3435
836.34	3572
836.478	3614
836.615	3587
836.753	3591
836.891	3652
837.029	3610
837.167	3576
837.305	3561
837.443	3534
837.58	3515
837.718	3580
837.856	3545
837.993	3530
838.131	3587
838.269	3572
838.406	3545
838.544	3564
838.681	3450
838.819	3443
838.956	3355
839.094	3389
839.231	3439
839.369	3553
839.506	3682
839.643	3618
839.781	3469
839.918	3466
840.055	3523
840.193	3530
840.33	3530
840.467	3515
840.604	3618
840.742	3831
840.879	3519
841.016	3545
841.153	3610
841.29	3720
841.427	3728
841.564	3675
841.701	3740
841.838	3667
841.975	3641
842.112	3728
842.249	3644
842.385	3648
842.522	3827
842.659	3675
842.796	3656
842.933	3724
843.069	3682
843.206	3720
843.343	3819
843.479	3781
843.616	3842
843.752	3701
843.889	3679
844.025	3865
844.162	3713
844.298	3838
844.435	3762
844.571	3797
844.708	3899
844.844	3972
844.98	3987
845.117	3956
845.253	3949
845.389	3880
845.525	3941
845.661	3972
845.798	3896
845.934	3983
846.07	3915
846.206	3994
846.342	4154
846.478	4048
846.614	3991
846.75	3937
846.886	3873
847.022	4002
847.158	3953
847.294	4013
847.429	4029
847.565	4029
847.701	4253
847.837	3899
847.972	3838
848.108	4006
848.244	3991
848.379	3831
848.515	3781
848.65	3808
848.786	3835
848.921	3861
849.057	3888
849.192	3911
849.328	3949
849.463	3930
849.598	3835
849.734	3880
849.869	3819
850.004	3789
850.14	3827
850.275	3789
850.41	3770
850.545	3789
850.68	3740
850.815	3797
850.95	3778
851.085	3899
851.22	3857
851.355	3884
851.49	3781
851.625	3808
851.76	3781
851.895	3762
852.03	3774
852.165	3785
852.299	3850
852.434	3937
852.569	3861
852.703	3884
852.838	3926
852.973	3972
853.107	3975
853.242	3865
853.376	3869
853.511	3766
853.645	3842
853.78	3998
853.914	3941
854.048	3880
854.183	3926
854.317	3960
854.451	4071
854.585	3987
854.72	3937
854.854	4078
854.988	3937
855.122	4021
855.256	3941
855.39	4002
855.524	4082
855.658	4120
855.792	4059
855.926	4112
856.06	4173
856.194	4181
856.327	4154
856.461	4124
856.595	4109
856.729	4105
856.862	4306
856.996	4257
857.13	4280
857.263	4318
857.397	4348
857.53	4249
857.664	4344
857.797	4386
857.931	4440
858.064	4341
858.197	4451
858.331	4386
858.464	4367
858.597	4402
858.731	4455
858.864	4466
858.997	4417
859.13	4512
859.263	4550
859.396	4596
859.529	4569
859.662	4512
859.795	4500
859.928	4618
860.061	4714
860.194	4759
860.327	4664
860.46	4660
860.592	4740
860.725	4767
860.858	4797
860.99	4675
861.123	4664
861.256	4717
861.388	4759
861.521	5440
861.653	4702
861.786	4679
861.918	4706
862.05	4805
862.183	4820
862.315	4881
862.447	4930
862.58	4892
862.712	4805
862.844	4771
862.976	4873
863.108	4866
863.24	5258
863.372	4809
863.504	4946
863.636	4885
863.768	4999
863.9	4999
864.032	4938
864.164	4968
864.296	5033
864.428	5075
864.559	5075
864.691	5159
864.823	5117
864.954	5136
865.086	5136
865.217	5159
865.349	5113
865.48	5159
865.612	5197
865.743	5269
865.875	5170
866.006	5155
866.137	5280
866.269	5208
866.4	5296
866.531	5231
866.662	5201
866.793	5261
866.924	5265
867.055	5353
867.186	5311
867.317	5345
867.448	5341
867.579	5326
867.71	5421
867.841	5406
867.972	5421
868.103	5452
868.233	5440
868.364	5490
868.495	5551
868.625	5619
868.756	5794
868.886	5703
869.017	5733
869.147	5866
869.278	5863
869.408	5809
869.539	5832
869.669	5935
869.799	5958
869.929	5916
870.06	6019
870.19	6190
870.32	6209
870.45	6281
870.58	6376
870.71	6452
870.84	6464
870.97	6433
871.1	6391
871.23	6650
871.36	6730
871.489	6627
871.619	6802
871.749	6886
871.879	6852
872.008	6973
872.138	6966
872.267	6947
872.397	7015
872.526	7065
872.656	7103
872.785	7255
872.915	7407
873.044	7460
873.173	7548
873.303	7632
873.432	7826
873.561	7913
873.69	7936
873.819	8001
873.948	8145
874.077	8225
874.206	8328
874.335	8427
874.464	8674
874.593	8849
874.722	9005
874.851	9119
874.979	9184
875.108	9325
875.237	9397
875.365	9526
875.494	9656
875.623	9785
875.751	9743
875.88	10002
876.008	10120
876.136	10325
876.265	10478
876.393	10706
876.521	10694
876.65	10786
876.778	10911
876.906	10915
877.034	10976
877.162	11090
877.29	11147
877.418	11303
877.546	11345
877.674	11448
877.802	11520
877.93	11455
878.058	11512
878.185	11604
878.313	11642
878.441	11756
878.568	11691
878.696	11847
878.824	11889
878.951	11961
879.079	12007
879.206	12190
879.333	11999
879.461	11901
879.588	12076
879.715	12102
879.842	12213
879.97	12049
880.097	11863
880.224	11916
880.351	11901
880.478	11866
880.605	11840
880.732	11866
880.859	11961
880.986	11783
881.112	11855
881.239	11733
881.366	11649
881.493	11600
881.619	11516
881.746	11577
881.872	11501
881.999	11516
882.125	11440
882.252	11486
882.378	11528
882.505	11539
882.631	11398
882.757	11307
882.883	11341
883.01	11288
883.136	11185
883.262	11086
883.388	11060
883.514	11216
883.64	11212
883.766	11067
883.892	10984
884.018	11029
884.143	11086
884.269	11094
884.395	10820
884.52	10721
884.646	10816
884.772	10694
884.897	10691
885.023	10679
885.148	10797
885.274	10805
885.399	10721
885.524	10599
885.65	10599
885.775	10596
885.9	10603
886.025	10554
886.15	10508
886.275	10447
886.4	10356
886.525	10455
886.65	10360
886.775	10352
886.9	10405
887.025	10504
887.149	10310
887.274	10303
887.399	10154
887.523	10166
887.648	10101
887.773	10101
887.897	10185
888.021	10249
888.146	10181
888.27	10162
888.395	10204
888.519	10192
888.643	10204
888.767	10135
888.891	9998
889.015	10055
889.139	10063
889.263	10040
889.387	10051
889.511	10074
889.635	10036
889.759	10006
889.883	10002
890.006	9972
890.13	10135
890.254	9956
890.377	9968
890.501	9846
890.624	9869
890.748	9907
890.871	9812
890.995	9728
891.118	9713
891.241	9747
891.364	9728
891.488	9819
891.611	9732
891.734	9705
891.857	9838
891.98	9724
892.103	9755
892.226	9736
892.349	9656
892.471	9481
892.594	9534
892.717	9618
892.839	9595
892.962	9622
893.085	9648
893.207	9557
893.33	9481
893.452	9538
893.575	9587
893.697	9538
893.819	9622
893.941	9622
894.064	9595
894.186	9420
894.308	9424
894.43	9492
894.552	9591
894.674	9507
894.796	9378
894.918	9397
895.04	9317
895.161	9428
895.283	9332
895.405	9260
895.526	9211
895.648	9214
895.769	9211
895.891	9382
896.012	9237
896.134	9116
896.255	9165
896.376	9123
896.498	9218
896.619	9043
896.74	9058
896.861	9100
896.982	9260
897.103	9291
897.224	9104
897.345	9074
897.466	8910
897.587	8998
897.708	9058
897.828	9020
897.949	8948
898.07	8891
898.19	8887
898.311	9032
898.431	8880
898.552	8967
898.672	8929
898.792	8891
898.913	8925
899.033	8823
899.153	8697
899.273	8644
899.393	8697
899.513	8754
899.633	8769
899.753	8701
899.873	8739
899.993	8724
900.113	8682
900.232	8670
900.352	8667
900.472	8621
900.591	8484
900.711	8613
900.83	8568
900.95	8689
901.069	8648
901.189	8610
901.308	8431
901.427	8381
901.546	8442
901.665	8473
901.784	8495
901.904	8381
902.023	8404
902.141	8305
902.26	8202
902.379	8324
902.498	8233
902.617	8240
902.735	8279
902.854	8282
902.973	8248
903.091	8103
903.21	8088
903.328	8214
903.446	8065
903.565	7989
903.683	8084
903.801	8058
903.919	8130
904.038	8046
904.156	8065
904.274	7993
904.392	8050
904.51	8069
904.627	8043
904.745	8115
904.863	8054
904.981	7879
905.098	7875
905.216	7890
905.334	7875
905.451	7856
905.569	7841
905.686	7955
905.803	7883
905.921	7708
906.038	7852
906.155	7753
906.272	7639
906.389	7715
906.506	7624
906.623	7609
906.74	7613
906.857	7495
906.974	7571
907.091	7658
907.208	7708
907.324	7620
907.441	7616
907.557	7499
907.674	7430
907.79	7400
907.907	7422
908.023	7407
908.139	7453
908.256	7324
908.372	7346
908.488	7377
908.604	7316
908.72	7217
908.836	7259
908.952	7255
909.068	7301
909.184	7358
909.3	7240
909.415	7293
909.531	7247
909.647	7110
909.762	7190
909.878	7042
909.993	7107
910.108	7122
910.224	7061
910.339	7137
910.454	7053
910.57	6977
910.685	6951
910.8	7202
910.915	7080
911.03	6993
911.145	6859
911.259	6890
911.374	6909
911.489	6810
911.604	6837
911.718	6734
911.833	6688
911.947	6654
912.062	6616
912.176	6703
912.291	6745
912.405	6722
912.519	6833
912.633	6810
912.748	6703
912.862	6669
912.976	6601
913.09	6479
913.204	6582
913.318	6601
913.431	6639
913.545	6692
913.659	6738
913.772	6631
913.886	6612
914	6559
914.113	6589
914.226	6654
914.34	6597
914.453	6498
914.566	6555
914.68	6509
914.793	6513
914.906	6433
915.019	6414
915.132	6399
915.245	6403
915.358	6448
915.47	6452
915.583	6429
915.696	6460
915.809	6544
915.921	6547
916.034	6399
916.146	6418
916.259	6388
916.371	6460
916.483	6429
916.595	6395
916.708	6422
916.82	6429
916.932	6403
917.044	6395
917.156	6395
917.268	6372
917.38	6365
917.491	6281
917.603	6308
917.715	6388
917.826	6414
917.938	6319
918.049	6273
918.161	6369
918.272	6342
918.384	6399
918.495	6376
918.606	6285
918.717	6186
918.828	6289
918.939	6243
919.05	6194
919.161	6232
919.272	6098
919.383	6175
919.494	6254
919.604	6467
919.715	6304
919.826	6197
919.936	6292
920.047	6319
920.157	6239
920.267	6429
920.378	6327
920.488	6251
920.598	6460
920.708	6570
920.818	6467
920.928	6509
921.038	6627
921.148	6551
921.258	6327
921.368	6213
921.477	6194
921.587	6178
921.697	6098
921.806	6152
921.916	6038
922.025	5954
922.134	5870
922.244	5889
922.353	5969
922.462	5840
922.571	5817
922.68	5710
922.789	5688
922.898	5710
923.007	5585
923.116	5737
923.224	5699
923.333	5699
923.442	5524
923.55	5596
923.659	5585
923.767	5611
923.876	5592
923.984	5649
924.092	5478
924.201	5524
924.309	5509
924.417	5547
924.525	5486
924.633	5501
924.741	6353
924.849	5368
924.956	5459
925.064	5318
925.172	5330
925.279	5299
925.387	5341
925.494	5337
925.602	5368
925.709	5391
925.816	5299
925.924	5345
926.031	5345
926.138	5250
926.245	5311
926.352	5254
926.459	5292
926.566	5307
926.673	5197
926.779	5136
926.886	5147
926.993	5003
927.099	4972
927.206	4961
927.312	5010
927.419	5033
927.525	4965
927.631	4991
927.737	4896
927.843	4858
927.95	4801
928.056	4790
928.162	4809
928.267	4805
928.373	5360
928.479	4805
928.585	4660
928.69	4786
928.796	4824
928.901	4714
929.007	4573
929.112	4687
929.218	4626
929.323	4558
929.428	4592
929.533	4664
929.638	4531
929.743	4569
929.848	4542
929.953	4535
930.058	4398
930.163	4325
930.267	4352
930.372	4371
930.477	4253
930.581	4447
930.685	4375
930.79	4207
930.894	4306
930.998	4257
931.103	4405
931.207	4169
931.311	4032
931.415	4013
931.519	3934
931.623	3922
