Data from glass_V78500241_1275.txt Node
Date: Wed Sep 01 19:23:20 CST 2021
User: usil
Spectrometer: V785-0024
Trigger mode: 0
Integration Time (sec): 4.000000E-1
Scans to average: 1
Nonlinearity correction enabled: false
Boxcar width: 0
Storing dark spectrum: false
XAxis mode: Wavelengths
Number of Pixels in Spectrum: 1024
>>>>>Begin Spectral Data<<<<<
801.071	3705
801.214	3778
801.356	3736
801.499	3747
801.641	3759
801.783	3781
801.926	3850
802.068	3869
802.211	3869
802.353	3865
802.496	3857
802.638	3876
802.78	3907
802.923	3945
803.065	3926
803.208	3808
803.35	3850
803.492	3850
803.635	3880
803.777	3838
803.919	3899
804.061	4131
804.204	3987
804.346	3949
804.488	3930
804.63	4048
804.773	3972
804.915	4048
805.057	4177
805.199	4059
805.341	4116
805.483	4150
805.626	4093
805.768	4147
805.91	4181
806.052	4246
806.194	4192
806.336	4344
806.478	4234
806.62	4169
806.762	4192
806.904	4253
807.046	4409
807.188	4211
807.33	4185
807.472	4238
807.614	4207
807.756	4287
807.898	4215
808.04	4211
808.182	4310
808.324	4348
808.465	4383
808.607	4432
808.749	4527
808.891	4455
809.033	4459
809.174	4447
809.316	4299
809.458	4246
809.6	4166
809.741	4128
809.883	4124
810.025	4215
810.166	4215
810.308	4230
810.45	4249
810.591	4265
810.733	4272
810.875	4516
811.016	4835
811.158	5079
811.299	5318
811.441	5292
811.582	5094
811.724	4698
811.865	4508
812.007	4500
812.148	4451
812.29	4402
812.431	4402
812.573	4402
812.714	4371
812.855	4424
812.997	4424
813.138	4493
813.279	4405
813.421	4436
813.562	4394
813.703	4348
813.845	4333
813.986	4227
814.127	4219
814.268	4329
814.41	4280
814.551	4261
814.692	4356
814.833	4238
814.974	4360
815.115	4318
815.256	4280
815.397	4211
815.539	4249
815.68	4219
815.821	4204
815.962	4341
816.103	4299
816.244	4253
816.385	4192
816.526	4306
816.666	4234
816.807	4147
816.948	4219
817.089	4200
817.23	4067
817.371	4082
817.512	4074
817.653	4105
817.793	4055
817.934	4036
818.075	4112
818.216	4105
818.356	4090
818.497	4029
818.638	3930
818.778	3892
818.919	3907
819.06	3861
819.2	3915
819.341	3869
819.481	3819
819.622	3884
819.762	3998
819.903	3899
820.043	3876
820.184	3823
820.324	3823
820.465	3884
820.605	3880
820.746	3838
820.886	3842
821.026	3956
821.167	3937
821.307	3972
821.447	3987
821.588	3975
821.728	3968
821.868	3953
822.008	3888
822.149	3941
822.289	3949
822.429	3819
822.569	3808
822.709	3781
822.849	3762
822.99	3728
823.13	3759
823.27	3766
823.41	3701
823.55	3755
823.69	3736
823.83	3724
823.97	3686
824.11	3618
824.25	3614
824.389	3633
824.529	3720
824.669	3637
824.809	3732
824.949	3774
825.089	3709
825.228	3736
825.368	3587
825.508	3572
825.648	3591
825.787	3610
825.927	3618
826.067	3648
826.206	3660
826.346	3835
826.485	3816
826.625	3915
826.765	3953
826.904	3831
827.044	3622
827.183	3511
827.323	3458
827.462	3515
827.601	3431
827.741	3443
827.88	3420
828.02	3359
828.159	3458
828.298	3469
828.437	3526
828.577	3511
828.716	3637
828.855	3507
828.994	3389
829.134	3405
829.273	3382
829.412	3344
829.551	3332
829.69	3393
829.829	3450
829.968	3549
830.107	3443
830.246	3412
830.385	3405
830.524	3378
830.663	3313
830.802	3268
830.941	3207
831.08	3157
831.219	3317
831.357	3241
831.496	3412
831.635	3218
831.774	3218
831.913	3199
832.051	3116
832.19	3127
832.329	3203
832.467	3116
832.606	3100
832.744	3233
832.883	3199
833.022	3207
833.16	3256
833.299	3336
833.437	3313
833.576	3363
833.714	3435
833.852	3469
833.991	3450
834.129	3466
834.267	3435
834.406	3424
834.544	3439
834.682	3428
834.821	3386
834.959	3572
835.097	3439
835.235	3553
835.373	3477
835.511	3466
835.65	3485
835.788	3492
835.926	3401
836.064	3424
836.202	3450
836.34	3538
836.478	3603
836.615	3561
836.753	3603
836.891	3660
837.029	3660
837.167	3580
837.305	3580
837.443	3542
837.58	3496
837.718	3599
837.856	3561
837.993	3530
838.131	3576
838.269	3576
838.406	3587
838.544	3584
838.681	3458
838.819	3488
838.956	3397
839.094	3416
839.231	3496
839.369	3500
839.506	3759
839.643	3637
839.781	3530
839.918	3507
840.055	3504
840.193	3538
840.33	3542
840.467	3519
840.604	3584
840.742	3797
840.879	3515
841.016	3587
841.153	3603
841.29	3759
841.427	3740
841.564	3724
841.701	3736
841.838	3660
841.975	3686
842.112	3724
842.249	3644
842.385	3625
842.522	3842
842.659	3690
842.796	3732
842.933	3709
843.069	3732
843.206	3736
843.343	3808
843.479	3781
843.616	3804
843.752	3724
843.889	3736
844.025	3888
844.162	3740
844.298	3842
844.435	3804
844.571	3800
844.708	3896
844.844	4006
844.98	3979
845.117	4055
845.253	3899
845.389	3869
845.525	3930
845.661	3979
845.798	3911
845.934	4040
846.07	3960
846.206	4044
846.342	4093
846.478	4063
846.614	4002
846.75	3964
846.886	3911
847.022	4036
847.158	3994
847.294	4010
847.429	4071
847.565	4021
847.701	4257
847.837	3884
847.972	3861
848.108	3960
848.244	3991
848.379	3880
848.515	3823
848.65	3831
848.786	3831
848.921	3854
849.057	3975
849.192	3937
849.328	3869
849.463	3903
849.598	3941
849.734	3937
849.869	3846
850.004	3766
850.14	3793
850.275	3766
850.41	3701
850.545	3774
850.68	3774
850.815	3778
850.95	3812
851.085	4006
851.22	3854
851.355	3793
851.49	3808
851.625	3766
851.76	3808
851.895	3732
852.03	3755
852.165	3835
852.299	3876
852.434	3918
852.569	3846
852.703	3907
852.838	3964
852.973	3983
853.107	4006
853.242	3880
853.376	3850
853.511	3785
853.645	3838
853.78	3979
853.914	3915
854.048	3918
854.183	3854
854.317	3949
854.451	4101
854.585	3987
854.72	3937
854.854	4032
854.988	3987
855.122	4021
855.256	3907
855.39	4017
855.524	4124
855.658	4116
855.792	4105
855.926	4112
856.06	4158
856.194	4200
856.327	4166
856.461	4169
856.595	4139
856.729	4185
856.862	4234
856.996	4261
857.13	4265
857.263	4325
857.397	4341
857.53	4333
857.664	4333
857.797	4402
857.931	4413
858.064	4424
858.197	4428
858.331	4390
858.464	4363
858.597	4322
858.731	4398
858.864	4470
858.997	4489
859.13	4519
859.263	4527
859.396	4584
859.529	4516
859.662	4554
859.795	4542
859.928	4618
860.061	4698
860.194	4717
860.327	4641
860.46	4656
860.592	4733
860.725	4797
860.858	4797
860.99	4717
861.123	4672
861.256	4645
861.388	4782
861.521	5406
861.653	4687
861.786	4763
861.918	4752
862.05	4782
862.183	4805
862.315	4930
862.447	4961
862.58	4889
862.712	4828
862.844	4774
862.976	4854
863.108	4900
863.24	5185
863.372	4839
863.504	4934
863.636	4896
863.768	4953
863.9	4980
864.032	4961
864.164	4961
864.296	5037
864.428	5094
864.559	5048
864.691	5071
864.823	5109
864.954	5048
865.086	5223
865.217	5147
865.349	5094
865.48	5170
865.612	5193
865.743	5326
865.875	5216
866.006	5212
866.137	5231
866.269	5273
866.4	5299
866.531	5277
866.662	5220
866.793	5296
866.924	5296
867.055	5379
867.186	5360
867.317	5299
867.448	5299
867.579	5395
867.71	5360
867.841	5372
867.972	5448
868.103	5452
868.233	5497
868.364	5486
868.495	5497
868.625	5699
868.756	5790
868.886	5695
869.017	5741
869.147	5885
869.278	5855
869.408	5798
869.539	5809
869.669	5889
869.799	5863
869.929	5950
870.06	6030
870.19	6167
870.32	6216
870.45	6243
870.58	6433
870.71	6486
870.84	6525
870.97	6380
871.1	6467
871.23	6635
871.36	6692
871.489	6654
871.619	6768
871.749	6825
871.879	6844
872.008	6993
872.138	7004
872.267	6981
872.397	6985
872.526	7034
872.656	7091
872.785	7247
872.915	7358
873.044	7582
873.173	7594
873.303	7613
873.432	7784
873.561	7887
873.69	7898
873.819	7890
873.948	8195
874.077	8218
874.206	8317
874.335	8450
874.464	8667
874.593	8876
874.722	8967
874.851	9138
874.979	9279
875.108	9431
875.237	9374
875.365	9447
875.494	9622
875.623	9831
875.751	9835
875.88	10078
876.008	10124
876.136	10238
876.265	10519
876.393	10675
876.521	10748
876.65	10771
876.778	10858
876.906	10961
877.034	11003
877.162	11086
877.29	11326
877.418	11269
877.546	11425
877.674	11455
877.802	11490
877.93	11463
878.058	11486
878.185	11581
878.313	11657
878.441	11756
878.568	11649
878.696	11870
878.824	11817
878.951	11954
879.079	11996
879.206	12175
879.333	12186
879.461	12007
879.588	12076
879.715	12053
879.842	12216
879.97	12038
880.097	11828
880.224	11843
880.351	11912
880.478	11878
880.605	11897
880.732	11786
880.859	12076
880.986	11882
881.112	11813
881.239	11783
881.366	11684
881.493	11554
881.619	11551
881.746	11524
881.872	11558
881.999	11501
882.125	11535
882.252	11581
882.378	11570
882.505	11623
882.631	11444
882.757	11250
882.883	11368
883.01	11277
883.136	11231
883.262	11071
883.388	11029
883.514	11185
883.64	11151
883.766	11162
883.892	10911
884.018	11052
884.143	11014
884.269	11086
884.395	10904
884.52	10839
884.646	10691
884.772	10706
884.897	10577
885.023	10645
885.148	10839
885.274	10725
885.399	10634
885.524	10702
885.65	10664
885.775	10668
885.9	10577
886.025	10630
886.15	10626
886.275	10474
886.4	10466
886.525	10352
886.65	10310
886.775	10287
886.9	10500
887.025	10596
887.149	10386
887.274	10303
887.399	10200
887.523	10154
887.648	10044
887.773	10055
887.897	10287
888.021	10223
888.146	10128
888.27	10299
888.395	10215
888.519	10230
888.643	10173
888.767	10177
888.891	10071
889.015	10051
889.139	10120
889.263	9934
889.387	10093
889.511	10097
889.635	10120
889.759	9892
889.883	10025
890.006	9994
890.13	10185
890.254	9876
890.377	10002
890.501	9793
890.624	9785
890.748	9934
890.871	9854
890.995	9774
891.118	9720
891.241	9819
891.364	9774
891.488	9816
891.611	9759
891.734	9747
891.857	9660
891.98	9740
892.103	9774
892.226	9698
892.349	9709
892.471	9587
892.594	9618
892.717	9705
892.839	9614
892.962	9549
893.085	9637
893.207	9667
893.33	9625
893.452	9485
893.575	9629
893.697	9564
893.819	9618
893.941	9663
894.064	9603
894.186	9534
894.308	9507
894.43	9454
894.552	9580
894.674	9481
894.796	9344
894.918	9378
895.04	9332
895.161	9412
895.283	9302
895.405	9268
895.526	9294
895.648	9253
895.769	9298
895.891	9359
896.012	9275
896.134	9226
896.255	9184
896.376	9138
896.498	9138
896.619	9142
896.74	9043
896.861	9051
896.982	9283
897.103	9302
897.224	9195
897.345	9074
897.466	8979
897.587	9085
897.708	9199
897.828	9058
897.949	8982
898.07	8876
898.19	8906
898.311	8902
898.431	8887
898.552	8952
898.672	8921
898.792	8902
898.913	8891
899.033	8819
899.153	8834
899.273	8716
899.393	8739
899.513	8811
899.633	8724
899.753	8708
899.873	8667
899.993	8746
900.113	8632
900.232	8689
900.352	8697
900.472	8648
900.591	8568
900.711	8587
900.83	8473
900.95	8716
901.069	8754
901.189	8549
901.308	8499
901.427	8339
901.546	8423
901.665	8434
901.784	8423
901.904	8393
902.023	8305
902.141	8202
902.26	8161
902.379	8279
902.498	8263
902.617	8320
902.735	8282
902.854	8301
902.973	8237
903.091	8157
903.21	8134
903.328	8126
903.446	8161
903.565	8073
903.683	8123
903.801	8005
903.919	8168
904.038	8111
904.156	7997
904.274	8024
904.392	8107
904.51	8088
904.627	8035
904.745	8054
904.863	8058
904.981	7955
905.098	7871
905.216	7898
905.334	7940
905.451	7944
905.569	7940
905.686	7906
905.803	7925
905.921	7731
906.038	7864
906.155	7830
906.272	7727
906.389	7685
906.506	7670
906.623	7597
906.74	7590
906.857	7563
906.974	7510
907.091	7704
907.208	7750
907.324	7575
907.441	7613
907.557	7480
907.674	7472
907.79	7415
907.907	7396
908.023	7460
908.139	7460
908.256	7426
908.372	7434
908.488	7369
908.604	7282
908.72	7270
908.836	7255
908.952	7278
909.068	7297
909.184	7293
909.3	7225
909.415	7312
909.531	7358
909.647	7126
909.762	7129
909.878	7126
909.993	7069
910.108	7156
910.224	7110
910.339	7103
910.454	7012
910.57	6989
910.685	6966
910.8	7171
910.915	7114
911.03	7046
911.145	6871
911.259	6882
911.374	6935
911.489	6882
911.604	6741
911.718	6696
911.833	6738
911.947	6688
912.062	6570
912.176	6700
912.291	6673
912.405	6738
912.519	6791
912.633	6882
912.748	6692
912.862	6635
912.976	6658
913.09	6585
913.204	6639
913.318	6688
913.431	6719
913.545	6665
913.659	6707
913.772	6623
913.886	6589
914	6585
914.113	6665
914.226	6627
914.34	6570
914.453	6475
914.566	6650
914.68	6506
914.793	6536
914.906	6498
915.019	6353
915.132	6410
915.245	6391
915.358	6395
915.47	6429
915.583	6399
915.696	6467
915.809	6517
915.921	6544
916.034	6441
916.146	6399
916.259	6410
916.371	6422
916.483	6464
916.595	6433
916.708	6448
916.82	6433
916.932	6410
917.044	6369
917.156	6437
917.268	6315
917.38	6266
917.491	6315
917.603	6334
917.715	6414
917.826	6410
917.938	6338
918.049	6239
918.161	6365
918.272	6422
918.384	6403
918.495	6384
918.606	6273
918.717	6270
918.828	6285
918.939	6251
919.05	6228
919.161	6315
919.272	6133
919.383	6175
919.494	6266
919.604	6414
919.715	6243
919.826	6258
919.936	6273
920.047	6338
920.157	6262
920.267	6433
920.378	6361
920.488	6315
920.598	6445
920.708	6566
920.818	6429
920.928	6513
921.038	6601
921.148	6566
921.258	6338
921.368	6296
921.477	6167
921.587	6182
921.697	6117
921.806	6155
921.916	6079
922.025	5980
922.134	5942
922.244	5912
922.353	5931
922.462	5836
922.571	5828
922.68	5722
922.789	5680
922.898	5688
923.007	5680
923.116	5714
923.224	5691
923.333	5703
923.442	5649
923.55	5554
923.659	5630
923.767	5691
923.876	5543
923.984	5619
924.092	5490
924.201	5562
924.309	5509
924.417	5592
924.525	5528
924.633	5478
924.741	6270
924.849	5417
924.956	5482
925.064	5376
925.172	5334
925.279	5337
925.387	5357
925.494	5402
925.602	5425
925.709	5433
925.816	5284
925.924	5322
926.031	5345
926.138	5261
926.245	5326
926.352	5250
926.459	5330
926.566	5334
926.673	5216
926.779	5155
926.886	5117
926.993	5029
927.099	4991
927.206	4987
927.312	4999
927.419	5003
927.525	4934
927.631	5018
927.737	4889
927.843	4862
927.95	4752
928.056	4862
928.162	4866
928.267	4820
928.373	5349
928.479	4866
928.585	4649
928.69	4778
928.796	4797
928.901	4683
929.007	4637
929.112	4592
929.218	4653
929.323	4698
929.428	4592
929.533	4675
929.638	4546
929.743	4554
929.848	4573
929.953	4497
930.058	4485
930.163	4325
930.267	4371
930.372	4413
930.477	4318
930.581	4428
930.685	4352
930.79	4295
930.894	4276
930.998	4268
931.103	4390
931.207	4147
931.311	4093
931.415	4048
931.519	3937
931.623	3949
