Data from glass_V78500241_2780.txt Node
Date: Wed Sep 01 19:33:46 CST 2021
User: usil
Spectrometer: V785-0024
Trigger mode: 0
Integration Time (sec): 4.000000E-1
Scans to average: 1
Nonlinearity correction enabled: false
Boxcar width: 0
Storing dark spectrum: false
XAxis mode: Wavelengths
Number of Pixels in Spectrum: 1024
>>>>>Begin Spectral Data<<<<<
801.071	3724
801.214	3732
801.356	3713
801.499	3774
801.641	3732
801.783	3759
801.926	3846
802.068	3816
802.211	3842
802.353	3873
802.496	3804
802.638	3922
802.78	3926
802.923	3907
803.065	3934
803.208	3869
803.35	3819
803.492	3850
803.635	3861
803.777	3800
803.919	3907
804.061	4086
804.204	3915
804.346	3934
804.488	3934
804.63	3994
804.773	3956
804.915	4017
805.057	4162
805.199	4036
805.341	4074
805.483	4116
805.626	4112
805.768	4067
805.91	4196
806.052	4223
806.194	4238
806.336	4299
806.478	4200
806.62	4185
806.762	4166
806.904	4230
807.046	4329
807.188	4181
807.33	4162
807.472	4230
807.614	4162
807.756	4230
807.898	4192
808.04	4181
808.182	4261
808.324	4325
808.465	4367
808.607	4402
808.749	4459
808.891	4436
809.033	4504
809.174	4417
809.316	4219
809.458	4204
809.6	4147
809.741	4120
809.883	4158
810.025	4207
810.166	4177
810.308	4173
810.45	4185
810.591	4173
810.733	4295
810.875	4485
811.016	4805
811.158	5102
811.299	5246
811.441	5239
811.582	5041
811.724	4725
811.865	4443
812.007	4474
812.148	4443
812.29	4402
812.431	4443
812.573	4394
812.714	4352
812.855	4402
812.997	4413
813.138	4440
813.279	4421
813.421	4383
813.562	4360
813.703	4299
813.845	4341
813.986	4215
814.127	4223
814.268	4200
814.41	4238
814.551	4242
814.692	4280
814.833	4253
814.974	4280
815.115	4348
815.256	4276
815.397	4227
815.539	4249
815.68	4154
815.821	4196
815.962	4276
816.103	4265
816.244	4215
816.385	4192
816.526	4291
816.666	4188
816.807	4093
816.948	4131
817.089	4158
817.23	4101
817.371	4029
817.512	4071
817.653	4021
817.793	4013
817.934	3975
818.075	4143
818.216	4040
818.356	4055
818.497	3975
818.638	3918
818.778	3911
818.919	3896
819.06	3876
819.2	3857
819.341	3861
819.481	3819
819.622	3884
819.762	3987
819.903	3899
820.043	3857
820.184	3835
820.324	3816
820.465	3884
820.605	3827
820.746	3838
820.886	3823
821.026	3899
821.167	3964
821.307	3960
821.447	3964
821.588	3964
821.728	3918
821.868	3964
822.008	3838
822.149	3857
822.289	3903
822.429	3743
822.569	3751
822.709	3785
822.849	3694
822.99	3701
823.13	3755
823.27	3774
823.41	3728
823.55	3663
823.69	3709
823.83	3720
823.97	3675
824.11	3587
824.25	3603
824.389	3618
824.529	3641
824.669	3629
824.809	3690
824.949	3751
825.089	3690
825.228	3629
825.368	3576
825.508	3511
825.648	3553
825.787	3591
825.927	3618
826.067	3641
826.206	3652
826.346	3762
826.485	3823
826.625	3899
826.765	3869
826.904	3808
827.044	3576
827.183	3500
827.323	3431
827.462	3466
827.601	3431
827.741	3428
827.88	3450
828.02	3386
828.159	3431
828.298	3504
828.437	3523
828.577	3481
828.716	3610
828.855	3477
828.994	3359
829.134	3363
829.273	3393
829.412	3325
829.551	3298
829.69	3336
829.829	3420
829.968	3511
830.107	3420
830.246	3447
830.385	3325
830.524	3344
830.663	3256
830.802	3264
830.941	3173
831.08	3165
831.219	3249
831.357	3230
831.496	3401
831.635	3222
831.774	3176
831.913	3188
832.051	3131
832.19	3165
832.329	3211
832.467	3112
832.606	3085
832.744	3184
832.883	3157
833.022	3180
833.16	3279
833.299	3306
833.437	3306
833.576	3348
833.714	3393
833.852	3405
833.991	3428
834.129	3454
834.267	3443
834.406	3348
834.544	3401
834.682	3409
834.821	3416
834.959	3545
835.097	3374
835.235	3511
835.373	3458
835.511	3488
835.65	3454
835.788	3450
835.926	3393
836.064	3401
836.202	3397
836.34	3557
836.478	3614
836.615	3519
836.753	3564
836.891	3667
837.029	3614
837.167	3595
837.305	3553
837.443	3534
837.58	3492
837.718	3606
837.856	3526
837.993	3507
838.131	3549
838.269	3542
838.406	3599
838.544	3564
838.681	3447
838.819	3401
838.956	3355
839.094	3370
839.231	3416
839.369	3504
839.506	3701
839.643	3599
839.781	3488
839.918	3462
840.055	3519
840.193	3492
840.33	3504
840.467	3561
840.604	3587
840.742	3781
840.879	3523
841.016	3561
841.153	3599
841.29	3705
841.427	3740
841.564	3682
841.701	3755
841.838	3679
841.975	3667
842.112	3682
842.249	3580
842.385	3603
842.522	3827
842.659	3682
842.796	3644
842.933	3667
843.069	3656
843.206	3675
843.343	3808
843.479	3766
843.616	3785
843.752	3633
843.889	3652
844.025	3804
844.162	3698
844.298	3819
844.435	3789
844.571	3774
844.708	3861
844.844	3949
844.98	4013
845.117	3987
845.253	3899
845.389	3884
845.525	3915
845.661	3930
845.798	3934
845.934	4002
846.07	3960
846.206	4036
846.342	4063
846.478	4048
846.614	3956
846.75	3926
846.886	3945
847.022	4006
847.158	3941
847.294	3968
847.429	4021
847.565	3994
847.701	4261
847.837	3842
847.972	3831
848.108	3979
848.244	3937
848.379	3835
848.515	3831
848.65	3785
848.786	3838
848.921	3846
849.057	3903
849.192	3960
849.328	3888
849.463	3888
849.598	3846
849.734	3835
849.869	3827
850.004	3774
850.14	3755
850.275	3816
850.41	3675
850.545	3705
850.68	3781
850.815	3740
850.95	3781
851.085	3922
851.22	3861
851.355	3789
851.49	3759
851.625	3778
851.76	3778
851.895	3705
852.03	3759
852.165	3804
852.299	3808
852.434	3884
852.569	3835
852.703	3873
852.838	3876
852.973	3998
853.107	3941
853.242	3873
853.376	3842
853.511	3743
853.645	3854
853.78	3975
853.914	3915
854.048	3884
854.183	3880
854.317	3979
854.451	4071
854.585	3979
854.72	3899
854.854	4044
854.988	3960
855.122	3987
855.256	3918
855.39	4017
855.524	4078
855.658	4063
855.792	4078
855.926	4128
856.06	4128
856.194	4192
856.327	4158
856.461	4101
856.595	4112
856.729	4188
856.862	4219
856.996	4223
857.13	4337
857.263	4287
857.397	4318
857.53	4268
857.664	4371
857.797	4409
857.931	4398
858.064	4341
858.197	4470
858.331	4356
858.464	4352
858.597	4375
858.731	4405
858.864	4462
858.997	4459
859.13	4516
859.263	4561
859.396	4569
859.529	4493
859.662	4527
859.795	4538
859.928	4588
860.061	4691
860.194	4714
860.327	4683
860.46	4645
860.592	4653
860.725	4691
860.858	4721
860.99	4656
861.123	4649
861.256	4710
861.388	4744
861.521	5261
861.653	4675
861.786	4683
861.918	4710
862.05	4774
862.183	4828
862.315	4835
862.447	4984
862.58	4892
862.712	4793
862.844	4759
862.976	4885
863.108	4801
863.24	5231
863.372	4816
863.504	4873
863.636	4908
863.768	4949
863.9	4915
864.032	4919
864.164	4942
864.296	4999
864.428	5121
864.559	5025
864.691	5048
864.823	5124
864.954	5067
865.086	5136
865.217	5060
865.349	5064
865.48	5128
865.612	5204
865.743	5288
865.875	5178
866.006	5124
866.137	5235
866.269	5223
866.4	5197
866.531	5277
866.662	5216
866.793	5265
866.924	5284
867.055	5341
867.186	5337
867.317	5280
867.448	5277
867.579	5360
867.71	5395
867.841	5330
867.972	5440
868.103	5436
868.233	5509
868.364	5467
868.495	5512
868.625	5653
868.756	5756
868.886	5661
869.017	5767
869.147	5817
869.278	5885
869.408	5760
869.539	5851
869.669	5916
869.799	5885
869.929	5942
870.06	6011
870.19	6175
870.32	6163
870.45	6239
870.58	6315
870.71	6391
870.84	6399
870.97	6410
871.1	6410
871.23	6616
871.36	6677
871.489	6646
871.619	6730
871.749	6764
871.879	6882
872.008	6943
872.138	6951
872.267	6951
872.397	7031
872.526	7004
872.656	7031
872.785	7190
872.915	7312
873.044	7476
873.173	7556
873.303	7636
873.432	7677
873.561	7811
873.69	7849
873.819	7993
873.948	8145
874.077	8191
874.206	8343
874.335	8385
874.464	8689
874.593	8849
874.722	8963
874.851	9157
874.979	9180
875.108	9287
875.237	9378
875.365	9454
875.494	9679
875.623	9789
875.751	9831
875.88	10036
876.008	10116
876.136	10261
876.265	10527
876.393	10706
876.521	10691
876.65	10763
876.778	10858
876.906	10824
877.034	10927
877.162	11132
877.29	11102
877.418	11239
877.546	11376
877.674	11391
877.802	11501
877.93	11520
878.058	11421
878.185	11532
878.313	11608
878.441	11741
878.568	11684
878.696	11703
878.824	11882
878.951	11916
879.079	12060
879.206	12110
879.333	12068
879.461	11980
879.588	12003
879.715	12041
879.842	12133
879.97	12030
880.097	11874
880.224	11843
880.351	11904
880.478	11817
880.605	11836
880.732	11878
880.859	11988
880.986	11737
881.112	11855
881.239	11703
881.366	11661
881.493	11570
881.619	11585
881.746	11562
881.872	11615
881.999	11543
882.125	11402
882.252	11490
882.378	11505
882.505	11478
882.631	11421
882.757	11284
882.883	11322
883.01	11273
883.136	11212
883.262	11117
883.388	10976
883.514	11208
883.64	11094
883.766	11147
883.892	10900
884.018	11041
884.143	11128
884.269	11056
884.395	10877
884.52	10767
884.646	10778
884.772	10694
884.897	10660
885.023	10717
885.148	10664
885.274	10733
885.399	10721
885.524	10607
885.65	10535
885.775	10573
885.9	10546
886.025	10637
886.15	10527
886.275	10466
886.4	10375
886.525	10424
886.65	10356
886.775	10306
886.9	10405
887.025	10462
887.149	10322
887.274	10227
887.399	10154
887.523	10150
887.648	10162
887.773	10147
887.897	10261
888.021	10112
888.146	10192
888.27	10150
888.395	10211
888.519	10143
888.643	10196
888.767	10196
888.891	10017
889.015	9998
889.139	10074
889.263	9983
889.387	10067
889.511	10090
889.635	10082
889.759	9998
889.883	10010
890.006	10013
890.13	10036
890.254	9953
890.377	9899
890.501	9857
890.624	9838
890.748	9838
890.871	9747
890.995	9701
891.118	9694
891.241	9755
891.364	9679
891.488	9797
891.611	9747
891.734	9751
891.857	9736
891.98	9682
892.103	9812
892.226	9808
892.349	9629
892.471	9580
892.594	9572
892.717	9603
892.839	9595
892.962	9561
893.085	9701
893.207	9587
893.33	9466
893.452	9462
893.575	9614
893.697	9523
893.819	9606
893.941	9584
894.064	9599
894.186	9462
894.308	9447
894.43	9530
894.552	9656
894.674	9496
894.796	9386
894.918	9405
895.04	9302
895.161	9386
895.283	9317
895.405	9241
895.526	9306
895.648	9218
895.769	9283
895.891	9176
896.012	9348
896.134	9211
896.255	9150
896.376	9161
896.498	9100
896.619	9142
896.74	9047
896.861	9077
896.982	9256
897.103	9321
897.224	9123
897.345	9013
897.466	9020
897.587	8998
897.708	9097
897.828	8948
897.949	8914
898.07	8819
898.19	8834
898.311	9013
898.431	8864
898.552	8906
898.672	8933
898.792	8990
898.913	8921
899.033	8777
899.153	8743
899.273	8739
899.393	8678
899.513	8792
899.633	8689
899.753	8811
899.873	8663
899.993	8708
900.113	8724
900.232	8705
900.352	8625
900.472	8522
900.591	8514
900.711	8537
900.83	8495
900.95	8629
901.069	8686
901.189	8537
901.308	8393
901.427	8339
901.546	8484
901.665	8461
901.784	8480
901.904	8324
902.023	8313
902.141	8206
902.26	8149
902.379	8206
902.498	8157
902.617	8157
902.735	8286
902.854	8214
902.973	8240
903.091	8130
903.21	8134
903.328	8180
903.446	8119
903.565	8092
903.683	8126
903.801	8024
903.919	8103
904.038	8107
904.156	7986
904.274	8088
904.392	7978
904.51	8088
904.627	7989
904.745	8069
904.863	8069
904.981	7868
905.098	7788
905.216	7871
905.334	7951
905.451	7864
905.569	7826
905.686	7894
905.803	7894
905.921	7734
906.038	7811
906.155	7772
906.272	7696
906.389	7704
906.506	7662
906.623	7666
906.74	7590
906.857	7499
906.974	7518
907.091	7655
907.208	7681
907.324	7567
907.441	7518
907.557	7415
907.674	7453
907.79	7335
907.907	7384
908.023	7400
908.139	7460
908.256	7377
908.372	7384
908.488	7358
908.604	7209
908.72	7156
908.836	7297
908.952	7209
909.068	7247
909.184	7305
909.3	7206
909.415	7228
909.531	7289
909.647	7107
909.762	7080
909.878	7088
909.993	7076
910.108	7046
910.224	7019
910.339	7034
910.454	7061
910.57	6996
910.685	6890
910.8	7179
910.915	7095
911.03	6989
911.145	6951
911.259	6783
911.374	6852
911.489	6821
911.604	6779
911.718	6738
911.833	6764
911.947	6604
912.062	6582
912.176	6673
912.291	6700
912.405	6703
912.519	6791
912.633	6818
912.748	6779
912.862	6741
912.976	6608
913.09	6532
913.204	6597
913.318	6612
913.431	6688
913.545	6642
913.659	6787
913.772	6620
913.886	6578
914	6521
914.113	6608
914.226	6589
914.34	6578
914.453	6486
914.566	6528
914.68	6483
914.793	6536
914.906	6384
915.019	6403
915.132	6304
915.245	6414
915.358	6433
915.47	6460
915.583	6437
915.696	6441
915.809	6502
915.921	6528
916.034	6391
916.146	6388
916.259	6388
916.371	6395
916.483	6395
916.595	6369
916.708	6422
916.82	6380
916.932	6388
917.044	6296
917.156	6399
917.268	6323
917.38	6304
917.491	6300
917.603	6285
917.715	6342
917.826	6388
917.938	6315
918.049	6243
918.161	6300
918.272	6399
918.384	6395
918.495	6266
918.606	6220
918.717	6167
918.828	6232
918.939	6296
919.05	6228
919.161	6262
919.272	6125
919.383	6114
919.494	6308
919.604	6391
919.715	6308
919.826	6228
919.936	6285
920.047	6361
920.157	6235
920.267	6399
920.378	6277
920.488	6285
920.598	6422
920.708	6464
920.818	6475
920.928	6445
921.038	6589
921.148	6544
921.258	6304
921.368	6277
921.477	6175
921.587	6140
921.697	6064
921.806	6163
921.916	6060
922.025	5961
922.134	5893
922.244	5851
922.353	5931
922.462	5798
922.571	5745
922.68	5722
922.789	5619
922.898	5718
923.007	5558
923.116	5722
923.224	5615
923.333	5729
923.442	5547
923.55	5524
923.659	5509
923.767	5577
923.876	5543
923.984	5592
924.092	5459
924.201	5512
924.309	5528
924.417	5554
924.525	5433
924.633	5509
924.741	6277
924.849	5402
924.956	5417
925.064	5318
925.172	5315
925.279	5292
925.387	5357
925.494	5284
925.602	5360
925.709	5364
925.816	5326
925.924	5273
926.031	5414
926.138	5303
926.245	5315
926.352	5212
926.459	5303
926.566	5326
926.673	5197
926.779	5140
926.886	5071
926.993	5052
927.099	4946
927.206	4949
927.312	4946
927.419	4946
927.525	4972
927.631	4957
927.737	4889
927.843	4839
927.95	4793
928.056	4820
928.162	4816
928.267	4873
928.373	5349
928.479	4809
928.585	4710
928.69	4736
928.796	4759
928.901	4641
929.007	4596
929.112	4672
929.218	4603
929.323	4588
929.428	4516
929.533	4683
929.638	4481
929.743	4565
929.848	4577
929.953	4512
930.058	4421
930.163	4284
930.267	4272
930.372	4394
930.477	4318
930.581	4443
930.685	4383
930.79	4223
930.894	4314
930.998	4242
931.103	4394
931.207	4093
931.311	4063
931.415	4006
931.519	3896
931.623	3911
