Data from glass_V78500241_2747.txt Node
Date: Wed Sep 01 19:33:32 CST 2021
User: usil
Spectrometer: V785-0024
Trigger mode: 0
Integration Time (sec): 4.000000E-1
Scans to average: 1
Nonlinearity correction enabled: false
Boxcar width: 0
Storing dark spectrum: false
XAxis mode: Wavelengths
Number of Pixels in Spectrum: 1024
>>>>>Begin Spectral Data<<<<<
801.071	3751
801.214	3755
801.356	3694
801.499	3755
801.641	3679
801.783	3713
801.926	3861
802.068	3831
802.211	3823
802.353	3876
802.496	3819
802.638	3854
802.78	3873
802.923	3953
803.065	3896
803.208	3857
803.35	3846
803.492	3930
803.635	3918
803.777	3816
803.919	3880
804.061	4101
804.204	3949
804.346	3930
804.488	3930
804.63	3998
804.773	3941
804.915	4006
805.057	4128
805.199	4010
805.341	4116
805.483	4154
805.626	4124
805.768	4143
805.91	4166
806.052	4238
806.194	4192
806.336	4314
806.478	4215
806.62	4147
806.762	4143
806.904	4253
807.046	4299
807.188	4207
807.33	4166
807.472	4219
807.614	4177
807.756	4295
807.898	4192
808.04	4181
808.182	4268
808.324	4303
808.465	4314
808.607	4402
808.749	4432
808.891	4493
809.033	4436
809.174	4356
809.316	4234
809.458	4207
809.6	4154
809.741	4147
809.883	4150
810.025	4238
810.166	4185
810.308	4207
810.45	4200
810.591	4219
810.733	4253
810.875	4466
811.016	4835
811.158	5067
811.299	5250
811.441	5239
811.582	5041
811.724	4649
811.865	4470
812.007	4447
812.148	4375
812.29	4398
812.431	4405
812.573	4383
812.714	4379
812.855	4352
812.997	4394
813.138	4451
813.279	4375
813.421	4390
813.562	4367
813.703	4337
813.845	4322
813.986	4242
814.127	4211
814.268	4249
814.41	4261
814.551	4207
814.692	4295
814.833	4249
814.974	4329
815.115	4299
815.256	4253
815.397	4200
815.539	4227
815.68	4192
815.821	4230
815.962	4295
816.103	4261
816.244	4249
816.385	4215
816.526	4227
816.666	4158
816.807	4063
816.948	4207
817.089	4158
817.23	4093
817.371	4029
817.512	4032
817.653	4112
817.793	4025
817.934	4029
818.075	4048
818.216	4044
818.356	4044
818.497	3983
818.638	3899
818.778	3945
818.919	3846
819.06	3842
819.2	3907
819.341	3842
819.481	3831
819.622	3892
819.762	4029
819.903	3937
820.043	3827
820.184	3781
820.324	3793
820.465	3903
820.605	3831
820.746	3846
820.886	3774
821.026	3892
821.167	3880
821.307	3934
821.447	3934
821.588	3949
821.728	3907
821.868	3880
822.008	3857
822.149	3903
822.289	3911
822.429	3785
822.569	3724
822.709	3827
822.849	3686
822.99	3713
823.13	3743
823.27	3762
823.41	3701
823.55	3713
823.69	3713
823.83	3762
823.97	3675
824.11	3587
824.25	3576
824.389	3618
824.529	3656
824.669	3622
824.809	3671
824.949	3732
825.089	3717
825.228	3663
825.368	3553
825.508	3542
825.648	3534
825.787	3549
825.927	3660
826.067	3656
826.206	3622
826.346	3781
826.485	3785
826.625	3823
826.765	3934
826.904	3778
827.044	3568
827.183	3481
827.323	3450
827.462	3485
827.601	3428
827.741	3386
827.88	3416
828.02	3348
828.159	3389
828.298	3450
828.437	3477
828.577	3473
828.716	3545
828.855	3477
828.994	3329
829.134	3317
829.273	3382
829.412	3306
829.551	3332
829.69	3317
829.829	3473
829.968	3481
830.107	3420
830.246	3428
830.385	3363
830.524	3344
830.663	3268
830.802	3233
830.941	3169
831.08	3184
831.219	3260
831.357	3237
831.496	3359
831.635	3195
831.774	3165
831.913	3188
832.051	3131
832.19	3127
832.329	3199
832.467	3142
832.606	3104
832.744	3154
832.883	3180
833.022	3207
833.16	3245
833.299	3291
833.437	3344
833.576	3317
833.714	3389
833.852	3374
833.991	3431
834.129	3443
834.267	3439
834.406	3393
834.544	3405
834.682	3370
834.821	3416
834.959	3538
835.097	3412
835.235	3488
835.373	3469
835.511	3492
835.65	3443
835.788	3523
835.926	3348
836.064	3370
836.202	3389
836.34	3538
836.478	3606
836.615	3526
836.753	3564
836.891	3644
837.029	3572
837.167	3599
837.305	3538
837.443	3542
837.58	3469
837.718	3549
837.856	3538
837.993	3496
838.131	3534
838.269	3557
838.406	3534
838.544	3561
838.681	3428
838.819	3443
838.956	3382
839.094	3340
839.231	3374
839.369	3481
839.506	3690
839.643	3603
839.781	3492
839.918	3409
840.055	3492
840.193	3481
840.33	3481
840.467	3542
840.604	3587
840.742	3789
840.879	3500
841.016	3534
841.153	3580
841.29	3724
841.427	3724
841.564	3686
841.701	3686
841.838	3663
841.975	3660
842.112	3705
842.249	3614
842.385	3629
842.522	3846
842.659	3709
842.796	3679
842.933	3682
843.069	3679
843.206	3732
843.343	3831
843.479	3816
843.616	3762
843.752	3656
843.889	3679
844.025	3869
844.162	3717
844.298	3892
844.435	3766
844.571	3770
844.708	3880
844.844	3968
844.98	4006
845.117	3979
845.253	3903
845.389	3899
845.525	3975
845.661	3979
845.798	3930
845.934	4006
846.07	3953
846.206	4029
846.342	4086
846.478	4063
846.614	3964
846.75	3907
846.886	3922
847.022	3987
847.158	3975
847.294	4013
847.429	4002
847.565	4032
847.701	4223
847.837	3911
847.972	3854
848.108	3964
848.244	3949
848.379	3854
848.515	3785
848.65	3804
848.786	3785
848.921	3857
849.057	3907
849.192	3876
849.328	3918
849.463	3896
849.598	3854
849.734	3846
849.869	3823
850.004	3778
850.14	3800
850.275	3785
850.41	3728
850.545	3717
850.68	3797
850.815	3804
850.95	3800
851.085	3941
851.22	3876
851.355	3850
851.49	3732
851.625	3789
851.76	3785
851.895	3705
852.03	3713
852.165	3740
852.299	3865
852.434	3873
852.569	3865
852.703	3899
852.838	3972
852.973	4032
853.107	3994
853.242	3865
853.376	3835
853.511	3781
853.645	3835
853.78	3968
853.914	3907
854.048	3888
854.183	3835
854.317	3911
854.451	4036
854.585	3915
854.72	3975
854.854	4048
854.988	3903
855.122	4006
855.256	3896
855.39	4029
855.524	4086
855.658	4074
855.792	4086
855.926	4124
856.06	4158
856.194	4173
856.327	4192
856.461	4147
856.595	4093
856.729	4131
856.862	4322
856.996	4215
857.13	4310
857.263	4310
857.397	4371
857.53	4276
857.664	4333
857.797	4360
857.931	4386
858.064	4363
858.197	4481
858.331	4413
858.464	4413
858.597	4352
858.731	4402
858.864	4428
858.997	4459
859.13	4459
859.263	4497
859.396	4573
859.529	4523
859.662	4485
859.795	4493
859.928	4580
860.061	4733
860.194	4694
860.327	4653
860.46	4622
860.592	4687
860.725	4759
860.858	4714
860.99	4660
861.123	4694
861.256	4702
861.388	4771
861.521	5273
861.653	4717
861.786	4687
861.918	4759
862.05	4793
862.183	4854
862.315	4900
862.447	4957
862.58	4881
862.712	4767
862.844	4771
862.976	4873
863.108	4824
863.24	5235
863.372	4835
863.504	4900
863.636	4828
863.768	4892
863.9	4953
864.032	4873
864.164	4934
864.296	5014
864.428	5086
864.559	5094
864.691	5140
864.823	5140
864.954	5105
865.086	5151
865.217	5056
865.349	5117
865.48	5147
865.612	5201
865.743	5284
865.875	5155
866.006	5166
866.137	5201
866.269	5227
866.4	5216
866.531	5235
866.662	5227
866.793	5265
866.924	5269
867.055	5303
867.186	5330
867.317	5299
867.448	5303
867.579	5311
867.71	5349
867.841	5360
867.972	5414
868.103	5493
868.233	5478
868.364	5524
868.495	5539
868.625	5642
868.756	5748
868.886	5646
869.017	5707
869.147	5802
869.278	5874
869.408	5790
869.539	5851
869.669	5958
869.799	5859
869.929	5946
870.06	5958
870.19	6201
870.32	6106
870.45	6281
870.58	6285
870.71	6441
870.84	6486
870.97	6369
871.1	6426
871.23	6574
871.36	6711
871.489	6700
871.619	6738
871.749	6829
871.879	6829
872.008	6939
872.138	6973
872.267	6989
872.397	6962
872.526	7114
872.656	7038
872.785	7149
872.915	7320
873.044	7487
873.173	7502
873.303	7620
873.432	7761
873.561	7852
873.69	7906
873.819	7997
873.948	8187
874.077	8240
874.206	8256
874.335	8484
874.464	8598
874.593	8883
874.722	8895
874.851	9070
874.979	9230
875.108	9275
875.237	9370
875.365	9439
875.494	9740
875.623	9907
875.751	9850
875.88	9945
876.008	10207
876.136	10261
876.265	10542
876.393	10729
876.521	10691
876.65	10763
876.778	10934
876.906	10896
877.034	10885
877.162	11064
877.29	11090
877.418	11235
877.546	11360
877.674	11391
877.802	11471
877.93	11493
878.058	11528
878.185	11532
878.313	11604
878.441	11695
878.568	11581
878.696	11745
878.824	11790
878.951	11904
879.079	11882
879.206	12072
879.333	12060
879.461	11969
879.588	12045
879.715	11904
879.842	12209
879.97	12030
880.097	11863
880.224	11813
880.351	11863
880.478	11851
880.605	11821
880.732	11802
880.859	11973
880.986	11775
881.112	11813
881.239	11752
881.366	11695
881.493	11604
881.619	11535
881.746	11566
881.872	11467
881.999	11433
882.125	11474
882.252	11558
882.378	11429
882.505	11520
882.631	11398
882.757	11231
882.883	11299
883.01	11280
883.136	11204
883.262	11197
883.388	11041
883.514	11151
883.64	11170
883.766	11117
883.892	10999
884.018	10923
884.143	11025
884.269	11102
884.395	10927
884.52	10782
884.646	10831
884.772	10634
884.897	10596
885.023	10637
885.148	10714
885.274	10778
885.399	10698
885.524	10592
885.65	10580
885.775	10546
885.9	10558
886.025	10656
886.15	10565
886.275	10447
886.4	10325
886.525	10436
886.65	10382
886.775	10337
886.9	10443
887.025	10508
887.149	10337
887.274	10261
887.399	10158
887.523	10211
887.648	10215
887.773	10131
887.897	10265
888.021	10227
888.146	10154
888.27	10204
888.395	10215
888.519	10082
888.643	10128
888.767	10192
888.891	10067
889.015	10044
889.139	10101
889.263	9983
889.387	9956
889.511	10150
889.635	10032
889.759	9953
889.883	9968
890.006	9949
890.13	10131
890.254	9941
890.377	9915
890.501	9846
890.624	9838
890.748	9808
890.871	9759
890.995	9854
891.118	9728
891.241	9747
891.364	9762
891.488	9766
891.611	9793
891.734	9770
891.857	9766
891.98	9717
892.103	9774
892.226	9781
892.349	9644
892.471	9564
892.594	9652
892.717	9618
892.839	9568
892.962	9603
893.085	9618
893.207	9625
893.33	9500
893.452	9534
893.575	9564
893.697	9504
893.819	9576
893.941	9641
894.064	9584
894.186	9462
894.308	9424
894.43	9473
894.552	9564
894.674	9447
894.796	9386
894.918	9397
895.04	9393
895.161	9332
895.283	9416
895.405	9199
895.526	9207
895.648	9222
895.769	9222
895.891	9283
896.012	9306
896.134	9176
896.255	9192
896.376	9032
896.498	9093
896.619	9039
896.74	9062
896.861	9066
896.982	9287
897.103	9264
897.224	9138
897.345	9066
897.466	8990
897.587	8971
897.708	8967
897.828	9005
897.949	8899
898.07	8811
898.19	8842
898.311	8941
898.431	8880
898.552	8849
898.672	8998
898.792	8948
898.913	8937
899.033	8769
899.153	8788
899.273	8659
899.393	8667
899.513	8686
899.633	8667
899.753	8697
899.873	8625
899.993	8731
900.113	8720
900.232	8667
900.352	8644
900.472	8625
900.591	8492
900.711	8606
900.83	8579
900.95	8670
901.069	8697
901.189	8541
901.308	8465
901.427	8431
901.546	8423
901.665	8419
901.784	8423
901.904	8385
902.023	8317
902.141	8244
902.26	8183
902.379	8267
902.498	8237
902.617	8130
902.735	8351
902.854	8301
902.973	8206
903.091	8115
903.21	8054
903.328	8145
903.446	8111
903.565	8134
903.683	8073
903.801	8058
903.919	8081
904.038	8103
904.156	8027
904.274	8103
904.392	7970
904.51	8058
904.627	8039
904.745	8107
904.863	8043
904.981	7986
905.098	7837
905.216	7898
905.334	7932
905.451	7856
905.569	7792
905.686	7860
905.803	7868
905.921	7746
906.038	7849
906.155	7757
906.272	7681
906.389	7689
906.506	7609
906.623	7643
906.74	7590
906.857	7575
906.974	7552
907.091	7628
907.208	7689
907.324	7590
907.441	7616
907.557	7445
907.674	7384
907.79	7381
907.907	7415
908.023	7415
908.139	7441
908.256	7346
908.372	7339
908.488	7316
908.604	7308
908.72	7221
908.836	7209
908.952	7198
909.068	7217
909.184	7339
909.3	7251
909.415	7305
909.531	7270
909.647	7126
909.762	7099
909.878	7099
909.993	7084
910.108	7080
910.224	7080
910.339	7084
910.454	7095
910.57	6962
910.685	6935
910.8	7152
910.915	7038
911.03	6962
911.145	6947
911.259	6848
911.374	6856
911.489	6814
911.604	6818
911.718	6753
911.833	6768
911.947	6677
912.062	6662
912.176	6684
912.291	6677
912.405	6684
912.519	6802
912.633	6772
912.748	6730
912.862	6707
912.976	6551
913.09	6525
913.204	6604
913.318	6654
913.431	6673
913.545	6612
913.659	6738
913.772	6616
913.886	6536
914	6498
914.113	6601
914.226	6654
914.34	6597
914.453	6483
914.566	6559
914.68	6517
914.793	6475
914.906	6399
915.019	6338
915.132	6384
915.245	6448
915.358	6353
915.47	6433
915.583	6388
915.696	6494
915.809	6479
915.921	6532
916.034	6399
916.146	6418
916.259	6380
916.371	6426
916.483	6445
916.595	6388
916.708	6308
916.82	6376
916.932	6357
917.044	6350
917.156	6433
917.268	6281
917.38	6273
917.491	6281
917.603	6323
917.715	6384
917.826	6414
917.938	6258
918.049	6205
918.161	6338
918.272	6448
918.384	6391
918.495	6311
918.606	6239
918.717	6216
918.828	6232
918.939	6239
919.05	6216
919.161	6266
919.272	6106
919.383	6095
919.494	6213
919.604	6380
919.715	6262
919.826	6186
919.936	6251
920.047	6342
920.157	6239
920.267	6437
920.378	6243
920.488	6304
920.598	6471
920.708	6544
920.818	6475
920.928	6456
921.038	6608
921.148	6585
921.258	6372
921.368	6281
921.477	6148
921.587	6178
921.697	6079
921.806	6182
921.916	6079
922.025	5958
922.134	5912
922.244	5874
922.353	5935
922.462	5817
922.571	5809
922.68	5756
922.789	5661
922.898	5691
923.007	5592
923.116	5714
923.224	5661
923.333	5634
923.442	5589
923.55	5558
923.659	5566
923.767	5619
923.876	5554
923.984	5577
924.092	5501
924.201	5551
924.309	5562
924.417	5554
924.525	5433
924.633	5501
924.741	6319
924.849	5345
924.956	5505
925.064	5345
925.172	5296
925.279	5330
925.387	5292
925.494	5296
925.602	5440
925.709	5353
925.816	5288
925.924	5288
926.031	5288
926.138	5254
926.245	5322
926.352	5174
926.459	5307
926.566	5326
926.673	5193
926.779	5098
926.886	5090
926.993	5041
927.099	5014
927.206	4965
927.312	4915
927.419	4968
927.525	4930
927.631	4995
927.737	4873
927.843	4831
927.95	4774
928.056	4824
928.162	4866
928.267	4839
928.373	5357
928.479	4839
928.585	4649
928.69	4790
928.796	4755
928.901	4660
929.007	4577
929.112	4637
929.218	4596
929.323	4573
929.428	4565
929.533	4615
929.638	4523
929.743	4577
929.848	4516
929.953	4519
930.058	4417
930.163	4363
930.267	4375
930.372	4386
930.477	4238
930.581	4424
930.685	4318
930.79	4246
930.894	4291
930.998	4268
931.103	4371
931.207	4093
931.311	4082
931.415	4032
931.519	3896
931.623	3922
