Data from glass_V78500241_2452.txt Node
Date: Wed Sep 01 19:31:29 CST 2021
User: usil
Spectrometer: V785-0024
Trigger mode: 0
Integration Time (sec): 4.000000E-1
Scans to average: 1
Nonlinearity correction enabled: false
Boxcar width: 0
Storing dark spectrum: false
XAxis mode: Wavelengths
Number of Pixels in Spectrum: 1024
>>>>>Begin Spectral Data<<<<<
801.071	3698
801.214	3717
801.356	3686
801.499	3705
801.641	3705
801.783	3747
801.926	3827
802.068	3816
802.211	3797
802.353	3888
802.496	3831
802.638	3892
802.78	3888
802.923	3930
803.065	3918
803.208	3793
803.35	3869
803.492	3869
803.635	3903
803.777	3793
803.919	3869
804.061	4128
804.204	3930
804.346	3918
804.488	3888
804.63	3998
804.773	3945
804.915	4067
805.057	4112
805.199	4082
805.341	4101
805.483	4109
805.626	4116
805.768	4097
805.91	4188
806.052	4223
806.194	4196
806.336	4325
806.478	4219
806.62	4116
806.762	4169
806.904	4234
807.046	4333
807.188	4246
807.33	4185
807.472	4207
807.614	4173
807.756	4242
807.898	4223
808.04	4207
808.182	4299
808.324	4367
808.465	4367
808.607	4390
808.749	4455
808.891	4470
809.033	4542
809.174	4432
809.316	4265
809.458	4223
809.6	4158
809.741	4120
809.883	4143
810.025	4181
810.166	4169
810.308	4204
810.45	4276
810.591	4181
810.733	4268
810.875	4478
811.016	4820
811.158	5117
811.299	5227
811.441	5277
811.582	5079
811.724	4714
811.865	4436
812.007	4478
812.148	4459
812.29	4455
812.431	4424
812.573	4443
812.714	4344
812.855	4398
812.997	4386
813.138	4493
813.279	4375
813.421	4337
813.562	4337
813.703	4333
813.845	4333
813.986	4268
814.127	4188
814.268	4249
814.41	4284
814.551	4242
814.692	4318
814.833	4280
814.974	4325
815.115	4310
815.256	4177
815.397	4227
815.539	4272
815.68	4204
815.821	4219
815.962	4295
816.103	4246
816.244	4207
816.385	4261
816.526	4295
816.666	4192
816.807	4120
816.948	4185
817.089	4169
817.23	4090
817.371	4044
817.512	4044
817.653	4063
817.793	4013
817.934	4048
818.075	4112
818.216	4048
818.356	4040
818.497	3979
818.638	3876
818.778	3949
818.919	3846
819.06	3869
819.2	3941
819.341	3865
819.481	3857
819.622	3850
819.762	4006
819.903	3953
820.043	3831
820.184	3831
820.324	3804
820.465	3888
820.605	3838
820.746	3865
820.886	3812
821.026	3926
821.167	3934
821.307	3930
821.447	3979
821.588	3926
821.728	3926
821.868	3903
822.008	3823
822.149	3876
822.289	3896
822.429	3800
822.569	3781
822.709	3785
822.849	3694
822.99	3717
823.13	3728
823.27	3789
823.41	3682
823.55	3690
823.69	3694
823.83	3720
823.97	3671
824.11	3584
824.25	3625
824.389	3625
824.529	3637
824.669	3614
824.809	3701
824.949	3740
825.089	3740
825.228	3660
825.368	3580
825.508	3595
825.648	3549
825.787	3576
825.927	3618
826.067	3587
826.206	3644
826.346	3797
826.485	3835
826.625	3835
826.765	3934
826.904	3819
827.044	3614
827.183	3492
827.323	3416
827.462	3458
827.601	3424
827.741	3416
827.88	3386
828.02	3367
828.159	3420
828.298	3439
828.437	3519
828.577	3458
828.716	3629
828.855	3473
828.994	3378
829.134	3393
829.273	3393
829.412	3325
829.551	3336
829.69	3332
829.829	3431
829.968	3549
830.107	3443
830.246	3412
830.385	3351
830.524	3313
830.663	3329
830.802	3226
830.941	3173
831.08	3222
831.219	3279
831.357	3253
831.496	3367
831.635	3275
831.774	3184
831.913	3176
832.051	3146
832.19	3150
832.329	3272
832.467	3142
832.606	3127
832.744	3173
832.883	3169
833.022	3195
833.16	3253
833.299	3287
833.437	3306
833.576	3325
833.714	3374
833.852	3447
833.991	3485
834.129	3477
834.267	3428
834.406	3412
834.544	3405
834.682	3389
834.821	3386
834.959	3564
835.097	3405
835.235	3507
835.373	3454
835.511	3481
835.65	3435
835.788	3462
835.926	3378
836.064	3355
836.202	3409
836.34	3561
836.478	3625
836.615	3549
836.753	3599
836.891	3622
837.029	3595
837.167	3587
837.305	3534
837.443	3534
837.58	3507
837.718	3599
837.856	3564
837.993	3545
838.131	3564
838.269	3564
838.406	3549
838.544	3564
838.681	3466
838.819	3424
838.956	3348
839.094	3370
839.231	3431
839.369	3488
839.506	3724
839.643	3587
839.781	3485
839.918	3466
840.055	3473
840.193	3511
840.33	3496
840.467	3564
840.604	3591
840.742	3819
840.879	3534
841.016	3584
841.153	3576
841.29	3781
841.427	3740
841.564	3682
841.701	3701
841.838	3698
841.975	3713
842.112	3709
842.249	3625
842.385	3595
842.522	3804
842.659	3667
842.796	3641
842.933	3709
843.069	3717
843.206	3667
843.343	3774
843.479	3766
843.616	3838
843.752	3648
843.889	3633
844.025	3816
844.162	3747
844.298	3846
844.435	3747
844.571	3743
844.708	3880
844.844	3915
844.98	4032
845.117	4040
845.253	3884
845.389	3911
845.525	3934
845.661	3983
845.798	3915
845.934	3926
846.07	3953
846.206	4071
846.342	4109
846.478	4090
846.614	3972
846.75	3926
846.886	3930
847.022	4017
847.158	3941
847.294	4029
847.429	4036
847.565	3994
847.701	4253
847.837	3884
847.972	3846
848.108	3945
848.244	3960
848.379	3865
848.515	3819
848.65	3800
848.786	3823
848.921	3865
849.057	3937
849.192	3949
849.328	3899
849.463	3861
849.598	3888
849.734	3850
849.869	3800
850.004	3816
850.14	3774
850.275	3759
850.41	3709
850.545	3751
850.68	3793
850.815	3793
850.95	3816
851.085	3941
851.22	3861
851.355	3838
851.49	3819
851.625	3789
851.76	3740
851.895	3766
852.03	3686
852.165	3819
852.299	3880
852.434	3903
852.569	3888
852.703	3861
852.838	3956
852.973	3983
853.107	3949
853.242	3873
853.376	3842
853.511	3778
853.645	3812
853.78	3983
853.914	3907
854.048	3903
854.183	3857
854.317	3903
854.451	4063
854.585	3926
854.72	3949
854.854	4044
854.988	3937
855.122	3987
855.256	3907
855.39	4006
855.524	4071
855.658	4093
855.792	4055
855.926	4139
856.06	4162
856.194	4173
856.327	4086
856.461	4120
856.595	4078
856.729	4166
856.862	4253
856.996	4230
857.13	4253
857.263	4314
857.397	4367
857.53	4291
857.664	4371
857.797	4421
857.931	4402
858.064	4386
858.197	4447
858.331	4398
858.464	4371
858.597	4310
858.731	4493
858.864	4436
858.997	4417
859.13	4478
859.263	4512
859.396	4573
859.529	4573
859.662	4535
859.795	4538
859.928	4531
860.061	4675
860.194	4740
860.327	4656
860.46	4645
860.592	4763
860.725	4763
860.858	4733
860.99	4668
861.123	4660
861.256	4694
861.388	4790
861.521	5478
861.653	4736
861.786	4641
861.918	4763
862.05	4755
862.183	4820
862.315	4911
862.447	4892
862.58	4889
862.712	4774
862.844	4725
862.976	4809
863.108	4904
863.24	5250
863.372	4812
863.504	4843
863.636	4812
863.768	5003
863.9	4949
864.032	4942
864.164	4934
864.296	5025
864.428	5029
864.559	5056
864.691	5109
864.823	5067
864.954	5121
865.086	5075
865.217	5075
865.349	5075
865.48	5166
865.612	5201
865.743	5303
865.875	5197
866.006	5185
866.137	5201
866.269	5277
866.4	5223
866.531	5208
866.662	5231
866.793	5296
866.924	5318
867.055	5341
867.186	5318
867.317	5261
867.448	5337
867.579	5334
867.71	5368
867.841	5345
867.972	5467
868.103	5417
868.233	5539
868.364	5463
868.495	5573
868.625	5634
868.756	5798
868.886	5649
869.017	5737
869.147	5851
869.278	5859
869.408	5828
869.539	5844
869.669	5908
869.799	5931
869.929	5935
870.06	6019
870.19	6163
870.32	6102
870.45	6258
870.58	6289
870.71	6422
870.84	6410
870.97	6380
871.1	6410
871.23	6585
871.36	6684
871.489	6662
871.619	6715
871.749	6825
871.879	6867
872.008	6973
872.138	7008
872.267	7069
872.397	7000
872.526	7004
872.656	7114
872.785	7194
872.915	7350
873.044	7502
873.173	7518
873.303	7643
873.432	7795
873.561	7917
873.69	7913
873.819	8020
873.948	8221
874.077	8210
874.206	8275
874.335	8332
874.464	8640
874.593	8887
874.722	8929
874.851	9127
874.979	9192
875.108	9367
875.237	9405
875.365	9515
875.494	9599
875.623	9873
875.751	9785
875.88	10021
876.008	10169
876.136	10276
876.265	10523
876.393	10649
876.521	10694
876.65	10774
876.778	10786
876.906	10877
877.034	10980
877.162	11083
877.29	11181
877.418	11277
877.546	11448
877.674	11433
877.802	11455
877.93	11497
878.058	11547
878.185	11539
878.313	11558
878.441	11786
878.568	11653
878.696	11893
878.824	11798
878.951	11828
879.079	11920
879.206	12148
879.333	12057
879.461	11870
879.588	12003
879.715	12117
879.842	12133
879.97	12011
880.097	11817
880.224	11889
880.351	11859
880.478	11836
880.605	11817
880.732	11775
880.859	12015
880.986	11847
881.112	11824
881.239	11707
881.366	11668
881.493	11585
881.619	11543
881.746	11478
881.872	11558
881.999	11471
882.125	11467
882.252	11558
882.378	11505
882.505	11627
882.631	11345
882.757	11326
882.883	11284
883.01	11265
883.136	11223
883.262	11079
883.388	11105
883.514	11174
883.64	11178
883.766	11185
883.892	10946
884.018	10991
884.143	11064
884.269	11140
884.395	10831
884.52	10797
884.646	10801
884.772	10744
884.897	10645
885.023	10729
885.148	10694
885.274	10816
885.399	10740
885.524	10615
885.65	10546
885.775	10592
885.9	10569
886.025	10630
886.15	10561
886.275	10512
886.4	10356
886.525	10375
886.65	10371
886.775	10409
886.9	10481
887.025	10542
887.149	10318
887.274	10238
887.399	10234
887.523	10154
887.648	10177
887.773	10173
887.897	10265
888.021	10158
888.146	10101
888.27	10207
888.395	10158
888.519	10086
888.643	10166
888.767	10215
888.891	10074
889.015	10006
889.139	10051
889.263	10006
889.387	10025
889.511	10143
889.635	10086
889.759	9865
889.883	9994
890.006	10021
890.13	10135
890.254	9895
890.377	9918
890.501	9823
890.624	9892
890.748	9781
890.871	9740
890.995	9740
891.118	9728
891.241	9740
891.364	9701
891.488	9838
891.611	9720
891.734	9762
891.857	9812
891.98	9663
892.103	9747
892.226	9755
892.349	9618
892.471	9466
892.594	9572
892.717	9587
892.839	9519
892.962	9629
893.085	9675
893.207	9504
893.33	9515
893.452	9511
893.575	9557
893.697	9462
893.819	9603
893.941	9633
894.064	9564
894.186	9435
894.308	9336
894.43	9466
894.552	9576
894.674	9492
894.796	9431
894.918	9405
895.04	9348
895.161	9302
895.283	9374
895.405	9260
895.526	9233
895.648	9157
895.769	9294
895.891	9264
896.012	9310
896.134	9222
896.255	9188
896.376	9161
896.498	9116
896.619	9173
896.74	9119
896.861	9089
896.982	9275
897.103	9351
897.224	9184
897.345	9047
897.466	9028
897.587	9009
897.708	8990
897.828	8967
897.949	8925
898.07	8857
898.19	8880
898.311	8967
898.431	8906
898.552	8933
898.672	8990
898.792	8891
898.913	8834
899.033	8777
899.153	8750
899.273	8648
899.393	8701
899.513	8716
899.633	8705
899.753	8792
899.873	8670
899.993	8712
900.113	8670
900.232	8667
900.352	8659
900.472	8606
900.591	8583
900.711	8549
900.83	8564
900.95	8663
901.069	8629
901.189	8530
901.308	8484
901.427	8320
901.546	8461
901.665	8404
901.784	8549
901.904	8412
902.023	8355
902.141	8237
902.26	8263
902.379	8279
902.498	8237
902.617	8180
902.735	8305
902.854	8271
902.973	8248
903.091	8115
903.21	8168
903.328	8126
903.446	8130
903.565	8065
903.683	8069
903.801	8039
903.919	8138
904.038	8168
904.156	8035
904.274	8043
904.392	8035
904.51	7997
904.627	8084
904.745	8050
904.863	8107
904.981	7928
905.098	7906
905.216	7841
905.334	7887
905.451	7906
905.569	7902
905.686	7932
905.803	7947
905.921	7841
906.038	7837
906.155	7814
906.272	7708
906.389	7715
906.506	7601
906.623	7647
906.74	7548
906.857	7514
906.974	7559
907.091	7628
907.208	7666
907.324	7605
907.441	7597
907.557	7457
907.674	7365
907.79	7407
907.907	7301
908.023	7400
908.139	7453
908.256	7388
908.372	7354
908.488	7362
908.604	7308
908.72	7232
908.836	7259
908.952	7285
909.068	7316
909.184	7316
909.3	7190
909.415	7251
909.531	7289
909.647	7137
909.762	7149
909.878	7091
909.993	7137
910.108	7095
910.224	7065
910.339	7072
910.454	7110
910.57	7008
910.685	6962
910.8	7133
910.915	7072
911.03	7053
911.145	6829
911.259	6882
911.374	6878
911.489	6859
911.604	6787
911.718	6681
911.833	6707
911.947	6627
912.062	6658
912.176	6722
912.291	6654
912.405	6722
912.519	6837
912.633	6791
912.748	6650
912.862	6703
912.976	6566
913.09	6528
913.204	6528
913.318	6608
913.431	6677
913.545	6642
913.659	6738
913.772	6627
913.886	6597
914	6509
914.113	6623
914.226	6623
914.34	6574
914.453	6494
914.566	6620
914.68	6532
914.793	6555
914.906	6452
915.019	6365
915.132	6357
915.245	6350
915.358	6479
915.47	6429
915.583	6452
915.696	6429
915.809	6582
915.921	6532
916.034	6441
916.146	6418
916.259	6414
916.371	6475
916.483	6513
916.595	6391
916.708	6380
916.82	6403
916.932	6361
917.044	6403
917.156	6410
917.268	6277
917.38	6319
917.491	6319
917.603	6338
917.715	6334
917.826	6437
917.938	6327
918.049	6281
918.161	6308
918.272	6395
918.384	6407
918.495	6300
918.606	6239
918.717	6258
918.828	6262
918.939	6224
919.05	6197
919.161	6300
919.272	6121
919.383	6159
919.494	6331
919.604	6399
919.715	6228
919.826	6220
919.936	6247
920.047	6334
920.157	6266
920.267	6391
920.378	6308
920.488	6224
920.598	6391
920.708	6464
920.818	6506
920.928	6422
921.038	6623
921.148	6555
921.258	6338
921.368	6311
921.477	6190
921.587	6186
921.697	6049
921.806	6140
921.916	6026
922.025	5954
922.134	5969
922.244	5961
922.353	5942
922.462	5821
922.571	5786
922.68	5672
922.789	5627
922.898	5737
923.007	5649
923.116	5729
923.224	5646
923.333	5585
923.442	5577
923.55	5566
923.659	5611
923.767	5528
923.876	5577
923.984	5589
924.092	5474
924.201	5535
924.309	5493
924.417	5600
924.525	5528
924.633	5501
924.741	6304
924.849	5341
924.956	5440
925.064	5357
925.172	5326
925.279	5311
925.387	5349
925.494	5322
925.602	5360
925.709	5353
925.816	5288
925.924	5337
926.031	5376
926.138	5364
926.245	5337
926.352	5216
926.459	5357
926.566	5353
926.673	5261
926.779	5159
926.886	5094
926.993	5010
927.099	4987
927.206	4968
927.312	4957
927.419	5025
927.525	4953
927.631	4961
927.737	4938
927.843	4843
927.95	4771
928.056	4809
928.162	4828
928.267	4866
928.373	5246
928.479	4850
928.585	4714
928.69	4755
928.796	4793
928.901	4675
929.007	4569
929.112	4641
929.218	4603
929.323	4615
929.428	4550
929.533	4603
929.638	4535
929.743	4493
929.848	4573
929.953	4459
930.058	4432
930.163	4310
930.267	4329
930.372	4432
930.477	4287
930.581	4485
930.685	4303
930.79	4280
930.894	4246
930.998	4230
931.103	4375
931.207	4116
931.311	4112
931.415	4032
931.519	3915
931.623	3926
