Data from glass_V78500241_2608.txt Node
Date: Wed Sep 01 19:32:34 CST 2021
User: usil
Spectrometer: V785-0024
Trigger mode: 0
Integration Time (sec): 4.000000E-1
Scans to average: 1
Nonlinearity correction enabled: false
Boxcar width: 0
Storing dark spectrum: false
XAxis mode: Wavelengths
Number of Pixels in Spectrum: 1024
>>>>>Begin Spectral Data<<<<<
801.071	3720
801.214	3713
801.356	3690
801.499	3652
801.641	3732
801.783	3759
801.926	3854
802.068	3762
802.211	3831
802.353	3816
802.496	3819
802.638	3861
802.78	3907
802.923	3926
803.065	3907
803.208	3838
803.35	3896
803.492	3922
803.635	3972
803.777	3850
803.919	3934
804.061	4139
804.204	3941
804.346	3896
804.488	3892
804.63	4048
804.773	3945
804.915	3979
805.057	4128
805.199	4048
805.341	4090
805.483	4090
805.626	4093
805.768	4124
805.91	4200
806.052	4280
806.194	4192
806.336	4371
806.478	4207
806.62	4143
806.762	4185
806.904	4230
807.046	4337
807.188	4192
807.33	4185
807.472	4215
807.614	4207
807.756	4238
807.898	4204
808.04	4211
808.182	4261
808.324	4318
808.465	4390
808.607	4462
808.749	4428
808.891	4466
809.033	4508
809.174	4375
809.316	4246
809.458	4188
809.6	4120
809.741	4135
809.883	4082
810.025	4185
810.166	4223
810.308	4192
810.45	4230
810.591	4181
810.733	4268
810.875	4497
811.016	4771
811.158	5117
811.299	5277
811.441	5303
811.582	5075
811.724	4694
811.865	4428
812.007	4428
812.148	4432
812.29	4424
812.431	4394
812.573	4459
812.714	4363
812.855	4413
812.997	4413
813.138	4421
813.279	4386
813.421	4383
813.562	4341
813.703	4322
813.845	4325
813.986	4230
814.127	4181
814.268	4242
814.41	4272
814.551	4219
814.692	4363
814.833	4276
814.974	4306
815.115	4322
815.256	4234
815.397	4227
815.539	4246
815.68	4238
815.821	4215
815.962	4284
816.103	4276
816.244	4196
816.385	4192
816.526	4280
816.666	4185
816.807	4101
816.948	4131
817.089	4196
817.23	4120
817.371	4055
817.512	4036
817.653	4059
817.793	3975
817.934	4071
818.075	4059
818.216	4090
818.356	4105
818.497	4006
818.638	3918
818.778	3899
818.919	3865
819.06	3819
819.2	3911
819.341	3808
819.481	3823
819.622	3876
819.762	4006
819.903	3911
820.043	3842
820.184	3793
820.324	3819
820.465	3899
820.605	3854
820.746	3903
820.886	3793
821.026	3918
821.167	3903
821.307	3937
821.447	3991
821.588	3956
821.728	3972
821.868	3873
822.008	3842
822.149	3880
822.289	3907
822.429	3743
822.569	3778
822.709	3762
822.849	3648
822.99	3698
823.13	3751
823.27	3812
823.41	3736
823.55	3705
823.69	3701
823.83	3698
823.97	3671
824.11	3606
824.25	3599
824.389	3633
824.529	3618
824.669	3625
824.809	3720
824.949	3720
825.089	3774
825.228	3663
825.368	3568
825.508	3538
825.648	3538
825.787	3572
825.927	3599
826.067	3637
826.206	3641
826.346	3793
826.485	3842
826.625	3861
826.765	3918
826.904	3819
827.044	3587
827.183	3519
827.323	3466
827.462	3504
827.601	3439
827.741	3409
827.88	3458
828.02	3363
828.159	3447
828.298	3454
828.437	3492
828.577	3466
828.716	3568
828.855	3488
828.994	3401
829.134	3374
829.273	3374
829.412	3351
829.551	3329
829.69	3348
829.829	3412
829.968	3492
830.107	3439
830.246	3435
830.385	3367
830.524	3386
830.663	3325
830.802	3237
830.941	3203
831.08	3135
831.219	3211
831.357	3233
831.496	3367
831.635	3237
831.774	3165
831.913	3173
832.051	3119
832.19	3097
832.329	3188
832.467	3127
832.606	3074
832.744	3142
832.883	3150
833.022	3222
833.16	3264
833.299	3310
833.437	3302
833.576	3389
833.714	3409
833.852	3443
833.991	3431
834.129	3496
834.267	3420
834.406	3401
834.544	3420
834.682	3420
834.821	3409
834.959	3572
835.097	3409
835.235	3523
835.373	3477
835.511	3481
835.65	3389
835.788	3473
835.926	3386
836.064	3363
836.202	3401
836.34	3549
836.478	3587
836.615	3511
836.753	3564
836.891	3660
837.029	3606
837.167	3557
837.305	3534
837.443	3545
837.58	3481
837.718	3610
837.856	3564
837.993	3500
838.131	3584
838.269	3545
838.406	3572
838.544	3553
838.681	3409
838.819	3473
838.956	3340
839.094	3386
839.231	3428
839.369	3496
839.506	3778
839.643	3629
839.781	3454
839.918	3450
840.055	3534
840.193	3500
840.33	3515
840.467	3538
840.604	3584
840.742	3793
840.879	3545
841.016	3534
841.153	3599
841.29	3751
841.427	3701
841.564	3663
841.701	3751
841.838	3679
841.975	3679
842.112	3701
842.249	3599
842.385	3633
842.522	3766
842.659	3694
842.796	3690
842.933	3671
843.069	3762
843.206	3690
843.343	3781
843.479	3789
843.616	3793
843.752	3663
843.889	3694
844.025	3880
844.162	3713
844.298	3884
844.435	3812
844.571	3759
844.708	3907
844.844	4010
844.98	4002
845.117	4040
845.253	3880
845.389	3876
845.525	3960
845.661	3964
845.798	3930
845.934	3945
846.07	3918
846.206	4029
846.342	4116
846.478	4036
846.614	3968
846.75	3937
846.886	3880
847.022	4040
847.158	3979
847.294	3953
847.429	4040
847.565	3964
847.701	4207
847.837	3899
847.972	3884
848.108	3968
848.244	3972
848.379	3846
848.515	3800
848.65	3827
848.786	3831
848.921	3846
849.057	3918
849.192	3968
849.328	3911
849.463	3888
849.598	3850
849.734	3876
849.869	3789
850.004	3732
850.14	3865
850.275	3808
850.41	3724
850.545	3770
850.68	3797
850.815	3797
850.95	3774
851.085	3937
851.22	3865
851.355	3808
851.49	3755
851.625	3812
851.76	3759
851.895	3736
852.03	3717
852.165	3751
852.299	3842
852.434	3861
852.569	3865
852.703	3876
852.838	3918
852.973	3991
853.107	3979
853.242	3857
853.376	3831
853.511	3800
853.645	3781
853.78	3922
853.914	3876
854.048	3903
854.183	3911
854.317	3949
854.451	4013
854.585	3926
854.72	3915
854.854	4044
854.988	3876
855.122	3994
855.256	3896
855.39	4013
855.524	4139
855.658	4063
855.792	4158
855.926	4147
856.06	4093
856.194	4169
856.327	4124
856.461	4162
856.595	4143
856.729	4131
856.862	4230
856.996	4204
857.13	4265
857.263	4314
857.397	4352
857.53	4268
857.664	4367
857.797	4352
857.931	4409
858.064	4402
858.197	4443
858.331	4402
858.464	4402
858.597	4310
858.731	4394
858.864	4432
858.997	4436
859.13	4493
859.263	4504
859.396	4592
859.529	4523
859.662	4497
859.795	4478
859.928	4603
860.061	4687
860.194	4748
860.327	4641
860.46	4653
860.592	4698
860.725	4752
860.858	4748
860.99	4653
861.123	4683
861.256	4683
861.388	4752
861.521	5284
861.653	4714
861.786	4759
861.918	4725
862.05	4812
862.183	4774
862.315	4847
862.447	4892
862.58	4816
862.712	4786
862.844	4752
862.976	4854
863.108	4839
863.24	5197
863.372	4816
863.504	4900
863.636	4873
863.768	4908
863.9	4991
864.032	4911
864.164	4976
864.296	4984
864.428	5121
864.559	5094
864.691	5113
864.823	5143
864.954	5075
865.086	5136
865.217	5098
865.349	5098
865.48	5140
865.612	5197
865.743	5227
865.875	5208
866.006	5109
866.137	5288
866.269	5223
866.4	5227
866.531	5220
866.662	5220
866.793	5288
866.924	5299
867.055	5337
867.186	5337
867.317	5318
867.448	5299
867.579	5334
867.71	5368
867.841	5368
867.972	5455
868.103	5471
868.233	5501
868.364	5543
868.495	5535
868.625	5646
868.756	5756
868.886	5638
869.017	5707
869.147	5844
869.278	5855
869.408	5794
869.539	5824
869.669	5942
869.799	5908
869.929	5958
870.06	6003
870.19	6136
870.32	6209
870.45	6239
870.58	6292
870.71	6384
870.84	6414
870.97	6445
871.1	6456
871.23	6688
871.36	6715
871.489	6620
871.619	6688
871.749	6764
871.879	6840
872.008	6985
872.138	6962
872.267	6962
872.397	6973
872.526	7027
872.656	7110
872.785	7145
872.915	7335
873.044	7510
873.173	7563
873.303	7582
873.432	7788
873.561	7822
873.69	7894
873.819	8020
873.948	8092
874.077	8290
874.206	8298
874.335	8434
874.464	8682
874.593	8811
874.722	8933
874.851	9062
874.979	9268
875.108	9306
875.237	9443
875.365	9511
875.494	9690
875.623	9850
875.751	9846
875.88	9991
876.008	10131
876.136	10276
876.265	10478
876.393	10645
876.521	10710
876.65	10828
876.778	10889
876.906	10892
877.034	10908
877.162	11094
877.29	11166
877.418	11315
877.546	11307
877.674	11353
877.802	11535
877.93	11589
878.058	11554
878.185	11611
878.313	11695
878.441	11707
878.568	11703
878.696	11786
878.824	11756
878.951	11988
879.079	12034
879.206	12171
879.333	11977
879.461	11996
879.588	12079
879.715	12045
879.842	12224
879.97	12076
880.097	11897
880.224	11878
880.351	11866
880.478	11882
880.605	11859
880.732	11809
880.859	11992
880.986	11794
881.112	11847
881.239	11695
881.366	11684
881.493	11649
881.619	11551
881.746	11600
881.872	11490
881.999	11516
882.125	11467
882.252	11452
882.378	11463
882.505	11535
882.631	11353
882.757	11284
882.883	11296
883.01	11197
883.136	11189
883.262	11105
883.388	11045
883.514	11178
883.64	11155
883.766	11094
883.892	10946
884.018	10957
884.143	11052
884.269	11060
884.395	10763
884.52	10725
884.646	10771
884.772	10694
884.897	10660
885.023	10736
885.148	10679
885.274	10698
885.399	10653
885.524	10649
885.65	10527
885.775	10508
885.9	10569
886.025	10592
886.15	10645
886.275	10481
886.4	10436
886.525	10379
886.65	10322
886.775	10310
886.9	10508
887.025	10538
887.149	10261
887.274	10207
887.399	10215
887.523	10177
887.648	10044
887.773	10067
887.897	10341
888.021	10158
888.146	10131
888.27	10230
888.395	10276
888.519	10162
888.643	10177
888.767	10120
888.891	10067
889.015	9945
889.139	10048
889.263	9972
889.387	10048
889.511	10071
889.635	10025
889.759	9907
889.883	9991
890.006	10032
890.13	10063
890.254	9922
890.377	9895
890.501	9850
890.624	9953
890.748	9789
890.871	9816
890.995	9732
891.118	9728
891.241	9686
891.364	9728
891.488	9827
891.611	9762
891.734	9732
891.857	9770
891.98	9713
892.103	9724
892.226	9781
892.349	9660
892.471	9530
892.594	9568
892.717	9580
892.839	9564
892.962	9580
893.085	9667
893.207	9595
893.33	9462
893.452	9500
893.575	9587
893.697	9420
893.819	9599
893.941	9553
894.064	9549
894.186	9511
894.308	9386
894.43	9584
894.552	9599
894.674	9492
894.796	9363
894.918	9351
895.04	9382
895.161	9344
895.283	9294
895.405	9226
895.526	9302
895.648	9233
895.769	9325
895.891	9211
896.012	9294
896.134	9233
896.255	9157
896.376	9112
896.498	9138
896.619	9150
896.74	9055
896.861	9066
896.982	9253
897.103	9249
897.224	9127
897.345	9081
897.466	8975
897.587	9024
897.708	9062
897.828	8982
897.949	8918
898.07	8842
898.19	8975
898.311	9028
898.431	8880
898.552	8929
898.672	8967
898.792	8921
898.913	8918
899.033	8750
899.153	8769
899.273	8606
899.393	8708
899.513	8701
899.633	8754
899.753	8743
899.873	8636
899.993	8762
900.113	8720
900.232	8686
900.352	8667
900.472	8613
900.591	8522
900.711	8644
900.83	8488
900.95	8667
901.069	8697
901.189	8541
901.308	8396
901.427	8396
901.546	8404
901.665	8434
901.784	8473
901.904	8381
902.023	8324
902.141	8282
902.26	8218
902.379	8229
902.498	8259
902.617	8221
902.735	8343
902.854	8385
902.973	8305
903.091	8062
903.21	8088
903.328	8183
903.446	8096
903.565	8043
903.683	8035
903.801	8005
903.919	8168
904.038	8126
904.156	7989
904.274	8077
904.392	7997
904.51	7989
904.627	8024
904.745	8111
904.863	8119
904.981	7932
905.098	7837
905.216	7871
905.334	7932
905.451	7887
905.569	7814
905.686	7864
905.803	7871
905.921	7765
906.038	7887
906.155	7723
906.272	7658
906.389	7700
906.506	7685
906.623	7655
906.74	7636
906.857	7491
906.974	7540
907.091	7666
907.208	7715
907.324	7628
907.441	7495
907.557	7464
907.674	7434
907.79	7312
907.907	7422
908.023	7400
908.139	7407
908.256	7327
908.372	7381
908.488	7392
908.604	7187
908.72	7228
908.836	7274
908.952	7289
909.068	7198
909.184	7308
909.3	7202
909.415	7244
909.531	7266
909.647	7152
909.762	7061
909.878	7103
909.993	7141
910.108	7057
910.224	7107
910.339	7122
910.454	6947
910.57	7004
910.685	6989
910.8	7171
910.915	7133
911.03	7012
911.145	6897
911.259	6840
911.374	6852
911.489	6802
911.604	6806
911.718	6696
911.833	6730
911.947	6639
912.062	6589
912.176	6696
912.291	6696
912.405	6696
912.519	6814
912.633	6814
912.748	6757
912.862	6631
912.976	6582
913.09	6532
913.204	6604
913.318	6631
913.431	6665
913.545	6658
913.659	6719
913.772	6582
913.886	6559
914	6506
914.113	6616
914.226	6631
914.34	6585
914.453	6448
914.566	6631
914.68	6559
914.793	6521
914.906	6403
915.019	6429
915.132	6395
915.245	6426
915.358	6399
915.47	6456
915.583	6467
915.696	6502
915.809	6528
915.921	6525
916.034	6464
916.146	6353
916.259	6342
916.371	6441
916.483	6456
916.595	6399
916.708	6422
916.82	6304
916.932	6407
917.044	6357
917.156	6372
917.268	6300
917.38	6323
917.491	6262
917.603	6331
917.715	6399
917.826	6418
917.938	6346
918.049	6232
918.161	6388
918.272	6410
918.384	6372
918.495	6334
918.606	6254
918.717	6182
918.828	6254
918.939	6258
919.05	6258
919.161	6281
919.272	6076
919.383	6136
919.494	6243
919.604	6429
919.715	6247
919.826	6197
919.936	6258
920.047	6357
920.157	6273
920.267	6475
920.378	6342
920.488	6258
920.598	6388
920.708	6544
920.818	6422
920.928	6513
921.038	6589
921.148	6574
921.258	6357
921.368	6311
921.477	6197
921.587	6190
921.697	6076
921.806	6175
921.916	6091
922.025	5942
922.134	5874
922.244	5935
922.353	5939
922.462	5832
922.571	5790
922.68	5722
922.789	5699
922.898	5707
923.007	5634
923.116	5672
923.224	5642
923.333	5665
923.442	5570
923.55	5566
923.659	5577
923.767	5596
923.876	5539
923.984	5577
924.092	5554
924.201	5532
924.309	5562
924.417	5558
924.525	5436
924.633	5452
924.741	6194
924.849	5357
924.956	5459
925.064	5379
925.172	5223
925.279	5334
925.387	5387
925.494	5337
925.602	5467
925.709	5357
925.816	5315
925.924	5307
926.031	5364
926.138	5242
926.245	5334
926.352	5201
926.459	5372
926.566	5292
926.673	5178
926.779	5117
926.886	5136
926.993	5067
927.099	5006
927.206	4961
927.312	4968
927.419	5006
927.525	4911
927.631	4999
927.737	4889
927.843	4809
927.95	4790
928.056	4828
928.162	4812
928.267	4831
928.373	5231
928.479	4839
928.585	4626
928.69	4778
928.796	4790
928.901	4675
929.007	4603
929.112	4630
929.218	4660
929.323	4592
929.428	4569
929.533	4649
929.638	4527
929.743	4535
929.848	4554
929.953	4440
930.058	4455
930.163	4352
930.267	4344
930.372	4428
930.477	4333
930.581	4470
930.685	4348
930.79	4280
930.894	4295
930.998	4276
931.103	4314
931.207	4105
931.311	4044
931.415	4032
931.519	3972
931.623	3953
