Data from glass_V78500241_2901.txt Node
Date: Wed Sep 01 19:34:36 CST 2021
User: usil
Spectrometer: V785-0024
Trigger mode: 0
Integration Time (sec): 4.000000E-1
Scans to average: 1
Nonlinearity correction enabled: false
Boxcar width: 0
Storing dark spectrum: false
XAxis mode: Wavelengths
Number of Pixels in Spectrum: 1024
>>>>>Begin Spectral Data<<<<<
801.071	3717
801.214	3728
801.356	3690
801.499	3736
801.641	3682
801.783	3789
801.926	3831
802.068	3846
802.211	3808
802.353	3850
802.496	3835
802.638	3884
802.78	3854
802.923	3915
803.065	3854
803.208	3816
803.35	3823
803.492	3888
803.635	3869
803.777	3762
803.919	3873
804.061	4139
804.204	3960
804.346	3949
804.488	3892
804.63	4029
804.773	3968
804.915	3991
805.057	4093
805.199	4036
805.341	4059
805.483	4124
805.626	4139
805.768	4147
805.91	4139
806.052	4162
806.194	4147
806.336	4268
806.478	4143
806.62	4112
806.762	4200
806.904	4238
807.046	4287
807.188	4154
807.33	4173
807.472	4234
807.614	4154
807.756	4246
807.898	4173
808.04	4207
808.182	4253
808.324	4249
808.465	4363
808.607	4459
808.749	4413
808.891	4424
809.033	4421
809.174	4367
809.316	4227
809.458	4207
809.6	4109
809.741	4116
809.883	4131
810.025	4200
810.166	4154
810.308	4158
810.45	4242
810.591	4215
810.733	4246
810.875	4478
811.016	4790
811.158	5079
811.299	5216
811.441	5201
811.582	5033
811.724	4729
811.865	4451
812.007	4413
812.148	4432
812.29	4405
812.431	4383
812.573	4329
812.714	4325
812.855	4352
812.997	4413
813.138	4421
813.279	4394
813.421	4329
813.562	4344
813.703	4314
813.845	4325
813.986	4249
814.127	4227
814.268	4238
814.41	4291
814.551	4234
814.692	4379
814.833	4261
814.974	4268
815.115	4280
815.256	4223
815.397	4204
815.539	4223
815.68	4188
815.821	4166
815.962	4291
816.103	4234
816.244	4234
816.385	4230
816.526	4215
816.666	4207
816.807	4063
816.948	4181
817.089	4128
817.23	4090
817.371	4059
817.512	3994
817.653	4010
817.793	3975
817.934	4017
818.075	4090
818.216	4090
818.356	4044
818.497	3983
818.638	3865
818.778	3892
818.919	3850
819.06	3857
819.2	3861
819.341	3831
819.481	3812
819.622	3880
819.762	3983
819.903	3926
820.043	3819
820.184	3804
820.324	3827
820.465	3888
820.605	3842
820.746	3846
820.886	3762
821.026	3918
821.167	3884
821.307	3953
821.447	3941
821.588	3911
821.728	3861
821.868	3880
822.008	3869
822.149	3907
822.289	3873
822.429	3762
822.569	3705
822.709	3766
822.849	3671
822.99	3698
823.13	3736
823.27	3770
823.41	3660
823.55	3717
823.69	3682
823.83	3720
823.97	3690
824.11	3549
824.25	3538
824.389	3629
824.529	3671
824.669	3610
824.809	3694
824.949	3717
825.089	3709
825.228	3679
825.368	3564
825.508	3572
825.648	3545
825.787	3545
825.927	3584
826.067	3587
826.206	3682
826.346	3755
826.485	3846
826.625	3827
826.765	3922
826.904	3808
827.044	3603
827.183	3485
827.323	3374
827.462	3450
827.601	3378
827.741	3401
827.88	3462
828.02	3378
828.159	3401
828.298	3477
828.437	3515
828.577	3447
828.716	3568
828.855	3462
828.994	3348
829.134	3336
829.273	3344
829.412	3294
829.551	3310
829.69	3336
829.829	3405
829.968	3496
830.107	3401
830.246	3412
830.385	3405
830.524	3325
830.663	3253
830.802	3233
830.941	3176
831.08	3176
831.219	3218
831.357	3256
831.496	3367
831.635	3176
831.774	3192
831.913	3165
832.051	3097
832.19	3127
832.329	3214
832.467	3142
832.606	3097
832.744	3116
832.883	3138
833.022	3154
833.16	3230
833.299	3218
833.437	3325
833.576	3355
833.714	3355
833.852	3397
833.991	3454
834.129	3454
834.267	3428
834.406	3374
834.544	3393
834.682	3428
834.821	3416
834.959	3568
835.097	3355
835.235	3473
835.373	3462
835.511	3507
835.65	3393
835.788	3481
835.926	3344
836.064	3378
836.202	3363
836.34	3564
836.478	3576
836.615	3511
836.753	3549
836.891	3614
837.029	3584
837.167	3572
837.305	3542
837.443	3511
837.58	3473
837.718	3580
837.856	3545
837.993	3488
838.131	3564
838.269	3580
838.406	3545
838.544	3511
838.681	3458
838.819	3428
838.956	3389
839.094	3370
839.231	3416
839.369	3469
839.506	3690
839.643	3595
839.781	3500
839.918	3462
840.055	3458
840.193	3496
840.33	3534
840.467	3561
840.604	3564
840.742	3770
840.879	3507
841.016	3523
841.153	3519
841.29	3724
841.427	3690
841.564	3660
841.701	3736
841.838	3660
841.975	3686
842.112	3717
842.249	3663
842.385	3633
842.522	3819
842.659	3698
842.796	3667
842.933	3690
843.069	3698
843.206	3701
843.343	3819
843.479	3717
843.616	3793
843.752	3633
843.889	3587
844.025	3781
844.162	3690
844.298	3827
844.435	3762
844.571	3755
844.708	3873
844.844	3937
844.98	4010
845.117	3979
845.253	3926
845.389	3861
845.525	3956
845.661	3941
845.798	3907
845.934	4006
846.07	3915
846.206	4006
846.342	4071
846.478	3983
846.614	3972
846.75	3934
846.886	3907
847.022	3998
847.158	3983
847.294	3949
847.429	4048
847.565	3926
847.701	4158
847.837	3857
847.972	3880
848.108	3998
848.244	3930
848.379	3812
848.515	3812
848.65	3770
848.786	3835
848.921	3854
849.057	3911
849.192	3953
849.328	3892
849.463	3907
849.598	3842
849.734	3819
849.869	3808
850.004	3778
850.14	3812
850.275	3800
850.41	3751
850.545	3770
850.68	3740
850.815	3835
850.95	3770
851.085	3911
851.22	3865
851.355	3812
851.49	3747
851.625	3774
851.76	3751
851.895	3728
852.03	3713
852.165	3819
852.299	3819
852.434	3869
852.569	3846
852.703	3823
852.838	3888
852.973	3987
853.107	3964
853.242	3899
853.376	3800
853.511	3778
853.645	3785
853.78	3869
853.914	3892
854.048	3899
854.183	3884
854.317	3968
854.451	4074
854.585	3907
854.72	3922
854.854	4055
854.988	3899
855.122	3994
855.256	3915
855.39	4010
855.524	4059
855.658	4116
855.792	4090
855.926	4112
856.06	4109
856.194	4234
856.327	4143
856.461	4097
856.595	4063
856.729	4120
856.862	4227
856.996	4207
857.13	4253
857.263	4325
857.397	4333
857.53	4276
857.664	4310
857.797	4344
857.931	4436
858.064	4322
858.197	4436
858.331	4352
858.464	4371
858.597	4299
858.731	4367
858.864	4421
858.997	4424
859.13	4455
859.263	4485
859.396	4599
859.529	4538
859.662	4512
859.795	4474
859.928	4592
860.061	4687
860.194	4733
860.327	4641
860.46	4584
860.592	4706
860.725	4725
860.858	4755
860.99	4706
861.123	4637
861.256	4656
861.388	4759
861.521	5292
861.653	4691
861.786	4706
861.918	4744
862.05	4778
862.183	4793
862.315	4900
862.447	4892
862.58	4896
862.712	4759
862.844	4721
862.976	4835
863.108	4820
863.24	5147
863.372	4782
863.504	4881
863.636	4911
863.768	4976
863.9	4919
864.032	4923
864.164	4904
864.296	5003
864.428	5102
864.559	5090
864.691	5098
864.823	5117
864.954	5105
865.086	5117
865.217	5086
865.349	5102
865.48	5128
865.612	5181
865.743	5273
865.875	5166
866.006	5189
866.137	5189
866.269	5201
866.4	5227
866.531	5181
866.662	5258
866.793	5265
866.924	5227
867.055	5322
867.186	5360
867.317	5265
867.448	5296
867.579	5383
867.71	5337
867.841	5360
867.972	5402
868.103	5459
868.233	5425
868.364	5474
868.495	5524
868.625	5608
868.756	5729
868.886	5672
869.017	5672
869.147	5855
869.278	5863
869.408	5783
869.539	5855
869.669	5897
869.799	5847
869.929	5950
870.06	5942
870.19	6155
870.32	6144
870.45	6262
870.58	6361
870.71	6380
870.84	6479
870.97	6380
871.1	6414
871.23	6566
871.36	6620
871.489	6627
871.619	6730
871.749	6772
871.879	6856
872.008	6951
872.138	6970
872.267	7015
872.397	6970
872.526	6981
872.656	7038
872.785	7145
872.915	7335
873.044	7460
873.173	7597
873.303	7571
873.432	7674
873.561	7883
873.69	7932
873.819	7993
873.948	8123
874.077	8199
874.206	8279
874.335	8446
874.464	8655
874.593	8906
874.722	8925
874.851	9047
874.979	9203
875.108	9256
875.237	9450
875.365	9462
875.494	9580
875.623	9785
875.751	9770
875.88	10002
876.008	10029
876.136	10310
876.265	10497
876.393	10710
876.521	10691
876.65	10748
876.778	10904
876.906	10873
877.034	10923
877.162	10991
877.29	11105
877.418	11330
877.546	11326
877.674	11296
877.802	11547
877.93	11558
878.058	11512
878.185	11463
878.313	11539
878.441	11623
878.568	11688
878.696	11771
878.824	11745
878.951	11942
879.079	12003
879.206	12057
879.333	12060
879.461	12019
879.588	12015
879.715	12022
879.842	12152
879.97	11992
880.097	11824
880.224	11821
880.351	11942
880.478	11855
880.605	11840
880.732	11885
880.859	11992
880.986	11832
881.112	11764
881.239	11638
881.366	11554
881.493	11566
881.619	11505
881.746	11493
881.872	11467
881.999	11433
882.125	11452
882.252	11516
882.378	11414
882.505	11455
882.631	11353
882.757	11250
882.883	11258
883.01	11261
883.136	11174
883.262	11147
883.388	11090
883.514	11090
883.64	11151
883.766	11128
883.892	11018
884.018	11041
884.143	11117
884.269	10995
884.395	10839
884.52	10694
884.646	10816
884.772	10660
884.897	10664
885.023	10637
885.148	10691
885.274	10733
885.399	10641
885.524	10573
885.65	10588
885.775	10527
885.9	10500
886.025	10588
886.15	10436
886.275	10451
886.4	10382
886.525	10382
886.65	10459
886.775	10337
886.9	10432
887.025	10512
887.149	10306
887.274	10173
887.399	10173
887.523	10116
887.648	10078
887.773	10078
887.897	10219
888.021	10169
888.146	10120
888.27	10223
888.395	10223
888.519	10207
888.643	10082
888.767	10166
888.891	10071
889.015	9968
889.139	10040
889.263	9949
889.387	10105
889.511	10048
889.635	10093
889.759	9983
889.883	9956
890.006	9956
890.13	10002
890.254	9953
890.377	9895
890.501	9842
890.624	9918
890.748	9854
890.871	9732
890.995	9728
891.118	9667
891.241	9743
891.364	9732
891.488	9759
891.611	9732
891.734	9713
891.857	9717
891.98	9641
892.103	9701
892.226	9629
892.349	9622
892.471	9431
892.594	9584
892.717	9557
892.839	9648
892.962	9614
893.085	9667
893.207	9576
893.33	9504
893.452	9500
893.575	9580
893.697	9500
893.819	9610
893.941	9549
894.064	9568
894.186	9386
894.308	9382
894.43	9523
894.552	9557
894.674	9485
894.796	9317
894.918	9393
895.04	9260
895.161	9348
895.283	9287
895.405	9192
895.526	9302
895.648	9211
895.769	9146
895.891	9298
896.012	9180
896.134	9161
896.255	9146
896.376	9104
896.498	9081
896.619	9081
896.74	9116
896.861	9058
896.982	9207
897.103	9294
897.224	9127
897.345	9001
897.466	8902
897.587	8952
897.708	9032
897.828	8975
897.949	8960
898.07	8796
898.19	8887
898.311	9020
898.431	8826
898.552	8895
898.672	8914
898.792	8929
898.913	8883
899.033	8773
899.153	8712
899.273	8606
899.393	8716
899.513	8731
899.633	8746
899.753	8686
899.873	8655
899.993	8705
900.113	8701
900.232	8735
900.352	8632
900.472	8579
900.591	8549
900.711	8476
900.83	8473
900.95	8629
901.069	8590
901.189	8556
901.308	8400
901.427	8362
901.546	8423
901.665	8400
901.784	8476
901.904	8370
902.023	8263
902.141	8221
902.26	8164
902.379	8259
902.498	8142
902.617	8195
902.735	8256
902.854	8298
902.973	8294
903.091	8069
903.21	8115
903.328	8138
903.446	8077
903.565	8081
903.683	8043
903.801	8077
903.919	8096
904.038	8031
904.156	8005
904.274	8058
904.392	7993
904.51	7974
904.627	8008
904.745	8043
904.863	8031
904.981	7928
905.098	7871
905.216	7894
905.334	7868
905.451	7849
905.569	7837
905.686	7841
905.803	7909
905.921	7795
906.038	7890
906.155	7792
906.272	7662
906.389	7753
906.506	7643
906.623	7632
906.74	7556
906.857	7563
906.974	7476
907.091	7632
907.208	7693
907.324	7662
907.441	7521
907.557	7350
907.674	7381
907.79	7362
907.907	7384
908.023	7464
908.139	7472
908.256	7434
908.372	7301
908.488	7324
908.604	7217
908.72	7225
908.836	7213
908.952	7259
909.068	7236
909.184	7320
909.3	7156
909.415	7308
909.531	7240
909.647	7099
909.762	7095
909.878	7031
909.993	7069
910.108	7053
910.224	7072
910.339	7072
910.454	6951
910.57	6951
910.685	6939
910.8	7156
910.915	7023
911.03	7012
911.145	6909
911.259	6783
911.374	6840
911.489	6840
911.604	6760
911.718	6741
911.833	6688
911.947	6627
912.062	6536
912.176	6692
912.291	6711
912.405	6669
912.519	6791
912.633	6818
912.748	6783
912.862	6631
912.976	6627
913.09	6544
913.204	6608
913.318	6612
913.431	6597
913.545	6684
913.659	6665
913.772	6616
913.886	6494
914	6532
914.113	6593
914.226	6612
914.34	6525
914.453	6483
914.566	6540
914.68	6528
914.793	6502
914.906	6410
915.019	6388
915.132	6372
915.245	6372
915.358	6407
915.47	6445
915.583	6407
915.696	6422
915.809	6471
915.921	6536
916.034	6331
916.146	6365
916.259	6365
916.371	6403
916.483	6422
916.595	6338
916.708	6399
916.82	6342
916.932	6350
917.044	6357
917.156	6388
917.268	6311
917.38	6266
917.491	6292
917.603	6258
917.715	6372
917.826	6350
917.938	6327
918.049	6243
918.161	6323
918.272	6357
918.384	6361
918.495	6331
918.606	6228
918.717	6167
918.828	6251
918.939	6220
919.05	6159
919.161	6235
919.272	6076
919.383	6205
919.494	6247
919.604	6361
919.715	6262
919.826	6216
919.936	6247
920.047	6266
920.157	6220
920.267	6441
920.378	6300
920.488	6251
920.598	6460
920.708	6521
920.818	6486
920.928	6391
921.038	6597
921.148	6555
921.258	6311
921.368	6315
921.477	6178
921.587	6072
921.697	6057
921.806	6091
921.916	6068
922.025	5908
922.134	5904
922.244	5893
922.353	5931
922.462	5821
922.571	5817
922.68	5680
922.789	5722
922.898	5691
923.007	5646
923.116	5668
923.224	5668
923.333	5642
923.442	5524
923.55	5566
923.659	5532
923.767	5653
923.876	5539
923.984	5551
924.092	5471
924.201	5524
924.309	5520
924.417	5558
924.525	5478
924.633	5505
924.741	6072
924.849	5311
924.956	5436
925.064	5345
925.172	5299
925.279	5265
925.387	5303
925.494	5322
925.602	5364
925.709	5315
925.816	5303
925.924	5261
926.031	5353
926.138	5231
926.245	5315
926.352	5242
926.459	5353
926.566	5322
926.673	5220
926.779	5159
926.886	5056
926.993	5010
927.099	4923
927.206	4949
927.312	4919
927.419	5022
927.525	4984
927.631	4987
927.737	4831
927.843	4809
927.95	4790
928.056	4824
928.162	4767
928.267	4816
928.373	5311
928.479	4839
928.585	4664
928.69	4721
928.796	4778
928.901	4641
929.007	4550
929.112	4660
929.218	4634
929.323	4577
929.428	4561
929.533	4698
929.638	4443
929.743	4535
929.848	4462
929.953	4508
930.058	4428
930.163	4306
930.267	4280
930.372	4394
930.477	4272
930.581	4462
930.685	4333
930.79	4227
930.894	4272
930.998	4200
931.103	4371
931.207	4078
931.311	4048
931.415	4036
931.519	3892
931.623	3968
